Data from hue_320_FLMS001491_87.txt Node
Date: Mon Feb 06 15:47:50 GMT 2017
User: dcchb
Spectrometer: FLMS00149
Trigger mode: 0
Integration Time (sec): 2.000000E-2
Scans to average: 10
Electric dark correction enabled: true
Nonlinearity correction enabled: false
Boxcar width: 0
XAxis mode: Wavelengths
Number of Pixels in Spectrum: 2048
>>>>>Begin Spectral Data<<<<<
341.393	-5.96
341.776	-5.96
342.16	-5.96
342.543	-60.87
342.927	-76.69
343.31	-79.18
343.693	-82.12
344.077	-73.3
344.46	-51.16
344.843	-54.32
345.226	-47.77
345.61	-12.74
345.993	-18.62
346.376	10.08
346.759	5.79
347.142	21.38
347.525	34.49
347.908	65
348.291	85.56
348.674	96.64
349.057	100.25
349.44	124.43
349.823	143.64
350.206	137.31
350.588	199.68
350.971	230.42
351.354	230.64
351.737	234.03
352.119	249.63
352.502	267.48
352.884	269.06
353.267	273.35
353.65	269.74
354.032	297.99
354.414	313.81
354.797	305.67
355.179	315.16
355.562	327.59
355.944	320.13
356.326	334.14
356.709	320.13
357.091	309.51
357.473	356.29
357.855	341.38
358.238	338.66
358.62	326.01
359.002	340.25
359.384	347.25
359.766	335.73
360.148	320.58
360.53	333.92
360.912	346.12
361.294	341.6
361.676	337.99
362.057	333.24
362.439	326.01
362.821	349.28
363.203	334.82
363.584	310.64
363.966	323.52
364.348	325.56
364.729	321.49
365.111	323.07
365.493	318.55
365.874	297.99
366.256	301.6
366.637	313.58
367.019	318.32
367.4	318.55
367.781	316.07
368.163	340.7
368.544	294.6
368.925	301.83
369.306	310.64
369.688	331.21
370.069	301.15
370.45	309.96
370.831	308.61
371.212	324.65
371.593	304.09
371.974	337.31
372.355	288.5
372.736	322.17
373.117	312
373.498	308.83
373.879	328.04
374.26	308.83
374.641	315.39
375.021	316.07
375.402	320.13
375.783	326.69
376.163	340.25
376.544	322.17
376.925	325.1
377.305	320.36
377.686	325.33
378.066	309.74
378.447	341.15
378.827	300.92
379.208	328.72
379.588	333.24
379.968	336.4
380.349	347.02
380.729	324.65
381.109	339.12
381.489	335.5
381.87	329.62
382.25	331.43
382.63	336.86
383.01	339.79
383.39	349.28
383.77	325.56
384.15	329.62
384.53	335.73
384.91	336.18
385.29	358.32
385.67	361.26
386.049	343.64
386.429	355.39
386.809	336.86
387.189	340.02
387.568	353.58
387.948	344.31
388.328	376.4
388.707	343.41
389.087	362.62
389.466	341.38
389.846	352.45
390.225	379.34
390.605	355.39
390.984	342.28
391.363	348.83
391.743	355.16
392.122	372.56
392.501	382.73
392.881	367.59
393.26	378.21
393.639	376.85
394.018	379.57
394.397	380.47
394.776	378.21
395.155	383.86
395.534	390.19
395.913	380.7
396.292	387.7
396.671	374.14
397.05	394.93
397.429	380.92
397.808	394.48
398.186	389.28
398.565	380.7
398.944	397.42
399.323	399
399.701	405.33
400.08	402.16
400.458	400.58
400.837	410.98
401.215	396.29
401.594	389.96
401.972	415.05
402.351	426.57
402.729	408.72
403.107	393.8
403.486	427.93
403.864	432.9
404.242	418.89
404.62	429.28
404.999	433.8
405.377	424.76
405.755	444.42
406.133	441.71
406.511	443.75
406.889	466.34
407.267	440.58
407.645	435.16
408.023	454.14
408.401	474.93
408.779	469.51
409.156	454.14
409.534	474.25
409.912	453.69
410.29	466.12
410.667	463.41
411.045	502.5
411.422	477.87
411.8	517.64
412.178	511.54
412.555	526.91
412.933	537.53
413.31	550.64
413.687	525.78
414.065	515.16
414.442	537.3
414.819	550.18
415.197	568.94
415.574	579.79
415.951	568.71
416.328	565.1
416.705	557.87
417.082	570.07
417.46	575.49
417.837	603.29
418.214	580.92
418.591	612.33
418.967	599.45
419.344	610.29
419.721	628.37
420.098	658.2
420.475	629.28
420.852	668.37
421.228	642.38
421.605	660.69
421.982	656.17
422.358	666.56
422.735	689.16
423.111	676.28
423.488	680.8
423.864	719.22
424.241	721.48
424.617	718.99
424.994	716.28
425.37	728.71
425.746	721.03
426.123	727.58
426.499	724.64
426.875	761.48
427.251	742.04
427.627	754.92
428.003	780.01
428.379	798.76
428.756	764.87
429.132	818.42
429.507	791.98
429.883	799.44
430.259	801.02
430.635	860.91
431.011	848.03
431.387	851.87
431.763	870.85
432.138	876.28
432.514	887.8
432.89	898.42
433.265	884.41
433.641	907.24
434.016	905.65
434.392	904.98
434.767	952.43
435.143	910.63
435.518	939.33
435.894	930.74
436.269	970.06
436.644	991.53
437.02	974.13
437.395	993.11
437.77	1003.5
438.145	1002.37
438.52	1011.87
438.895	1026.78
439.271	1043.05
439.646	1044.41
440.021	1054.12
440.395	1052.09
440.77	1034.01
441.145	1082.6
441.52	1062.26
441.895	1064.07
442.27	1076.27
442.645	1089.6
443.019	1111.98
443.394	1093.9
443.769	1120.56
444.143	1100.23
444.518	1101.36
444.892	1114.46
445.267	1129.6
445.641	1120.56
446.016	1126.21
446.39	1169.15
446.764	1135.7
447.139	1157.4
447.513	1144.07
447.887	1142.26
448.262	1145.2
448.636	1157.17
449.01	1172.54
449.384	1178.42
449.758	1191.75
450.132	1203.05
450.506	1215.02
450.88	1214.8
451.254	1207.79
451.628	1215.48
452.002	1222.93
452.376	1252.99
452.75	1231.07
453.123	1235.14
453.497	1244.85
453.871	1239.66
454.244	1273.33
454.618	1263.16
454.992	1315.13
455.365	1302.71
455.739	1308.81
456.112	1303.84
456.486	1324.85
456.859	1325.3
457.232	1332.99
457.606	1347.22
457.979	1394.23
458.352	1392.87
458.725	1396.71
459.099	1373.21
459.472	1424.51
459.845	1445.07
460.218	1435.58
460.591	1433.78
460.964	1447.11
461.337	1492.98
461.71	1456.83
462.083	1544.96
462.456	1506.32
462.829	1488.24
463.201	1531.4
463.574	1542.25
463.947	1536.82
464.32	1583.83
464.692	1561.23
465.065	1571.4
465.438	1602.13
465.81	1617.95
466.183	1616.14
466.555	1641.91
466.928	1664.96
467.3	1647.78
467.672	1680.1
468.045	1699.08
468.417	1708.57
468.789	1716.48
469.161	1738.17
469.534	1747.89
469.906	1765.52
470.278	1788.79
470.65	1802.35
471.022	1820.88
471.394	1887.55
471.766	1841.22
472.138	1854.78
472.51	1933.2
472.882	1917.83
473.253	1961.45
473.625	1970.94
473.997	1980.88
474.369	2006.42
474.74	2000.54
475.112	2049.8
475.484	2071.05
475.855	2092.06
476.227	2119.18
476.598	2167.99
476.97	2179.74
477.341	2207.77
477.713	2231.95
478.084	2235.79
478.455	2274.88
478.827	2313.07
479.198	2337.93
479.569	2328.44
479.94	2421.77
480.311	2391.04
480.682	2424.48
481.053	2487.08
481.424	2541.54
481.795	2561.66
482.166	2558.94
482.537	2575.21
482.908	2639.39
483.279	2656.57
483.65	2641.43
484.021	2707.64
484.391	2765.94
484.762	2734.76
485.133	2777.92
485.503	2825.38
485.874	2849.11
486.244	2878.26
486.615	2921.42
486.985	2914.19
487.356	2985.83
487.726	3010.91
488.097	3047.07
488.467	3069.67
488.837	3129.32
489.207	3139.72
489.578	3179.72
489.948	3171.81
490.318	3220.4
490.688	3226.5
491.058	3274.63
491.428	3268.76
491.798	3330
492.168	3399.37
492.538	3339.71
492.908	3400.96
493.278	3405.02
493.648	3441.63
494.017	3480.28
494.387	3498.35
494.757	3563.21
495.126	3568.41
495.496	3589.2
495.866	3639.37
496.235	3616.77
496.605	3668.07
496.974	3675.98
497.344	3753.71
497.713	3706.03
498.082	3742.87
498.452	3756.65
498.821	3788.74
499.19	3769.31
499.559	3809.76
499.928	3826.48
500.298	3862.19
500.667	3894.73
501.036	3902.86
501.405	3921.62
501.774	3895.86
502.143	3930.66
502.512	3951
502.88	3966.59
503.249	3995.97
503.618	4009.53
503.987	3999.81
504.356	4031.22
504.724	4061.73
505.093	4038.45
505.462	4070.09
505.83	4040.71
506.199	4129.3
506.567	4140.37
506.936	4168.17
507.304	4201.39
507.672	4204.1
508.041	4186.02
508.409	4214.04
508.777	4256.3
509.145	4292.01
509.514	4255.17
509.882	4274.61
510.25	4261.5
510.618	4315.06
510.986	4318.45
511.354	4372.68
511.722	4405.68
512.09	4426.47
512.458	4410.87
512.826	4386.24
513.193	4440.48
513.561	4478.22
513.929	4465.79
514.297	4523.86
514.664	4497.88
515.032	4509.85
515.4	4566.12
515.767	4558.21
516.135	4548.5
516.502	4539.68
516.869	4619.45
517.237	4593.69
517.604	4618.32
517.972	4616.74
518.339	4658.32
518.706	4656.97
519.073	4656.74
519.44	4661.26
519.808	4724.76
520.175	4701.49
520.542	4710.75
520.909	4762.5
521.276	4807.25
521.643	4793.69
522.009	4834.36
522.376	4831.43
522.743	4864.42
523.11	4898.77
523.477	4931.31
523.843	4971.08
524.21	5003.17
524.577	5041.14
524.943	5012.66
525.31	5058.54
525.676	5074.81
526.043	5068.03
526.409	5154.36
526.776	5207.46
527.142	5201.13
527.508	5186.67
527.874	5195.94
528.241	5265.99
528.607	5233.68
528.973	5330.4
529.339	5286.78
529.705	5368.36
530.071	5347.8
530.437	5429.38
530.803	5460.11
531.169	5494.46
531.535	5482.93
531.901	5467.12
532.267	5469.83
532.632	5534.46
532.998	5565.64
533.364	5631.41
533.73	5568.13
534.095	5651.29
534.461	5630.73
534.826	5709.14
535.192	5775.58
535.557	5758.86
535.923	5771.97
536.288	5784.17
536.653	5830.5
537.019	5788.24
537.384	5864.39
537.749	5816.94
538.114	5899.87
538.479	5912.98
538.845	5949.82
539.21	5902.58
539.575	5958.63
539.94	6009.25
540.305	6065.74
540.67	6038.4
541.034	6036.14
541.399	6126.31
541.764	6143.93
542.129	6146.19
542.494	6151.62
542.858	6191.16
543.223	6173.99
543.587	6296.25
543.952	6235.46
544.316	6287.43
544.681	6307.55
545.045	6336.7
545.41	6382.57
545.774	6402.68
546.138	6392.29
546.503	6403.36
546.867	6405.85
547.231	6493.08
547.595	6446.53
547.959	6532.17
548.324	6526.52
548.688	6515
549.052	6604.04
549.416	6553.19
549.779	6594.54
550.143	6631.61
550.507	6655.79
550.871	6697.14
551.235	6650.59
551.599	6718.16
551.962	6753.41
552.326	6809
552.689	6809
553.053	6774.65
553.417	6827.31
553.78	6891.03
554.143	6884.48
554.507	6922.45
554.87	6923.35
555.234	7011.03
555.597	6871.6
555.96	6959.28
556.323	6986.62
556.686	7030.24
557.05	7124.93
557.413	7157.92
557.776	7134.42
558.139	7124.02
558.502	7117.24
558.865	7210.35
559.228	7199.05
559.59	7270.46
559.953	7252.61
560.316	7334.41
560.679	7216.67
561.041	7299.38
561.404	7399.95
561.767	7427.97
562.129	7342.77
562.492	7452.37
562.854	7391.36
563.217	7431.36
563.579	7508.42
563.941	7565.82
564.304	7492.83
564.666	7616.66
565.028	7639.94
565.39	7662.31
565.753	7684.23
566.115	7722.42
566.477	7750.45
566.839	7752.25
567.201	7749.09
567.563	7772.14
567.925	7836.09
568.287	7899.37
568.648	7895.07
569.01	7924.23
569.372	7983.21
569.734	7986.6
570.095	8061.85
570.457	8102.98
570.819	8035.64
571.18	8100.27
571.542	8189.76
571.903	8142.3
572.265	8263.88
572.626	8255.97
572.987	8297.32
573.349	8339.36
573.71	8395.17
574.071	8423.65
574.432	8486.25
574.794	8563.31
575.155	8564.44
575.516	8629.07
575.877	8631.1
576.238	8749.06
576.599	8798.55
576.96	8879.91
577.32	9006.68
577.681	9026.12
578.042	9166.23
578.403	9184.53
578.763	9276.51
579.124	9326.9
579.485	9435.83
579.845	9577.74
580.206	9615.71
580.566	9712.65
580.927	9817.28
581.287	9978.64
581.648	10036.94
582.008	10250.49
582.368	10278.74
582.728	10488.9
583.089	10573.65
583.449	10660.65
583.809	10909.23
584.169	11066.74
584.529	11151.03
584.889	11425.6
585.249	11485.04
585.609	11688.65
585.969	11913.73
586.329	12087.73
586.688	12365.47
587.048	12479.59
587.408	12645.23
587.768	12948.73
588.127	13047.93
588.487	13272.79
588.846	13571.31
589.206	13712.32
589.565	14023.95
589.925	14274.34
590.284	14502.81
590.643	14759.98
591.003	15073.19
591.362	15337.14
591.721	15564.03
592.08	15886.73
592.44	16100.96
592.799	16437
593.158	16647.16
593.517	16917.89
593.876	17311.32
594.235	17628.83
594.593	17758.54
594.952	18110.4
595.311	18328.47
595.67	18688.24
596.029	19016.82
596.387	19330.93
596.746	19645.05
597.104	19880.75
597.463	20037.13
597.822	20460.85
598.18	20654.06
598.538	20895.64
598.897	21279.36
599.255	21392.12
599.613	21962.5
599.972	22087.7
600.33	22512.54
600.688	22603.16
601.046	23016.71
601.404	23343.03
601.762	23501.67
602.12	23933.07
602.478	24187.98
602.836	24370.57
603.194	24470.01
603.552	24832.93
603.91	25057.34
604.268	25363.99
604.625	25539.81
604.983	25890.31
605.341	26074.26
605.698	26437.86
606.056	26750.62
606.413	26863.39
606.771	27222.93
607.128	27424.5
607.485	27512.86
607.843	27811.16
608.2	28158.5
608.557	28457.02
608.914	28577.24
609.272	28865.6
609.629	29139.71
609.986	29400.72
610.343	29391.68
610.7	29925
611.057	29981.27
611.414	30149.86
611.771	30306.01
612.127	30658.32
612.484	30735.15
612.841	31029.83
613.198	31091.98
613.554	31231.41
613.911	31644.73
614.267	31688.8
614.624	31928.34
614.98	32091.05
615.337	32395.67
615.693	32490.81
616.05	32530.81
616.406	32769.45
616.762	32970.12
617.118	33053.51
617.475	33298.93
617.831	33451.01
618.187	33450.11
618.543	33736.88
618.899	34139.58
619.255	34011.22
619.611	34134.38
619.967	34446.69
620.323	34500.03
620.678	34518.33
621.034	34625.45
621.39	34677.2
621.746	34864.54
622.101	35116.28
622.457	34934.82
622.812	35230.63
623.168	35231.76
623.523	35379.78
623.879	35725.3
624.234	35331.19
624.589	35664.51
624.945	35759.43
625.3	35809.14
625.655	35954.45
626.01	36000.32
626.365	36093.66
626.72	36098.4
627.075	36091.17
627.43	36299.07
627.785	36221.34
628.14	36294.1
628.495	36526.41
628.85	36501.1
629.205	36380.2
629.559	36612.06
629.914	36515.34
630.269	36602.12
630.623	36597.15
630.978	36619.52
631.332	36846.86
631.687	36854.99
632.041	36656.35
632.396	36908.55
632.75	36739.29
633.104	36939.06
633.459	36727.54
633.813	36813.18
634.167	36748.33
634.521	36966.63
634.875	36903.13
635.229	36863.13
635.583	36787.42
635.937	36824.03
636.291	36817.7
636.645	36833.07
636.999	36798.95
637.352	36824.26
637.706	36753.75
638.06	36911.71
638.413	36834.43
638.767	36880.75
639.121	36923.24
639.474	36755.56
639.828	36784.03
640.181	36809.34
640.534	36865.16
640.888	36782.68
641.241	36657.48
641.594	36689.57
641.947	36880.53
642.301	36711.49
642.654	36825.84
643.007	36762.56
643.36	36783.13
643.713	36744.94
644.066	36850.47
644.419	36661.78
644.771	36502.46
645.124	36128.23
645.477	36160.77
645.83	35874.23
646.182	35803.27
646.535	35625.42
646.888	35697.06
647.24	35730.95
647.593	35760.56
647.945	35556.27
648.298	35532.99
648.65	35491.19
649.002	35408.48
649.355	35600.79
649.707	35558.75
650.059	35735.47
650.411	36131.85
650.763	36189.02
651.115	36671.04
651.467	36527.99
651.819	36371.39
652.171	36462.69
652.523	36208.23
652.875	36333.65
653.227	36113.32
653.578	36409.58
653.93	36252.75
654.282	36101.56
654.633	36020.89
654.985	36185.86
655.337	36151.51
655.688	36181.11
656.039	36422.23
656.391	36066.54
656.742	36050.72
657.094	36210.71
657.445	36275.12
657.796	36227.21
658.147	36071.06
658.498	36065.86
658.849	36142.92
659.2	36132.3
659.551	36057.27
659.902	36187.21
660.253	35955.58
660.604	36107.44
660.955	36023.6
661.306	36039.65
661.656	35997.84
662.007	35977.5
662.358	36145.63
662.708	36074.22
663.059	36016.14
663.409	35832.19
663.76	36050.72
664.11	35945.41
664.461	35921.68
664.811	35985.18
665.161	35909.93
665.511	35944.28
665.862	36032.19
666.212	36059.31
666.562	36003.49
666.912	35952.42
667.262	35892.08
667.612	36010.49
667.962	36005.52
668.312	35903.38
668.662	36017.27
669.011	35996.48
669.361	35890.95
669.711	35887.11
670.06	35824.96
670.41	35825.64
670.76	35800.56
671.109	35934.79
671.459	35717.17
671.808	35742.25
672.157	35748.81
672.507	35562.14
672.856	35613.89
673.205	35716.26
673.554	35755.13
673.904	35563.73
674.253	35854.11
674.602	35712.42
674.951	35319.44
675.3	34999.22
675.649	35628.36
675.998	35605.98
676.346	35612.76
676.695	35692.31
677.044	35303.85
677.393	35528.7
677.741	35573.22
678.09	35443.5
678.438	35377.52
678.787	35409.83
679.135	35408.48
679.484	35315.37
679.832	35467.91
680.181	35179.78
680.529	35238.99
680.877	35116.96
681.225	35108.37
681.573	35277.86
681.922	34958.32
682.27	35029.05
682.618	34971.2
682.966	34964.87
683.314	34995.38
683.661	34856.17
684.009	34823.41
684.357	34666.57
684.705	34632.22
685.053	34636.07
685.4	34537.76
685.748	34444.89
686.095	34403.53
686.443	34326.7
686.79	34289.64
687.138	34453.7
687.485	34273.36
687.832	34181.39
688.18	34283.99
688.527	34035.18
688.874	34068.4
689.221	33893.94
689.568	33790.44
689.915	33791.57
690.262	33732.36
690.609	33628.86
690.956	33699.37
691.303	33507.28
691.65	33448.3
691.997	33457.11
692.344	33165.14
692.69	33187.74
693.037	33149.1
693.383	32923.34
693.73	33067.07
694.077	32943.91
694.423	32923.8
694.769	32858.03
695.116	32706.63
695.462	32688.77
695.808	32514.31
696.155	32589.11
696.501	32336.47
696.847	32376.24
697.193	32131.5
697.539	32292.85
697.885	32030.26
698.231	32048.34
698.577	31993.88
698.923	31945.06
699.269	31802.02
699.614	31557.28
699.96	31549.14
700.306	31529.48
700.651	31437.28
700.997	31330.84
701.342	31391.86
701.688	31296.95
702.033	31183.05
702.379	31196.84
702.724	31092.66
703.069	31110.74
703.415	30752.55
703.76	30854.02
704.105	30847.01
704.45	30660.35
704.795	30526.57
705.14	30458.78
705.485	30434.82
705.83	30224.88
706.175	30232.34
706.52	30318.67
706.865	30204.54
707.209	30115.51
707.554	29984.89
707.899	29994.38
708.243	29871.22
708.588	29795.06
708.932	29606.37
709.277	29722.98
709.621	29649.53
709.966	29365.47
710.31	29526.6
710.654	29211.58
710.998	29297.45
711.342	29312.82
711.687	29200.5
712.031	29042.99
712.375	29026.5
712.719	28967.52
713.063	28952.6
713.407	28962.77
713.75	28848.2
714.094	28840.96
714.438	28612.27
714.782	28805.03
715.125	28669.44
715.469	28638.03
715.812	28490.47
716.156	28336.12
716.499	28399.17
716.843	28454.08
717.186	28312.17
717.53	28454.99
717.873	28419.96
718.216	28255.67
718.559	28058.84
718.902	27890.03
719.246	28049.35
719.589	28104.71
719.932	27850.03
720.275	27862.69
720.617	27767.09
720.96	27799.64
721.303	27705.63
721.646	27730.94
721.989	27589.7
722.331	27688.23
722.674	27546.31
723.016	27552.86
723.359	27492.3
723.701	27540.43
724.044	27342.02
724.386	27184.74
724.729	27335.92
725.071	27224.96
725.413	27185.64
725.755	27265.41
726.097	27085.76
726.439	27016.61
726.782	27021.58
727.124	27064.97
727.465	26906.33
727.807	26907
728.149	26802.6
728.491	26752.21
728.833	26853.9
729.175	26756.5
729.516	26650.97
729.858	26704.75
730.199	26676.28
730.541	26662.27
730.882	26575.04
731.224	26569.39
731.565	26458.43
731.906	26486.45
732.248	26556.96
732.589	26189.28
732.93	26282.84
733.271	26261.6
733.612	26247.13
733.953	26290.07
734.294	26025.45
734.635	26179.79
734.976	26157.19
735.317	25978.44
735.658	25986.58
735.999	26020.7
736.339	25960.36
736.68	26056.41
737.021	25928.05
737.361	25739.58
737.702	25954.94
738.042	25862.06
738.383	25749.52
738.723	25701.84
739.063	25641.05
739.404	25685.34
739.744	25549.53
740.084	25579.36
740.424	25596.98
740.764	25519.24
741.104	25483.31
741.444	25363.54
741.784	25296.43
742.124	25404.22
742.464	25364.45
742.804	25189.99
743.143	25193.38
743.483	25295.75
743.823	25137.56
744.162	25144.11
744.502	25190.89
744.841	25128.75
745.181	25167.16
745.52	24934.63
745.86	24928.3
746.199	25027.28
746.538	24875.42
746.877	25000.61
747.216	24968.98
747.556	24867.51
747.895	24840.84
748.234	24754.29
748.573	24674.07
748.911	24693.5
749.25	24702.77
749.589	24547.74
749.928	24626.39
750.267	24542.55
750.605	24420.06
750.944	24521.53
751.283	24463.23
751.621	24356.56
751.96	24304.59
752.298	24286.73
752.636	24213.29
752.975	24157.25
753.313	23960.42
753.651	24152.95
753.989	24113.86
754.327	24046.97
754.666	23757.71
755.004	23873.64
755.342	23857.37
755.679	23903.69
756.017	23697.15
756.355	23748.67
756.693	23623.02
757.031	23653.98
757.368	23489.47
757.706	23539.64
758.044	23425.29
758.381	23493.31
758.719	23326.76
759.056	23364.27
759.394	23247.89
759.731	23112.98
760.068	23037.73
760.405	23058.97
760.743	22942.36
761.08	23053.77
761.417	22818.07
761.754	22740.11
762.091	22774.91
762.428	22736.49
762.765	22548.02
763.102	22642.71
763.438	22657.85
763.775	22432.77
764.112	22367.91
764.449	22358.2
764.785	22382.6
765.122	22110.52
765.458	21999.56
765.795	22062.61
766.131	21980.13
766.467	21902.84
766.804	21850.41
767.14	21725.22
767.476	21727.25
767.812	21634.83
768.148	21635.5
768.485	21551.44
768.821	21396.64
769.157	21414.95
769.492	21330.2
769.828	21203.43
770.164	21082.52
770.5	21051.11
770.836	21007.95
771.171	20927.05
771.507	20881.4
771.842	20678.47
772.178	20727.28
772.513	20689.09
772.849	20541.3
773.184	20450.22
773.519	20536.78
773.855	20316.9
774.19	20242.09
774.525	20209.78
774.86	20168.42
775.195	20153.28
775.53	20093.4
775.865	19828.77
776.2	19871.26
776.535	19654.77
776.87	19664.03
777.205	19539.29
777.539	19557.82
777.874	19519.85
778.209	19363.47
778.543	19293.19
778.878	19160.09
779.212	19222.23
779.547	19050.04
779.881	19069.24
780.215	19029.47
780.55	19050.94
780.884	18824.51
781.218	18864.5
781.552	18869.02
781.886	18789.03
782.22	18613.66
782.554	18580.22
782.888	18399.88
783.222	18367.34
783.556	18229.27
783.889	18244.41
784.223	18135.48
784.557	18148.14
784.89	18143.17
785.224	17953.12
785.557	17957.64
785.891	17842.16
786.224	17917.86
786.558	17919.44
786.891	17636.29
787.224	17629.06
787.557	17528.95
787.891	17514.26
788.224	17477.42
788.557	17417.99
788.89	17387.48
789.223	17399.23
789.556	17168.5
789.888	17175.73
790.221	17058.22
790.554	16946.14
790.887	16983.42
791.219	16880.15
791.552	16972.8
791.884	16782.75
792.217	16751.79
792.549	16644
792.882	16618.69
793.214	16512.25
793.546	16476.54
793.879	16405.81
794.211	16357.9
794.543	16402.87
794.875	16293.5
795.207	16341.41
795.539	16215.08
795.871	16144.12
796.203	16046.5
796.535	15985.71
796.867	15863.23
797.198	15861.19
797.53	15922.21
797.862	15775.09
798.193	15749.56
798.525	15666.17
798.856	15684.7
799.188	15607.87
799.519	15580.75
799.85	15447.19
800.182	15518.83
800.513	15517.02
800.844	15387.53
801.175	15458.27
801.506	15383.47
801.837	15208.33
802.168	15199.97
802.499	15139.86
802.83	15051.27
803.161	15055.79
803.491	15106.86
803.822	14966.75
804.153	14936.47
804.483	14735.57
804.814	14756.14
805.145	14730.15
805.475	14682.69
805.805	14659.42
806.136	14656.93
806.466	14669.36
806.796	14543.49
807.126	14471.85
807.457	14455.81
807.787	14480.21
808.117	14447.22
808.447	14408.8
808.777	14400.89
809.107	14289.26
809.436	14301.91
809.766	14310.27
810.096	14226.43
810.426	14233.89
810.755	14181.46
811.085	14091.07
811.414	14071.18
811.744	13886.1
812.073	13935.14
812.403	13985.99
812.732	13801.81
813.061	13805.43
813.39	13702.38
813.719	13734.7
814.049	13762.72
814.378	13712.55
814.707	13613.12
815.036	13588.48
815.365	13617.18
815.693	13478.66
816.022	13524.98
816.351	13383.97
816.68	13372.67
817.008	13501.03
817.337	13198.89
817.665	13257.42
817.994	13308.27
818.322	13228.95
818.651	13162.73
818.979	13119.12
819.307	13317.76
819.636	13129.06
819.964	13115.5
820.292	13093.13
820.62	13069.85
820.948	13069.4
821.276	13023.3
821.604	12990.31
821.932	13032.11
822.259	13086.12
822.587	13000.03
822.915	13017.88
823.243	12990.76
823.57	12975.62
823.898	13004.77
824.225	13000.48
824.553	12965.45
824.88	12926.81
825.207	12914.83
825.535	12935.62
825.862	13048.16
826.189	12863.76
826.516	12961.83
826.843	13003.87
827.17	12970.2
827.497	12968.84
827.824	12961.61
828.151	12980.14
828.478	13020.14
828.805	12985.56
829.131	12932.46
829.458	12893.36
829.785	12921.61
830.111	12880.93
830.438	12940.82
830.764	12915.06
831.09	12903.3
831.417	12787.83
831.743	12947.82
832.069	12916.64
832.395	12825.34
832.722	12964.77
833.048	12851.1
833.374	12892.91
833.7	12780.82
834.026	12842.29
834.351	12823.98
834.677	12817.66
835.003	12871.89
835.329	12834.61
835.654	12807.26
835.98	12774.95
836.306	12827.6
836.631	12683.42
836.956	12768.85
837.282	12726.59
837.607	12619.92
837.932	12556.87
838.258	12673.03
838.583	12592.58
838.908	12548.74
839.233	12557.78
839.558	12452.7
839.883	12458.8
840.208	12398.01
840.533	12434.84
840.858	12396.2
841.182	12394.17
841.507	12386.03
841.832	12282.08
842.156	12320.5
842.481	12342.19
842.805	12248.41
843.13	12230.1
843.454	12295.19
843.778	12194.17
844.103	12120.27
844.427	11991.46
844.751	12151.46
845.075	12131.8
845.399	12038.92
845.723	12028.98
846.047	12012.48
846.371	11903.11
846.695	11883.44
847.019	11843.9
847.343	11791.24
847.666	11647.97
847.99	11645.26
848.313	11678.25
848.637	11481.42
848.96	11474.42
849.284	11454.3
849.607	11414.08
849.931	11409.78
850.254	11380.18
850.577	11296.12
850.9	11240.07
851.223	11138.38
851.546	11075.1
851.869	11080.75
852.192	11156.23
852.515	10985.62
852.838	10944.03
853.161	10971.6
853.483	10865.62
853.806	10849.57
854.129	10788.11
854.451	10838.5
854.774	10689.58
855.096	10613.87
855.419	10708.56
855.741	10570.03
856.063	10598.28
856.385	10588.11
856.708	10571.61
857.03	10476.7
857.352	10629.92
857.674	10462.24
857.996	10405.07
858.318	10364.61
858.64	10396.25
858.961	10326.88
859.283	10244.62
859.605	10222.7
859.926	10276.71
860.248	10207.1
860.57	10158.29
860.891	10176.6
861.212	10066.32
861.534	10080.78
861.855	10057.28
862.176	10136.15
862.498	10057.96
862.819	10121.23
863.14	10043.94
863.461	9978.86
863.782	10011.4
864.103	9996.26
864.424	9964.85
864.745	9967.34
865.065	9899.77
865.386	9865.19
865.707	9896.83
866.027	9899.99
866.348	9809.37
866.668	9892.31
866.989	9785.19
867.309	9750.85
867.63	9743.39
867.95	9748.81
868.27	9657.51
868.59	9744.74
868.91	9629.72
869.23	9682.82
869.55	9560.79
869.87	9657.06
870.19	9649.15
870.51	9653.22
870.83	9620.23
871.15	9590.17
871.469	9607.57
871.789	9595.6
872.109	9561.25
872.428	9484.86
872.748	9571.41
873.067	9600.57
873.386	9514.69
873.706	9476.05
874.025	9453.45
874.344	9412.1
874.663	9537.74
874.982	9427.01
875.301	9414.81
875.62	9382.95
875.939	9376.39
876.258	9368.03
876.577	9284.42
876.896	9356.51
877.214	9294.59
877.533	9241.71
877.852	9252.55
878.17	9270.18
878.489	9263.63
878.807	9218.2
879.125	9253.68
879.444	9236.73
879.762	9202.84
880.08	9220.69
880.398	9104.08
880.716	9129.39
881.034	9128.71
881.352	9087.36
881.67	9058.66
881.988	8986.8
882.306	9068.83
882.624	9021.15
882.941	9035.38
883.259	8944.31
883.577	8942.28
883.894	8918.78
884.212	8890.53
884.529	8871.09
884.846	8887.59
885.164	8806.24
885.481	8797.88
885.798	8855.05
886.115	8740.48
886.432	8732.79
886.75	8728.05
887.067	8700.48
887.383	8659.12
887.7	8703.87
888.017	8661.83
888.334	8659.8
888.651	8575.51
888.967	8592.01
889.284	8557.66
889.6	8629.52
889.917	8476.98
890.233	8473.36
890.55	8439.02
890.866	8471.33
891.182	8404.89
891.498	8410.99
891.815	8332.13
892.131	8344.55
892.447	8357.89
892.763	8323.54
893.079	8245.12
893.395	8256.65
893.71	8246.7
894.026	8277.21
894.342	8209.19
894.657	8171
894.973	8095.97
895.289	8178.68
895.604	8101.62
895.92	8056.65
896.235	8049.2
896.55	8036.77
896.865	7998.35
897.181	7945.02
897.496	7995.19
897.811	7900.27
898.126	7875.87
898.441	7886.94
898.756	7857.11
899.071	7746.6
899.386	7821.18
899.7	7692.14
900.015	7658.24
900.33	7645.59
900.644	7618.92
900.959	7627.96
901.273	7608.53
901.588	7623.22
901.902	7467.52
902.216	7485.37
902.531	7512.03
902.845	7433.17
903.159	7438.36
903.473	7439.72
903.787	7386.16
904.101	7314.98
904.415	7353.17
904.729	7312.49
905.042	7244.7
905.356	7186.17
905.67	7303.68
905.984	7227.07
906.297	7193.85
906.611	7129.9
906.924	7181.65
907.237	7041.09
907.551	7080.63
907.864	7035.89
908.177	7021.43
908.491	6945.72
908.804	6928.32
909.117	6887.42
909.43	6852.39
909.743	6848.32
910.056	6856.91
910.368	6816.69
910.681	6782.34
910.994	6686.97
911.307	6804.26
911.619	6698.27
911.932	6674.99
912.244	6605.39
912.557	6606.3
912.869	6542.79
913.181	6576.69
913.494	6524.49
913.806	6511.83
914.118	6510.7
914.43	6416.24
914.742	6477.49
915.054	6406.98
915.366	6385.28
915.678	6348.45
915.99	6315.68
916.302	6307.09
916.613	6236.36
916.925	6283.59
917.236	6238.17
917.548	6194.78
917.859	6173.99
918.171	6101.9
918.482	6132.86
918.794	6099.19
919.105	6106.2
919.416	6007.89
919.727	6071.62
920.038	5998.4
920.349	5967.89
920.66	5934.22
920.971	5931.28
921.282	5905.75
921.593	5869.82
921.903	5861.46
922.214	5804.51
922.525	5846.54
922.835	5740.56
923.146	5711.63
923.456	5726.09
923.767	5704.85
924.077	5727.22
924.387	5741.91
924.697	5599.32
925.008	5564.97
925.318	5665.08
925.628	5607.9
925.938	5560
926.248	5474.57
926.558	5492.88
926.867	5428.02
927.177	5427.12
927.487	5402.49
927.796	5358.42
928.106	5409.04
928.416	5395.03
928.725	5341.24
929.034	5305.31
929.344	5268.93
929.653	5287.01
929.962	5218.31
930.271	5207.91
930.581	5205.88
930.89	5154.58
931.199	5125.88
931.508	5145.09
931.817	5139.44
932.125	5142.15
932.434	5068.03
932.743	5013.34
933.051	5038.88
933.36	5029.39
933.669	4989.39
933.977	4913.01
934.286	4921.14
934.594	4901.26
934.902	4893.12
935.21	4859.9
935.519	4816.29
935.827	4812.9
936.135	4815.83
936.443	4731.32
936.751	4740.58
937.059	4783.74
937.367	4702.62
937.674	4781.03
937.982	4707.59
938.29	4661.04
938.597	4689.96
938.905	4616.07
939.213	4562.51
939.52	4590.3
939.827	4562.06
940.135	4547.59
940.442	4558.21
940.749	4492
941.056	4572
941.363	4461.94
941.67	4480.93
941.977	4482.06
942.284	4418.56
942.591	4407.93
942.898	4387.14
943.205	4385.11
943.511	4351.67
943.818	4334.94
944.125	4320.71
944.431	4292.68
944.738	4299.92
945.044	4239.13
945.35	4268.73
945.657	4239.35
945.963	4175.85
946.269	4181.5
946.575	4200.48
946.881	4143.31
947.187	4164.1
947.493	4103.54
947.799	4111.22
948.105	4073.25
948.41	4068.06
948.716	4087.27
949.022	4052.01
949.327	4031.9
949.633	3975.63
949.938	3969.75
950.244	3983.54
950.549	3976.76
950.854	3947.83
951.16	3902.64
951.465	3919.81
951.77	3897.21
952.075	3859.93
952.38	3836.88
952.685	3856.76
952.99	3804.79
953.294	3816.09
953.599	3773.15
953.904	3773.83
954.209	3758.01
954.513	3720.27
954.818	3708.07
955.122	3702.87
955.426	3728.4
955.731	3651.57
956.035	3652.02
956.339	3672.36
956.643	3633.94
956.948	3585.13
957.252	3552.82
957.556	3566.83
957.86	3532.25
958.163	3572.93
958.467	3548.97
958.771	3488.64
959.075	3499.03
959.378	3462.42
959.682	3477.11
959.985	3468.98
960.289	3436.89
960.592	3427.17
960.896	3426.72
961.199	3361.41
961.502	3377.91
961.805	3357.34
962.108	3351.01
962.411	3331.13
962.714	3349.88
963.017	3279.6
963.32	3292.71
963.623	3243.9
963.926	3302.43
964.228	3236.44
964.531	3211.36
964.833	3223.79
965.136	3199.83
965.438	3216.1
965.741	3163.67
966.043	3172.26
966.345	3176.78
966.648	3094.98
966.95	3099.95
967.252	3159.15
967.554	3073.28
967.856	3072.15
968.158	3055.88
968.46	3037.12
968.761	3010.23
969.063	3019.04
969.365	2989.67
969.666	3026.05
969.968	2984.92
970.269	3016.79
970.571	2981.98
970.872	2976.11
971.174	2941.98
971.475	2970.46
971.776	2916.22
972.077	2916.45
972.378	2931.59
972.679	2881.42
972.98	2859.73
973.281	2854.3
973.582	2859.28
973.883	2859.73
974.183	2783.8
974.484	2801.2
974.785	2812.5
975.085	2802.33
975.386	2755.77
975.686	2804.81
975.986	2742.67
976.287	2766.17
976.587	2710.8
976.887	2701.99
977.187	2722.56
977.487	2659.28
977.787	2662.9
978.087	2625.83
978.387	2643.01
978.687	2634.42
978.987	2649.11
979.286	2614.31
979.586	2611.37
979.885	2588.1
980.185	2598.04
980.484	2544.71
980.784	2561.43
981.083	2585.61
981.382	2545.39
981.682	2537.48
981.981	2531.83
982.28	2531.15
982.579	2491.38
982.878	2479.62
983.177	2436.69
983.475	2463.35
983.774	2434.2
984.073	2433.52
984.372	2453.64
984.67	2393.3
984.969	2426.29
985.267	2433.98
985.566	2389
985.864	2365.5
986.162	2366.18
986.461	2383.81
986.759	2334.09
987.057	2335.67
987.355	2330.48
987.653	2338.84
987.951	2326.63
988.249	2287.09
988.547	2289.35
988.844	2308.56
989.142	2262.23
989.44	2246.18
989.737	2223.36
990.035	2254.55
990.332	2213.19
990.63	2227.88
990.927	2256.13
991.224	2180.2
991.521	2189.01
991.819	2189.69
992.116	2149.92
992.413	2172.97
992.71	2129.8
993.006	2126.86
993.303	2128.67
993.6	2094.32
993.897	2106.75
994.193	2117.83
994.49	2072.86
994.787	2082.35
995.083	2033.31
995.379	2052.06
995.676	2056.58
995.972	2028.34
996.268	2024.27
996.565	2045.29
996.861	2003.25
997.157	2016.81
997.453	1993.99
997.749	1963.93
998.044	1989.24
998.34	1960.77
998.636	1959.41
998.932	1929.81
999.227	1926.64
999.523	1924.16
999.818	1918.28
1000.114	1886.42
1000.409	1898.62
1000.704	1888.91
1001	1882.35
1001.295	1872.63
1001.59	1861.34
1001.885	1856.82
1002.18	1832.41
1002.475	1848.68
1002.77	1836.25
1003.065	1802.13
1003.359	1824.5
1003.654	1778.85
1003.949	1775.69
1004.243	1753.32
1004.538	1766.42
1004.832	1756.25
1005.127	1775.91
1005.421	1737.72
1005.715	1775.24
1006.009	1723.49
1006.304	1717.38
1006.598	1689.59
1006.892	1705.18
1007.186	1691.85
1007.48	1694.11
1007.773	1685.29
1008.067	1642.58
1008.361	1665.86
1008.655	1646.2
1008.948	1636.71
1009.242	1618.4
1009.535	1618.63
1009.829	1612.08
1010.122	1597.39
1010.415	1589.93
1010.708	1581.79
1011.001	1560.1
1011.295	1544.96
1011.588	1523.72
1011.881	1548.8
1012.173	1506.54
1012.466	1508.8
1012.759	1525.98
1013.052	1475.13
1013.344	1499.99
1013.637	1489.59
1013.93	1486.2
1014.222	1469.03
1014.514	1426.54
1014.807	1452.08
1015.099	1456.15
1015.391	1438.75
1015.683	1452.76
1015.976	1435.58
1016.268	1416.83
1016.56	1390.16
1016.851	1402.36
1017.143	1382.7
1017.435	1363.5
1017.727	1362.59
1018.018	1358.07
1018.31	1365.08
1018.602	1337.06
1018.893	1371.4
1019.185	1297.96
1019.476	1324.63
1019.767	1326.89
1020.058	1308.81
1020.35	1314.68
1020.641	1292.08
1020.932	1282.59
1021.223	1285.31
1021.514	1265.42
1021.804	1251.63
1022.095	1265.87
1022.386	1281.24
1022.677	1228.81
1022.967	1227
1023.258	1236.04
1023.548	1231.07
1023.839	1197.85
1024.129	1148.13
1024.419	1173.22
1024.709	1197.62
1025	1189.04
1025.29	1136.61
1025.58	1156.95
1025.87	1162.37
1026.16	1139.77
1026.449	1175.25
1026.739	1119.21
1027.029	1114.24
1027.319	1106.55
1027.608	1113.33
1027.898	1125.54
1028.187	1072.88
1028.477	1087.57
1028.766	1077.18
1029.055	1070.62
1029.344	1079.89
1029.634	1052.77
1029.923	1050.51
1030.212	1067.01
1030.501	1057.97
1030.79	1039.21
1031.078	1043.96
1031.367	1036.72
1031.656	1012.09
1031.945	1011.64
1032.233	1011.64
1032.522	1005.76
1032.81	968.48
1033.099	959.44
1033.387	973.45
1033.675	970.96
1033.963	972.77
1034.251	991.3
1034.54	958.53
1034.828	944.3
1035.116	942.94
1035.403	919.44
1035.691	959.21
1035.979	928.93
1036.267	920.57
1036.554	928.7
1036.842	910.17
1037.129	902.26
1037.417	896.39
1037.704	910.4
1037.992	892.32
1038.279	883.06
1038.566	899.78
1038.853	899.78
1039.14	899.78
