Data from hue_170_FLMS001491_00080.txt Node
Date: Tue Feb 07 16:49:11 GMT 2017
User: dcchb
Spectrometer: FLMS00149
Trigger mode: 0
Integration Time (sec): 2.000000E-2
Scans to average: 10
Electric dark correction enabled: true
Nonlinearity correction enabled: false
Boxcar width: 0
XAxis mode: Wavelengths
Number of Pixels in Spectrum: 2048
>>>>>Begin Spectral Data<<<<<
341.393	-22.94
341.776	-22.94
342.16	-22.94
342.543	-62.03
342.927	-53.44
343.31	-63.16
343.693	-80.34
344.077	-60.9
344.46	-74.91
344.843	-47.34
345.226	-35.82
345.61	-24.29
345.993	-43.05
346.376	17.06
346.759	16.38
347.142	13.67
347.525	41.69
347.908	52.32
348.291	85.31
348.674	97.51
349.057	105.87
349.44	133.67
349.823	148.81
350.206	179.32
350.588	173.67
350.971	231.75
351.354	226.1
351.737	238.3
352.119	237.62
352.502	271.52
352.884	254.12
353.267	260.45
353.65	282.37
354.032	297.05
354.414	303.16
354.797	316.04
355.179	331.4
355.562	317.17
355.944	320.33
356.326	323.04
356.709	323.04
357.091	319.43
357.473	334.34
357.855	329.14
358.238	339.77
358.62	348.8
359.002	331.18
359.384	361.01
359.766	347.45
360.148	350.84
360.53	326.43
360.912	335.7
361.294	327.34
361.676	318.97
362.057	325.98
362.439	333.21
362.821	328.92
363.203	326.21
363.584	312.87
363.966	320.56
364.348	314
364.729	313.55
365.111	348.58
365.493	306.09
365.874	305.19
366.256	314.46
366.637	315.58
367.019	315.13
367.4	305.42
367.781	316.04
368.163	328.24
368.544	303.61
368.925	305.87
369.306	317.84
369.688	318.75
370.069	311.29
370.45	286.89
370.831	307.45
371.212	307.45
371.593	287.79
371.974	296.15
372.355	318.52
372.736	311.97
373.117	310.84
373.498	292.99
373.879	319.88
374.26	309.94
374.641	305.42
375.021	325.53
375.402	297.05
375.783	335.47
376.163	307
376.544	335.47
376.925	294.34
377.305	310.39
377.686	310.61
378.066	306.32
378.447	318.75
378.827	333.89
379.208	317.84
379.588	346.09
379.968	335.02
380.349	332.31
380.729	319.88
381.109	326.66
381.489	337.51
381.87	340.67
382.25	323.04
382.63	333.66
383.01	334.79
383.39	316.71
383.77	336.6
384.15	316.26
384.53	336.83
384.91	339.99
385.29	341.35
385.67	371.4
386.049	358.07
386.429	335.25
386.809	355.13
387.189	338.86
387.568	339.31
387.948	332.08
388.328	369.14
388.707	330.5
389.087	357.62
389.466	353.78
389.846	340.67
390.225	347.67
390.605	358.07
390.984	357.39
391.363	349.93
391.743	364.4
392.122	358.3
392.501	375.7
392.881	369.14
393.26	365.53
393.639	372.31
394.018	369.59
394.397	371.63
394.776	375.02
395.155	355.36
395.534	375.47
395.913	378.86
396.292	368.01
396.671	377.05
397.05	377.73
397.429	372.76
397.808	376.15
398.186	385.41
398.565	390.16
398.944	392.19
399.323	409.59
399.701	395.13
400.08	390.61
400.458	386.54
400.837	404.62
401.215	395.81
401.594	421.8
401.972	397.16
402.351	396.94
402.729	389.03
403.107	409.14
403.486	426.99
403.864	417.96
404.242	394.45
404.62	420.44
404.999	409.82
405.377	413.89
405.755	438.75
406.133	425.86
406.511	430.38
406.889	400.33
407.267	432.87
407.645	417.5
408.023	433.55
408.401	431.97
408.779	439.42
409.156	447.11
409.534	442.81
409.912	448.91
410.29	448.69
410.667	461.34
411.045	444.17
411.422	446.88
411.8	481.68
412.178	469.25
412.555	473.55
412.933	499.76
413.31	507.22
413.687	484.62
414.065	487.56
414.442	504.28
414.819	516.48
415.197	532.08
415.574	532.3
415.951	525.07
416.328	542.7
416.705	529.82
417.082	558.52
417.46	552.41
417.837	563.71
418.214	548.35
418.591	538.63
418.967	536.14
419.344	565.75
419.721	568.69
420.098	565.07
420.475	575.69
420.852	576.37
421.228	583.6
421.605	591.28
421.982	605.52
422.358	614.33
422.735	607.78
423.111	624.96
423.488	622.24
423.864	642.81
424.241	645.07
424.617	666.54
424.994	652.53
425.37	630.6
425.746	667.44
426.123	654.56
426.499	653.43
426.875	677.38
427.251	684.39
427.627	709.92
428.003	702.24
428.379	721.9
428.756	703.37
429.132	708.34
429.507	732.75
429.883	742.47
430.259	756.03
430.635	752.64
431.011	746.99
431.387	756.25
431.763	784.95
432.138	756.48
432.514	786.31
432.89	768.91
433.265	811.62
433.641	786.98
434.016	828.11
434.392	850.94
434.767	865.4
435.143	866.98
435.518	848.45
435.894	888.23
436.269	881.9
436.644	885.51
437.02	903.82
437.395	924.61
437.77	904.04
438.145	925.06
438.52	935.46
438.895	950.14
439.271	950.6
439.646	972.52
440.021	1001.89
440.395	1017.94
440.77	995.57
441.145	991.5
441.52	1022.46
441.895	1042.12
442.27	1042.35
442.645	1040.99
443.019	1040.76
443.394	1064.49
443.769	1074.66
444.143	1065.17
444.518	1101.55
444.892	1099.29
445.267	1102.23
445.641	1101.78
446.016	1103.81
446.39	1118.28
446.764	1127.77
447.139	1166.18
447.513	1148.78
447.887	1158.95
448.262	1132.51
448.636	1176.58
449.01	1186.07
449.384	1177.48
449.758	1210.93
450.132	1223.58
450.506	1230.59
450.88	1252.51
451.254	1246.18
451.628	1224.94
452.002	1282.11
452.376	1271.49
452.75	1294.09
453.123	1304.71
453.497	1332.06
453.871	1325.95
454.244	1356.91
454.618	1353.07
454.992	1369.34
455.365	1372.28
455.739	1418.61
456.112	1442.79
456.486	1414.99
456.859	1450.24
457.232	1478.94
457.606	1470.13
457.979	1497.47
458.352	1552.16
458.725	1567.76
459.099	1531.37
459.472	1576.12
459.845	1608.43
460.218	1619.28
460.591	1650.69
460.964	1652.95
461.337	1692.72
461.71	1720.29
462.083	1731.37
462.456	1772.5
462.829	1733.17
463.201	1764.59
463.574	1774.98
463.947	1832.83
464.32	1894.07
464.692	1844.81
465.065	1893.85
465.438	1932.72
465.81	1960.74
466.183	1989.44
466.555	2080.51
466.928	2024.47
467.3	2013.62
467.672	2066.95
468.045	2152.37
468.417	2155.31
468.789	2207.06
469.161	2218.13
469.534	2267.85
469.906	2312.37
470.278	2333.84
470.65	2412.48
471.022	2412.03
471.394	2473.49
471.766	2516.88
472.138	2556.66
472.51	2642.98
472.882	2658.8
473.253	2718.69
473.625	2762.3
473.997	2807.5
474.369	2852.69
474.74	2900.38
475.112	2932.47
475.484	3020.82
475.855	3100.14
476.227	3128.62
476.598	3258.11
476.97	3285.45
477.341	3376.07
477.713	3460.81
478.084	3508.27
478.455	3653.8
478.827	3665.55
479.198	3795.49
479.569	3817.87
479.94	3957.98
480.311	4023.96
480.682	4148.7
481.053	4196.16
481.424	4351.41
481.795	4424.86
482.166	4529.26
482.537	4574.23
482.908	4689.93
483.279	4801.12
483.65	4901.23
484.021	5040.88
484.391	5108.23
484.762	5257.38
485.133	5310.26
485.503	5404.04
485.874	5582.57
486.244	5648.33
486.615	5783.24
486.985	5834.54
487.356	6059.84
487.726	6106.17
488.097	6291.02
488.467	6324.24
488.837	6526.95
489.207	6621.41
489.578	6760.84
489.948	6848.29
490.318	7017.78
490.688	7046.26
491.058	7195.63
491.428	7370.09
491.798	7428.39
492.168	7647.6
492.538	7635.84
492.908	7813.69
493.278	8011.65
493.648	7942.28
494.017	8091.88
494.387	8297.3
494.757	8396.73
495.126	8508.59
495.496	8521.24
495.866	8562.83
496.235	8728.02
496.605	8789.03
496.974	8916.94
497.344	9041.23
497.713	9130.27
498.082	9195.35
498.452	9286.2
498.821	9398.06
499.19	9405.74
499.559	9554.44
499.928	9643.02
500.298	9657.71
500.667	9819.97
501.036	9740.2
501.405	9899.29
501.774	9963.69
502.143	10007.76
502.512	10086.18
502.88	10149.22
503.249	10154.87
503.618	10271.26
503.987	10317.36
504.356	10388.31
504.724	10455.21
505.093	10490.91
505.462	10525.94
505.83	10596.9
506.199	10643.9
506.567	10779.49
506.936	10789.66
507.304	10927.06
507.672	10836.21
508.041	10885.25
508.409	10977.68
508.777	11037.79
509.145	11089.09
509.514	11174.28
509.882	11175.86
510.25	11222.87
510.618	11274.62
510.986	11203.21
511.354	11337.44
511.722	11411.11
512.09	11478.68
512.458	11389.42
512.826	11491.34
513.193	11482.75
513.561	11510.09
513.929	11565.68
514.297	11741.5
514.664	11756.64
515.032	11621.73
515.4	11727.94
515.767	11757.32
516.135	11877.54
516.502	11703.31
516.869	11937.43
517.237	11928.39
517.604	11867.82
517.972	11900.59
518.339	11883.64
518.706	11945.11
519.073	11972.91
519.44	12021.27
519.808	12031.44
520.175	11977.88
520.542	12170.64
520.909	12085.9
521.276	12091.55
521.643	12136.29
522.009	12261.26
522.376	12196.63
522.743	12258.1
523.11	12276.4
523.477	12291.32
523.843	12340.81
524.21	12367.7
524.577	12424.87
524.943	12415.83
525.31	12386.91
525.676	12478.88
526.043	12548.26
526.409	12452.67
526.776	12545.77
527.142	12478.43
527.508	12533.79
527.874	12542.16
528.241	12514.59
528.607	12525.66
528.973	12522.5
529.339	12564.98
529.705	12540.35
530.071	12616.28
530.437	12684.75
530.803	12649.95
531.169	12617.86
531.535	12544.64
531.901	12572.89
532.267	12542.16
532.632	12502.16
532.998	12546.68
533.364	12534.25
533.73	12557.3
534.095	12487.02
534.461	12450.63
534.826	12501.93
535.192	12386.45
535.557	12445.21
535.923	12317.98
536.288	12332.9
536.653	12305.33
537.019	12222.84
537.384	12272.11
537.749	12179.45
538.114	12207.02
538.479	12130.87
538.845	12115.73
539.21	12023.53
539.575	12063.52
539.94	12003.64
540.305	12012.23
540.67	11899.01
541.034	11909.4
541.399	11860.82
541.764	11827.15
542.129	11849.74
542.494	11706.92
542.858	11739.69
543.223	11670.09
543.587	11692.46
543.952	11661.73
544.316	11572.01
544.681	11513.71
545.045	11552.13
545.41	11557.55
545.774	11504.67
546.138	11431.22
546.503	11367.72
546.867	11325.01
547.231	11402.3
547.595	11268.07
547.959	11271.68
548.324	11214.73
548.688	11165.02
549.052	11187.84
549.416	11088.63
549.779	11029.88
550.143	10966.6
550.507	10932.48
550.871	10977.23
551.235	10867.85
551.599	10901.97
551.962	10933.84
552.326	10802.09
552.689	10875.08
553.053	10759.38
553.417	10771.36
553.78	10861.3
554.143	10681.19
554.507	10652.04
554.87	10693.39
555.234	10713.5
555.597	10595.77
555.96	10610
556.323	10614.07
556.686	10574.75
557.05	10591.7
557.413	10558.48
557.776	10466.73
558.139	10515.32
558.502	10444.36
558.865	10474.64
559.228	10517.12
559.59	10430.35
559.953	10425.15
560.316	10499.95
560.679	10461.53
561.041	10365.04
561.404	10477.13
561.767	10495.43
562.129	10414.75
562.492	10459.95
562.854	10396.45
563.217	10366.17
563.579	10407.3
563.941	10353.97
564.304	10461.76
564.666	10419.5
565.028	10425.38
565.39	10373.63
565.753	10454.98
566.115	10472.15
566.477	10479.61
566.839	10471.93
567.201	10444.13
567.563	10500.63
567.925	10499.05
568.287	10482.55
568.648	10542.21
569.01	10443.23
569.372	10447.52
569.734	10501.53
570.095	10477.13
570.457	10521.87
570.819	10518.71
571.18	10489.1
571.542	10537.01
571.903	10553.51
572.265	10520.29
572.626	10526.84
572.987	10505.15
573.349	10554.86
573.71	10540.63
574.071	10500.4
574.432	10506.28
574.794	10633.73
575.155	10578.37
575.516	10557.35
575.877	10534.07
576.238	10574.3
576.599	10521.87
576.96	10631.47
577.32	10620.17
577.681	10526.39
578.042	10502.44
578.403	10551.47
578.763	10629.89
579.124	10574.07
579.485	10619.27
579.845	10558.93
580.206	10539.04
580.566	10533.85
580.927	10594.18
581.287	10560.06
581.648	10603.45
582.008	10619.27
582.368	10531.59
582.728	10539.5
583.089	10518.03
583.449	10514.64
583.809	10494.07
584.169	10515.09
584.529	10492.27
584.889	10503.57
585.249	10525.26
585.609	10395.32
585.969	10467.86
586.329	10519.16
586.688	10485.26
587.048	10405.49
587.408	10466.73
587.768	10451.36
588.127	10431.25
588.487	10389.9
588.846	10460.85
589.206	10395.55
589.565	10348.32
589.925	10420.86
590.284	10389.44
590.643	10304.25
591.003	10369.11
591.362	10410.46
591.721	10328.65
592.08	10368.43
592.44	10285.72
592.799	10391.25
593.158	10298.83
593.517	10350.35
593.876	10324.81
594.235	10286.62
594.593	10286.4
594.952	10288.2
595.311	10227.19
595.67	10278.71
596.029	10396.68
596.387	10243.46
596.746	10285.04
597.104	10276.45
597.463	10267.41
597.822	10243.23
598.18	10257.7
598.538	10235.1
598.897	10267.19
599.255	10213.86
599.613	10330.69
599.972	10246.4
600.33	10328.43
600.688	10190.81
601.046	10277.36
601.404	10290.01
601.762	10234.87
602.12	10241.65
602.478	10227.41
602.836	10222.67
603.194	10248.66
603.552	10165.27
603.91	10158.94
604.268	10191.94
604.625	10214.08
604.983	10185.61
605.341	10199.62
605.698	10225.15
606.056	10178.15
606.413	10164.14
606.771	10232.16
607.128	10260.63
607.485	10170.92
607.843	10176.57
608.2	10196.23
608.557	10275.78
608.914	10224.7
609.272	10231.71
609.629	10268.09
609.986	10255.66
610.343	10259.05
610.7	10299.5
611.057	10269.9
611.414	10325.04
611.771	10333.85
612.127	10324.59
612.484	10307.19
612.841	10333.4
613.198	10310.8
613.554	10287.07
613.911	10334.53
614.267	10335.43
614.624	10249.56
614.98	10349.9
615.337	10362.33
615.693	10372.72
616.05	10325.04
616.406	10388.54
616.762	10305.6
617.118	10374.3
617.475	10388.99
617.831	10414.98
618.187	10457.01
618.543	10436.22
618.899	10549.67
619.255	10431.03
619.611	10412.04
619.967	10479.39
620.323	10483.68
620.678	10389.44
621.034	10445.71
621.39	10413.17
621.746	10399.16
622.101	10479.61
622.457	10435.54
622.812	10487.97
623.168	10458.37
623.523	10467.41
623.879	10497.92
624.234	10487.97
624.589	10471.93
624.945	10463.57
625.3	10506.96
625.655	10471.7
626.01	10402.1
626.365	10490.46
626.72	10436.9
627.075	10442.55
627.43	10483.68
627.785	10374.76
628.14	10441.65
628.495	10366.85
628.85	10452.95
629.205	10395.77
629.559	10461.98
629.914	10357.81
630.269	10344.93
630.623	10357.58
630.978	10395.77
631.332	10354.87
631.687	10385.38
632.041	10356.68
632.396	10352.84
632.75	10281.88
633.104	10307.19
633.459	10308.32
633.813	10280.07
634.167	10256.79
634.521	10254.31
634.875	10236.91
635.229	10214.08
635.583	10241.88
635.937	10224.93
636.291	10243.69
636.645	10209.11
636.999	10214.76
637.352	10148.32
637.706	10108.1
638.06	10188.55
638.413	10155.78
638.767	10195.55
639.121	10186.06
639.474	10116.68
639.828	10169.11
640.181	10121.65
640.534	10077.59
640.888	10047.98
641.241	10043.01
641.594	10054.09
641.947	10066.97
642.301	10043.01
642.654	10109.45
643.007	10021.77
643.36	10001.88
643.713	9963.47
644.066	10028.55
644.419	10003.69
644.771	9903.81
645.124	9879.18
645.477	9798.05
645.83	9745.39
646.182	9753.75
646.535	9693.19
646.888	9788.56
647.24	9666.98
647.593	9773.64
647.945	9695.9
648.298	9681.89
648.65	9632.4
649.002	9673.08
649.355	9727.31
649.707	9683.47
650.059	9664.04
650.411	9827.43
650.763	9824.94
651.115	9944.26
651.467	9873.3
651.819	9896.35
652.171	9962.34
652.523	9952.39
652.875	9879.4
653.227	9822.23
653.578	9953.07
653.93	9935.44
654.282	9867.42
654.633	9846.86
654.985	9867.88
655.337	9869.23
655.688	9871.04
656.039	9974.09
656.391	9855.9
656.742	9864.03
657.094	9821.1
657.445	9879.63
657.796	9980.87
658.147	9933.64
658.498	9925.73
658.849	9915.78
659.2	9923.24
659.551	9842.11
659.902	9979.06
660.253	9838.5
660.604	9992.39
660.955	9884.6
661.306	9964.37
661.656	9929.8
662.007	9979.06
662.358	9926.63
662.708	10016.8
663.059	10033.75
663.409	9961.66
663.76	10021.09
664.11	10010.92
664.461	9997.36
664.811	10044.82
665.161	9997.82
665.511	9945.84
665.862	10008.44
666.212	10012.96
666.562	10020.64
666.912	9986.74
667.262	9974.99
667.612	9969.57
667.962	10005.05
668.312	10025.84
668.662	10092.95
669.011	9976.57
669.361	9971.6
669.711	9998.49
670.06	9931.83
670.41	9936.35
670.76	9945.61
671.109	10036.23
671.459	9987.42
671.808	9936.35
672.157	9977.7
672.507	9857.71
672.856	9812.28
673.205	9919.4
673.554	9980.19
673.904	9899.29
674.253	9900.19
674.602	9910.81
674.951	9720.08
675.3	9698.84
675.649	9901.1
675.998	9864.49
676.346	9887.31
676.695	9843.47
677.044	9788.78
677.393	9824.04
677.741	9797.82
678.09	9712.4
678.438	9782.45
678.787	9763.47
679.135	9706.07
679.484	9742.46
679.832	9733.42
680.181	9662.68
680.529	9711.72
680.877	9683.93
681.225	9625.62
681.573	9732.06
681.922	9649.35
682.27	9634.44
682.618	9530.94
682.966	9609.58
683.314	9568
683.661	9539.52
684.009	9544.72
684.357	9494.33
684.705	9448.23
685.053	9552.4
685.4	9410.49
685.748	9452.07
686.095	9405.52
686.443	9388.34
686.79	9354.44
687.138	9417.94
687.485	9314.9
687.832	9324.16
688.18	9325.52
688.527	9266.54
688.874	9231.06
689.221	9257.27
689.568	9205.97
689.915	9222.24
690.262	9140.21
690.609	9065.19
690.956	9058.86
691.303	9076.48
691.65	9008.01
691.997	9035.81
692.344	8946.32
692.69	8939.09
693.037	8948.35
693.383	8872.87
693.73	8916.49
694.077	8885.3
694.423	8794.01
694.769	8820.45
695.116	8757.17
695.462	8754.69
695.808	8713.33
696.155	8762.82
696.501	8665.65
696.847	8608.25
697.193	8563.5
697.539	8636.5
697.885	8526.89
698.231	8465.65
698.577	8460.68
698.923	8442.83
699.269	8377.07
699.614	8366.45
699.96	8339.78
700.306	8322.83
700.651	8261.36
700.997	8247.35
701.342	8261.59
701.688	8280.8
702.033	8178.66
702.379	8080.58
702.724	8138.43
703.069	8099.34
703.415	8046.46
703.76	8010.07
704.105	8017.08
704.45	7997.42
704.795	7980.47
705.14	7907.48
705.485	7918.1
705.83	7897.53
706.175	7895.5
706.52	7839
706.865	7846.69
707.209	7755.16
707.554	7742.73
707.899	7782.51
708.243	7724.43
708.588	7727.14
708.932	7643.98
709.277	7594.04
709.621	7644.21
709.966	7562.17
710.31	7579.57
710.654	7535.96
710.998	7544.1
711.342	7547.49
711.687	7535.73
712.031	7480.37
712.375	7445.57
712.719	7490.76
713.063	7422.97
713.407	7499.8
713.75	7364.67
714.094	7363.54
714.438	7339.36
714.782	7320.82
715.125	7303.42
715.469	7341.39
715.812	7284.89
716.156	7257.55
716.499	7298.68
716.843	7242.18
717.186	7208.74
717.53	7313.37
717.873	7230.21
718.216	7177.55
718.559	7155.63
718.902	7153.82
719.246	7121.06
719.589	7145.24
719.932	7122.86
720.275	7149.98
720.617	7123.09
720.96	7139.36
721.303	7109.98
721.646	7102.98
721.989	7071.57
722.331	7087.84
722.674	7099.14
723.016	7095.75
723.359	7083.54
723.701	7083.54
724.044	7043.77
724.386	7025.69
724.729	7042.19
725.071	7087.61
725.413	7071.79
725.755	7031.34
726.097	6996.09
726.439	7005.13
726.782	6980.27
727.124	7035.86
727.465	7004.45
727.807	7046.71
728.149	6955.41
728.491	6923.09
728.833	6992.25
729.175	6947.5
729.516	6961.29
729.858	6995.64
730.199	6986.37
730.541	6962.87
730.882	6968.29
731.224	6995.41
731.565	6944.11
731.906	6954.05
732.248	7005.8
732.589	7007.84
732.93	6919.25
733.271	6993.83
733.612	6961.06
733.953	7013.49
734.294	6970.33
734.635	6929.65
734.976	7059.59
735.317	6931.91
735.658	7000.61
735.999	7028.63
736.339	7001.28
736.68	7001.74
737.021	6973.71
737.361	6947.5
737.702	7058.91
738.042	6989.99
738.383	7046.03
738.723	6999.7
739.063	7088.97
739.404	7031.11
739.744	7091
740.084	7094.62
740.424	7103.2
740.764	7126.03
741.104	7119.25
741.444	7067.72
741.784	7151.11
742.124	7148.63
742.464	7194.95
742.804	7196.76
743.143	7213.48
743.483	7226.82
743.823	7152.24
744.162	7275.18
744.502	7301.39
744.841	7279.92
745.181	7394.04
745.52	7403.31
745.86	7367.15
746.199	7465.68
746.538	7445.34
746.877	7527.15
747.216	7514.94
747.556	7569.86
747.895	7681.49
748.234	7753.81
748.573	7702.28
748.911	7747.03
749.25	7861.83
749.589	7939.79
749.928	7939.57
750.267	8095.72
750.605	8098.66
750.944	8132.1
751.283	8241.48
751.621	8404.64
751.96	8351.53
752.298	8466.11
752.636	8596.95
752.975	8642.82
753.313	8734.8
753.651	8865.19
753.989	8912.42
754.327	9010.95
754.666	9151.96
755.004	9331.62
755.342	9390.37
755.679	9498.85
756.017	9594.89
756.355	9866.07
756.693	9869.23
757.031	10118.94
757.368	10185.16
757.706	10355.77
758.044	10443
758.381	10620.4
758.719	10821.3
759.056	10936.77
759.394	11051.8
759.731	11177.67
760.068	11354.62
760.405	11555.29
760.743	11637.55
761.08	11892.46
761.417	11953.02
761.754	12268.72
762.091	12390.97
762.428	12455.6
762.765	12625.09
763.102	12844.3
763.438	12965.42
763.775	13175.59
764.112	13273.21
764.449	13431.4
764.785	13636.82
765.122	13693.54
765.458	13820.31
765.795	14009.69
766.131	14174.66
766.467	14336.69
766.804	14439.73
767.14	14459.17
767.476	14796.33
767.812	14796.11
768.148	15069.32
768.485	15040.17
768.821	15244.46
769.157	15459.82
769.492	15474.06
769.828	15604.22
770.164	15669.08
770.5	15747.5
770.836	15945.91
771.171	15950.43
771.507	16133.93
771.842	16131.21
772.178	16225.9
772.513	16419.12
772.849	16445.1
773.184	16455.73
773.519	16528.27
773.855	16630.41
774.19	16645.78
774.525	16785.43
774.86	16837.18
775.195	17029.95
775.53	17048.25
775.865	16938.65
776.2	16875.6
776.535	16952.89
776.87	17060.91
777.205	16980.91
777.539	17098.42
777.874	17228.59
778.209	17158.08
778.543	17228.81
778.878	17190.17
779.212	17359.66
779.547	17272.65
779.881	17323.05
780.215	17305.19
780.55	17441.69
780.884	17295.25
781.218	17362.37
781.552	17335.93
781.886	17520.56
782.22	17436.26
782.554	17462.7
782.888	17335.02
783.222	17342.26
783.556	17243.28
783.889	17349.26
784.223	17267.23
784.557	17267.46
784.89	17313.1
785.224	17248.92
785.557	17258.87
785.891	17301.13
786.224	17302.26
786.558	17263.84
786.891	17222.71
787.224	17070.4
787.557	17166.44
787.891	17162.15
788.224	17109.49
788.557	17165.99
788.89	17217.74
789.223	17176.84
789.556	17045.31
789.888	17068.36
790.221	17024.98
790.554	16942.04
790.887	16862.72
791.219	16911.53
791.552	16890.52
791.884	16793.57
792.217	16867.92
792.549	16733.01
792.882	16716.96
793.214	16652.56
793.546	16690.75
793.879	16573.24
794.211	16582.5
794.543	16581.37
794.875	16469.51
795.207	16601.71
795.539	16495.72
795.871	16481.04
796.203	16396.97
796.535	16350.87
796.867	16343.64
797.198	16243.08
797.53	16285.33
797.862	16201.04
798.193	16246.47
798.525	16089.63
798.856	16179.12
799.188	16015.96
799.519	16151.78
799.85	15885.57
800.182	16046.92
800.513	15983.2
800.844	15851.22
801.175	15834.72
801.506	15877.21
801.837	15791.34
802.168	15773.48
802.499	15792.92
802.83	15753.15
803.161	15701.17
803.491	15627.27
803.822	15758.57
804.153	15583.43
804.483	15541.63
804.814	15506.6
805.145	15397.9
805.475	15520.83
805.805	15333.95
806.136	15368.52
806.466	15386.38
806.796	15429.54
807.126	15260.05
807.457	15224.8
807.787	15159.94
808.117	15140.05
808.447	15094.18
808.777	15036.33
809.107	14984.35
809.436	15008.31
809.766	15020.96
810.096	14905.71
810.426	14876.11
810.755	14893.51
811.085	14885.6
811.414	14880.85
811.744	14712.27
812.073	14727.64
812.403	14777.35
812.732	14688.99
813.061	14619.39
813.39	14585.04
813.719	14613.74
814.049	14601.54
814.378	14582.33
814.707	14568.54
815.036	14545.49
815.365	14466.4
815.693	14463.01
816.022	14342.11
816.351	14391.82
816.68	14307.08
817.008	14328.78
817.337	14260.08
817.665	14238.61
817.994	14194.54
818.322	14174.43
818.651	14142.34
818.979	14062.57
819.307	14222.79
819.636	14089.23
819.964	14173.98
820.292	14118.39
820.62	14077.26
820.948	14012.63
821.276	14091.27
821.604	14086.52
821.932	14090.59
822.259	14020.99
822.587	14061.89
822.915	14019.86
823.243	14035.9
823.57	13980.76
823.898	14007.43
824.225	13896.92
824.553	13985.06
824.88	13909.13
825.207	13963.14
825.535	13962.46
825.862	13994.32
826.189	13931.05
826.516	14072.96
826.843	14108.89
827.17	14114.77
827.497	14086.52
827.824	14072.29
828.151	14062.12
828.478	13991.61
828.805	14067.77
829.131	14045.17
829.458	14028.44
829.785	13969.69
830.111	14072.29
830.438	14075.68
830.764	14074.55
831.09	14087.65
831.417	13977.37
831.743	13994.55
832.069	13963.36
832.395	13986.86
832.722	14039.97
833.048	14006.3
833.374	14012.4
833.7	13974.66
834.026	13971.5
834.351	13979.18
834.677	13969.01
835.003	14011.95
835.329	13952.97
835.654	13866.87
835.98	13863.25
836.306	13953.87
836.631	13852.18
836.956	13858.28
837.282	13934.66
837.607	13792.07
837.932	13700.54
838.258	13785.51
838.583	13816.02
838.908	13611.96
839.233	13733.54
839.558	13709.13
839.883	13559.76
840.208	13522.47
840.533	13519.98
840.858	13599.98
841.182	13552.75
841.507	13523.6
841.832	13426.88
842.156	13444.51
842.481	13435.69
842.805	13429.36
843.13	13442.92
843.454	13368.8
843.778	13281.35
844.103	13265.75
844.427	13240.67
844.751	13233.66
845.075	13301.01
845.399	13151.86
845.723	13146.43
846.047	13112.99
846.371	13038.87
846.695	13011.07
847.019	12876.84
847.343	12832.77
847.666	12870.51
847.99	12723.39
848.313	12707.12
848.637	12693.11
848.96	12659.22
849.284	12629.61
849.607	12563.62
849.931	12478.2
850.254	12381.03
850.577	12443.63
850.9	12241.37
851.223	12254.71
851.546	12191.2
851.869	12038.89
852.192	12195.05
852.515	11979.23
852.838	12021.94
853.161	11991.66
853.483	11913.47
853.806	11937.65
854.129	11834.6
854.451	11870.99
854.774	11728.17
855.096	11730.2
855.419	11692.91
855.741	11688.17
856.063	11649.07
856.385	11609.53
856.708	11600.49
857.03	11508.28
857.352	11538.79
857.674	11418.34
857.996	11476.42
858.318	11368.63
858.64	11413.37
858.961	11321.4
859.283	11285.24
859.605	11263.55
859.926	11237.11
860.248	11246.82
860.57	11212.25
860.891	11251.12
861.212	11107.39
861.534	11120.72
861.855	11075.75
862.176	11094.06
862.498	11070.1
862.819	11117.79
863.14	11026.49
863.461	11006.15
863.782	10952.59
864.103	10975.42
864.424	10890.45
864.745	10911.92
865.065	10882.76
865.386	10889.09
865.707	10827.85
866.027	10903.33
866.348	10825.82
866.668	10792.82
866.989	10783.78
867.309	10721.64
867.63	10743.11
867.95	10680.06
868.27	10651.81
868.59	10664.01
868.91	10574.75
869.23	10676.22
869.55	10574.75
869.87	10623.56
870.19	10622.88
870.51	10602.09
870.83	10524.36
871.15	10511.93
871.469	10547.18
871.789	10565.26
872.109	10491.14
872.428	10447.3
872.748	10444.58
873.067	10466.05
873.386	10423.34
873.706	10416.34
874.025	10368.88
874.344	10293.85
874.663	10394.42
874.982	10321.88
875.301	10269.9
875.62	10353.74
875.939	10280.97
876.258	10335.21
876.577	10276.23
876.896	10280.07
877.214	10177.47
877.533	10203.01
877.852	10188.09
878.17	10106.29
878.489	10123.46
878.807	10126.63
879.125	10100.19
879.444	10094.76
879.762	10046.85
880.08	10087.76
880.398	10055.89
880.716	10040.75
881.034	9969.12
881.352	10046.63
881.67	9961.66
881.988	10046.4
882.306	9907.2
882.624	9871.94
882.941	9887.08
883.259	9820.65
883.577	9866.29
883.894	9821.32
884.212	9758.95
884.529	9762.12
884.846	9816.13
885.164	9641.22
885.481	9727.77
885.798	9685.28
886.115	9635.79
886.432	9685.96
886.75	9602.35
887.067	9590.14
887.383	9570.48
887.7	9563.48
888.017	9582.46
888.334	9519.64
888.651	9496.36
888.967	9439.41
889.284	9445.06
889.6	9387.66
889.917	9369.13
890.233	9375.46
890.55	9278.74
890.866	9294.56
891.182	9281.45
891.498	9206.42
891.815	9202.36
892.131	9239.42
892.447	9179.08
892.763	9086.2
893.079	9084.17
893.395	9077.61
893.71	8995.81
894.026	9066.54
894.342	8972.76
894.657	8939.09
894.973	8934.12
895.289	8938.41
895.604	8926.66
895.92	8878.75
896.235	8792.65
896.55	8797.85
896.865	8749.94
897.181	8714.01
897.496	8798.07
897.811	8695.48
898.126	8695.93
898.441	8634.91
898.756	8596.95
899.071	8549.04
899.386	8526.67
899.7	8493
900.015	8425.88
900.33	8320.57
900.644	8393.56
900.959	8414.81
901.273	8353.79
901.588	8234.7
901.902	8284.64
902.216	8216.85
902.531	8262.27
902.845	8170.07
903.159	8107.7
903.473	8130.52
903.787	8079
904.101	8003.52
904.415	8049.84
904.729	8043.97
905.042	7921.71
905.356	7941.15
905.67	7901.37
905.984	7906.35
906.297	7856.4
906.611	7780.25
906.924	7777.31
907.237	7712.45
907.551	7775.73
907.864	7737.08
908.177	7705.45
908.491	7639.46
908.804	7614.38
909.117	7569.18
909.43	7510.88
909.743	7503.42
910.056	7410.31
910.368	7442.86
910.681	7389.98
910.994	7357.43
911.307	7326.7
911.619	7351.11
911.932	7335.06
912.244	7221.84
912.557	7296.87
912.869	7169.64
913.181	7178.91
913.494	7170.55
913.806	7070.89
914.118	7102.98
914.43	6977.56
914.742	7013.71
915.054	6961.06
915.366	6994.96
915.678	6982.3
915.99	6872.93
916.302	6868.41
916.613	6802.42
916.925	6828.63
917.236	6796.09
917.548	6796.77
917.859	6800.39
918.171	6744.34
918.482	6664.34
918.794	6692.59
919.105	6616.89
919.416	6568.53
919.727	6573.95
920.038	6560.84
920.349	6517.23
920.66	6514.07
920.971	6496.21
921.282	6427.51
921.593	6413.73
921.903	6361.53
922.214	6392.94
922.525	6316.56
922.835	6296.44
923.146	6225.03
923.456	6283.79
923.767	6239.5
924.077	6260.29
924.387	6218.48
924.697	6159.73
925.008	6165.15
925.318	6077.69
925.628	6110.91
925.938	6072.72
926.248	5974.19
926.558	6001.09
926.867	6044.25
927.177	5987.53
927.487	5950.92
927.796	5879.28
928.106	5876.79
928.416	5837.7
928.725	5833.63
929.034	5801.77
929.344	5820.98
929.653	5779.85
929.962	5699.17
930.271	5771.03
930.581	5675.9
930.89	5644.26
931.199	5667.99
931.508	5646.74
931.817	5627.31
932.125	5623.24
932.434	5590.47
932.743	5517.93
933.051	5531.27
933.36	5507.76
933.669	5439.07
933.977	5443.36
934.286	5437.71
934.594	5435.45
934.902	5369.46
935.21	5365.62
935.519	5369.92
935.827	5340.09
936.135	5320.2
936.443	5292.63
936.751	5264.16
937.059	5257.6
937.367	5210.37
937.674	5213.31
937.982	5212.63
938.29	5145.97
938.597	5109.81
938.905	5082.47
939.213	5073.2
939.52	5068.45
939.827	5054.22
940.135	5019.64
940.442	4967.44
940.749	4958.4
941.056	4978.51
941.363	4944.16
941.67	4948.91
941.977	4896.03
942.284	4847.44
942.591	4879.53
942.898	4794.34
943.205	4828.01
943.511	4765.19
943.818	4798.4
944.125	4715.02
944.431	4708.92
944.738	4693.1
945.044	4717.96
945.35	4691.97
945.657	4642.7
945.963	4641.35
946.269	4609.94
946.575	4603.16
946.881	4562.93
947.187	4499.2
947.493	4519.32
947.799	4535.59
948.105	4525.87
948.41	4498.98
948.716	4466.66
949.022	4413.56
949.327	4444.52
949.633	4385.08
949.938	4373.78
950.244	4409.49
950.549	4349.83
950.854	4303.73
951.16	4281.36
951.465	4286.1
951.77	4224.86
952.075	4245.65
952.38	4208.59
952.685	4252.88
952.99	4186.44
953.294	4152.09
953.599	4141.25
953.904	4102.15
954.209	4122.72
954.513	4109.16
954.818	4064.64
955.122	4076.39
955.426	4091.53
955.731	4011.53
956.035	4034.13
956.339	4011.98
956.643	4001.82
956.948	3963.62
957.252	3957.07
957.556	3903.74
957.86	3878.2
958.163	3896.06
958.467	3873.23
958.771	3827.36
959.075	3894.93
959.378	3821.93
959.682	3807.92
959.985	3840.92
960.289	3758.21
960.592	3750.3
960.896	3750.97
961.199	3761.82
961.502	3724.76
961.805	3738.09
962.108	3678.21
962.411	3668.94
962.714	3645.44
963.017	3656.97
963.32	3648.15
963.623	3631.2
963.926	3587.14
964.228	3587.36
964.531	3545.33
964.833	3543.07
965.136	3532.9
965.438	3522.51
965.741	3499.46
966.043	3511.21
966.345	3484.32
966.648	3443.41
966.95	3478.44
967.252	3425.33
967.554	3416.52
967.856	3420.14
968.158	3402.28
968.46	3372.45
968.761	3360.48
969.063	3335.84
969.365	3313.47
969.666	3328.84
969.968	3311.66
970.269	3268.05
970.571	3249.52
970.872	3272.12
971.174	3280.48
971.475	3232.34
971.776	3163.19
972.077	3171.33
972.378	3182.18
972.679	3159.35
972.98	3124.78
973.281	3113.25
973.582	3158.67
973.883	3125.23
974.183	3100.82
974.484	3080.71
974.785	3082.97
975.085	3067.83
975.386	3074.83
975.686	3037.77
975.986	3052.91
976.287	3021.05
976.587	2982.86
976.887	2966.14
977.187	2967.04
977.487	2986.02
977.787	2937.66
978.087	2930.66
978.387	2913.93
978.687	2920.04
978.987	2869.64
979.286	2846.37
979.586	2870.09
979.885	2869.87
980.185	2833.71
980.484	2832.13
980.784	2817.89
981.083	2783.99
981.382	2804.33
981.682	2795.97
981.981	2762.07
982.28	2744
982.579	2731.34
982.878	2741.74
983.177	2701.74
983.475	2707.39
983.774	2697.22
984.073	2689.31
984.372	2670.33
984.67	2665.58
984.969	2662.87
985.267	2649.08
985.566	2634.17
985.864	2613.15
986.162	2609.99
986.461	2592.81
986.759	2570.89
987.057	2528.41
987.355	2551.01
987.653	2569.08
987.951	2536.32
988.249	2524.11
988.547	2490.67
988.844	2486.15
989.142	2507.62
989.44	2454.74
989.737	2468.07
990.035	2400.95
990.332	2412.48
990.63	2433.72
990.927	2397.79
991.224	2422.2
991.521	2378.58
991.819	2405.02
992.116	2369.99
992.413	2333.61
992.71	2367.73
993.006	2358.7
993.303	2361.41
993.6	2329.32
993.897	2269.21
994.193	2317.79
994.49	2290.9
994.787	2286.83
995.083	2224.01
995.379	2247.74
995.676	2273.27
995.972	2224.46
996.268	2223.33
996.565	2202.09
996.861	2186.95
997.157	2169.55
997.453	2190.79
997.749	2165.25
998.044	2132.03
998.34	2115.31
998.636	2177.91
998.932	2148.08
999.227	2105.14
999.523	2102.2
999.818	2066.27
1000.114	2099.94
1000.409	2062.43
1000.704	2039.16
1001	2026.27
1001.295	2026.27
1001.59	2021.08
1001.885	2034.64
1002.18	2020.85
1002.475	1979.27
1002.77	2002.77
1003.065	1963.23
1003.359	1946.28
1003.654	1962.55
1003.949	1965.71
1004.243	1943.56
1004.538	1897.92
1004.832	1946.28
1005.127	1899.72
1005.421	1917.12
1005.715	1932.04
1006.009	1865.6
1006.304	1854.08
1006.598	1836.67
1006.892	1853.62
1007.186	1827.86
1007.48	1806.17
1007.773	1789.9
1008.067	1798.03
1008.361	1766.62
1008.655	1791.7
1008.948	1763.46
1009.242	1731.82
1009.535	1706.96
1009.829	1714.42
1010.122	1722.1
1010.415	1728.66
1010.708	1723.91
1011.001	1692.72
1011.295	1690.46
1011.588	1665.15
1011.881	1660.86
1012.173	1668.54
1012.466	1637.36
1012.759	1648.21
1013.052	1638.04
1013.344	1613.4
1013.637	1622.67
1013.93	1595.78
1014.222	1601.43
1014.514	1575.66
1014.807	1551.03
1015.099	1565.27
1015.391	1556.46
1015.683	1548.55
1015.976	1537.93
1016.268	1525.27
1016.56	1503.12
1016.851	1539.96
1017.143	1503.8
1017.435	1474.42
1017.727	1485.95
1018.018	1458.15
1018.31	1447.98
1018.602	1441.66
1018.893	1438.49
1019.185	1440.98
1019.476	1421.32
1019.767	1421.54
1020.058	1406.4
1020.35	1376.57
1020.641	1404.14
1020.932	1362.34
1021.223	1386.29
1021.514	1351.49
1021.804	1358.5
1022.095	1360.3
1022.386	1344.03
1022.677	1324.37
1022.967	1293.86
1023.258	1331.38
1023.548	1335.9
1023.839	1306.07
1024.129	1275.33
1024.419	1304.94
1024.709	1273.98
1025	1243.02
1025.29	1259.97
1025.58	1250.93
1025.87	1237.59
1026.16	1207.99
1026.449	1193.53
1026.739	1184.26
1027.029	1226.07
1027.319	1207.99
1027.608	1207.99
1027.898	1182.23
1028.187	1181.32
1028.477	1198.95
1028.766	1163.7
1029.055	1143.36
1029.344	1159.86
1029.634	1137.71
1029.923	1140.65
1030.212	1125.06
1030.501	1117.82
1030.79	1105.85
1031.078	1117.37
1031.367	1079.63
1031.656	1091.84
1031.945	1069.46
1032.233	1074.89
1032.522	1041.44
1032.81	1070.37
1033.099	1040.99
1033.387	1044.61
1033.675	1050.03
1033.963	1033.53
1034.251	1028.33
1034.54	1039.18
1034.828	1013.87
1035.116	1004.38
1035.403	1015.23
1035.691	997.83
1035.979	980.2
1036.267	949.24
1036.554	975.45
1036.842	957.38
1037.129	963.7
1037.417	963.25
1037.704	961.67
1037.992	938.39
1038.279	948.79
1038.566	916.47
1038.853	916.47
1039.14	916.47
