Data from hue_50_FLMS001491_41.txt Node
Date: Mon Feb 06 15:10:10 GMT 2017
User: dcchb
Spectrometer: FLMS00149
Trigger mode: 0
Integration Time (sec): 2.000000E-2
Scans to average: 10
Electric dark correction enabled: true
Nonlinearity correction enabled: false
Boxcar width: 0
XAxis mode: Wavelengths
Number of Pixels in Spectrum: 2048
>>>>>Begin Spectral Data<<<<<
341.393	-18.45
341.776	-18.45
342.16	-18.45
342.543	-80.37
342.927	-67.94
343.31	-74.72
343.693	-79.24
344.077	-65.22
344.46	-75.39
344.843	-44.21
345.226	-44.66
345.61	-39.46
345.993	-21.61
346.376	19.52
346.759	-5.79
347.142	39.86
347.525	46.19
347.908	61.1
348.291	68.11
348.674	95.9
349.057	119.63
349.44	124.83
349.823	124.6
350.206	171.83
350.588	193.53
350.971	218.61
351.354	205.28
351.737	230.14
352.119	271.72
352.502	264.26
352.884	294.31
353.267	291.6
353.65	293.41
354.032	316.46
354.414	312.62
354.797	294.54
355.179	327.31
355.562	318.95
355.944	338.38
356.326	325.73
356.709	322.34
357.091	327.08
357.473	359.4
357.855	340.87
358.238	330.92
358.62	345.84
359.002	337.93
359.384	335.67
359.766	335.22
360.148	341.09
360.53	339.06
360.912	342.67
361.294	336.57
361.676	324.82
362.057	344.48
362.439	341.54
362.821	327.31
363.203	326.4
363.584	322.56
363.966	313.97
364.348	329.79
364.729	330.47
365.111	329.12
365.493	333.86
365.874	352.17
366.256	298.61
366.637	311.04
367.019	335.22
367.4	308.78
367.781	342.22
368.163	307.87
368.544	310.81
368.925	320.53
369.306	316.91
369.688	317.59
370.069	310.59
370.45	302.22
370.831	313.07
371.212	308.78
371.593	309.91
371.974	334.31
372.355	324.6
372.736	298.38
373.117	334.99
373.498	345.39
373.879	304.94
374.26	293.18
374.641	329.57
375.021	326.4
375.402	335.44
375.783	325.95
376.163	326.63
376.544	323.24
376.925	315.1
377.305	317.14
377.686	303.58
378.066	314.43
378.447	328.89
378.827	324.6
379.208	334.31
379.588	340.19
379.968	351.94
380.349	345.16
380.729	323.92
381.109	350.36
381.489	337.25
381.87	337.93
382.25	342.67
382.63	333.64
383.01	339.74
383.39	344.93
383.77	341.77
384.15	343.8
384.53	361.21
384.91	341.54
385.29	347.87
385.67	340.19
386.049	345.84
386.429	344.93
386.809	331.6
387.189	347.65
387.568	337.93
387.948	345.16
388.328	361.66
388.707	356.01
389.087	351.94
389.466	345.39
389.846	360.3
390.225	348.32
390.605	376.35
390.984	369.57
391.363	333.86
391.743	365.5
392.122	385.39
392.501	365.95
392.881	367.76
393.26	375.22
393.639	338.83
394.018	364.37
394.397	368.44
394.776	356.23
395.155	346.97
395.534	374.54
395.913	382.45
396.292	352.84
396.671	348.32
397.05	360.08
397.429	368.21
397.808	372.28
398.186	410.47
398.565	387.65
398.944	364.82
399.323	386.52
399.701	400.75
400.08	393.52
400.458	372.28
400.837	403.92
401.215	403.92
401.594	372.96
401.972	380.41
402.351	384.71
402.729	400.75
403.107	392.39
403.486	390.13
403.864	394.65
404.242	390.36
404.62	399.4
404.999	394.42
405.377	394.2
405.755	432.84
406.133	421.54
406.511	401.43
406.889	413.86
407.267	406.4
407.645	432.39
408.023	419.28
408.401	419.06
408.779	405.95
409.156	419.28
409.534	431.94
409.912	405.95
410.29	413.86
410.667	427.19
411.045	433.52
411.422	413.63
411.8	439.62
412.178	438.49
412.555	424.48
412.933	444.82
413.31	447.98
413.687	441.66
414.065	467.64
414.442	443.24
414.819	457.25
415.197	460.86
415.574	465.61
415.951	459.73
416.328	466.74
416.705	473.97
417.082	470.58
417.46	462.67
417.837	461.09
418.214	468.55
418.591	470.35
418.967	466.51
419.344	457.7
419.721	467.42
420.098	486.4
420.475	496.57
420.852	519.17
421.228	479.62
421.605	509.22
421.982	496.12
422.358	493.63
422.735	485.04
423.111	497.7
423.488	508.77
423.864	493.63
424.241	522.1
424.617	502.9
424.994	521.65
425.37	536.79
425.746	520.52
426.123	526.17
426.499	542.44
426.875	511.48
427.251	542.67
427.627	546.74
428.003	513.97
428.379	557.58
428.756	545.83
429.132	552.39
429.507	558.04
429.883	553.52
430.259	574.76
430.635	553.06
431.011	574.08
431.387	571.37
431.763	572.73
432.138	591.03
432.514	571.14
432.89	595.55
433.265	596
433.641	599.84
434.016	613.18
434.392	619.96
434.767	635.55
435.143	614.53
435.518	620.18
435.894	618.83
436.269	632.38
436.644	612.27
437.02	652.05
437.395	641.2
437.77	639.84
438.145	665.6
438.52	664.02
438.895	657.92
439.271	677.58
439.646	679.84
440.021	662.21
440.395	692.95
440.77	664.47
441.145	667.64
441.52	691.82
441.895	690.24
442.27	681.42
442.645	694.08
443.019	694.53
443.394	721.65
443.769	698.82
444.143	719.39
444.518	708.77
444.892	710.12
445.267	706.96
445.641	721.87
446.016	733.4
446.39	740.63
446.764	733.17
447.139	742.89
447.513	729.11
447.887	729.78
448.262	750.8
448.636	767.3
449.01	748.77
449.384	761.42
449.758	760.74
450.132	762.32
450.506	769.33
450.88	797.58
451.254	795.54
451.628	793.96
452.002	781.99
452.376	782.66
452.75	797.8
453.123	806.17
453.497	797.35
453.871	821.98
454.244	852.04
454.618	824.92
454.992	833.28
455.365	854.53
455.739	860.63
456.112	881.87
456.486	884.13
456.859	892.72
457.232	878.03
457.606	910.8
457.979	918.93
458.352	907.41
458.725	933.85
459.099	925.26
459.472	955.09
459.845	948.76
460.218	968.19
460.591	957.8
460.964	980.4
461.337	995.76
461.71	1012.04
462.083	1030.57
462.456	1023.79
462.829	1022.66
463.201	1053.84
463.574	1038.25
463.947	1059.27
464.32	1056.33
464.692	1113.28
465.065	1081.86
465.438	1107.4
465.81	1168.64
466.183	1152.37
466.555	1189.88
466.928	1164.57
467.3	1190.34
467.672	1216.32
468.045	1234.63
468.417	1248.64
468.789	1243.67
469.161	1288.86
469.534	1287.51
469.906	1322.31
470.278	1342.65
470.65	1353.95
471.022	1409.77
471.394	1417
471.766	1456.09
472.138	1458.8
472.51	1492.02
472.882	1520.72
473.253	1554.62
473.625	1575.41
473.997	1624
474.369	1637.33
474.74	1659.25
475.112	1722.3
475.484	1755.74
475.855	1794.39
476.227	1861.05
476.598	1912.12
476.97	1950.32
477.341	2026.92
477.713	2037.77
478.084	2107.37
478.455	2159.35
478.827	2184.66
479.198	2295.17
479.569	2370.19
479.94	2399.34
480.311	2421.26
480.682	2534.03
481.053	2620.35
481.424	2689.96
481.795	2753.01
482.166	2799.56
482.537	2870.74
482.908	2996.62
483.279	3063.06
483.65	3178.98
484.021	3239.55
484.391	3320.9
484.762	3399.54
485.133	3503.5
485.503	3618.29
485.874	3704.17
486.244	3789.82
486.615	3966.76
486.985	3996.14
487.356	4168.56
487.726	4250.82
488.097	4372.63
488.467	4477.93
488.837	4611.49
489.207	4709.79
489.578	4881.31
489.948	4954.98
490.318	5081.53
490.688	5174.41
491.058	5300.06
491.428	5467.74
491.798	5597.9
492.168	5746.37
492.538	5821.4
492.908	5905.69
493.278	6145.69
493.648	6246.47
494.017	6362.63
494.387	6478.56
494.757	6622.51
495.126	6754.94
495.496	6818.66
495.866	6955.83
496.235	7107.02
496.605	7279.44
496.974	7314.02
497.344	7463.62
497.713	7551.07
498.082	7740.22
498.452	7866.09
498.821	7938.41
499.19	8010.72
499.559	8192.86
499.928	8359.86
500.298	8346.53
500.667	8588.33
501.036	8598.95
501.405	8743.81
501.774	8792.62
502.143	8924.37
502.512	9072.39
502.88	9216.34
503.249	9300.41
503.618	9403.23
503.987	9448.42
504.356	9597.35
504.724	9725.93
505.093	9801.41
505.462	9840.96
505.83	9980.61
506.199	10080.95
506.567	10300.38
506.936	10388.74
507.304	10513.25
507.672	10540.6
508.041	10673.7
508.409	10727.26
508.777	10873.7
509.145	11034.6
509.514	11054.48
509.882	11149.4
510.25	11297.64
510.618	11391.65
510.986	11447.47
511.354	11626.22
511.722	11676.39
512.09	11873.22
512.458	11893.78
512.826	12027.11
513.193	12119.77
513.561	12140.56
513.929	12203.61
514.297	12341.46
514.664	12474.33
515.032	12553.65
515.4	12609.47
515.767	12734.21
516.135	12905.51
516.502	12786.64
516.869	13004.71
517.237	13125.16
517.604	13166.97
517.972	13332.84
518.339	13475.21
518.706	13516.34
519.073	13614.19
519.44	13670.01
519.808	13866.61
520.175	13821.87
520.542	14001.75
520.909	14070.9
521.276	14179.15
521.643	14280.61
522.009	14510.44
522.376	14512.7
522.743	14677.21
523.11	14738.68
523.477	14815.74
523.843	15017.32
524.21	15169.86
524.577	15265.9
524.943	15282.85
525.31	15305.22
525.676	15508.38
526.043	15637.41
526.409	15704.98
526.776	15846.67
527.142	15984.75
527.508	16074.92
527.874	16188.81
528.241	16210.73
528.607	16330.73
528.973	16426.09
529.339	16505.41
529.705	16632.19
530.071	16771.17
530.437	16915.12
530.803	16992.18
531.169	17083.7
531.535	17145.4
531.901	17190.59
532.267	17217.94
532.632	17421.32
532.998	17389.46
533.364	17490.7
533.73	17544.48
534.095	17770.01
534.461	17783.57
534.826	17823.8
535.192	17948.09
535.557	18093.62
535.923	18122.77
536.288	18158.93
536.653	18257.46
537.019	18286.84
537.384	18391.69
537.749	18446.83
538.114	18497.23
538.479	18537.9
538.845	18678.01
539.21	18579.94
539.575	18761.63
539.94	18796.65
540.305	18910.1
540.67	18953.71
541.034	19032.13
541.399	19004.33
541.764	19112.35
542.129	19166.81
542.494	19243.65
542.858	19263.53
543.223	19387.82
543.587	19561.83
543.952	19521.38
544.316	19580.13
544.681	19588.27
545.045	19664.43
545.41	19850.64
545.774	19936.06
546.138	19917.3
546.503	19948.03
546.867	19956.62
547.231	20252.43
547.595	20256.05
547.959	20248.14
548.324	20351.64
548.688	20278.2
549.052	20506.44
549.416	20501.24
549.779	20555.25
550.143	20610.39
550.507	20780.56
550.871	20824.85
551.235	20865.75
551.599	20991.85
551.962	21034.56
552.326	21047.21
552.689	21168.34
553.053	21091.96
553.417	21251.96
553.78	21515.45
554.143	21433.65
554.507	21555.22
554.87	21532.63
555.234	21767.2
555.597	21713.86
555.96	21850.13
556.323	21880.64
556.686	21886.29
557.05	22144.59
557.413	22100.52
557.776	22210.8
558.139	22436.78
558.502	22417.35
558.865	22537.8
559.228	22596.78
559.59	22605.14
559.953	22748.64
560.316	22881.74
560.679	22925.13
561.041	23058.69
561.404	23196.99
561.767	23256.65
562.129	23222.75
562.492	23477.66
562.854	23453.25
563.217	23548.17
563.579	23787.71
563.941	23788.84
564.304	23984.76
564.666	24041.49
565.028	24124.65
565.39	24107.47
565.753	24241.03
566.115	24368.26
566.477	24499.1
566.839	24536.39
567.201	24623.39
567.563	24568.93
567.925	24823.84
568.287	24862.26
568.648	24806.44
569.01	24914.01
569.372	25095.92
569.734	25162.36
570.095	25385.86
570.457	25506.08
570.819	25626.3
571.18	25638.05
571.542	25724.38
571.903	25785.62
572.265	25944.04
572.626	25947.43
572.987	25989.23
573.349	26169.79
573.71	26287.3
574.071	26360.3
574.432	26429.22
574.794	26705.37
575.155	26596.9
575.516	26594.19
575.877	26755.31
576.238	26774.07
576.599	26995.08
576.96	27015.42
577.32	27148.07
577.681	27342.64
578.042	27350.55
578.403	27414.05
578.763	27482.75
579.124	27526.37
579.485	27727.04
579.845	27880.93
580.206	27884.78
580.566	27985.34
580.927	28015.62
581.287	28233.01
581.648	28147.82
582.008	28360.24
582.368	28414.93
582.728	28473.69
583.089	28543.06
583.449	28576.28
583.809	28818.31
584.169	28855.15
584.529	28838.87
584.889	29125.65
585.249	29108.02
585.609	29068.92
585.969	29352.53
586.329	29284.29
586.688	29494.68
587.048	29468.91
587.408	29668.91
587.768	29766.31
588.127	29802.46
588.487	29870.49
588.846	30141.89
589.206	29964.04
589.565	30134.43
589.925	30330.13
590.284	30353.64
590.643	30477.7
591.003	30510.02
591.362	30878.59
591.721	30718.37
592.08	30857.13
592.44	30973.51
592.799	31012.83
593.158	31139.6
593.517	31268.19
593.876	31367.62
594.235	31384.8
594.593	31380.28
594.952	31654.85
595.311	31492.82
595.67	31693.04
596.029	31939.81
596.387	31999.47
596.746	32120.6
597.104	31995.63
597.463	32156.75
597.822	32353.13
598.18	32260.71
598.538	32194.49
598.897	32646.23
599.255	32353.58
599.613	32931.65
599.972	32815.72
600.33	32886.23
600.688	32912.21
601.046	33069.27
601.404	33250.51
601.762	33237.85
602.12	33311.3
602.478	33485.08
602.836	33471.75
603.194	33345.42
603.552	33525.3
603.91	33328.93
604.268	33581.8
604.625	33627.45
604.983	33895.69
605.341	33837.16
605.698	33889.82
606.056	34029.02
606.413	34066.99
606.771	34233.76
607.128	34311.95
607.485	34042.35
607.843	34037.38
608.2	34460.2
608.557	34669.23
608.914	34411.16
609.272	34689.12
609.629	34770.7
609.986	34917.13
610.343	34767.31
610.7	35144.47
611.057	34991.71
611.414	35202.1
611.771	35123.46
612.127	35258.59
612.484	35373.39
612.841	35467.85
613.198	35571.8
613.554	35571.13
613.911	35648.19
614.267	35699.03
614.624	35744
614.98	35878.69
615.337	36075.07
615.693	35997.33
616.05	36003.88
616.406	36171.56
616.762	36071.68
617.118	36020.83
617.475	36190.77
617.831	36382.86
618.187	36353.71
618.543	36412.46
618.899	36644.32
619.255	36562.97
619.611	36592.57
619.967	36669.4
620.323	36829.62
620.678	36640.25
621.034	36668.27
621.39	36672.11
621.746	36708.05
622.101	37148.94
622.457	36863.3
622.812	36944.88
623.168	37042.05
623.523	36974.03
623.879	37216.51
624.234	37105.55
624.589	37177.41
624.945	37204.98
625.3	37134.48
625.655	37204.98
626.01	37324.75
626.365	37331.98
626.72	37350.06
627.075	37307.35
627.43	37312.1
627.785	37242.04
628.14	37412.21
628.495	37341.48
628.85	37294.92
629.205	37256.96
629.559	37505.77
629.914	37334.24
630.269	37353
630.623	37259.44
630.978	37109.62
631.332	37365.2
631.687	37421.7
632.041	37269.61
632.396	37438.42
632.75	37418.76
633.104	37314.58
633.459	37188.49
633.813	37064.19
634.167	37255.83
634.521	37177.64
634.875	37130.86
635.229	37201.59
635.583	37167.7
635.937	37172.21
636.291	37071.88
636.645	37113.91
636.999	36934.71
637.352	37062.61
637.706	36920.92
638.06	37085.66
638.413	37005.44
638.767	36939.9
639.121	36980.58
639.474	36773.13
639.828	36859
640.181	36870.3
640.534	36781.04
640.888	36864.2
641.241	36661.95
641.594	36793.24
641.947	36779.46
642.301	36753.69
642.654	36829.85
643.007	36766.8
643.36	36722.06
643.713	36674.83
644.066	36884.76
644.419	36561.16
644.771	36293.82
645.124	35861.29
645.477	35900.84
645.83	35767.05
646.182	35471.24
646.535	35586.72
646.888	35561.18
647.24	35358.93
647.593	35641.41
647.945	35527.96
648.298	35388.98
648.65	35385.82
649.002	35200.29
649.355	35425.37
649.707	35348.31
650.059	35499.04
650.411	35842.53
650.763	35890.89
651.115	36267.38
651.467	36127.72
651.819	36010.21
652.171	36054.96
652.523	35981.29
652.875	35865.36
653.227	35955.52
653.578	36151.9
653.93	35922.08
654.282	35831.68
654.633	35765.02
654.985	36002.75
655.337	35829.43
655.688	35888.86
656.039	36106.25
656.391	35614.06
656.742	35772.93
657.094	35842.31
657.445	35903.1
657.796	35773.38
658.147	35708.3
658.498	35657.9
658.849	35739.94
659.2	35678.92
659.551	35615.65
659.902	35668.07
660.253	35675.76
660.604	35780.84
660.955	35401.87
661.306	35614.06
661.656	35549.43
662.007	35612.48
662.358	35538.36
662.708	35599.6
663.059	35544.69
663.409	35385.6
663.76	35509.43
664.11	35569.32
664.461	35599.6
664.811	35549.66
665.161	35575.19
665.511	35404.58
665.862	35472.15
666.212	35702.65
666.562	35656.77
666.912	35560.05
667.262	35454.07
667.612	35452.94
667.962	35388.31
668.312	35590.11
668.662	35612.93
669.011	35516.44
669.361	35444.8
669.711	35351.25
670.06	35375.43
670.41	35280.74
670.76	35357.12
671.109	35579.04
671.459	35417.46
671.808	35292.72
672.157	35317.57
672.507	35191.7
672.856	35243.68
673.205	35213.62
673.554	35399.83
673.904	35234.19
674.253	35281.19
674.602	35224.47
674.951	34801.2
675.3	34521.44
675.649	35102.66
675.998	35135.66
676.346	35107.64
676.695	35142.66
677.044	34928.88
677.393	35014.08
677.741	35133.4
678.09	34973.4
678.438	34828.77
678.787	34986.74
679.135	34941.54
679.484	34852.05
679.832	34957.81
680.181	34625.61
680.529	34833.97
680.877	34637.14
681.225	34612.51
681.573	34972.95
681.922	34605.73
682.27	34573.41
682.618	34440.08
682.966	34517.82
683.314	34470.59
683.661	34326.19
684.009	34149.92
684.357	34203.03
684.705	34103.59
685.053	34222.24
685.4	33950.38
685.748	33900.66
686.095	33876.48
686.443	33845.07
686.79	33704.51
687.138	33903.37
687.485	33721.01
687.832	33658.63
688.18	33699.76
688.527	33462.71
688.874	33544.29
689.221	33445.98
689.568	33385.42
689.915	33211.87
690.262	33327.34
690.609	33115.15
690.956	33106.11
691.303	33068.37
691.65	32859.11
691.997	32921.03
692.344	32776.62
692.69	32679.23
693.037	32812.1
693.383	32485.78
693.73	32564.43
694.077	32364.21
694.423	32308.61
694.769	32233.81
695.116	32102.29
695.462	32202.18
695.808	32163.76
696.155	32284.89
696.501	31821.39
696.847	31846.93
697.193	31672.7
697.539	31722.19
697.885	31460.05
698.231	31370.33
698.577	31532.59
698.923	31481.97
699.269	31251.24
699.614	31154.07
699.96	31093.96
700.306	31068.87
700.651	31031.81
700.997	30769.9
701.342	30829.33
701.688	30691.03
702.033	30700.52
702.379	30667.75
702.724	30579.62
703.069	30676.79
703.415	30381.88
703.76	30230.93
704.105	30311.15
704.45	30067.32
704.795	30143.47
705.14	29896.25
705.485	29974.66
705.83	29819.19
706.175	29800.43
706.52	29701.9
706.865	29647.21
707.209	29650.38
707.554	29473.21
707.899	29600.21
708.243	29430.72
708.588	29362.25
708.932	29236.6
709.277	29289.03
709.621	29240.45
709.966	29030.73
710.31	29162.26
710.654	29017.63
710.998	28865.31
711.342	28828.25
711.687	28720.46
712.031	28696.05
712.375	28633.46
712.719	28562.72
713.063	28482.73
713.407	28572.44
713.75	28393.24
714.094	28420.58
714.438	28249.29
714.782	28272.56
715.125	28193.02
715.469	28197.08
715.812	28121.61
716.156	27988.5
716.499	27973.59
716.843	27886.81
717.186	27723.2
717.53	27942.4
717.873	27965.45
718.216	27897.43
718.559	27591.9
718.902	27445.01
719.246	27649.08
719.589	27592.58
719.932	27327.95
720.275	27448.63
720.617	27453.15
720.96	27274.62
721.303	27300.84
721.646	27269.88
721.989	27156.66
722.331	27209.99
722.674	27013.61
723.016	27073.27
723.359	27007.51
723.701	27074.63
724.044	26941.3
724.386	26688.65
724.729	26838.48
725.071	26830.79
725.413	26697.46
725.755	26666.95
726.097	26613.17
726.439	26608.2
726.782	26584.24
727.124	26675.54
727.465	26450.24
727.807	26566.62
728.149	26451.37
728.491	26260.86
728.833	26398.71
729.175	26308.55
729.516	26268.55
729.858	26248.66
730.199	26243.69
730.541	26069
730.882	26019.51
731.224	26196.23
731.565	25991.49
731.906	26045.05
732.248	26057.25
732.589	25904.49
732.93	25688.45
733.271	25780.65
733.612	25805.96
733.953	25838.05
734.294	25775
734.635	25645.74
734.976	25739.52
735.317	25525.06
735.658	25619.07
735.999	25524.16
736.339	25509.47
736.68	25584.72
737.021	25511.96
737.361	25338.85
737.702	25561.45
738.042	25410.94
738.383	25281.45
738.723	25332.07
739.063	25218.86
739.404	25299.76
739.744	25264.96
740.084	24974.34
740.424	25222.25
740.764	25043.72
741.104	25184.28
741.444	25017.96
741.784	24915.14
742.124	24993.78
742.464	24870.17
742.804	24858.87
743.143	24755.82
743.483	24906.55
743.823	24610.06
744.162	24706.55
744.502	24618.42
744.841	24627.23
745.181	24707.23
745.52	24618.65
745.86	24695.25
746.199	24524.64
746.538	24526.22
746.877	24622.26
747.216	24561.7
747.556	24353.12
747.895	24408.03
748.234	24267.47
748.573	24327.13
748.911	24301.59
749.25	24183.4
749.589	24133.69
749.928	24173.23
750.267	24156.29
750.605	24146.79
750.944	24023.86
751.283	23912.68
751.621	23933.69
751.96	23897.76
752.298	23767.82
752.636	23824.54
752.975	23677.65
753.313	23664.1
753.651	23766.01
753.989	23688.5
754.327	23521.27
754.666	23430.2
755.004	23453.71
755.342	23499.81
755.679	23443.31
756.017	23410.09
756.355	23367.61
756.693	23223.65
757.031	23332.13
757.368	23098.01
757.706	23035.19
758.044	23024.79
758.381	23071.12
758.719	22940.27
759.056	22861.86
759.394	22872.03
759.731	22615.54
760.068	22684.23
760.405	22556.55
760.743	22515.65
761.08	22598.81
761.417	22318.82
761.754	22423.68
762.091	22399.72
762.428	22296
762.765	22033.4
763.102	22197.69
763.438	21981.43
763.775	22018.94
764.112	22029.11
764.449	22007.64
764.785	21993.18
765.122	21707.76
765.458	21665.28
765.795	21632.96
766.131	21590.25
766.467	21568.33
766.804	21361.33
767.14	21356.81
767.476	21321.78
767.812	21149.13
768.148	21147.78
768.485	20994.56
768.821	20927.22
769.157	20952.3
769.492	20894
769.828	20872.76
770.164	20707.34
770.5	20629.82
770.836	20674.12
771.171	20502.82
771.507	20475.7
771.842	20180.57
772.178	20344.63
772.513	20221.25
772.849	20099.9
773.184	19946
773.519	20058.54
773.855	19905.1
774.19	19792.33
774.525	19746.01
774.86	19706.23
775.195	19704.88
775.53	19611.77
775.865	19545.56
776.2	19419.91
776.535	19362.29
776.87	19300.82
777.205	19259.24
777.539	19119.81
777.874	19117.32
778.209	19027.83
778.543	18969.08
778.878	18918.68
779.212	18879.36
779.547	18697.22
779.881	18817.44
780.215	18686.6
780.55	18683.66
780.884	18469.43
781.218	18493.84
781.552	18518.24
781.886	18405.02
782.22	18322.54
782.554	18196.22
782.888	18093.39
783.222	18094.07
783.556	17909.22
783.889	17834.87
784.223	17789.9
784.557	17801.65
784.89	17794.87
785.224	17672.61
785.557	17648.21
785.891	17546.29
786.224	17486.18
786.558	17489.79
786.891	17283.7
787.224	17218.39
787.557	17157.15
787.891	17213.87
788.224	17214.32
788.557	17064.04
788.89	16938.17
789.223	17052.29
789.556	16822.02
789.888	16846.65
790.221	16707.89
790.554	16634.68
790.887	16751.96
791.219	16575.69
791.552	16415.7
791.884	16508.8
792.217	16377.06
792.549	16450.73
792.882	16204.86
793.214	16267.45
793.546	16244.63
793.879	16102.71
794.211	16002.15
794.543	16048.48
794.875	15972.77
795.207	16049.38
795.539	15951.53
795.871	15877.86
796.203	15755.83
796.535	15663.4
796.867	15615.95
797.198	15577.98
797.53	15546.57
797.862	15506.57
798.193	15559.45
798.525	15444.65
798.856	15464.54
799.188	15204.43
799.519	15198.78
799.85	15116.98
800.182	15168.5
800.513	15139.12
800.844	14991.55
801.175	15068.84
801.506	15009.63
801.837	14925.12
802.168	14842.63
802.499	14872.91
802.83	14777.55
803.161	14739.81
803.491	14693.48
803.822	14702.52
804.153	14645.12
804.483	14473.83
804.814	14503.66
805.145	14450.1
805.475	14458.69
805.805	14376.2
806.136	14393.15
806.466	14428.18
806.796	14332.59
807.126	14243.1
807.457	14273.16
807.787	14137.34
808.117	14163.33
808.447	14119.94
808.777	14112.71
809.107	14032.03
809.436	13970.34
809.766	13925.59
810.096	13895.31
810.426	13802.21
810.755	13818.25
811.085	13782.55
811.414	13767.41
811.744	13705.71
812.073	13719.72
812.403	13631.36
812.732	13606.96
813.061	13616.22
813.39	13572.38
813.719	13478.6
814.049	13515.66
814.378	13489.67
814.707	13411.03
815.036	13411.48
815.365	13300.07
815.693	13204.03
816.022	13241.77
816.351	13137.37
816.68	13153.86
817.008	13163.81
817.337	13056.01
817.665	13029.12
817.994	13051.04
818.322	13056.46
818.651	12955.45
818.979	12853.76
819.307	12973.98
819.636	12917.03
819.964	12745.06
820.292	12882.23
820.62	12876.58
820.948	12804.95
821.276	12794.78
821.604	12767.88
821.932	12811.95
822.259	12745.96
822.587	12740.99
822.915	12713.2
823.243	12728.79
823.57	12748
823.898	12780.99
824.225	12716.59
824.553	12701.9
824.88	12693.31
825.207	12717.94
825.535	12630.04
825.862	12735.34
826.189	12664.61
826.516	12692.18
826.843	12662.58
827.17	12742.35
827.497	12704.16
827.824	12714.33
828.151	12689.02
828.478	12665.97
828.805	12708
829.131	12601.79
829.458	12670.71
829.785	12538.51
830.111	12629.36
830.438	12691.95
830.764	12677.27
831.09	12601.11
831.417	12595.23
831.743	12626.42
832.069	12684.27
832.395	12595.23
832.722	12602.92
833.048	12547.78
833.374	12594.78
833.7	12548
834.026	12465.07
834.351	12518.4
834.677	12535.35
835.003	12563.37
835.329	12495.35
835.654	12470.27
835.98	12476.82
836.306	12368.35
836.631	12355.01
836.956	12424.39
837.282	12442.02
837.607	12371.06
837.932	12275.24
838.258	12343.71
838.583	12305.07
838.908	12252.42
839.233	12312.76
839.558	12237.28
839.883	12195.7
840.208	12196.15
840.533	12249.48
840.858	12228.46
841.182	12211.52
841.507	12134.23
841.832	12148.24
842.156	12090.16
842.481	12067.79
842.805	12003.16
843.13	12026.89
843.454	11929.04
843.778	11950.73
844.103	11895.14
844.427	11904.18
844.751	11837.97
845.075	11860.79
845.399	11740.79
845.723	11739.21
846.047	11684.75
846.371	11653.56
846.695	11651.98
847.019	11585.32
847.343	11465.32
847.666	11469.39
847.99	11412.67
848.313	11458.99
848.637	11352.33
848.96	11359.33
849.284	11268.94
849.607	11212.22
849.931	11171.99
850.254	11061.71
850.577	11105.56
850.9	10979.46
851.223	11005.9
851.546	10861.95
851.869	10820.14
852.192	10853.81
852.515	10751.89
852.838	10707.15
853.161	10753.7
853.483	10690.65
853.806	10640.48
854.129	10703.76
854.451	10563.87
854.774	10545.12
855.096	10501.28
855.419	10514.84
855.741	10543.76
856.063	10388.74
856.385	10431.9
856.708	10295.63
857.03	10253.37
857.352	10254.73
857.674	10275.29
857.996	10254.05
858.318	10205.92
858.64	10223.32
858.961	10107.84
859.283	10115.52
859.605	10070.78
859.926	10047.5
860.248	10054.51
860.57	9969.09
860.891	9951.01
861.212	9974.06
861.534	9944.68
861.855	9870.33
862.176	9942.65
862.498	9871.92
862.819	9938.13
863.14	9832.37
863.461	9807.28
863.782	9812.93
864.103	9765.7
864.424	9704.01
864.745	9747.4
865.065	9767.51
865.386	9708.53
865.707	9657.46
866.027	9640.06
866.348	9629.89
866.668	9615.65
866.989	9614.75
867.309	9483
867.63	9550.79
867.95	9559.61
868.27	9513.73
868.59	9565.71
868.91	9554.64
869.23	9505.82
869.55	9454.07
869.87	9511.02
870.19	9372.27
870.51	9379.05
870.83	9401.65
871.15	9322.33
871.469	9339.5
871.789	9458.14
872.109	9331.59
872.428	9280.07
872.748	9322.55
873.067	9285.94
873.386	9345.15
873.706	9257.24
874.025	9206.4
874.344	9173.85
874.663	9205.27
874.982	9239.84
875.301	9162.56
875.62	9154.42
875.939	9121.88
876.258	9127.53
876.577	9102.9
876.896	9135.21
877.214	9066.06
877.533	9102.44
877.852	9044.59
878.17	9104.48
878.489	9059.28
878.807	9118.72
879.125	9060.19
879.444	8996.01
879.762	8988.55
880.08	8976.35
880.398	8914.43
880.716	8924.6
881.034	8902.22
881.352	8923.47
881.67	8882.34
881.988	8894.99
882.306	8841.66
882.624	8757.82
882.941	8760.76
883.259	8748.78
883.577	8727.31
883.894	8691.83
884.212	8639.18
884.529	8670.82
884.846	8680.08
885.164	8660.87
885.481	8588.33
885.798	8595.79
886.115	8551.05
886.432	8581.33
886.75	8568.67
887.067	8566.64
887.383	8481.67
887.7	8470.37
888.017	8448.9
888.334	8432.18
888.651	8445.06
888.967	8377.94
889.284	8393.76
889.6	8346.98
889.917	8329.58
890.233	8279.19
890.55	8307.66
890.866	8258.85
891.182	8256.59
891.498	8243.26
891.815	8168.23
892.131	8227.44
892.447	8186.54
892.763	8140.44
893.079	8075.58
893.395	8067.67
893.71	8123.04
894.026	8008.01
894.342	8040.1
894.657	7995.81
894.973	7973.21
895.289	7915.81
895.604	7916.03
895.92	7844.17
896.235	7827.45
896.55	7824.29
896.865	7806.21
897.181	7798.75
897.496	7765.53
897.811	7737.73
898.126	7737.51
898.441	7629.26
898.756	7606.66
899.071	7631.07
899.386	7597.17
899.7	7540.23
900.015	7504.75
900.33	7443.28
900.644	7522.15
900.959	7483.28
901.273	7465.43
901.588	7333.68
901.902	7315.37
902.216	7356.5
902.531	7276.28
902.845	7366.22
903.159	7246
903.473	7228.6
903.787	7204.19
904.101	7169.16
904.415	7141.82
904.729	7112.67
905.042	7126.68
905.356	7075.6
905.67	7039.22
905.984	6994.25
906.297	6966.46
906.611	6882.39
906.924	6942.73
907.237	6893.01
907.551	6896.4
907.864	6883.52
908.177	6887.36
908.491	6808.72
908.804	6790.41
909.117	6765.78
909.43	6718.33
909.743	6688.27
910.056	6674.26
910.368	6652.57
910.681	6611.44
910.994	6660.02
911.307	6585.9
911.619	6509.29
911.932	6558.33
912.244	6498.9
912.557	6480.37
912.869	6481.04
913.181	6424.32
913.494	6417.77
913.806	6349.52
914.118	6362.4
914.43	6289.86
914.742	6288.96
915.054	6293.7
915.366	6218
915.678	6221.62
915.99	6179.58
916.302	6114.95
916.613	6147.04
916.925	6136.42
917.236	6053.71
917.548	6025.46
917.859	6088.06
918.171	5982.3
918.482	5996.99
918.794	5989.76
919.105	5968.29
919.416	5922.41
919.727	5938.69
920.038	5876.77
920.349	5855.75
920.66	5781.85
920.971	5775.98
921.282	5763.32
921.593	5745.24
921.903	5748.41
922.214	5716.77
922.525	5655.3
922.835	5674.96
923.146	5597.45
923.456	5623.67
923.767	5614.85
924.077	5564.23
924.387	5556.77
924.697	5540.05
925.008	5483.1
925.318	5495.76
925.628	5482.43
925.938	5455.08
926.248	5399.94
926.558	5357.01
926.867	5364.46
927.177	5336.44
927.487	5328.08
927.796	5300.06
928.106	5240.62
928.416	5256.67
928.725	5198.82
929.034	5193.39
929.344	5181.19
929.653	5189.55
929.962	5136.9
930.271	5104.81
930.581	5071.82
930.89	5082.44
931.199	5033.4
931.508	4998.82
931.817	5049.44
932.125	4989.56
932.434	4960.41
932.743	4873.85
933.051	4922.22
933.36	4886.28
933.669	4844.25
933.977	4842.44
934.286	4857.13
934.594	4771.48
934.902	4815.1
935.21	4766.74
935.519	4788.89
935.827	4744.82
936.135	4717.02
936.443	4682.9
936.751	4654.2
937.059	4651.94
937.367	4606.07
937.674	4647.19
937.982	4614.88
938.29	4597.03
938.597	4611.26
938.905	4511.38
939.213	4526.75
939.52	4461.89
939.827	4500.98
940.135	4461.21
940.442	4499.85
940.749	4432.96
941.056	4456.46
941.363	4367.2
941.67	4344.38
941.977	4342.34
942.284	4306.41
942.591	4347.09
942.898	4283.14
943.205	4256.7
943.511	4277.94
943.818	4263.25
944.125	4188.22
944.431	4178.96
944.738	4219.41
945.044	4132.63
945.35	4108
945.657	4098.73
945.963	4122.91
946.269	4083.59
946.575	4067.1
946.881	4072.52
947.187	4055.8
947.493	4031.62
947.799	3995.91
948.105	4032.07
948.41	3975.8
948.716	3971.96
949.022	3981
949.327	3918.85
949.633	3908.91
949.938	3895.8
950.244	3878.17
950.549	3835.24
950.854	3817.39
951.16	3752.98
951.465	3833.88
951.77	3789.14
952.075	3802.7
952.38	3741.23
952.685	3726.54
952.99	3712.3
953.294	3703.72
953.599	3704.85
953.904	3625.3
954.209	3660.55
954.513	3683.15
954.818	3634.79
955.122	3656.49
955.426	3589.82
955.731	3598.41
956.035	3602.02
956.339	3590.5
956.643	3560.22
956.948	3555.47
957.252	3486.77
957.556	3510.5
957.86	3456.94
958.163	3488.13
958.467	3468.02
958.771	3472.76
959.075	3423.5
959.378	3425.08
959.682	3402.71
959.985	3400
960.289	3399.09
960.592	3334.69
960.896	3361.35
961.199	3297.85
961.502	3289.72
961.805	3320.9
962.108	3312.99
962.411	3270.96
962.714	3241.13
963.017	3237.51
963.32	3237.97
963.623	3213.79
963.926	3216.72
964.228	3172.2
964.531	3174.92
964.833	3187.12
965.136	3152.77
965.438	3118.87
965.741	3121.13
966.043	3108.48
966.345	3086.78
966.648	3071.42
966.95	3058.54
967.252	3049.5
967.554	3009.72
967.856	3000.01
968.158	2973.57
968.46	2998.42
968.761	2991.64
969.063	2940.12
969.365	2910.29
969.666	2883.85
969.968	2948.48
970.269	2932.89
970.571	2911.42
970.872	2935.15
971.174	2872.1
971.475	2866.9
971.776	2858.99
972.077	2850.41
972.378	2850.86
972.679	2845.43
972.98	2818.32
973.281	2808.37
973.582	2805.43
973.883	2778.77
974.183	2754.81
974.484	2761.14
974.785	2748.26
975.085	2727.02
975.386	2727.7
975.686	2734.25
975.986	2700.8
976.287	2696.96
976.587	2650.41
976.887	2666.46
977.187	2646.12
977.487	2607.93
977.787	2618.77
978.087	2578.55
978.387	2610.64
978.687	2628.94
978.987	2577.19
979.286	2592.78
979.586	2585.55
979.885	2543.97
980.185	2538.32
980.484	2503.52
980.784	2508.49
981.083	2503.75
981.382	2491.32
981.682	2467.36
981.981	2497.87
982.28	2498.78
982.579	2441.38
982.878	2439.12
983.177	2433.92
983.475	2425.11
983.774	2410.42
984.073	2382.62
984.372	2357.54
984.67	2364.32
984.969	2371.32
985.267	2368.38
985.566	2365.45
985.864	2321.38
986.162	2330.64
986.461	2343.98
986.759	2304.2
987.057	2242.29
987.355	2270.76
987.653	2278.89
987.951	2268.73
988.249	2233.02
988.547	2225.79
988.844	2185.34
989.142	2210.65
989.44	2214.94
989.737	2216.98
990.035	2187.82
990.332	2206.58
990.63	2178.11
990.927	2158.22
991.224	2153.47
991.521	2134.94
991.819	2122.74
992.116	2144.66
992.413	2120.71
992.71	2108.5
993.006	2085
993.303	2093.82
993.6	2091.33
993.897	2079.35
994.193	2029.18
994.49	2047.04
994.787	2060.14
995.083	2001.84
995.379	2018.11
995.676	2020.82
995.972	1996.19
996.268	2012.01
996.565	1997.32
996.861	1987.83
997.157	1976.3
997.453	1958.9
997.749	1932.69
998.044	1904.67
998.34	1947.15
998.636	1887.94
998.932	1897.44
999.227	1906.48
999.523	1896.31
999.818	1882.52
1000.114	1862.86
1000.409	1854.5
1000.704	1839.81
1001	1843.43
1001.295	1817.89
1001.59	1847.72
1001.885	1795.97
1002.18	1773.37
1002.475	1763.2
1002.77	1763.65
1003.065	1759.36
1003.359	1788.51
1003.654	1753.48
1003.949	1733.15
1004.243	1749.42
1004.538	1720.27
1004.832	1731.34
1005.127	1715.07
1005.421	1691.57
1005.715	1668.52
1006.009	1671.91
1006.304	1679.81
1006.598	1664.67
1006.892	1642.53
1007.186	1652.47
1007.48	1626.48
1007.773	1633.71
1008.067	1599.59
1008.361	1605.69
1008.655	1602.3
1008.948	1581.74
1009.242	1609.99
1009.535	1612.02
1009.829	1581.74
1010.122	1581.06
1010.415	1547.39
1010.708	1534.06
1011.001	1527.28
1011.295	1508.97
1011.588	1519.82
1011.881	1506.03
1012.173	1504.9
1012.466	1482.53
1012.759	1487.28
1013.052	1505.13
1013.344	1459.26
1013.637	1477.11
1013.93	1433.72
1014.222	1422.87
1014.514	1421.74
1014.807	1409.09
1015.099	1429.65
1015.391	1424.23
1015.683	1399.37
1015.976	1404.79
1016.268	1394.62
1016.56	1384.23
1016.851	1383.78
1017.143	1370.9
1017.435	1387.39
1017.727	1330.45
1018.018	1326.6
1018.31	1330.45
1018.602	1301.07
1018.893	1311.24
1019.185	1299.49
1019.476	1290.45
1019.767	1297.23
1020.058	1293.61
1020.35	1288.86
1020.641	1286.38
1020.932	1256.1
1021.223	1235.31
1021.514	1240.96
1021.804	1238.92
1022.095	1264.23
1022.386	1208.41
1022.677	1206.83
1022.967	1206.83
1023.258	1205.02
1023.548	1195.99
1023.839	1188.98
1024.129	1170.45
1024.419	1170
1024.709	1188.53
1025	1156.89
1025.29	1131.58
1025.58	1149.89
1025.87	1121.86
1026.16	1099.04
1026.449	1129.77
1026.739	1111.02
1027.029	1113.95
1027.319	1089.1
1027.608	1105.59
1027.898	1072.15
1028.187	1066.05
1028.477	1071.92
1028.766	1057.46
1029.055	1070.11
1029.344	1039.38
1029.634	1063.56
1029.923	1044.35
1030.212	1033.28
1030.501	1011.58
1030.79	1009.32
1031.078	1015.88
1031.367	999.15
1031.656	1000.06
1031.945	1000.74
1032.233	977.69
1032.522	972.49
1032.81	985.37
1033.099	986.5
1033.387	976.1
1033.675	952.15
1033.963	957.57
1034.251	958.25
1034.54	942.66
1034.828	922.55
1035.116	930.23
1035.403	947.63
1035.691	891.59
1035.979	913.06
1036.267	926.39
1036.554	879.61
1036.842	907.41
1037.129	899.5
1037.417	859.72
1037.704	882.77
1037.992	884.58
1038.279	891.81
1038.566	871.47
1038.853	871.47
1039.14	871.47
