Data from hue_250_FLMS001491_00024.txt Node
Date: Tue Feb 07 16:00:45 GMT 2017
User: dcchb
Spectrometer: FLMS00149
Trigger mode: 0
Integration Time (sec): 2.000000E-2
Scans to average: 10
Electric dark correction enabled: true
Nonlinearity correction enabled: false
Boxcar width: 0
XAxis mode: Wavelengths
Number of Pixels in Spectrum: 2048
>>>>>Begin Spectral Data<<<<<
341.393	-9.86
341.776	-9.86
342.16	-9.86
342.543	-60.93
342.927	-62.06
343.31	-55.51
343.693	-72.68
344.077	-45.79
344.46	-51.21
344.843	-60.93
345.226	-40.37
345.61	-32.91
345.993	-17.32
346.376	-0.82
346.759	-9.41
347.142	15.45
347.525	45.96
347.908	50.93
348.291	64.49
348.674	90.48
349.057	119.63
349.44	120.08
349.823	165.28
350.206	156.46
350.588	194.43
350.971	193.07
351.354	212.73
351.737	235.56
352.119	226.52
352.502	241.89
352.884	262.45
353.267	273.98
353.65	269.91
354.032	280.98
354.414	280.53
354.797	313.07
355.179	306.52
355.562	314.88
355.944	290.47
356.326	320.3
356.709	317.14
357.091	325.27
357.473	341.32
357.855	327.76
358.238	347.42
358.62	334.31
359.002	329.79
359.384	336.57
359.766	315.33
360.148	313.3
360.53	326.4
360.912	320.3
361.294	337.93
361.676	308.78
362.057	313.75
362.439	288.89
362.821	304.48
363.203	314.43
363.584	315.78
363.966	311.49
364.348	337.25
364.729	313.07
365.111	298.83
365.493	314.2
365.874	320.3
366.256	312.17
366.637	314.65
367.019	305.84
367.4	318.95
367.781	306.07
368.163	300.19
368.544	290.47
368.925	294.09
369.306	288.44
369.688	312.17
370.069	307.42
370.45	310.36
370.831	309
371.212	312.17
371.593	318.49
371.974	314.43
372.355	297.25
372.736	311.71
373.117	316.46
373.498	317.82
373.879	299.29
374.26	317.82
374.641	324.82
375.021	323.69
375.402	302
375.783	301.09
376.163	332.28
376.544	316.69
376.925	336.8
377.305	305.39
377.686	317.82
378.066	325.5
378.447	329.34
378.827	338.83
379.208	310.59
379.588	323.92
379.968	317.36
380.349	320.98
380.729	335.44
381.109	324.6
381.489	333.41
381.87	326.18
382.25	342.45
382.63	336.8
383.01	314.88
383.39	344.03
383.77	356.23
384.15	318.49
384.53	345.84
384.91	349.23
385.29	358.04
385.67	341.54
386.049	346.52
386.429	332.73
386.809	352.17
387.189	370.47
387.568	337.25
387.948	367.98
388.328	351.04
388.707	358.04
389.087	357.36
389.466	364.82
389.846	346.52
390.225	364.59
390.605	356.46
390.984	374.99
391.363	353.07
391.743	361.88
392.122	376.57
392.501	371.15
392.881	385.61
393.26	375.89
393.639	365.5
394.018	385.84
394.397	371.6
394.776	388.78
395.155	390.36
395.534	388.78
395.913	390.13
396.292	413.63
396.671	393.75
397.05	372.96
397.429	401.2
397.808	405.27
398.186	387.65
398.565	408.66
398.944	418.83
399.323	388.78
399.701	405.27
400.08	410.92
400.458	411.15
400.837	413.18
401.215	414.76
401.594	429.23
401.972	403.92
402.351	436.01
402.729	427.42
403.107	418.83
403.486	433.97
403.864	442.56
404.242	455.21
404.62	429.68
404.999	454.76
405.377	472.39
405.755	453.63
406.133	458.15
406.511	469.9
406.889	483.46
407.267	457.93
407.645	459.06
408.023	480.3
408.401	492.05
408.779	483.01
409.156	511.03
409.534	509.68
409.912	525.72
410.29	516
410.667	498.6
411.045	545.61
411.422	524.36
411.8	523.23
412.178	532.73
412.555	537.7
412.933	537.7
413.31	560.52
413.687	553.74
414.065	567.75
414.442	584.25
414.819	602.33
415.197	579.05
415.574	594.19
415.951	598.49
416.328	598.04
416.705	611.37
417.082	614.76
417.46	619.28
417.837	647.3
418.214	656.11
418.591	648.2
418.967	655.21
419.344	659.05
419.721	667.41
420.098	666.06
420.475	673.29
420.852	678.26
421.228	715.09
421.605	684.59
421.982	721.2
422.358	735.66
422.735	714.87
423.111	734.75
423.488	751.25
423.864	765.71
424.241	756.9
424.617	782.44
424.994	798.26
425.37	800.06
425.746	800.52
426.123	815.2
426.499	837.35
426.875	846.16
427.251	847.75
427.627	859.05
428.003	873.51
428.379	891.36
428.756	886.62
429.132	910.34
429.507	900.17
429.883	931.13
430.259	939.27
430.635	974.75
431.011	960.96
431.387	973.62
431.763	975.65
432.138	982.88
432.514	1011.58
432.89	1009.32
433.265	995.76
433.641	1043
434.016	1057.23
434.392	1082.77
434.767	1091.81
435.143	1103.78
435.518	1106.5
435.894	1132.71
436.269	1142.88
436.644	1159.6
437.02	1161.64
437.395	1215.65
437.77	1217.45
438.145	1231.46
438.52	1238.47
438.895	1247.96
439.271	1254.29
439.646	1309.88
440.021	1285.02
440.395	1314.63
440.77	1309.88
441.145	1338.58
441.52	1379.71
441.895	1357.11
442.27	1363.21
442.645	1369.77
443.019	1400.73
443.394	1405.25
443.769	1408.64
444.143	1412.7
444.518	1451.12
444.892	1442.98
445.267	1457.22
445.641	1478.46
446.016	1486.15
446.39	1460.16
446.764	1470.1
447.139	1490.44
447.513	1508.07
447.887	1542.19
448.262	1506.94
448.636	1556.43
449.01	1579.7
449.384	1572.7
449.758	1622.19
450.132	1594.39
450.506	1611.57
450.88	1631.23
451.254	1639.59
451.628	1648.85
452.002	1704.45
452.376	1691.57
452.75	1696.54
453.123	1735.18
453.497	1729.08
453.871	1741.73
454.244	1808.62
454.618	1770.66
454.992	1793.26
455.365	1800.49
455.739	1834.61
456.112	1867.83
456.486	1900.83
456.859	1878.45
457.232	1930.88
457.606	1944.21
457.979	1906.25
458.352	1979.47
458.725	1978.79
459.099	2006.36
459.472	2020.37
459.845	2066.7
460.218	2075.06
460.591	2091.33
460.964	2104.21
461.337	2168.62
461.71	2187.15
462.083	2204.32
462.456	2195.96
462.829	2195.73
463.201	2287.93
463.574	2267.14
463.947	2303.98
464.32	2330.87
464.692	2376.52
465.065	2348.95
465.438	2381.27
465.81	2405.45
466.183	2438.21
466.555	2461.26
466.928	2496.06
467.3	2493.35
467.672	2536.29
468.045	2626.68
468.417	2593.46
468.789	2625.1
469.161	2644.08
469.534	2673.46
469.906	2781.93
470.278	2750.07
470.65	2798.43
471.022	2820.35
471.394	2900.8
471.766	2906
472.138	2909.16
472.51	2992.1
472.882	2991.19
473.253	3018.99
473.625	3065.09
473.997	3132.21
474.369	3141.02
474.74	3197.29
475.112	3258.98
475.484	3311.64
475.855	3295.37
476.227	3374.91
476.598	3463.27
476.97	3465.98
477.341	3542.36
477.713	3591.4
478.084	3587.79
478.455	3694.68
478.827	3660.33
479.198	3795.69
479.569	3763.38
479.94	3825.97
480.311	3922.47
480.682	4002.69
481.053	4085.18
481.424	4178.96
481.795	4152.97
482.166	4253.08
482.537	4220.99
482.908	4309.8
483.279	4381.66
483.65	4434.09
484.021	4490.36
484.391	4593.18
484.762	4621.66
485.133	4625.27
485.503	4714.76
485.874	4784.82
486.244	4827.3
486.615	4892.16
486.985	4947.07
487.356	4988.88
487.726	5011.03
488.097	5118.37
488.467	5129.67
488.837	5209.67
489.207	5261.64
489.578	5337.12
489.948	5383.22
490.318	5452.37
490.688	5468.87
491.058	5560.16
491.428	5591.12
491.798	5645.81
492.168	5724
492.538	5772.14
492.908	5786.6
493.278	5878.12
493.648	5826.37
494.017	5924.9
494.387	5934.84
494.757	6046.71
495.126	6086.25
495.496	6095.52
495.866	6093.03
496.235	6185.68
496.605	6252.35
496.974	6290.31
497.344	6315.4
497.713	6281.05
498.082	6408.05
498.452	6403.53
498.821	6441.72
499.19	6477.88
499.559	6492.12
499.928	6547.94
500.298	6582.74
500.667	6610.31
501.036	6523.53
501.405	6687.37
501.774	6707.25
502.143	6699.57
502.512	6688.95
502.88	6794.26
503.249	6746.12
503.618	6841.26
503.987	6854.82
504.356	6883.52
504.724	6902.05
505.093	6934.37
505.462	6973.01
505.83	6947.47
506.199	6962.84
506.567	7096.4
506.936	7060.92
507.304	7111.54
507.672	7125.32
508.041	7116.28
508.409	7182.72
508.777	7211.42
509.145	7213
509.514	7294.58
509.882	7285.54
510.25	7261.59
510.618	7329.38
510.986	7372.77
511.354	7373.9
511.722	7434.01
512.09	7481.47
512.458	7432.66
512.826	7511.53
513.193	7556.04
513.561	7588.59
513.929	7545.42
514.297	7627
514.664	7688.02
515.032	7646.44
515.4	7696.15
515.767	7724.18
516.135	7675.59
516.502	7666.1
516.869	7847.34
517.237	7849.37
517.604	7735.7
517.972	7854.34
518.339	7823.38
518.706	7828.13
519.073	7855.7
519.44	7831.52
519.808	7923.72
520.175	7889.82
520.542	8025.64
520.909	8029.48
521.276	7985.41
521.643	8069.48
522.009	8022.47
522.376	8070.83
522.743	8087.56
523.11	8165.52
523.477	8153.54
523.843	8246.2
524.21	8298.4
524.577	8227.44
524.943	8306.53
525.31	8289.81
525.676	8338.4
526.043	8396.47
526.409	8362.58
526.776	8403.71
527.142	8469.01
527.508	8446.87
527.874	8514.44
528.241	8472.86
528.607	8478.73
528.973	8535.45
529.339	8621.1
529.705	8581.1
530.071	8665.85
530.437	8609.12
530.803	8692.29
531.169	8628.33
531.535	8606.41
531.901	8658.84
532.267	8640.76
532.632	8737.71
532.998	8725.05
533.364	8745.62
533.73	8713.3
534.095	8754.66
534.461	8753.75
534.826	8793.3
535.192	8748.56
535.557	8841.66
535.923	8726.63
536.288	8747.2
536.653	8732.74
537.019	8709.69
537.384	8789.01
537.749	8807.31
538.114	8805.5
538.479	8748.56
538.845	8781.32
539.21	8733.41
539.575	8824.26
539.94	8812.96
540.305	8828.55
540.67	8800.53
541.034	8818.61
541.399	8812.06
541.764	8813.86
542.129	8889.57
542.494	8825.16
542.858	8818.84
543.223	8816.35
543.587	8855.67
543.952	8819.06
544.316	8793.07
544.681	8835.11
545.045	8808.67
545.41	8832.17
545.774	8801.66
546.138	8826.52
546.503	8873.3
546.867	8804.6
547.231	8842.11
547.595	8899.06
547.959	8873.98
548.324	8824.03
548.688	8844.37
549.052	8843.02
549.416	8805.05
549.779	8842.11
550.143	8831.94
550.507	8906.07
550.871	8881.66
551.235	8889.79
551.599	8867.42
551.962	8891.38
552.326	8825.84
552.689	8958.27
553.053	8905.16
553.417	8789.23
553.78	8916.91
554.143	8842.56
554.507	8897.48
554.87	8941.54
555.234	8989.9
555.597	8951.26
555.96	8958.72
556.323	9020.41
556.686	8934.99
557.05	8953.3
557.413	9044.37
557.776	9024.48
558.139	9138.6
558.502	9094.31
558.865	9014.31
559.228	9080.52
559.59	9074.87
559.953	9166.17
560.316	9082.11
560.679	9154.19
561.041	9263.8
561.404	9183.57
561.767	9211.37
562.129	9285.94
562.492	9285.94
562.854	9285.49
563.217	9276.68
563.579	9362.55
563.941	9279.39
564.304	9383.57
564.666	9443.45
565.028	9408.2
565.39	9377.47
565.753	9427.63
566.115	9432.61
566.477	9517.8
566.839	9567.52
567.201	9550.79
567.563	9543.79
567.925	9590.79
568.287	9652.94
568.648	9579.72
569.01	9654.97
569.372	9717.57
569.734	9716.67
570.095	9757.57
570.457	9823.78
570.819	9821.75
571.18	9861.29
571.542	9864.46
571.903	9822.43
572.265	9922.31
572.626	9954.17
572.987	9927.96
573.349	9971.57
573.71	10026.49
574.071	10036.43
574.432	9987.84
574.794	10151
575.155	10066.49
575.516	10094.51
575.877	10129.76
576.238	10127.73
576.599	10155.07
576.96	10130.89
577.32	10176.99
577.681	10225.8
578.042	10256.54
578.403	10239.36
578.763	10307.84
579.124	10288.4
579.485	10347.84
579.845	10385.57
580.206	10431.9
580.566	10357.55
580.927	10439.36
581.287	10452.24
581.648	10409.3
582.008	10504.22
582.368	10497.89
582.728	10529.75
583.089	10524.78
583.449	10514.61
583.809	10554.38
584.169	10610.2
584.529	10557.55
584.889	10647.71
585.249	10508.28
585.609	10554.16
585.969	10599.58
586.329	10558.9
586.688	10703.31
587.048	10640.48
587.408	10690.88
587.768	10657.43
588.127	10676.64
588.487	10613.37
588.846	10699.46
589.206	10730.2
589.565	10694.72
589.925	10787.82
590.284	10757.77
590.643	10717.77
591.003	10771.55
591.362	10808.84
591.721	10803.64
592.08	10887.03
592.44	10838.22
592.799	10862.85
593.158	10834.83
593.517	10795.96
593.876	10863.75
594.235	10892.91
594.593	10832.34
594.952	10845.22
595.311	10863.08
595.67	10847.94
596.029	10951.21
596.387	10884.54
596.746	11034.37
597.104	10917.54
597.463	10951.21
597.822	11053.58
598.18	10882.96
598.538	10990.98
598.897	10955.28
599.255	10830.08
599.613	10990.53
599.972	11007.93
600.33	11046.57
600.688	10965.67
601.046	11002.51
601.404	11093.8
601.762	11083.64
602.12	11072.56
602.478	11056.29
602.836	11097.19
603.194	11052.9
603.552	11091.54
603.91	11064.43
604.268	11041.83
604.625	11112.33
604.983	11105.56
605.341	11056.29
605.698	11149.4
606.056	11208.15
606.413	11143.75
606.771	11162.05
607.128	11174.03
607.485	11143.29
607.843	11162.05
608.2	11197.08
608.557	11247.25
608.914	11162.73
609.272	11204.99
609.629	11226.46
609.986	11262.61
610.343	11209.28
610.7	11353.91
611.057	11292.67
611.414	11309.17
611.771	11315.27
612.127	11327.02
612.484	11332.67
612.841	11348.94
613.198	11317.75
613.554	11317.3
613.911	11402.27
614.267	11369.05
614.624	11360.24
614.98	11335.61
615.337	11459.67
615.693	11380.12
616.05	11422.16
616.406	11474.13
616.762	11409.73
617.118	11496.96
617.475	11481.36
617.831	11508.03
618.187	11493.79
618.543	11409.5
618.899	11597.75
619.255	11522.95
619.611	11522.27
619.967	11533.79
620.323	11622.83
620.678	11519.56
621.034	11529.5
621.39	11465.09
621.746	11531.98
622.101	11595.03
622.457	11514.36
622.812	11565.2
623.168	11567.92
623.523	11527.01
623.879	11642.04
624.234	11553.23
624.589	11503.29
624.945	11557.07
625.3	11555.04
625.655	11443.63
626.01	11541.48
626.365	11549.16
626.72	11478.43
627.075	11501.03
627.43	11509.61
627.785	11440.01
628.14	11540.57
628.495	11517.07
628.85	11502.38
629.205	11433.91
629.559	11412.89
629.914	11448.82
630.269	11447.47
630.623	11433.68
630.978	11356.62
631.332	11430.29
631.687	11481.36
632.041	11381.71
632.396	11386.23
632.75	11343.52
633.104	11300.58
633.459	11285.21
633.813	11264.2
634.167	11263.97
634.521	11319.11
634.875	11251.09
635.229	11280.01
635.583	11226.91
635.937	11217.64
636.291	11203.18
636.645	11253.57
636.999	11151.88
637.352	11207.7
637.706	11201.37
638.06	11163.63
638.413	11144.65
638.767	11146.01
639.121	11235.5
639.474	11096.06
639.828	11121.37
640.181	11134.03
640.534	11136.06
640.888	11050.87
641.241	11003.41
641.594	11007.48
641.947	11114.37
642.301	10990.98
642.654	11026.69
643.007	10977.65
643.36	10967.48
643.713	10944.43
644.066	10996.41
644.419	10944.43
644.771	10907.59
645.124	10777.2
645.477	10754.38
645.83	10648.39
646.182	10622.4
646.535	10654.95
646.888	10616.3
647.24	10549.19
647.593	10621.95
647.945	10634.16
648.298	10521.16
648.65	10539.92
649.002	10594.16
649.355	10586.25
649.707	10577.21
650.059	10586.25
650.411	10771.55
650.763	10768.84
651.115	10868.95
651.467	10787.6
651.819	10824.43
652.171	10821.04
652.523	10749.86
652.875	10727.94
653.227	10732.23
653.578	10793.25
653.93	10740.82
654.282	10770.87
654.633	10688.17
654.985	10748.28
655.337	10738.79
655.688	10783.3
656.039	10811.55
656.391	10720.03
656.742	10685.68
657.094	10672.8
657.445	10813.13
657.796	10733.14
658.147	10739.24
658.498	10720.71
658.849	10687.94
659.2	10599.35
659.551	10675.96
659.902	10759.58
660.253	10725.9
660.604	10723.19
660.955	10703.31
661.306	10734.72
661.656	10806.35
662.007	10800.48
662.358	10729.97
662.708	10695.62
663.059	10715.74
663.409	10663.08
663.76	10714.83
664.11	10706.92
664.461	10709.41
664.811	10706.7
665.161	10769.97
665.511	10623.53
665.862	10668.28
666.212	10788.73
666.562	10704.89
666.912	10722.29
667.262	10697.2
667.612	10675.74
667.962	10620.82
668.312	10645.91
668.662	10753.02
669.011	10720.93
669.361	10697.66
669.711	10715.74
670.06	10602.52
670.41	10630.31
670.76	10613.37
671.109	10645.68
671.459	10666.7
671.808	10649.52
672.157	10653.14
672.507	10634.38
672.856	10565.46
673.205	10572.46
673.554	10688.17
673.904	10554.61
674.253	10576.98
674.602	10553.71
674.951	10475.52
675.3	10313.71
675.649	10530.2
675.998	10503.99
676.346	10518.68
676.695	10554.16
677.044	10444.33
677.393	10502.63
677.741	10431.9
678.09	10461.73
678.438	10464.67
678.787	10389.19
679.135	10429.87
679.484	10456.76
679.832	10431.22
680.181	10329.98
680.529	10379.02
680.877	10384.22
681.225	10386.25
681.573	10420.6
681.922	10305.8
682.27	10227.84
682.618	10205.92
682.966	10256.31
683.314	10228.06
683.661	10247.95
684.009	10139.71
684.357	10129.08
684.705	10124.11
685.053	10096.32
685.4	10066.94
685.748	9985.58
686.095	10092.02
686.443	10035.3
686.79	10002.31
687.138	9962.53
687.485	10015.64
687.832	10030.56
688.18	9993.95
688.527	9954.17
688.874	9938.13
689.221	9894.51
689.568	9856.77
689.915	9878.92
690.262	9855.19
690.609	9777.68
690.956	9726.16
691.303	9720.96
691.65	9726.38
691.997	9615.2
692.344	9606.16
692.69	9621.98
693.037	9589.66
693.383	9546.27
693.73	9616.78
694.077	9469.21
694.423	9514.86
694.769	9407.07
695.116	9480.29
695.462	9437.35
695.808	9379.95
696.155	9331.36
696.501	9308.54
696.847	9236.9
697.193	9193.74
697.539	9218.83
697.885	9217.92
698.231	9141.54
698.577	9148.77
698.923	9069.68
699.269	9059.96
699.614	9020.19
699.96	8947.19
700.306	8966.18
700.651	8926.18
700.997	8968.21
701.342	8903.58
701.688	8844.37
702.033	8819.51
702.379	8835.11
702.724	8792.85
703.069	8812.73
703.415	8696.81
703.76	8675.79
704.105	8698.16
704.45	8659.97
704.795	8621.55
705.14	8570.48
705.485	8604.6
705.83	8554.66
706.175	8507.88
706.52	8518.73
706.865	8446.19
707.209	8449.81
707.554	8443.7
707.899	8444.38
708.243	8355.57
708.588	8342.24
708.932	8315.12
709.277	8318.51
709.621	8280.54
709.966	8261.34
710.31	8224.5
710.654	8242.58
710.998	8219.08
711.342	8240.77
711.687	8227.44
712.031	8152.41
712.375	8189.25
712.719	8091.85
713.063	8095.01
713.407	8127.78
713.75	8111.28
714.094	8102.47
714.438	8074.45
714.782	8038.52
715.125	8055.47
715.469	8033.77
715.812	8000.55
716.156	7941.8
716.499	7980.44
716.843	7985.41
717.186	7918.29
717.53	7934.34
717.873	7978.18
718.216	7923.04
718.559	7917.84
718.902	7744.06
719.246	7806.66
719.589	7824.74
719.932	7735.93
720.275	7830.84
720.617	7822.7
720.96	7772.99
721.303	7817.73
721.646	7763.72
721.989	7757.62
722.331	7747.23
722.674	7739.99
723.016	7701.13
723.359	7690.28
723.701	7723.5
724.044	7677.62
724.386	7627.23
724.729	7715.14
725.071	7603.5
725.413	7634.23
725.755	7624.97
726.097	7546.33
726.439	7545.2
726.782	7584.74
727.124	7566.44
727.465	7526.21
727.807	7607.34
728.149	7532.77
728.491	7539.77
728.833	7565.08
729.175	7515.59
729.516	7545.65
729.858	7534.35
730.199	7555.82
730.541	7573.22
730.882	7507.23
731.224	7479.44
731.565	7487.35
731.906	7438.31
732.248	7455.03
732.589	7491.41
732.93	7424.75
733.271	7455.48
733.612	7510.62
733.953	7546.1
734.294	7462.94
734.635	7474.01
734.976	7483.73
735.317	7404.18
735.658	7441.47
735.999	7481.92
736.339	7394.92
736.68	7478.31
737.021	7463.84
737.361	7476.95
737.702	7428.59
738.042	7449.38
738.383	7425.88
738.723	7427.23
739.063	7438.08
739.404	7442.37
739.744	7417.74
740.084	7389.72
740.424	7447.12
740.764	7492.77
741.104	7446.89
741.444	7487.57
741.784	7422.04
742.124	7550.17
742.464	7455.26
742.804	7425.43
743.143	7484.63
743.483	7539.77
743.823	7473.11
744.162	7552.2
744.502	7559.21
744.841	7509.27
745.181	7570.96
745.52	7531.64
745.86	7576.38
746.199	7592.65
746.538	7605.31
746.877	7658.87
747.216	7716.49
747.556	7654.12
747.895	7760.56
748.234	7715.14
748.573	7751.97
748.911	7851.86
749.25	7834.68
749.589	7925.07
749.928	7880.78
750.267	7980.21
750.605	8025.64
750.944	8044.62
751.283	8076.03
751.621	8135.24
751.96	8195.12
752.298	8268.79
752.636	8318.74
752.975	8388.56
753.313	8367.1
753.651	8456.36
753.989	8509.24
754.327	8634.66
754.666	8627.65
755.004	8729.8
755.342	8790.36
755.679	8884.37
756.017	8940.64
756.355	9038.49
756.693	9095.66
757.031	9274.87
757.368	9242.78
757.706	9371.14
758.044	9469.44
758.381	9536.33
758.719	9579.95
759.056	9724.8
759.394	9846.61
759.731	9942.65
760.068	9998.92
760.405	10048.18
760.743	10112.14
761.08	10349.42
761.417	10398.46
761.754	10529.07
762.091	10654.72
762.428	10649.75
762.765	10722.29
763.102	10901.94
763.438	10958.21
763.775	11025.78
764.112	11135.84
764.449	11305.32
764.785	11350.75
765.122	11396.17
765.458	11507.35
765.795	11595.49
766.131	11716.39
766.467	11686.11
766.804	11877.06
767.14	11908.25
767.476	11926.32
767.812	11962.26
768.148	12093.33
768.485	12160.89
768.821	12227.11
769.157	12296.94
769.492	12393.21
769.828	12531.73
770.164	12495.35
770.5	12544.39
770.836	12615.57
771.171	12617.38
771.507	12682.92
771.842	12704.84
772.178	12759.52
772.513	12835.45
772.849	12961.1
773.184	12953.19
773.519	12963.13
773.855	12935.11
774.19	13000.42
774.525	13037.26
774.86	13141.66
775.195	13161.55
775.53	13103.24
775.865	13207.87
776.2	13120.19
776.535	13068.89
776.87	13145.5
777.205	13154.99
777.539	13207.87
777.874	13234.77
778.209	13135.33
778.543	13239.96
778.878	13171.04
779.212	13231.15
779.547	13116.35
779.881	13242.45
780.215	13272.96
780.55	13321.99
780.884	13209.91
781.218	13231.15
781.552	13294.88
781.886	13228.66
782.22	13173.07
782.554	13053.07
782.888	13130.59
783.222	13069.35
783.556	13052.62
783.889	13056.46
784.223	12993.19
784.557	12992.29
784.89	13097.82
785.224	13034.09
785.557	12957.71
785.891	13027.09
786.224	12984.15
786.558	12984.6
786.891	12960.87
787.224	12901.44
787.557	12898.05
787.891	12820.09
788.224	12858.05
788.557	12865.96
788.89	12784.38
789.223	12837.49
789.556	12821.22
789.888	12771.27
790.221	12718.39
790.554	12656.25
790.887	12551.62
791.219	12687.21
791.552	12580.32
791.884	12578.06
792.217	12549.13
792.549	12647.66
792.882	12390.49
793.214	12314.11
793.546	12463.71
793.879	12305.07
794.211	12322.7
794.543	12360.44
794.875	12333.55
795.207	12411.74
795.539	12316.6
795.871	12322.92
796.203	12240.21
796.535	12156.83
796.867	12193.66
797.198	12149.82
797.53	12137.84
797.862	12105.98
798.193	12144.85
798.525	12012.42
798.856	12038.19
799.188	11905.53
799.519	11882.94
799.85	11874.57
800.182	11864.18
800.513	11855.14
800.844	11737.18
801.175	11852.88
801.506	11838.87
801.837	11721.58
802.168	11749.38
802.499	11704.18
802.83	11669.83
803.161	11587.8
803.491	11622.6
803.822	11619.44
804.153	11545.54
804.483	11511.65
804.814	11430.29
805.145	11360.69
805.475	11414.47
805.805	11402.5
806.136	11368.83
806.466	11352.33
806.796	11342.39
807.126	11280.69
807.457	11301.71
807.787	11231.65
808.117	11193.46
808.447	11214.71
808.777	11291.54
809.107	11172.9
809.436	11122.05
809.766	11128.38
810.096	11035.05
810.426	11000.25
810.755	11120.92
811.085	11057.65
811.414	11013.81
811.744	11010.64
812.073	10917.99
812.403	10986.91
812.732	10861.27
813.061	10865.11
813.39	10834.15
813.719	10810.42
814.049	10892.45
814.378	10850.87
814.707	10730.65
815.036	10815.17
815.365	10710.76
815.693	10601.16
816.022	10647.71
816.351	10584.89
816.68	10621.27
817.008	10562.52
817.337	10523.65
817.665	10544.21
817.994	10480.04
818.322	10524.55
818.651	10447.27
818.979	10391.68
819.307	10509.64
819.636	10500.37
819.964	10342.19
820.292	10438.68
820.62	10470.32
820.948	10387.38
821.276	10411.34
821.604	10256.54
821.932	10426.25
822.259	10408.85
822.587	10297.67
822.915	10427.16
823.243	10337.67
823.57	10353.03
823.898	10325.46
824.225	10329.53
824.553	10367.95
824.88	10345.35
825.207	10409.98
825.535	10276.88
825.862	10403.65
826.189	10360.72
826.516	10357.78
826.843	10437.1
827.17	10428.96
827.497	10407.49
827.824	10375.63
828.151	10441.84
828.478	10367.5
828.805	10389.42
829.131	10353.26
829.458	10339.93
829.785	10289.08
830.111	10400.72
830.438	10348.97
830.764	10353.48
831.09	10426.03
831.417	10333.37
831.743	10453.6
832.069	10362.75
832.395	10285.46
832.722	10314.62
833.048	10362.3
833.374	10407.04
833.7	10291.79
834.026	10318.01
834.351	10344.22
834.677	10283.66
835.003	10321.17
835.329	10316.88
835.654	10299.25
835.98	10230.55
836.306	10272.36
836.631	10178.8
836.956	10303.09
837.282	10266.48
837.607	10181.96
837.932	10172.7
838.258	10159.37
838.583	10158.24
838.908	10126.15
839.233	10090.67
839.558	10099.25
839.883	10126.6
840.208	10096.99
840.533	9985.36
840.858	10067.39
841.182	10044.11
841.507	10007.96
841.832	9901.75
842.156	9985.36
842.481	9960.73
842.805	9948.98
843.13	9864.91
843.454	9880.73
843.778	9835.53
844.103	9866.72
844.427	9837.57
844.751	9793.27
845.075	9796.21
845.399	9754.86
845.723	9690
846.047	9692.49
846.371	9581.75
846.695	9623.56
847.019	9608.87
847.343	9509.89
847.666	9399.16
847.99	9396.45
848.313	9412.72
848.637	9364.81
848.96	9340.18
849.284	9300.63
849.607	9224.47
849.931	9252.95
850.254	9169.34
850.577	9157.36
850.9	9075.55
851.223	9091.82
851.546	9010.24
851.869	9008.44
852.192	9021.32
852.515	8905.61
852.838	8866.97
853.161	8932.96
853.483	8875.78
853.806	8851.83
854.129	8776.8
854.451	8768.22
854.774	8716.47
855.096	8759.18
855.419	8728.89
855.741	8711.27
856.063	8623.81
856.385	8622.68
856.708	8602.57
857.03	8557.6
857.352	8559.63
857.674	8529.35
857.996	8467.43
858.318	8500.88
858.64	8411.84
858.961	8396.47
859.283	8321.22
859.605	8342.24
859.926	8359.19
860.248	8364.84
860.57	8283.26
860.891	8287.55
861.212	8218.85
861.534	8247.55
861.855	8217.04
862.176	8179.76
862.498	8243.94
862.819	8259.98
863.14	8173.2
863.461	8210.49
863.782	8092.3
864.103	8199.42
864.424	8126.65
864.745	8139.08
865.065	8062.02
865.386	8089.82
865.707	8073.09
866.027	8088.46
866.348	8074.67
866.668	8012.98
866.989	8033.09
867.309	7948.12
867.63	8019.53
867.95	7970.27
868.27	7945.19
868.59	7906.77
868.91	7899.99
869.23	7948.58
869.55	7891.85
869.87	7914
870.19	7898.41
870.51	7887.33
870.83	7858.41
871.15	7816.83
871.469	7805.3
871.789	7838.75
872.109	7766.21
872.428	7754.23
872.748	7739.99
873.067	7741.12
873.386	7787.22
873.706	7721.46
874.025	7732.08
874.344	7709.26
874.663	7711.75
874.982	7673.1
875.301	7726.21
875.62	7664.74
875.939	7587
876.258	7665.19
876.577	7632.88
876.896	7617.96
877.214	7589.94
877.533	7618.42
877.852	7529.38
878.17	7525.54
878.489	7598.76
878.807	7575.25
879.125	7529.83
879.444	7556.04
879.762	7548.13
880.08	7582.48
880.398	7486.89
880.716	7443.5
881.034	7431.3
881.352	7514.69
881.67	7417.52
881.988	7452.77
882.306	7408.93
882.624	7377.52
882.941	7352.43
883.259	7342.72
883.577	7313.11
883.894	7340.23
884.212	7313.11
884.529	7319.67
884.846	7249.16
885.164	7230.86
885.481	7197.41
885.798	7215.04
886.115	7192.44
886.432	7184.75
886.75	7196.28
887.067	7157.18
887.383	7191.76
887.7	7165.77
888.017	7168.94
888.334	7098.88
888.651	7041.03
888.967	7061.82
889.284	6969.39
889.6	7031.99
889.917	7015.95
890.233	7003.97
890.55	6985.44
890.866	6956.29
891.182	6921.71
891.498	6919
891.815	6871.99
892.131	6840.58
892.447	6910.41
892.763	6832.67
893.079	6849.62
893.395	6754.71
893.71	6795.61
894.026	6756.52
894.342	6749.51
894.657	6692.11
894.973	6672.9
895.289	6656.41
895.604	6639.01
895.92	6614.15
896.235	6545.68
896.55	6611.44
896.865	6515.39
897.181	6499.12
897.496	6578.89
897.811	6513.81
898.126	6535.05
898.441	6476.75
898.756	6416.41
899.071	6381.61
899.386	6415.28
899.7	6323.53
900.015	6297.77
900.33	6291.67
900.644	6232.69
900.959	6272.91
901.273	6212.58
901.588	6204.22
901.902	6204.67
902.216	6117.44
902.531	6141.17
902.845	6130.55
903.159	6112.47
903.473	6069.98
903.787	6052.13
904.101	6055.52
904.415	6002.64
904.729	6005.58
905.042	5954.96
905.356	5979.14
905.67	5917.9
905.984	5972.13
906.297	5888.29
906.611	5883.09
906.924	5870.44
907.237	5863.21
907.551	5807.39
907.864	5877.44
908.177	5792.02
908.491	5756.32
908.804	5722.42
909.117	5699.6
909.43	5661.63
909.743	5644.23
910.056	5667.28
910.368	5558.13
910.681	5596.1
910.994	5559.71
911.307	5519.94
911.619	5527.62
911.932	5508.87
912.244	5510.45
912.557	5448.08
912.869	5453.05
913.181	5351.36
913.494	5402.43
913.806	5325.59
914.118	5399.04
914.43	5270.23
914.742	5317.23
915.054	5301.41
915.366	5253.73
915.678	5276.33
915.99	5167.63
916.302	5207.86
916.613	5160.63
916.925	5160.85
917.236	5181.42
917.548	5118.37
917.859	5084.7
918.171	5068.65
918.482	4994.08
918.794	4995.43
919.105	5051.25
919.416	4985.26
919.727	4979.61
920.038	4939.62
920.349	4934.64
920.66	4907.98
920.971	4952.04
921.282	4924.48
921.593	4837.7
921.903	4834.31
922.214	4843.57
922.525	4816.91
922.835	4781.88
923.146	4723.35
923.456	4696.01
923.767	4739.85
924.077	4708.89
924.387	4694.42
924.697	4664.14
925.008	4608.1
925.318	4618.27
925.628	4603.58
925.938	4613.07
926.248	4557.03
926.558	4545.5
926.867	4576.69
927.177	4514.77
927.487	4485.62
927.796	4508.67
928.106	4469.35
928.416	4475.67
928.725	4432.28
929.034	4437.48
929.344	4390.93
929.653	4356.13
929.962	4343.93
930.271	4343.25
930.581	4317.71
930.89	4316.81
931.199	4259.18
931.508	4276.36
931.817	4317.71
932.125	4249.69
932.434	4268.9
932.743	4220.09
933.051	4195.91
933.36	4210.82
933.669	4171.95
933.977	4140.77
934.286	4148
934.594	4124.5
934.902	4098.28
935.21	4076.81
935.519	4085.4
935.827	3999.3
936.135	4054.89
936.443	3978.51
936.751	4021.22
937.059	3983.03
937.367	3936.25
937.674	3950.72
937.982	3943.03
938.29	3901.68
938.597	3885.63
938.905	3895.58
939.213	3851.96
939.52	3842.7
939.827	3845.41
940.135	3837.05
940.442	3772.41
940.749	3820.55
941.056	3811.06
941.363	3759.99
941.67	3759.99
941.977	3724.96
942.284	3707.78
942.591	3685.86
942.898	3700.55
943.205	3660.78
943.511	3647.22
943.818	3645.64
944.125	3605.19
944.431	3607.67
944.738	3580.78
945.044	3570.84
945.35	3549.82
945.657	3539.88
945.963	3563.38
946.269	3535.81
946.575	3552.08
946.881	3517.73
947.187	3428.02
947.493	3460.78
947.799	3424.85
948.105	3418.07
948.41	3388.02
948.716	3414.91
949.022	3403.61
949.327	3369.49
949.633	3360.45
949.938	3350.96
950.244	3332.65
950.549	3288.81
950.854	3257.85
951.16	3275.25
951.465	3290.17
951.77	3235.25
952.075	3256.04
952.38	3258.53
952.685	3222.82
952.99	3199.1
953.294	3213.11
953.599	3169.27
953.904	3177.18
954.209	3152.54
954.513	3123.84
954.818	3108.7
955.122	3084.3
955.426	3142.15
955.731	3072.55
956.035	3035.49
956.339	3040.23
956.643	3077.74
956.948	3041.59
957.252	3007.69
957.556	3013.79
957.86	3024.64
958.163	3030.06
958.467	2966.33
958.771	2942.61
959.075	2974.92
959.378	2911.42
959.682	2885.43
959.985	2888.37
960.289	2882.49
960.592	2886.11
960.896	2870.97
961.199	2905.09
961.502	2863.96
961.805	2837.07
962.108	2833.23
962.411	2839.33
962.714	2763.4
963.017	2793.01
963.32	2819.22
963.623	2776.28
963.926	2770.18
964.228	2774.93
964.531	2720.69
964.833	2732.89
965.136	2699.67
965.438	2722.95
965.741	2693.35
966.043	2684.53
966.345	2671.88
966.648	2670.52
966.95	2673.01
967.252	2680.01
967.554	2616.74
967.856	2589.85
968.158	2632.78
968.46	2606.57
968.761	2544.2
969.063	2564.76
969.365	2586.68
969.666	2579.9
969.968	2537.65
970.269	2528.61
970.571	2497.42
970.872	2465.56
971.174	2498.1
971.475	2489.74
971.776	2466.23
972.077	2482.73
972.378	2454.94
972.679	2440.47
972.98	2409.06
973.281	2445.44
973.582	2397.99
973.883	2395.05
974.183	2388.72
974.484	2388.72
974.785	2397.08
975.085	2360.93
975.386	2367.03
975.686	2343.3
975.986	2315.5
976.287	2342.17
976.587	2292.45
976.887	2288.61
977.187	2297.65
977.487	2300.36
977.787	2312.57
978.087	2295.17
978.387	2240.25
978.687	2285.22
978.987	2253.13
979.286	2218.33
979.586	2216.52
979.885	2189.86
980.185	2196.19
980.484	2193.93
980.784	2203.64
981.083	2175.62
981.382	2201.38
981.682	2175.17
981.981	2140.14
982.28	2128.39
982.579	2103.76
982.878	2100.82
983.177	2115.06
983.475	2109.63
983.774	2097.43
984.073	2092.01
984.372	2038.45
984.67	2079.35
984.969	2074.15
985.267	2084.78
985.566	2044.78
985.864	2018.34
986.162	2025.79
986.461	2006.36
986.759	2004.55
987.057	1982.41
987.355	2018.79
987.653	1996.19
987.951	1971.78
988.249	1988.28
988.547	1984.44
988.844	1946.47
989.142	1945.34
989.44	1924.55
989.737	1898.57
990.035	1881.17
990.332	1923.88
990.63	1864.44
990.927	1888.62
991.224	1894.72
991.521	1880.94
991.819	1873.26
992.116	1864.22
992.413	1851.56
992.71	1811.34
993.006	1781.73
993.303	1810.43
993.6	1803.88
993.897	1813.14
994.193	1799.59
994.49	1826.25
994.787	1762.07
995.083	1779.47
995.379	1760.04
995.676	1754.16
995.972	1743.54
996.268	1745.58
996.565	1739.25
996.861	1728.63
997.157	1710.1
997.453	1704.67
997.749	1701.06
998.044	1670.78
998.34	1664.22
998.636	1658.57
998.932	1674.17
999.227	1676.88
999.523	1636.43
999.818	1660.61
1000.114	1631
1000.409	1599.82
1000.704	1605.01
1001	1614.73
1001.295	1616.77
1001.59	1570.89
1001.885	1567.28
1002.18	1591.23
1002.475	1575.86
1002.77	1553.94
1003.065	1558.01
1003.359	1571.12
1003.654	1543.32
1003.949	1522.53
1004.243	1548.07
1004.538	1507.84
1004.832	1492.25
1005.127	1525.47
1005.421	1499.93
1005.715	1475.75
1006.009	1479.37
1006.304	1468.97
1006.598	1429.88
1006.892	1448.63
1007.186	1451.8
1007.48	1431.01
1007.773	1450.67
1008.067	1425.81
1008.361	1414.74
1008.655	1408.64
1008.948	1419.26
1009.242	1409.99
1009.535	1368.41
1009.829	1388.75
1010.122	1361.18
1010.415	1377.9
1010.708	1357.79
1011.001	1360.73
1011.295	1374.06
1011.588	1324.8
1011.881	1317.79
1012.173	1312.82
1012.466	1319.82
1012.759	1329.09
1013.052	1297.9
1013.344	1264.23
1013.637	1295.87
1013.93	1290.22
1014.222	1289.32
1014.514	1262.65
1014.807	1273.27
1015.099	1245.25
1015.391	1245.93
1015.683	1206.15
1015.976	1216.32
1016.268	1226.95
1016.56	1219.04
1016.851	1190.11
1017.143	1202.09
1017.435	1207.74
1017.727	1194.4
1018.018	1193.27
1018.31	1173.39
1018.602	1172.26
1018.893	1158.02
1019.185	1151.24
1019.476	1144.46
1019.767	1153.05
1020.058	1144.24
1020.35	1113.73
1020.641	1101.75
1020.932	1091.81
1021.223	1123.45
1021.514	1118.47
1021.804	1090.68
1022.095	1085.48
1022.386	1111.47
1022.677	1066.72
1022.967	1077.8
1023.258	1076.21
1023.548	1050
1023.839	1031.02
1024.129	1053.84
1024.419	1067.85
1024.709	1032.83
1025	1026.95
1025.29	1022.88
1025.58	1009.32
1025.87	998.25
1026.16	994.86
1026.449	998.7
1026.739	1010.23
1027.029	986.5
1027.319	969.1
1027.608	971.58
1027.898	939.72
1028.187	969.78
1028.477	931.13
1028.766	967.06
1029.055	949.66
1029.344	937.01
1029.634	916.67
1029.923	937.91
1030.212	952.6
1030.501	935.43
1030.79	924.13
1031.078	904.02
1031.367	929.1
1031.656	875.32
1031.945	902.66
1032.233	896.11
1032.522	883.23
1032.81	872.15
1033.099	872.15
1033.387	853.17
1033.675	859.05
1033.963	851.81
1034.251	844.58
1034.54	837.8
1034.828	826.5
1035.116	824.7
1035.403	818.82
1035.691	828.99
1035.979	843.68
1036.267	835.32
1036.554	819.72
1036.842	827.41
1037.129	792.61
1037.417	807.07
1037.704	814.53
1037.992	782.89
1038.279	767.97
1038.566	759.39
1038.853	759.39
1039.14	759.39
