Data from hue_100_FLMS001491_00029.txt Node
Date: Tue Feb 07 17:02:56 GMT 2017
User: dcchb
Spectrometer: FLMS00149
Trigger mode: 0
Integration Time (sec): 2.000000E-2
Scans to average: 10
Electric dark correction enabled: true
Nonlinearity correction enabled: false
Boxcar width: 0
XAxis mode: Wavelengths
Number of Pixels in Spectrum: 2048
>>>>>Begin Spectral Data<<<<<
341.393	-17.43
341.776	-17.43
342.16	-17.43
342.543	-55.85
342.927	-59.69
343.31	-70.08
343.693	-74.15
344.077	-54.72
344.46	-40.25
344.843	-62.63
345.226	-61.5
345.61	-23.98
345.993	-14.49
346.376	-19.01
346.759	6.53
347.142	33.87
347.525	54.21
347.908	61.67
348.291	79.52
348.674	87.43
349.057	97.6
349.44	129.69
349.823	124.04
350.206	168.78
350.588	203.13
350.971	221.89
351.354	226.63
351.737	247.87
352.119	242.45
352.502	257.14
352.884	275.67
353.267	274.09
353.65	294.2
354.032	284.26
354.414	308.89
354.797	321.77
355.179	317.03
355.562	338.04
355.944	320.42
356.326	322.22
356.709	319.96
357.091	329.68
357.473	338.27
357.855	331.71
358.238	346.63
358.62	352.73
359.002	350.47
359.384	332.39
359.766	341.66
360.148	337.59
360.53	331.94
360.912	321.55
361.294	326.52
361.676	332.62
362.057	321.32
362.439	349.79
362.821	325.39
363.203	324.48
363.584	336.46
363.966	325.61
364.348	327.65
364.729	325.16
365.111	331.71
365.493	317.93
365.874	320.19
366.256	329.91
366.637	318.83
367.019	317.7
367.4	322.9
367.781	336.46
368.163	323.35
368.544	313.41
368.925	323.13
369.306	334.2
369.688	305.27
370.069	317.48
370.45	301.66
370.831	333.3
371.212	310.47
371.593	326.74
371.974	321.09
372.355	319.74
372.736	304.14
373.117	292.85
373.498	318.83
373.879	334.2
374.26	330.81
374.641	342.56
375.021	329.45
375.402	324.26
375.783	320.64
376.163	356.12
376.544	327.87
376.925	347.99
377.305	323.81
377.686	356.57
378.066	330.81
378.447	331.04
378.827	329
379.208	338.04
379.588	340.98
379.968	359.96
380.349	343.47
380.729	335.1
381.109	348.89
381.489	351.37
381.87	357.48
382.25	349.57
382.63	350.25
383.01	346.86
383.39	367.65
383.77	344.14
384.15	357.7
384.53	349.34
384.91	362
385.29	364.03
385.67	348.21
386.049	366.29
386.429	371.04
386.809	364.26
387.189	358.83
387.568	350.7
387.948	357.48
388.328	384.37
388.707	366.97
389.087	366.52
389.466	354.99
389.846	368.1
390.225	378.94
390.605	363.58
390.984	397.93
391.363	380.75
391.743	395.44
392.122	391.15
392.501	377.36
392.881	377.14
393.26	374.43
393.639	406.74
394.018	383.01
394.397	383.46
394.776	408.32
395.155	381.2
395.534	402
395.913	396.35
396.292	400.87
396.671	404.25
397.05	401.77
397.429	399.51
397.808	402.22
398.186	391.15
398.565	406.97
398.944	398.61
399.323	416.68
399.701	413.07
400.08	430.02
400.458	432.05
400.837	407.87
401.215	419.62
401.594	434.76
401.972	425.27
402.351	426.18
402.729	425.27
403.107	452.16
403.486	433.41
403.864	423.01
404.242	448.55
404.62	435.44
404.999	467.3
405.377	451.49
405.755	454.2
406.133	455.78
406.511	459.39
406.889	465.72
407.267	451.03
407.645	469.79
408.023	477.93
408.401	488.32
408.779	470.47
409.156	472.5
409.534	478.6
409.912	463.24
410.29	507.76
410.667	477.02
411.045	516.12
411.422	504.59
411.8	485.83
412.178	500.3
412.555	527.87
412.933	505.5
413.31	506.63
413.687	513.18
414.065	518.6
414.442	539.39
414.819	537.58
415.197	529.45
415.574	519.96
415.951	554.08
416.328	536.45
416.705	545.27
417.082	543.46
417.46	556.34
417.837	548.43
418.214	556.79
418.591	555.89
418.967	581.88
419.344	559.96
419.721	562.67
420.098	543.91
420.475	588.43
420.852	585.95
421.228	586.85
421.605	583.46
421.982	611.71
422.358	596.57
422.735	611.71
423.111	616.45
423.488	597.92
423.864	616.45
424.241	630.69
424.617	625.72
424.994	626.4
425.37	648.77
425.746	615.55
426.123	653.51
426.499	647.86
426.875	639.05
427.251	673.4
427.627	657.13
428.003	650.8
428.379	680.63
428.756	690.12
429.132	681.31
429.507	677.92
429.883	681.54
430.259	718.14
430.635	710.69
431.011	720.63
431.387	737.81
431.763	752.49
432.138	760.86
432.514	753.62
432.89	755.43
433.265	753.85
433.641	772.83
434.016	781.19
434.392	795.88
434.767	792.72
435.143	823.9
435.518	804.92
435.894	790.23
436.269	804.47
436.644	824.81
437.02	837.92
437.395	829.55
437.77	855.09
438.145	848.31
438.52	838.14
438.895	868.88
439.271	877.46
439.646	881.98
440.021	895.09
440.395	891.25
440.77	903
441.145	908.2
441.52	932.15
441.895	921.3
442.27	951.36
442.645	943.68
443.019	937.8
443.394	938.48
443.769	946.84
444.143	947.07
444.518	928.31
444.892	953.17
445.267	971.92
445.641	995.43
446.016	988.87
446.39	968.53
446.764	997.91
447.139	980.06
447.513	1010.79
447.887	978.93
448.262	1003.34
448.636	1013.96
449.01	1018.48
449.384	1061.19
449.758	1054.18
450.132	1067.74
450.506	1077.23
450.88	1070.45
451.254	1092.6
451.628	1105.71
452.002	1107.29
452.376	1105.25
452.75	1131.02
453.123	1131.24
453.497	1161.52
453.871	1162.65
454.244	1184.57
454.618	1182.09
454.992	1212.82
455.365	1206.49
455.739	1218.24
456.112	1251.01
456.486	1227.28
456.859	1238.36
457.232	1299.15
457.606	1263.67
457.979	1329.65
458.352	1317.9
458.725	1348.41
459.099	1355.42
459.472	1377.56
459.845	1381.63
460.218	1389.99
460.591	1410.1
460.964	1430.44
461.337	1453.49
461.71	1490.78
462.083	1477.45
462.456	1509.99
462.829	1516.09
463.201	1557.9
463.574	1579.82
463.947	1592.7
464.32	1603.32
464.692	1646.93
465.065	1632.25
465.438	1673.83
465.81	1693.26
466.183	1714.73
466.555	1740.72
466.928	1742.98
467.3	1763.09
467.672	1793.82
468.045	1847.38
468.417	1868.62
468.789	1909.98
469.161	1918.11
469.534	1948.62
469.906	2013.25
470.278	2030.65
470.65	2063.65
471.022	2100.26
471.394	2152.68
471.766	2176.86
472.138	2222.96
472.51	2259.57
472.882	2327.37
473.253	2399.23
473.625	2435.61
473.997	2449.85
474.369	2538.44
474.74	2567.14
475.112	2593.8
475.484	2661.6
475.855	2728.71
476.227	2768.71
476.598	2857.52
476.97	2915.15
477.341	2980.01
477.713	3076.05
478.084	3125.99
478.455	3234.24
478.827	3271.07
479.198	3388.13
479.569	3427.23
479.94	3598.75
480.311	3676.94
480.682	3798.06
481.053	3890.49
481.424	3979.53
481.795	4063.82
482.166	4170.71
482.537	4251.61
482.908	4423.81
483.279	4512.62
483.65	4579.06
484.021	4770.24
484.391	4873.52
484.762	4992.61
485.133	5075.32
485.503	5179.27
485.874	5332.49
486.244	5504.69
486.615	5668.75
486.985	5758.69
487.356	5955.97
487.726	6015.63
488.097	6220.83
488.467	6280.48
488.837	6540.59
489.207	6666.24
489.578	6832.11
489.948	6949.85
490.318	7093.57
490.688	7232.32
491.058	7399.33
491.428	7545.76
491.798	7705.76
492.168	7922.7
492.538	8093.09
492.908	8263.26
493.278	8383.93
493.648	8456.02
494.017	8648.78
494.387	8874.31
494.757	8938.49
495.126	9102.11
495.496	9274.53
495.866	9363.12
496.235	9505.94
496.605	9629.55
496.974	9854.85
497.344	9937.11
497.713	10095.3
498.082	10204.22
498.452	10366.03
498.821	10479.92
499.19	10593.82
499.559	10713.59
499.928	10869.06
500.298	10967.37
500.667	11081.26
501.036	11110.87
501.405	11337.3
501.774	11392.67
502.143	11618.65
502.512	11587.01
502.88	11729.15
503.249	11850.51
503.618	11942.93
503.987	12066.77
504.356	12228.12
504.724	12265.19
505.093	12338.18
505.462	12453.43
505.83	12475.8
506.199	12591.73
506.567	12871.95
506.936	12824.04
507.304	13023.36
507.672	13078.5
508.041	13162.11
508.409	13260.87
508.777	13356.68
509.145	13470.35
509.514	13447.98
509.882	13598.26
510.25	13632.38
510.618	13732.27
510.986	13789.67
511.354	13915.99
511.722	14004.35
512.09	14082.31
512.458	14065.82
512.826	14179.03
513.193	14314.4
513.561	14263.33
513.929	14400.5
514.297	14503.09
514.664	14496.77
515.032	14603.2
515.4	14765.23
515.767	14721.39
516.135	14757.1
516.502	14748.28
516.869	15051.1
517.237	15009.75
517.604	14891.78
517.972	15047.03
518.339	15178.56
518.706	15107.82
519.073	15239.12
519.44	15254.94
519.808	15447.7
520.175	15299.68
520.542	15461.49
520.909	15514.37
521.276	15563.18
521.643	15624.87
522.009	15689.95
522.376	15691.08
522.743	15735.83
523.11	15847.92
523.477	15903.28
523.843	15934.47
524.21	16116.38
524.577	16190.96
524.943	16112.77
525.31	16252.2
525.676	16373.1
526.043	16369.26
526.409	16327.45
526.776	16462.36
527.142	16464.62
527.508	16494.45
527.874	16518.41
528.241	16524.28
528.607	16622.81
528.973	16653.77
529.339	16620.1
529.705	16778.06
530.071	16812.86
530.437	16851.96
530.803	16865.29
531.169	16824.16
531.535	16802.47
531.901	16808.8
532.267	16824.39
532.632	16890.6
532.998	16791.17
533.364	16941.67
533.73	16827.1
534.095	16918.62
534.461	16987.77
534.826	16931.28
535.192	16865.07
535.557	16977.38
535.923	16840.66
536.288	16842.01
536.653	16862.81
537.019	16799.76
537.384	16888.57
537.749	16896.02
538.114	16805.41
538.479	16812.19
538.845	16719.98
539.21	16664.84
539.575	16699.87
539.94	16628.24
540.305	16722.47
540.67	16701
541.034	16727.22
541.399	16674.11
541.764	16624.39
542.129	16603.83
542.494	16654.9
542.858	16665.07
543.223	16527.22
543.587	16600.21
543.952	16514.57
544.316	16513.89
544.681	16434.12
545.045	16448.58
545.41	16435.25
545.774	16384.4
546.138	16393.44
546.503	16362.93
546.867	16227.12
547.231	16402.7
547.595	16277.28
547.959	16244.97
548.324	16208.13
548.688	16120.9
549.052	16199.77
549.416	16127.46
549.779	16131.75
550.143	16164.97
550.507	16121.36
550.871	16059.66
551.235	15943.73
551.599	16146.44
551.962	15990.96
552.326	16084.29
552.689	16038.19
553.053	15869.38
553.417	15928.14
553.78	16090.4
554.143	15958.42
554.507	15934.02
554.87	15872.1
555.234	15958.65
555.597	15723.17
555.96	15840.69
556.323	15822.61
556.686	15887.46
557.05	15868.03
557.413	15868.26
557.776	15861.7
558.139	15961.13
558.502	15894.47
558.865	15789.16
559.228	15955.03
559.59	15903.06
559.953	15927.69
560.316	16023.51
560.679	15877.75
561.041	15985.09
561.404	15945.54
561.767	16035.03
562.129	16008.14
562.492	16082.26
562.854	15989.61
563.217	16033.67
563.579	16050.85
563.941	16014.24
564.304	16023.51
564.666	16124.52
565.028	16138.53
565.39	16042.94
565.753	16131.07
566.115	16081.81
566.477	16155.48
566.839	16263.72
567.201	16212.65
567.563	16147.34
567.925	16296.72
568.287	16248.36
568.648	16317.73
569.01	16336.27
569.372	16398.86
569.734	16280.22
570.095	16381.46
570.457	16392.54
570.819	16477.5
571.18	16352.31
571.542	16465.75
571.903	16433.66
572.265	16529.48
572.626	16543.27
572.987	16527.9
573.349	16569.03
573.71	16630.72
574.071	16631.62
574.432	16545.53
574.794	16590.5
575.155	16550.27
575.516	16582.59
575.877	16666.2
576.238	16583.94
576.599	16747.1
576.96	16647.9
577.32	16654.45
577.681	16735.8
578.042	16799.08
578.403	16813.99
578.763	16775.35
579.124	16763.15
579.485	16853.31
579.845	16772.86
580.206	16732.19
580.566	16696.71
580.927	16800.66
581.287	16858.51
581.648	16651.06
582.008	16770.83
582.368	16746.2
582.728	16708.68
583.089	16703.26
583.449	16676.14
583.809	16742.81
584.169	16788.46
584.529	16695.58
584.889	16724.73
585.249	16623.72
585.609	16621.91
585.969	16737.38
586.329	16536.49
586.688	16687.22
587.048	16615.35
587.408	16559.54
587.768	16589.14
588.127	16532.19
588.487	16597.73
588.846	16610.38
589.206	16571.51
589.565	16537.84
589.925	16592.08
590.284	16560.21
590.643	16532.64
591.003	16531.29
591.362	16598.86
591.721	16526.77
592.08	16505.07
592.44	16469.6
592.799	16555.02
593.158	16490.16
593.517	16476.83
593.876	16449.26
594.235	16512.53
594.593	16462.59
594.952	16436.6
595.311	16372.87
595.67	16441.57
596.029	16509.82
596.387	16480.22
596.746	16503.04
597.104	16318.19
597.463	16342.82
597.822	16500.1
598.18	16414.91
598.538	16351.41
598.897	16458.07
599.255	16312.99
599.613	16500.33
599.972	16394.57
600.33	16390.5
600.688	16332.42
601.046	16364.29
601.404	16451.52
601.762	16376.49
602.12	16472.08
602.478	16429.14
602.836	16469.6
603.194	16369.71
603.552	16452.65
603.91	16343.5
604.268	16411.97
604.625	16402.7
604.983	16483.15
605.341	16387.79
605.698	16557.5
606.056	16412.65
606.413	16469.6
606.771	16552.3
607.128	16634.79
607.485	16402.93
607.843	16431.4
608.2	16484.28
608.557	16473.89
608.914	16422.14
609.272	16585.75
609.629	16646.99
609.986	16604.51
610.343	16579.2
610.7	16594.79
611.057	16599.99
611.414	16568.12
611.771	16663.04
612.127	16591.85
612.484	16670.95
612.841	16738.97
613.198	16667.33
613.554	16647.44
613.911	16840.21
614.267	16678.4
614.624	16733.77
614.98	16722.02
615.337	16851.73
615.693	16849.02
616.05	16815.8
616.406	16885.86
616.762	16726.54
617.118	16735.58
617.475	16784.62
617.831	16996.36
618.187	16834.56
618.543	16874.78
618.899	16959.98
619.255	16912.3
619.611	16888.57
619.967	16882.69
620.323	17023.03
620.678	16908
621.034	16915.23
621.39	16858.29
621.746	16853.77
622.101	17002.69
622.457	16862.35
622.812	16964.27
623.168	16967.44
623.523	16941
623.879	17083.14
624.234	16799.76
624.589	16957.27
624.945	16929.92
625.3	16924.72
625.655	16940.54
626.01	16917.04
626.365	16974.67
626.72	16994.55
627.075	16873.2
627.43	17004.04
627.785	16902.13
628.14	16971.73
628.495	16886.31
628.85	16925.63
629.205	16831.39
629.559	16959.07
629.914	16821.9
630.269	16862.81
630.623	16803.82
630.978	16763.37
631.332	16829.36
631.687	16933.76
632.041	16772.41
632.396	16828.46
632.75	16685.18
633.104	16666.43
633.459	16753.43
633.813	16712.07
634.167	16654.68
634.521	16696.26
634.875	16687.89
635.229	16629.59
635.583	16535.36
635.937	16660.32
636.291	16493.78
636.645	16498.52
636.999	16521.8
637.352	16505.3
637.706	16428.24
638.06	16459.43
638.413	16519.54
638.767	16399.31
639.121	16436.6
639.474	16319.77
639.828	16324.97
640.181	16291.52
640.534	16362.48
640.888	16328.36
641.241	16269.37
641.594	16241.13
641.947	16296.04
642.301	16172.88
642.654	16200.45
643.007	16268.7
643.36	16238.19
643.713	16169.49
644.066	16299.43
644.419	16095.14
644.771	16079.77
645.124	16006.56
645.477	15861.48
645.83	15801.59
646.182	15691.99
646.535	15602.73
646.888	15789.61
647.24	15611.76
647.593	15655.83
647.945	15589.17
648.298	15660.8
648.65	15618.77
649.002	15509.17
649.355	15626
649.707	15649.5
650.059	15662.16
650.411	15963.85
650.763	15944.64
651.115	16067.57
651.467	16146.67
651.819	16004.97
652.171	15971.3
652.523	15944.19
652.875	16043.39
653.227	15941.25
653.578	16063.05
653.93	16000.45
654.282	15848.37
654.633	15923.39
654.985	15978.08
655.337	15916.62
655.688	15978.99
656.039	15960.91
656.391	15881.59
656.742	15907.35
657.094	15965.2
657.445	16050.17
657.796	16034.58
658.147	15960.91
658.498	15930.4
658.849	16020.34
659.2	16046.78
659.551	16006.56
659.902	16044.3
660.253	15999.55
660.604	16066.44
660.955	15964.98
661.306	15996.84
661.656	16000.45
662.007	16014.69
662.358	16036.61
662.708	16010.62
663.059	16042.94
663.409	15848.14
663.76	16015.82
664.11	15982.6
664.461	16008.36
664.811	15993.45
665.161	16040.68
665.511	15999.78
665.862	16112.77
666.212	16062.83
666.562	16071.64
666.912	16105.31
667.262	16040.45
667.612	16034.35
667.962	16107.34
668.312	16072.09
668.662	16131.75
669.011	16006.33
669.361	15949.38
669.711	15979.66
670.06	15971.53
670.41	15945.54
670.76	15959.55
671.109	15993.68
671.459	15930.63
671.808	15947.35
672.157	15924.75
672.507	15866
672.856	15796.84
673.205	15896.5
673.554	15863.96
673.904	15849.95
674.253	15914.58
674.602	15894.02
674.951	15618.32
675.3	15551.88
675.649	15724.53
675.998	15750.52
676.346	15847.01
676.695	15753.46
677.044	15741.7
677.393	15777.41
677.741	15724.76
678.09	15780.57
678.438	15663.06
678.787	15676.4
679.135	15642.95
679.484	15526.8
679.832	15626.91
680.181	15491.54
680.529	15474.37
680.877	15514.82
681.225	15457.87
681.573	15502.61
681.922	15422.84
682.27	15381.49
682.618	15310.98
682.966	15293.81
683.314	15345.1
683.661	15255.84
684.009	15237.54
684.357	15237.54
684.705	15135.62
685.053	15186.92
685.4	15076.41
685.748	15059.91
686.095	15096.52
686.443	14975.85
686.79	14971.56
687.138	14924.1
687.485	14953.93
687.832	14874.61
688.18	14892.69
688.527	14770.2
688.874	14798.45
689.221	14655.18
689.568	14774.05
689.915	14745.35
690.262	14722.3
690.609	14623.09
690.956	14545.8
691.303	14551.45
691.65	14409.76
691.997	14483.66
692.344	14371.57
692.69	14353.94
693.037	14325.24
693.383	14262.42
693.73	14221.07
694.077	14150.79
694.423	14166.6
694.769	14018.81
695.116	14086.61
695.462	14040.96
695.808	13959.6
696.155	13998.93
696.501	13876.9
696.847	13719.61
697.193	13683.45
697.539	13713.28
697.885	13634.19
698.231	13655.66
698.577	13604.36
698.923	13576.11
699.269	13565.72
699.614	13427.64
699.96	13445.49
700.306	13328.66
700.651	13264.03
700.997	13299.74
701.342	13253.86
701.688	13145.84
702.033	13161.21
702.379	13137.48
702.724	13016.58
703.069	13107.88
703.415	12905.4
703.76	12842.57
704.105	12860.65
704.45	12808.22
704.795	12753.53
705.14	12716.93
705.485	12664.05
705.83	12627.21
706.175	12638.28
706.52	12571.62
706.865	12593.54
707.209	12504.95
707.554	12499.08
707.899	12505.63
708.243	12378.4
708.588	12342.02
708.932	12248.92
709.277	12232.64
709.621	12227.22
709.966	12100.67
710.31	12224.28
710.654	12068.81
710.998	12128.24
711.342	12034.91
711.687	12029.49
712.031	11999.66
712.375	11974.35
712.719	11937.74
713.063	11934.12
713.407	12006.66
713.75	11830.17
714.094	11842.15
714.438	11773
714.782	11761.02
715.125	11752.66
715.469	11824.07
715.812	11683.28
716.156	11688.93
716.499	11606.9
716.843	11689.38
717.186	11610.06
717.53	11684.64
717.873	11687.12
718.216	11584.07
718.559	11603.73
718.902	11490.74
719.246	11533.23
719.589	11538.88
719.932	11503.85
720.275	11519.67
720.617	11536.39
720.96	11415.94
721.303	11449.61
721.646	11418.2
721.989	11375.04
722.331	11396.28
722.674	11347.92
723.016	11356.06
723.359	11288.71
723.701	11394.02
724.044	11293.01
724.386	11139.34
724.729	11294.36
725.071	11235.38
725.413	11257.08
725.755	11179.56
726.097	11228.15
726.439	11135.27
726.782	11147.93
727.124	11220.24
727.465	11127.81
727.807	11172.11
728.149	11185.44
728.491	11211.65
728.833	11192.9
729.175	11118.1
729.516	11114.48
729.858	11116.06
730.199	11113.13
730.541	11184.76
730.882	11140.47
731.224	11135.95
731.565	11078.32
731.906	11104.54
732.248	11099.11
732.589	11007.82
732.93	11092.79
733.271	11034.26
733.612	11152.67
733.953	11104.99
734.294	11072.22
734.635	11048.49
734.976	11105.44
735.317	11008.72
735.658	11077.19
735.999	11008.27
736.339	11022.96
736.68	11064.54
737.021	11110.64
737.361	11044.2
737.702	11153.58
738.042	11127.14
738.383	11083.07
738.723	11105.44
739.063	11079.68
739.404	11165.55
739.744	11109.51
740.084	11142.28
740.424	11211.43
740.764	11137.53
741.104	11198.55
741.444	11195.16
741.784	11226.34
742.124	11239.22
742.464	11208.26
742.804	11255.95
743.143	11308.83
743.483	11335.27
743.823	11285.32
744.162	11222.73
744.502	11353.57
744.841	11320.35
745.181	11426.11
745.52	11408.26
745.86	11436.96
746.199	11452.55
746.538	11570.74
746.877	11590.4
747.216	11680.57
747.556	11663.62
747.895	11716.05
748.234	11828.36
748.573	11852.09
748.911	11849.6
749.25	11998.98
749.589	12011.41
749.928	12108.13
750.267	12204.62
750.605	12281.68
750.944	12316.48
751.283	12392.41
751.621	12509.7
751.96	12539.53
752.298	12665.63
752.636	12773.42
752.975	12890.03
753.313	12921.21
753.651	13060.19
753.989	13095.45
754.327	13251.37
754.666	13261.32
755.004	13503.57
755.342	13654.3
755.679	13799.83
756.017	13860.4
756.355	13991.69
756.693	14153.5
757.031	14296.77
757.368	14344.91
757.706	14513.49
758.044	14763.43
758.381	14963.65
758.719	15146.47
759.056	15207.03
759.394	15371.09
759.731	15466.01
760.068	15816.28
760.405	15884.53
760.743	16040.91
761.08	16218.53
761.417	16307.57
761.754	16510.05
762.091	16694.67
762.428	16728.57
762.765	16976.47
763.102	17145.06
763.438	17153.19
763.775	17355.67
764.112	17653.07
764.449	17719.05
764.785	17890.8
765.122	18000.18
765.458	18212.6
765.795	18338.02
766.131	18451.69
766.467	18623.44
766.804	18683.1
767.14	18765.58
767.476	19072.01
767.812	19060.71
768.148	19136.64
768.485	19297.09
768.821	19247.38
769.157	19458.9
769.492	19557.65
769.828	19720.81
770.164	19763.52
770.5	19777.3
770.836	20037.19
771.171	20001.71
771.507	20088.03
771.842	20132.32
772.178	20309.49
772.513	20295.03
772.849	20276.5
773.184	20533.44
773.519	20450.96
773.855	20464.52
774.19	20625.64
774.525	20666.32
774.86	20687.56
775.195	20724.17
775.53	20768.69
775.865	20796.26
776.2	20706.32
776.535	20771.4
776.87	20871.97
777.205	20845.3
777.539	20845.98
777.874	20982.47
778.209	20860.44
778.543	20966.65
778.878	20871.06
779.212	20984.96
779.547	20993.77
779.881	20949.93
780.215	20996.93
780.55	21037.84
780.884	20932.75
781.218	20995.13
781.552	21033.54
781.886	20860.21
782.22	20856.15
782.554	20961.68
782.888	20858.86
783.222	20777.05
783.556	20637.4
783.889	20745.64
784.223	20605.76
784.557	20592.2
784.89	20711.74
785.224	20655.47
785.557	20568.24
785.891	20653.89
786.224	20597.62
786.558	20528.02
786.891	20422.03
787.224	20467.91
787.557	20465.65
787.891	20407.34
788.224	20338.87
788.557	20341.13
788.89	20340.91
789.223	20405.08
789.556	20194.02
789.888	20224.52
790.221	20265.2
790.554	20097.97
790.887	20082.83
791.219	19982.95
791.552	19978.2
791.884	19926.23
792.217	19942.5
792.549	19881.03
792.882	19729.17
793.214	19778.43
793.546	19744.99
793.879	19742.73
794.211	19543.86
794.543	19712.9
794.875	19608.95
795.207	19579.34
795.539	19537.76
795.871	19578.44
796.203	19363.98
796.535	19220.48
796.867	19291.44
797.198	19239.01
797.53	19242.18
797.862	19102.97
798.193	19123.76
798.525	19036.99
798.856	19128.06
799.188	18774.39
799.519	18805.13
799.85	18737.56
800.182	18825.69
800.513	18752.47
800.844	18634.96
801.175	18701.85
801.506	18712.25
801.837	18543.66
802.168	18526.94
802.499	18614.85
802.83	18397.45
803.161	18389.77
803.491	18436.32
803.822	18376.89
804.153	18240.85
804.483	18152.94
804.814	18108.42
805.145	18143.22
805.475	18015.32
805.805	17943.91
806.136	18007.86
806.466	18043.34
806.796	17931.7
807.126	17866.62
807.457	17788.66
807.787	17793.63
808.117	17684.93
808.447	17590.02
808.777	17668.21
809.107	17576.01
809.436	17614.42
809.766	17577.59
810.096	17443.35
810.426	17495.33
810.755	17434.09
811.085	17451.04
811.414	17322.23
811.744	17230.25
812.073	17264.6
812.403	17221.21
812.732	17109.35
813.061	17132.18
813.39	17153.19
813.719	17092.86
814.049	17078.39
814.378	17026.64
814.707	17038.85
815.036	17019.41
815.365	16921.56
815.693	16737.38
816.022	16767.67
816.351	16663.04
816.68	16654.9
817.008	16770.38
817.337	16639.76
817.665	16519.99
817.994	16622.59
818.322	16468.69
818.651	16421.69
818.979	16371.97
819.307	16487.9
819.636	16527.67
819.964	16448.58
820.292	16452.87
820.62	16425.98
820.948	16291.75
821.276	16336.72
821.604	16288.36
821.932	16426.88
822.259	16391.18
822.587	16309.37
822.915	16299.2
823.243	16377.39
823.57	16254.46
823.898	16282.26
824.225	16218.3
824.553	16315.25
824.88	16260.56
825.207	16342.59
825.535	16308.02
825.862	16350.05
826.189	16348.69
826.516	16267.34
826.843	16382.59
827.17	16224.86
827.497	16333.33
827.824	16345.76
828.151	16360.67
828.478	16429.82
828.805	16401.57
829.131	16278.41
829.458	16323.38
829.785	16298.53
830.111	16305.76
830.438	16351.86
830.764	16349.15
831.09	16389.37
831.417	16217.4
831.743	16301.24
832.069	16374.68
832.395	16247.23
832.722	16202.48
833.048	16184.4
833.374	16182.82
833.7	16208.81
834.026	16141.92
834.351	16143.73
834.677	16215.59
835.003	16158.42
835.329	16233.44
835.654	16165.65
835.98	16058.08
836.306	16070.96
836.631	16055.82
836.956	16103.96
837.282	16074.8
837.607	15979.21
837.932	15990.06
838.258	15936.73
838.583	15978.53
838.908	15760.91
839.233	15900.8
839.558	15834.13
839.883	15795.94
840.208	15732.89
840.533	15701.93
840.858	15755.94
841.182	15672.78
841.507	15761.14
841.832	15671.88
842.156	15650.86
842.481	15606.12
842.805	15527.02
843.13	15495.16
843.454	15477.76
843.778	15384.88
844.103	15374.71
844.427	15413.58
844.751	15344.43
845.075	15300.81
845.399	15302.39
845.723	15177.2
846.047	15151.21
846.371	15071.89
846.695	15052.91
847.019	14967.04
847.343	14910.54
847.666	14762.3
847.99	14724.33
848.313	14778.79
848.637	14593.49
848.96	14678
849.284	14638.91
849.607	14428.07
849.931	14513.26
850.254	14395.75
850.577	14309.2
850.9	14216.77
851.223	14181.97
851.546	14123.89
851.869	14032.82
852.192	14054.97
852.515	13968.87
852.838	13859.95
853.161	13890.23
853.483	13826.5
853.806	13782.21
854.129	13711.48
854.451	13649.33
854.774	13688.65
855.096	13638.48
855.419	13541.99
855.741	13608.43
856.063	13489.11
856.385	13440.3
856.708	13420.18
857.03	13342.67
857.352	13349.68
857.674	13277.36
857.996	13257.48
858.318	13174.77
858.64	13153.52
858.961	13105.62
859.283	13139.06
859.605	12996.24
859.926	13071.49
860.248	13010.93
860.57	12926.19
860.891	12951.95
861.212	12869.92
861.534	12816.81
861.855	12794.66
862.176	12828.34
862.498	12720.77
862.819	12729.35
863.14	12713.99
863.461	12753.08
863.782	12647.55
864.103	12676.7
864.424	12639.41
864.745	12622.92
865.065	12511.96
865.386	12506.76
865.707	12508.12
866.027	12518.51
866.348	12477.84
866.668	12452.53
866.989	12462.24
867.309	12369.59
867.63	12422.7
867.95	12370.04
868.27	12458.4
868.59	12331.4
868.91	12312.42
869.23	12244.62
869.55	12204.17
869.87	12276.03
870.19	12214.79
870.51	12288.24
870.83	12207.56
871.15	12125.08
871.469	12168.01
871.789	12167.11
872.109	12187.45
872.428	12069.48
872.748	12115.36
873.067	12074
873.386	12101.35
873.706	11977.51
874.025	11946.1
874.344	11926.21
874.663	11948.58
874.982	11896.16
875.301	11960.56
875.62	11885.31
875.939	11814.12
876.258	11856.84
876.577	11840.79
876.896	11841.24
877.214	11707.69
877.533	11809.38
877.852	11716.95
878.17	11755.37
878.489	11795.82
878.807	11718.31
879.125	11624.52
879.444	11697.29
879.762	11627.01
880.08	11627.69
880.398	11551.98
880.716	11591.53
881.034	11547.24
881.352	11564.19
881.67	11493.45
881.988	11487.35
882.306	11417.52
882.624	11418.88
882.941	11357.64
883.259	11332.78
883.577	11308.83
883.894	11323.52
884.212	11264.76
884.529	11310.18
884.846	11272.9
885.164	11231.09
885.481	11176.18
885.798	11199.23
886.115	11083.75
886.432	11100.24
886.75	11065.9
887.067	11068.61
887.383	11051.66
887.7	11017.76
888.017	10932.11
888.334	10964.2
888.651	10932.57
888.967	10879.91
889.284	10852.79
889.6	10854.38
889.917	10770.31
890.233	10793.13
890.55	10738.9
890.866	10715.85
891.182	10714.94
891.498	10701.61
891.815	10638.79
892.131	10575.74
892.447	10562.63
892.763	10503.2
893.079	10444.44
893.395	10426.36
893.71	10387.04
894.026	10394.05
894.342	10371.45
894.657	10306.82
894.973	10275.41
895.289	10268.4
895.604	10267.95
895.92	10163.09
896.235	10116.54
896.55	10043.1
896.865	10079.03
897.181	10099.14
897.496	10058.24
897.811	9974.62
898.126	9907.51
898.441	9897.34
898.756	9885.14
899.071	9801.3
899.386	9848.07
899.7	9771.92
900.015	9687.63
900.33	9652.83
900.644	9592.49
900.959	9646.5
901.273	9566.05
901.588	9520.4
901.902	9528.53
902.216	9488.99
902.531	9415.77
902.845	9452.15
903.159	9346.17
903.473	9333.29
903.787	9315.43
904.101	9259.16
904.415	9265.94
904.729	9212.38
905.042	9185.72
905.356	9056.91
905.67	9141.43
905.984	9109.34
906.297	9059.62
906.611	8959.51
906.924	8927.87
907.237	8990.47
907.551	8930.36
907.864	8872.96
908.177	8809.23
908.491	8781.44
908.804	8709.8
909.117	8701.44
909.43	8640.87
909.743	8634.77
910.056	8658.73
910.368	8555
910.681	8515.23
910.994	8502.57
911.307	8465.74
911.619	8465.29
911.932	8460.09
912.244	8369.24
912.557	8414.21
912.869	8279.98
913.181	8260.55
913.494	8262.13
913.806	8211.06
914.118	8192.3
914.43	8164.5
914.742	8087.67
915.054	8049.03
915.366	8062.36
915.678	8027.78
915.99	7972.42
916.302	7918.86
916.613	7898.52
916.925	7915.92
917.236	7864.62
917.548	7757.73
917.859	7787.56
918.171	7740.11
918.482	7694.91
918.794	7689.71
919.105	7642.03
919.416	7600.22
919.727	7557.97
920.038	7566.1
920.349	7532.66
920.66	7416.05
920.971	7428.93
921.282	7454.69
921.593	7399.1
921.903	7376.5
922.214	7240.01
922.525	7294.02
922.835	7207.69
923.146	7239.33
923.456	7216.96
923.767	7137.86
924.077	7127.92
924.387	7080.24
924.697	7084.98
925.008	7010.63
925.318	7027.58
925.628	6973.57
925.938	6931.77
926.248	6858.32
926.558	6905.33
926.867	6882.95
927.177	6919.34
927.487	6818.78
927.796	6741.72
928.106	6722.73
928.416	6748.04
928.725	6688.16
929.034	6639.35
929.344	6688.84
929.653	6597.99
929.962	6535.17
930.271	6558.22
930.581	6516.64
930.89	6427.6
931.199	6449.29
931.508	6416.07
931.817	6407.71
932.125	6431.22
932.434	6343.53
932.743	6286.59
933.051	6310.99
933.36	6264.21
933.669	6248.4
933.977	6210.88
934.286	6160.94
934.594	6223.76
934.902	6162.52
935.21	6119.36
935.519	6106.25
935.827	6081.39
936.135	6024.67
936.443	6028.51
936.751	5962.98
937.059	6031.9
937.367	5984.45
937.674	5946.93
937.982	5899.03
938.29	5896.99
938.597	5888.63
938.905	5794.62
939.213	5804.34
939.52	5757.56
939.827	5808.63
940.135	5733.83
940.442	5697.68
940.749	5730.67
941.056	5728.41
941.363	5666.04
941.67	5627.39
941.977	5597.11
942.284	5493.16
942.591	5557.57
942.898	5543.55
943.205	5518.92
943.511	5529.32
943.818	5506.72
944.125	5438.25
944.431	5426.04
944.738	5424.01
945.044	5301.75
945.35	5325.48
945.657	5275.77
945.963	5260.85
946.269	5243.68
946.575	5297.46
946.881	5197.12
947.187	5175.2
947.493	5147.63
947.799	5164.13
948.105	5109.89
948.41	5095.66
948.716	5131.81
949.022	5047.75
949.327	5053.62
949.633	5027.86
949.938	4970.24
950.244	4964.14
950.549	4935.66
950.854	4959.62
951.16	4914.42
951.465	4898.83
951.77	4873.97
952.075	4848.43
952.38	4815.21
952.685	4818.6
952.99	4749.68
953.294	4758.26
953.599	4724.82
953.904	4693.86
954.209	4695.22
954.513	4655.22
954.818	4696.12
955.122	4623.13
955.426	4613.41
955.731	4591.26
956.035	4582.9
956.339	4537.71
956.643	4564.6
956.948	4523.24
957.252	4451.83
957.556	4462
957.86	4454.09
958.163	4466.52
958.467	4391.95
958.771	4419.74
959.075	4380.87
959.378	4354.89
959.682	4389.69
959.985	4322.57
960.289	4322.34
960.592	4307.43
960.896	4283.93
961.199	4289.12
961.502	4218.62
961.805	4223.36
962.108	4191.27
962.411	4173.42
962.714	4198.73
963.017	4143.37
963.32	4115.57
963.623	4114.21
963.926	4106.98
964.228	4056.36
964.531	4013.43
964.833	4097.72
965.136	4027.89
965.438	4012.07
965.741	4001.9
966.043	3984.05
966.345	3956.25
966.648	3946.53
966.95	3924.84
967.252	3915.8
967.554	3895.69
967.856	3846.88
968.158	3817.95
968.46	3849.81
968.761	3838.29
969.063	3786.09
969.365	3798.06
969.666	3768.91
969.968	3699.31
970.269	3717.39
970.571	3723.49
970.872	3734.56
971.174	3697.05
971.475	3686.43
971.776	3672.64
972.077	3620.67
972.378	3621.57
972.679	3596.26
972.98	3562.14
973.281	3604.17
973.582	3542.03
973.883	3539.09
974.183	3538.18
974.484	3531.86
974.785	3483.04
975.085	3495.7
975.386	3490.05
975.686	3452.76
975.986	3446.89
976.287	3408.02
976.587	3355.36
976.887	3377.74
977.187	3377.28
977.487	3334.12
977.787	3380.22
978.087	3310.62
978.387	3289.83
978.687	3309.72
978.987	3263.84
979.286	3265.87
979.586	3266.55
979.885	3254.8
980.185	3218.42
980.484	3190.4
980.784	3208.02
981.083	3182.49
981.382	3160.11
981.682	3158.76
981.981	3148.14
982.28	3108.59
982.579	3120.79
982.878	3083.96
983.177	3082.15
983.475	3099.1
983.774	3027.24
984.073	3044.86
984.372	3025.2
984.67	2991.76
984.969	2982.94
985.267	2957.63
985.566	2967.8
985.864	2944.08
986.162	2927.13
986.461	2935.49
986.759	2875.38
987.057	2865.66
987.355	2834.93
987.653	2878.31
987.951	2858.2
988.249	2829.28
988.547	2852.33
988.844	2805.77
989.142	2809.39
989.44	2785.89
989.737	2759
990.035	2752.44
990.332	2731.43
990.63	2729.17
990.927	2769.39
991.224	2725.55
991.521	2715.38
991.819	2697.08
992.116	2700.47
992.413	2695.95
992.71	2650.07
993.006	2605.78
993.303	2641.26
993.6	2588.38
993.897	2620.24
994.193	2589.96
994.49	2579.56
994.787	2551.54
995.083	2552.9
995.379	2557.19
995.676	2521.49
995.972	2480.81
996.268	2550.19
996.565	2458.66
996.861	2479.68
997.157	2441.94
997.453	2482.84
997.749	2436.07
998.044	2440.36
998.34	2404.43
998.636	2396.52
998.932	2397.65
999.227	2391.77
999.523	2354.49
999.818	2358.33
1000.114	2338.22
1000.409	2344.32
1000.704	2294.37
1001	2313.81
1001.295	2300.48
1001.59	2298.22
1001.885	2263.64
1002.18	2260.03
1002.475	2232
1002.77	2241.04
1003.065	2203.76
1003.359	2199.46
1003.654	2175.96
1003.949	2198.56
1004.243	2171.89
1004.538	2186.81
1004.832	2142.51
1005.127	2152.46
1005.421	2158.79
1005.715	2112.46
1006.009	2121.5
1006.304	2090.76
1006.598	2075.62
1006.892	2047.6
1007.186	2034.04
1007.48	2036.08
1007.773	2054.61
1008.067	2034.95
1008.361	2005.34
1008.655	1976.64
1008.948	1986.59
1009.242	1970.09
1009.535	1972.58
1009.829	1955.63
1010.122	1922.18
1010.415	1956.76
1010.708	1905.46
1011.001	1898.23
1011.295	1888.74
1011.588	1874.27
1011.881	1868.85
1012.173	1835.63
1012.466	1857.78
1012.759	1817.1
1013.052	1804.44
1013.344	1821.62
1013.637	1794.5
1013.93	1789.98
1014.222	1771.45
1014.514	1792.02
1014.807	1767.16
1015.099	1759.25
1015.391	1695.29
1015.683	1716.54
1015.976	1732.36
1016.268	1729.87
1016.56	1691.68
1016.851	1699.36
1017.143	1674.5
1017.435	1674.5
1017.727	1681.51
1018.018	1651
1018.31	1610.78
1018.602	1632.7
1018.893	1587.95
1019.185	1590.21
1019.476	1577.33
1019.767	1575.98
1020.058	1599.48
1020.35	1596.77
1020.641	1543.89
1020.932	1541.85
1021.223	1538.24
1021.514	1491.91
1021.804	1514.06
1022.095	1504.56
1022.386	1503.89
1022.677	1489.88
1022.967	1462.98
1023.258	1437.67
1023.548	1467.73
1023.839	1436.77
1024.129	1427.96
1024.419	1404.68
1024.709	1412.82
1025	1378.47
1025.29	1386.83
1025.58	1356.55
1025.87	1366.49
1026.16	1370.56
1026.449	1373.72
1026.739	1354.51
1027.029	1336.89
1027.319	1319.49
1027.608	1307.28
1027.898	1324.68
1028.187	1328.98
1028.477	1301.41
1028.766	1282.88
1029.055	1253.95
1029.344	1281.75
1029.634	1267.96
1029.923	1257.79
1030.212	1253.27
1030.501	1233.61
1030.79	1231.8
1031.078	1228.87
1031.367	1222.31
1031.656	1216.44
1031.945	1215.98
1032.233	1205.14
1032.522	1167.4
1032.81	1171.01
1033.099	1181.64
1033.387	1172.6
1033.675	1148.42
1033.963	1137.79
1034.251	1126.72
1034.54	1137.57
1034.828	1127.63
1035.116	1132.37
1035.403	1089.21
1035.691	1111.58
1035.979	1085.14
1036.267	1086.27
1036.554	1060.28
1036.842	1056.67
1037.129	1060.06
1037.417	1052.6
1037.704	1029.55
1037.992	1062.54
1038.279	1023
1038.566	1031.81
1038.853	1031.81
1039.14	1031.81
