Data from hue_220_FLMS001491_00041.txt Node
Date: Tue Feb 07 16:39:30 GMT 2017
User: dcchb
Spectrometer: FLMS00149
Trigger mode: 0
Integration Time (sec): 2.000000E-2
Scans to average: 10
Electric dark correction enabled: true
Nonlinearity correction enabled: false
Boxcar width: 0
XAxis mode: Wavelengths
Number of Pixels in Spectrum: 2048
>>>>>Begin Spectral Data<<<<<
341.393	-25.27
341.776	-25.27
342.16	-25.27
342.543	-59.39
342.927	-77.92
343.31	-69.56
343.693	-70.24
344.077	-72.05
344.46	-61.2
344.843	-65.27
345.226	-52.39
345.61	-33.86
345.993	-14.65
346.376	-7.64
346.759	22.19
347.142	33.49
347.525	42.08
347.908	64.9
348.291	83.88
348.674	83.43
349.057	116.88
349.44	101.51
349.823	142.19
350.206	155.97
350.588	195.52
350.971	208.85
351.354	219.92
351.737	246.82
352.119	251.56
352.502	243.43
352.884	276.19
353.267	278.23
353.65	252.69
354.032	291.11
354.414	309.86
354.797	318.45
355.179	338.79
355.562	314.16
355.944	310.77
356.326	331.33
356.709	320.03
357.091	319.58
357.473	346.02
357.855	342.86
358.238	350.09
358.62	339.02
359.002	336.53
359.384	312.8
359.766	348.06
360.148	336.76
360.53	347.15
360.912	323.88
361.294	335.17
361.676	329.3
362.057	326.36
362.439	324.78
362.821	340.15
363.203	312.8
363.584	328.62
363.966	333.14
364.348	310.77
364.729	314.16
365.111	293.14
365.493	320.49
365.874	307.38
366.256	307.38
366.637	308.73
367.019	292.92
367.4	322.97
367.781	289.75
368.163	302.18
368.544	301.5
368.925	305.8
369.306	311.9
369.688	298.34
370.069	302.41
370.45	312.8
370.831	292.69
371.212	306.7
371.593	312.12
371.974	320.94
372.355	307.38
372.736	325.91
373.117	316.64
373.498	298.79
373.879	312.8
374.26	311.22
374.641	309.19
375.021	285.46
375.402	314.84
375.783	325.01
376.163	321.62
376.544	318.23
376.925	351.67
377.305	311.9
377.686	292.01
378.066	315.29
378.447	320.03
378.827	327.49
379.208	325.46
379.588	317.77
379.968	338.56
380.349	354.38
380.729	319.58
381.109	319.58
381.489	336.3
381.87	341.5
382.25	320.71
382.63	330.2
383.01	348.73
383.39	348.96
383.77	329.3
384.15	350.54
384.53	355.51
384.91	366.59
385.29	345.12
385.67	345.8
386.049	356.42
386.429	348.06
386.809	348.28
387.189	363.87
387.568	344.89
387.948	359.13
388.328	361.61
388.707	346.47
389.087	351.45
389.466	364.55
389.846	371.78
390.225	353.93
390.605	367.49
390.984	370.65
391.363	378.56
391.743	373.82
392.122	373.59
392.501	374.04
392.881	378.34
393.26	381.5
393.639	385.34
394.018	381.05
394.397	377.89
394.776	392.35
395.155	382.86
395.534	395.06
395.913	383.08
396.292	412.91
396.671	400.71
397.05	390.09
397.429	383.08
397.808	388.28
398.186	412.01
398.565	382.86
398.944	433.93
399.323	419.47
399.701	395.51
400.08	394.38
400.458	423.53
400.837	408.39
401.215	424.66
401.594	442.97
401.972	424.66
402.351	417.43
402.729	438.22
403.107	431.22
403.486	427.38
403.864	454.04
404.242	451.1
404.62	438
404.999	464.66
405.377	450.65
405.755	463.08
406.133	455.17
406.511	468.73
406.889	468.28
407.267	496.07
407.645	499.01
408.023	482.97
408.401	482.29
408.779	495.17
409.156	509.41
409.534	516.86
409.912	487.49
410.29	514.61
410.667	534.04
411.045	551.44
411.422	555.96
411.8	560.71
412.178	556.19
412.555	589.18
412.933	535.62
413.31	607.48
413.687	585.56
414.065	593.02
414.442	606.35
414.819	615.85
415.197	623.3
415.574	654.94
415.951	648.39
416.328	654.94
416.705	662.62
417.082	675.73
417.46	687.03
417.837	682.96
418.214	699.91
418.591	692.91
418.967	703.07
419.344	726.8
419.721	733.13
420.098	737.42
420.475	725.45
420.852	758.44
421.228	748.95
421.605	779.68
421.982	815.61
422.358	813.81
422.735	829.4
423.111	842.28
423.488	819.68
423.864	849.74
424.241	866.69
424.617	901.04
424.994	903.75
425.37	920.7
425.746	896.97
426.123	925.44
426.499	940.13
426.875	941.71
427.251	980.81
427.627	993.46
428.003	1028.04
428.379	1016.29
428.756	1036.63
429.132	1060.13
429.507	1056.74
429.883	1068.71
430.259	1086.57
430.635	1082.95
431.011	1082.73
431.387	1123.85
431.763	1105.78
432.138	1150.07
432.514	1179.45
432.89	1193.01
433.265	1194.59
433.641	1237.98
434.016	1248.6
434.392	1277.52
434.767	1304.19
435.143	1315.94
435.518	1309.84
435.894	1316.84
436.269	1374.24
436.644	1408.37
437.02	1428.25
437.395	1443.39
437.77	1451.76
438.145	1499.89
438.52	1498.31
438.895	1529.27
439.271	1517.97
439.646	1608.14
440.021	1612.66
440.395	1607.01
440.77	1611.98
441.145	1659.89
441.52	1690.85
441.895	1701.24
442.27	1705.53
442.645	1734.23
443.019	1743.27
443.394	1751.18
443.769	1787.57
444.143	1767
444.518	1795.48
444.892	1796.38
445.267	1807.9
445.641	1855.59
446.016	1855.59
446.39	1870.28
446.764	1872.99
447.139	1861.24
447.513	1901.24
447.887	1900.78
448.262	1927.22
448.636	1964.06
449.01	1973.32
449.384	1988.69
449.758	2000.44
450.132	2039.76
450.506	2046.77
450.88	2045.41
451.254	2029.14
451.628	2083.38
452.002	2118.18
452.376	2126.54
452.75	2172.41
453.123	2149.59
453.497	2186.2
453.871	2209.48
454.244	2208.12
454.618	2249.7
454.992	2294.67
455.365	2288.34
455.739	2335.35
456.112	2318.63
456.486	2369.47
456.859	2424.16
457.232	2443.82
457.606	2423.26
457.979	2448.34
458.352	2520.88
458.725	2514.78
459.099	2538.73
459.472	2568.56
459.845	2607.21
460.218	2610.37
460.591	2649.46
460.964	2641.1
461.337	2749.35
461.71	2755.9
462.083	2805.17
462.456	2813.08
462.829	2838.39
463.201	2877.25
463.574	2859.18
463.947	2894.43
464.32	2946.63
464.692	2957.25
465.065	3036.35
465.438	3049.23
465.81	3068.21
466.183	3147.98
466.555	3163.35
466.928	3204.93
467.3	3208.32
467.672	3246.51
468.045	3279.5
468.417	3276.34
468.789	3347.98
469.161	3380.52
469.534	3444.47
469.906	3477.92
470.278	3512.94
470.65	3507.52
471.022	3639.27
471.394	3613.05
471.766	3658.93
472.138	3724.92
472.51	3784.35
472.882	3815.76
473.253	3873.61
473.625	3930.11
473.997	3978.24
474.369	4057.11
474.74	4046.94
475.112	4090.78
475.484	4141.4
475.855	4270.44
476.227	4336.43
476.598	4370.55
476.97	4399.02
477.341	4489.87
477.713	4544.33
478.084	4526.03
478.455	4684.44
478.827	4720.82
479.198	4840.82
479.569	4863.64
479.94	4946.13
480.311	4967.6
480.682	5073.13
481.053	5158.1
481.424	5240.81
481.795	5305.21
482.166	5333.24
482.537	5382.73
482.908	5504.53
483.279	5582.49
483.65	5598.09
484.021	5701.14
484.391	5779.33
484.762	5784.52
485.133	5907.68
485.503	5991.3
485.874	6065.87
486.244	6071.52
486.615	6142.71
486.985	6209.6
487.356	6313.1
487.726	6331.18
488.097	6462.25
488.467	6522.36
488.837	6609.13
489.207	6666.76
489.578	6771.39
489.948	6804.38
490.318	6859.52
490.688	6876.02
491.058	6983.59
491.428	7096.8
491.798	7083.25
492.168	7281.43
492.538	7239.63
492.908	7335.44
493.278	7451.82
493.648	7400.3
494.017	7494.08
494.387	7542.44
494.757	7591.03
495.126	7689.56
495.496	7690.24
495.866	7702.21
496.235	7750.12
496.605	7809.78
496.974	7852.72
497.344	7937.01
497.713	7999.61
498.082	8030.79
498.452	8068.98
498.821	8109.66
499.19	8141.3
499.559	8087.74
499.928	8196.44
500.298	8231.46
500.667	8251.35
501.036	8257.68
501.405	8337.22
501.774	8304.46
502.143	8328.18
502.512	8369.99
502.88	8447.05
503.249	8416.54
503.618	8447.96
503.987	8439.37
504.356	8535.19
504.724	8516.43
505.093	8560.95
505.462	8599.59
505.83	8633.71
506.199	8718.23
506.567	8764.78
506.936	8743.77
507.304	8821.96
507.672	8863.09
508.041	8843.88
508.409	8861.28
508.777	8935.17
509.145	8949.41
509.514	8972.69
509.882	8934.04
510.25	8934.72
510.618	8948.96
510.986	8968.39
511.354	9066.92
511.722	9113.48
512.09	9159.35
512.458	9103.53
512.826	9179.01
513.193	9162.97
513.561	9209.74
513.929	9209.74
514.297	9263.75
514.664	9303.75
515.032	9267.14
515.4	9329.97
515.767	9314.6
516.135	9378.33
516.502	9241.61
516.869	9377.42
517.237	9432.56
517.604	9332.23
517.972	9415.84
518.339	9433.92
518.706	9358.44
519.073	9381.26
519.44	9383.3
519.808	9444.54
520.175	9365.67
520.542	9509.17
520.909	9547.59
521.276	9494.26
521.643	9558.89
522.009	9550.3
522.376	9491.09
522.743	9580.13
523.11	9651.99
523.477	9723.63
523.843	9732.89
524.21	9668.71
524.577	9734.93
524.943	9733.8
525.31	9746.45
525.676	9803.63
526.043	9834.59
526.409	9791.2
526.776	9884.3
527.142	9849.27
527.508	9864.42
527.874	9861.48
528.241	9891.31
528.607	9876.39
528.973	9944.87
529.339	9897.18
529.705	9906.9
530.071	9984.64
530.437	9914.58
530.803	9949.39
531.169	9962.49
531.535	9921.59
531.901	9923.62
532.267	9858.99
532.632	9928.59
532.998	9909.61
533.364	9926.79
533.73	9948.93
534.095	9970.18
534.461	9815.6
534.826	9912.55
535.192	9933.79
535.557	9874.81
535.923	9894.47
536.288	9854.92
536.653	9864.19
537.019	9880.91
537.384	9851.31
537.749	9825.77
538.114	9791.2
538.479	9813.57
538.845	9808.37
539.21	9722.5
539.575	9758.88
539.94	9720.24
540.305	9792.55
540.67	9720.46
541.034	9644.31
541.399	9665.55
541.764	9620.81
542.129	9624.42
542.494	9658.32
542.858	9656.74
543.223	9581.26
543.587	9625.78
543.952	9564.76
544.316	9452.45
544.681	9520.24
545.045	9483.86
545.41	9569.73
545.774	9543.52
546.138	9500.36
546.503	9423.07
546.867	9420.36
547.231	9463.07
547.595	9459
547.959	9402.06
548.324	9405.22
548.688	9347.37
549.052	9369.51
549.416	9341.94
549.779	9282.96
550.143	9312.57
550.507	9315.73
550.871	9317.31
551.235	9215.17
551.599	9330.64
551.962	9260.36
552.326	9186.02
552.689	9268.5
553.053	9175.17
553.417	9194.83
553.78	9255.39
554.143	9116.19
554.507	9123.87
554.87	9195.73
555.234	9233.7
555.597	9116.19
555.96	9109.41
556.323	9148.05
556.686	9091.55
557.05	9118.22
557.413	9146.69
557.776	9108.96
558.139	9118.22
558.502	9103.31
558.865	9113.7
559.228	9155.96
559.59	9083.87
559.953	9117.32
560.316	9237.77
560.679	9196.18
561.041	9121.16
561.404	9139.24
561.767	9176.98
562.129	9128.39
562.492	9185.11
562.854	9125
563.217	9184.21
563.579	9185.56
563.941	9189.18
564.304	9187.6
564.666	9227.82
565.028	9191.21
565.39	9191.89
565.753	9200.25
566.115	9274.6
566.477	9319.35
566.839	9277.09
567.201	9269.86
567.563	9288.61
567.925	9369.51
568.287	9311.66
568.648	9320.93
569.01	9383.3
569.372	9417.42
569.734	9357.08
570.095	9410.64
570.457	9415.39
570.819	9428.27
571.18	9434.82
571.542	9514.14
571.903	9444.54
572.265	9539.23
572.626	9513.01
572.987	9575.38
573.349	9564.54
573.71	9514.14
574.071	9564.99
574.432	9591.43
574.794	9666.45
575.155	9715.95
575.516	9661.03
575.877	9687.02
576.238	9756.62
576.599	9699.22
576.96	9736.28
577.32	9657.87
577.681	9732.89
578.042	9807.24
578.403	9872.33
578.763	9820.35
579.124	9823.06
579.485	9893.57
579.845	9938.54
580.206	9904.64
580.566	10010.63
580.927	9922.95
581.287	9980.57
581.648	9938.76
582.008	9963.85
582.368	9965.43
582.728	9966.11
583.089	10091.3
583.449	10055.15
583.809	10051.3
584.169	10045.2
584.529	10013.79
584.889	10165.42
585.249	10110.96
585.609	10016.95
585.969	10093.56
586.329	10120.91
586.688	10187.8
587.048	10170.85
587.408	10155.48
587.768	10185.99
588.127	10122.71
588.487	10187.12
588.846	10252.88
589.206	10226.89
589.565	10263.5
589.925	10269.6
590.284	10228.02
590.643	10223.5
591.003	10295.59
591.362	10369.04
591.721	10324.74
592.08	10340.34
592.44	10371.75
592.799	10378.53
593.158	10343.27
593.517	10341.24
593.876	10340.34
594.235	10348.02
594.593	10372.43
594.952	10428.02
595.311	10396.61
595.67	10421.24
596.029	10437.28
596.387	10464.63
596.746	10498.98
597.104	10462.14
597.463	10428.47
597.822	10508.47
598.18	10447.23
598.538	10399.32
598.897	10487.9
599.255	10447
599.613	10615.58
599.972	10476.83
600.33	10601.12
600.688	10453.78
601.046	10572.87
601.404	10589.14
601.762	10591.85
602.12	10634.79
602.478	10585.75
602.836	10613.32
603.194	10559.31
603.552	10632.76
603.91	10571.06
604.268	10646.09
604.625	10517.05
604.983	10573.55
605.341	10522.03
605.698	10594.79
606.056	10696.03
606.413	10654.23
606.771	10653.32
607.128	10753.66
607.485	10667.78
607.843	10645.64
608.2	10706.43
608.557	10821.68
608.914	10668.69
609.272	10752.3
609.629	10741.45
609.986	10848.8
610.343	10809.7
610.7	10858.06
611.057	10806.76
611.414	10823.49
611.771	10813.77
612.127	10750.27
612.484	10798.18
612.841	10862.58
613.198	10821
613.554	10818.51
613.911	10866.42
614.267	10924.95
614.624	10815.13
614.98	10849.93
615.337	10977.61
615.693	10872.3
616.05	10947.1
616.406	11070.49
616.762	10937.38
617.118	10957.95
617.475	10963.82
617.831	10968.34
618.187	11019.64
618.543	10994.78
618.899	11097.83
619.255	10982.8
619.611	11090.6
619.967	11037.27
620.323	11003.82
620.678	11026.87
621.034	11027.1
621.39	11076.14
621.746	11006.31
622.101	11164.27
622.457	11060.09
622.812	11073.65
623.168	11080.88
623.523	11036.59
623.879	11072.97
624.234	10918.63
624.589	11124.04
624.945	11025.97
625.3	11127.66
625.655	11065.06
626.01	11073.65
626.365	11083.14
626.72	11019.41
627.075	11019.87
627.43	11062.58
627.785	10993.88
628.14	11005.4
628.495	11082.46
628.85	10963.37
629.205	11024.16
629.559	11004.5
629.914	10949.81
630.269	10988.23
630.623	10949.58
630.978	10909.13
631.332	11028.23
631.687	10987.78
632.041	10955.01
632.396	10938.96
632.75	10832.53
633.104	10903.26
633.459	10854.9
633.813	10795.24
634.167	10885.18
634.521	10834.33
634.875	10833.43
635.229	10845.86
635.583	10787.56
635.937	10806.76
636.291	10753.88
636.645	10687.22
636.999	10695.81
637.352	10721.12
637.706	10676.6
638.06	10710.72
638.413	10753.66
638.767	10651.74
639.121	10664.17
639.474	10624.85
639.828	10658.29
640.181	10608.13
640.534	10684.06
640.888	10526.32
641.241	10559.54
641.594	10605.87
641.947	10671.63
642.301	10647.9
642.654	10612.64
643.007	10581.23
643.36	10621.23
643.713	10547.34
644.066	10650.16
644.419	10548.24
644.771	10440.9
645.124	10455.81
645.477	10406.1
645.83	10308.7
646.182	10314.57
646.535	10290.17
646.888	10316.38
647.24	10174.46
647.593	10245.2
647.945	10217.4
648.298	10134.69
648.65	10162.26
649.002	10119.1
649.355	10161.36
649.707	10203.62
650.059	10213.11
650.411	10369.26
650.763	10365.19
651.115	10527
651.467	10455.81
651.819	10374.01
652.171	10414.68
652.523	10422.37
652.875	10411.29
653.227	10336.04
653.578	10435.47
653.93	10457.17
654.282	10328.36
654.633	10311.86
654.985	10369.26
655.337	10388.47
655.688	10381.01
656.039	10416.72
656.391	10323.39
656.742	10431.41
657.094	10343.5
657.445	10416.49
657.796	10355.7
658.147	10342.6
658.498	10364.06
658.849	10407.9
659.2	10472.99
659.551	10378.53
659.902	10502.82
660.253	10448.36
660.604	10366.78
660.955	10337.62
661.306	10390.5
661.656	10421.01
662.007	10421.24
662.358	10343.27
662.708	10468.47
663.059	10441.58
663.409	10446.1
663.76	10430.28
664.11	10474.12
664.461	10432.76
664.811	10415.36
665.161	10444.29
665.511	10428.24
665.862	10418.07
666.212	10494.46
666.562	10402.03
666.912	10436.83
667.262	10449.26
667.612	10412.2
667.962	10414.23
668.312	10444.74
668.662	10427.79
669.011	10429.37
669.361	10408.13
669.711	10407.68
670.06	10386.21
670.41	10422.14
670.76	10391.86
671.109	10322.03
671.459	10427.34
671.808	10336.72
672.157	10396.15
672.507	10367.45
672.856	10396.38
673.205	10343.5
673.554	10388.24
673.904	10355.25
674.253	10324.52
674.602	10317.06
674.951	10182.15
675.3	10116.84
675.649	10277.06
675.998	10266.21
676.346	10251.98
676.695	10291.3
677.044	10186.22
677.393	10223.05
677.741	10208.14
678.09	10158.65
678.438	10170.4
678.787	10195.25
679.135	10222.15
679.484	10073.22
679.832	10143.28
680.181	10176.95
680.529	10117.52
680.877	10094.69
681.225	10085.43
681.573	10073.22
681.922	10065.54
682.27	9990.29
682.618	10053.34
682.966	9987.58
683.314	10005.65
683.661	9951.19
684.009	9929.95
684.357	9855.15
684.705	9944.41
685.053	9886.11
685.4	9912.78
685.748	9847.24
686.095	9834.81
686.443	9748.94
686.79	9707.81
687.138	9826.45
687.485	9746.9
687.832	9661.03
688.18	9694.48
688.527	9679.79
688.874	9623.74
689.221	9655.61
689.568	9633.24
689.915	9584.88
690.262	9529.96
690.609	9498.1
690.956	9471.66
691.303	9460.36
691.65	9423.52
691.997	9428.72
692.344	9315.73
692.69	9325.22
693.037	9338.55
693.383	9247.48
693.73	9226.92
694.077	9152.34
694.423	9210.2
694.769	9155.96
695.116	9160.03
695.462	9094.04
695.808	9112.8
696.155	9039.35
696.501	8984.21
696.847	9062.63
697.193	8984.89
697.539	8840.26
697.885	8878.23
698.231	8799.59
698.577	8915.97
698.923	8844.33
699.269	8792.35
699.614	8750.32
699.96	8681.62
700.306	8703.54
700.651	8632.13
700.997	8571.79
701.342	8596.43
701.688	8560.95
702.033	8549.87
702.379	8523.89
702.724	8495.86
703.069	8498.12
703.415	8369.54
703.76	8373.38
704.105	8427.62
704.45	8343.1
704.795	8273.27
705.14	8280.95
705.485	8282.54
705.83	8225.14
706.175	8178.36
706.52	8201.63
706.865	8142.88
707.209	8145.82
707.554	8098.59
707.899	8112.37
708.243	8099.72
708.588	8030.34
708.932	7986.05
709.277	8004.35
709.621	7937.46
709.966	7899.5
710.31	7886.16
710.654	7858.82
710.998	7928.42
711.342	7885.71
711.687	7814.3
712.031	7771.59
712.375	7788.76
712.719	7722.33
713.063	7726.62
713.407	7756.22
713.75	7728.43
714.094	7703.12
714.438	7634.42
714.782	7718.48
715.125	7694.08
715.469	7714.19
715.812	7583.8
716.156	7603.23
716.499	7579.05
716.843	7623.57
717.186	7597.58
717.53	7570.01
717.873	7589.45
718.216	7558.04
718.559	7579.73
718.902	7520.52
719.246	7534.76
719.589	7486.17
719.932	7450.24
720.275	7483.24
720.617	7466.51
720.96	7419.28
721.303	7480.98
721.646	7403.46
721.989	7381.09
722.331	7444.14
722.674	7450.47
723.016	7404.59
723.359	7483.91
723.701	7434.2
724.044	7382.67
724.386	7337.48
724.729	7430.36
725.071	7322.56
725.413	7420.86
725.755	7316.01
726.097	7342.22
726.439	7280.3
726.782	7307.87
727.124	7335.67
727.465	7254.99
727.807	7246.18
728.149	7318.27
728.491	7296.57
728.833	7306.29
729.175	7299.29
729.516	7277.14
729.858	7225.16
730.199	7271.04
730.541	7249.8
730.882	7278.27
731.224	7210.93
731.565	7222.45
731.906	7269.68
732.248	7277.59
732.589	7262
732.93	7223.81
733.271	7211.38
733.612	7280.75
733.953	7266.97
734.294	7238.04
734.635	7247.76
734.976	7220.42
735.317	7246.86
735.658	7230.13
735.999	7308.55
736.339	7211.38
736.68	7287.31
737.021	7226.75
737.361	7237.82
737.702	7303.81
738.042	7264.48
738.383	7249.12
738.723	7280.53
739.063	7325.95
739.404	7327.08
739.744	7395.1
740.084	7306.97
740.424	7337.7
740.764	7328.66
741.104	7376.12
741.444	7369.79
741.784	7360.07
742.124	7403.01
742.464	7370.92
742.804	7403.24
743.143	7424.25
743.483	7476.23
743.823	7424.48
744.162	7445.72
744.502	7483.91
744.841	7522.56
745.181	7636.45
745.52	7558.26
745.86	7672.83
746.199	7650.46
746.538	7728.88
746.877	7740.4
747.216	7843.45
747.556	7813.4
747.895	7817.69
748.234	7902.43
748.573	7962.54
748.911	7984.24
749.25	7998.02
749.589	8063.11
749.928	8209.09
750.267	8252.03
750.605	8310.56
750.944	8377.9
751.283	8413.15
751.621	8550.33
751.96	8570.44
752.298	8667.16
752.636	8762.98
752.975	8805.69
753.313	8872.58
753.651	9058.56
753.989	9182.17
754.327	9248.61
754.666	9249.74
755.004	9390.3
755.342	9699.45
755.679	9723.63
756.017	9839.11
756.355	10017.86
756.693	10016.95
757.031	10202.26
757.368	10366.78
757.706	10489.03
758.044	10632.08
758.381	10830.49
758.719	10946.2
759.056	11168.11
759.394	11230.71
759.731	11341.89
760.068	11516.58
760.405	11667.08
760.743	11827.53
761.08	12051.48
761.417	12140.51
761.754	12391.35
762.091	12488.53
762.428	12722.87
762.765	12834.51
763.102	12994.95
763.438	13169.19
763.775	13355.62
764.112	13584.54
764.449	13794.93
764.785	13814.14
765.122	13986.57
765.458	14163.96
765.795	14325.77
766.131	14456.61
766.467	14624.52
766.804	14828.58
767.14	14944.28
767.476	15120.77
767.812	15226.76
768.148	15390.37
768.485	15521.89
768.821	15598.28
769.157	15826.97
769.492	15814.09
769.828	16084.59
770.164	16044.37
770.5	16210.69
770.836	16416.33
771.171	16402.1
771.507	16633.28
771.842	16651.81
772.178	16790.11
772.513	16871.46
772.849	17009.76
773.184	17095.86
773.519	17115.75
773.855	17287.95
774.19	17320.72
774.525	17392.35
774.86	17549.19
775.195	17540.15
775.53	17645.45
775.865	17646.58
776.2	17658.11
776.535	17629.18
776.87	17728.39
777.205	17753.47
777.539	17759.35
777.874	17891.1
778.209	17880.93
778.543	17923.64
778.878	17940.14
779.212	18081.6
779.547	18022.62
779.881	18157.98
780.215	18053.13
780.55	18181.26
780.884	18160.47
781.218	18139.68
781.552	18253.12
781.886	18185.55
782.22	18152.11
782.554	18284.76
782.888	18122.28
783.222	18114.37
783.556	18123.18
783.889	18076.18
784.223	18023.75
784.557	17956.41
784.89	18199.56
785.224	18084.31
785.557	18032.79
785.891	18069.17
786.224	18058.32
786.558	18053.58
786.891	17931.1
787.224	17986.69
787.557	17981.72
787.891	17993.47
788.224	17951.66
788.557	17937.65
788.89	17996.18
789.223	18100.36
789.556	17894.71
789.888	17974.03
790.221	17908.05
790.554	17768.16
790.887	17799.8
791.219	17820.82
791.552	17736.98
791.884	17632.8
792.217	17796.41
792.549	17597.09
792.882	17587.15
793.214	17541.73
793.546	17637.09
793.879	17477.77
794.211	17504.67
794.543	17514.61
794.875	17525.23
795.207	17493.14
795.539	17440.49
795.871	17458.11
796.203	17311.9
796.535	17282.07
796.867	17216.09
797.198	17187.16
797.53	17158.91
797.862	17100.84
798.193	17176.54
798.525	16972.93
798.856	17028.97
799.188	16970.44
799.519	16939.03
799.85	16783.78
800.182	16859.49
800.513	16944.23
800.844	16679.38
801.175	16820.17
801.506	16875.76
801.837	16704.01
802.168	16585.14
802.499	16596.67
802.83	16471.7
803.161	16539.27
803.491	16508.76
803.822	16534.75
804.153	16452.04
804.483	16364.58
804.814	16231.03
805.145	16203.68
805.475	16219.73
805.805	16169.11
806.136	16248.88
806.466	16323
806.796	16234.42
807.126	16080.98
807.457	16028.55
807.787	15998.27
808.117	15893.64
808.447	15932.5
808.777	15970.7
809.107	15924.6
809.436	15823.58
809.766	15843.24
810.096	15740.87
810.426	15712.62
810.755	15775.9
811.085	15685.05
811.414	15637.37
811.744	15568.67
812.073	15589.01
812.403	15638.95
812.732	15533.65
813.061	15509.92
813.39	15427.66
813.719	15387.21
814.049	15464.04
814.378	15372.75
814.707	15352.41
815.036	15383.14
815.365	15212.75
815.693	15150.83
816.022	15237.38
816.351	15153.54
816.68	15134.79
817.008	15226.99
817.337	14986.77
817.665	15019.76
817.994	15034.45
818.322	15074.9
818.651	14940.21
818.979	14882.36
819.307	15002.13
819.636	14874.68
819.964	14891.85
820.292	14916.49
820.62	14883.27
820.948	14821.57
821.276	14869.26
821.604	14838.07
821.932	14821.57
822.259	14875.36
822.587	14837.84
822.915	14736.15
823.243	14870.61
823.57	14795.81
823.898	14870.16
824.225	14820.67
824.553	14876.26
824.88	14865.64
825.207	14799.88
825.535	14897.05
825.862	14897.05
826.189	14787.9
826.516	14798.52
826.843	14833.32
827.17	14897.96
827.497	14921.23
827.824	14914.23
828.151	14894.11
828.478	14871.97
828.805	14882.59
829.131	14831.52
829.458	14890.5
829.785	14744.51
830.111	14851.86
830.438	14929.82
830.764	14737.96
831.09	14784.74
831.417	14795.13
831.743	14827
832.069	14851.86
832.395	14803.49
832.722	14776.83
833.048	14820.9
833.374	14773.89
833.7	14699.09
834.026	14715.36
834.351	14808.24
834.677	14720.11
835.003	14755.59
835.329	14737.73
835.654	14737.06
835.98	14642.6
836.306	14704.74
836.631	14636.72
836.956	14638.75
837.282	14585.65
837.607	14584.74
837.932	14560.56
838.258	14614.8
838.583	14553.56
838.908	14474.46
839.233	14563.73
839.558	14530.28
839.883	14440.11
840.208	14319.67
840.533	14374.35
840.858	14430.62
841.182	14357.18
841.507	14358.31
841.832	14312.89
842.156	14276.05
842.481	14272.44
842.805	14236.5
843.13	14205.54
843.454	14132.33
843.778	14130.52
844.103	14024.53
844.427	13980.69
844.751	14066.79
845.075	14015.27
845.399	13949.05
845.723	13862.5
846.047	13872.22
846.371	13766.23
846.695	13794.93
847.019	13708.83
847.343	13677.65
847.666	13595.84
847.99	13452.57
848.313	13529.86
848.637	13395.85
848.96	13407.6
849.284	13292.8
849.607	13254.61
849.931	13273.14
850.254	13157.89
850.577	13029.08
850.9	12979.59
851.223	12984.11
851.546	12905.01
851.869	12833.38
852.192	12929.87
852.515	12746.6
852.838	12742.98
853.161	12744.57
853.483	12673.16
853.806	12659.14
854.129	12579.15
854.451	12554.97
854.774	12502.76
855.096	12431.13
855.419	12397.68
855.741	12414.63
856.063	12276.78
856.385	12331.47
856.708	12256.44
857.03	12210.34
857.352	12206.73
857.674	12193.39
857.996	12129.44
858.318	11969.9
858.64	12089.67
858.961	11986.17
859.283	11927.64
859.605	11928.77
859.926	11896.45
860.248	11915.89
860.57	11892.61
860.891	11839.28
861.212	11758.15
861.534	11779.62
861.855	11690.81
862.176	11706.85
862.498	11668.66
862.819	11666.85
863.14	11679.74
863.461	11592.51
863.782	11523.58
864.103	11618.95
864.424	11546.18
864.745	11517.03
865.065	11479.74
865.386	11439.06
865.707	11445.62
866.027	11486.52
866.348	11425.28
866.668	11433.64
866.989	11354.77
867.309	11360.42
867.63	11403.81
867.95	11364.72
868.27	11357.71
868.59	11296.24
868.91	11319.52
869.23	11260.31
869.55	11222.8
869.87	11239.29
870.19	11245.62
870.51	11107.09
870.83	11224.83
871.15	11145.51
871.469	11106.19
871.789	11098.06
872.109	11099.64
872.428	11081.11
872.748	11090.6
873.067	11158.39
873.386	11076.81
873.706	10978.74
874.025	11022.13
874.344	11005.4
874.663	10946.87
874.982	10886.76
875.301	10952.3
875.62	10895.8
875.939	10941
876.258	10921.34
876.577	10864.39
876.896	10813.77
877.214	10752.3
877.533	10741.68
877.852	10812.19
878.17	10796.14
878.489	10727.22
878.807	10749.59
879.125	10704.85
879.444	10676.82
879.762	10668.24
880.08	10645.86
880.398	10603.61
880.716	10574.68
881.034	10530.39
881.352	10555.92
881.67	10558.41
881.988	10557.5
882.306	10468.92
882.624	10520.22
882.941	10445.19
883.259	10372.65
883.577	10371.3
883.894	10357.74
884.212	10351.63
884.529	10348.24
884.846	10282.71
885.164	10307.34
885.481	10251.75
885.798	10217.63
886.115	10126.56
886.432	10191.41
886.75	10177.63
887.067	10171.53
887.383	10134.69
887.7	10083.17
888.017	10051.76
888.334	10058.08
888.651	10071.42
888.967	10019.44
889.284	9958.2
889.6	9988.03
889.917	9827.13
890.233	9885.66
890.55	9841.59
890.866	9846.11
891.182	9729.5
891.498	9811.54
891.815	9717.53
892.131	9684.99
892.447	9673.46
892.763	9596.4
893.079	9555.72
893.395	9579.45
893.71	9472.79
894.026	9619.22
894.342	9541.49
894.657	9487.93
894.973	9438.66
895.289	9426.24
895.604	9449.51
895.92	9391.43
896.235	9265.11
896.55	9274.83
896.865	9320.93
897.181	9250.42
897.496	9251.55
897.811	9194.6
898.126	9125.68
898.441	9146.47
898.756	9064.21
899.071	9023.53
899.386	9031.22
899.7	9008.39
900.015	8933.37
900.33	8881.84
900.644	8853.14
900.959	8876.65
901.273	8855.18
901.588	8797.1
901.902	8675.97
902.216	8653.6
902.531	8666.26
902.845	8640.27
903.159	8558.46
903.473	8556.65
903.787	8504.45
904.101	8486.15
904.415	8489.76
904.729	8420.16
905.042	8387.84
905.356	8384.45
905.67	8327.06
905.984	8367.51
906.297	8309.65
906.611	8247.51
906.924	8261.07
907.237	8214.97
907.551	8154.86
907.864	8099.26
908.177	8116.21
908.491	8027.63
908.804	8031.24
909.117	7993.73
909.43	7949.66
909.743	7843.68
910.056	7980.4
910.368	7834.41
910.681	7897.69
910.994	7784.47
911.307	7709.9
911.619	7637.36
911.932	7700.18
912.244	7602.78
912.557	7588.77
912.869	7585.15
913.181	7563.23
913.494	7552.61
913.806	7523.46
914.118	7491.37
914.43	7394.42
914.742	7442.33
915.054	7419.06
915.366	7383.35
915.678	7346.74
915.99	7324.37
916.302	7234.65
916.613	7227.65
916.925	7198.05
917.236	7219.51
917.548	7143.81
917.859	7128.44
918.171	7015
918.482	7069.46
918.794	7046.18
919.105	6994.89
919.416	6953.53
919.727	6962.57
920.038	6940.42
920.349	6822.24
920.66	6840.09
920.971	6895.91
921.282	6802.8
921.593	6723.93
921.903	6750.83
922.214	6743.37
922.525	6654.33
922.835	6690.04
923.146	6639.19
923.456	6620.43
923.767	6634.9
924.077	6608.68
924.387	6533.66
924.697	6516.71
925.008	6463.6
925.318	6445.07
925.628	6444.84
925.938	6366.43
926.248	6318.07
926.558	6332.31
926.867	6325.3
927.177	6326.2
927.487	6241.46
927.796	6225.42
928.106	6183.61
928.416	6178.64
928.725	6224.74
929.034	6112.42
929.344	6104.97
929.653	6084.4
929.962	6024.74
930.271	6047.12
930.581	6029.49
930.89	5972.31
931.199	5940.9
931.508	5998.08
931.817	5959.89
932.125	5927.34
932.434	5870.4
932.743	5851.87
933.051	5826.1
933.36	5811.64
933.669	5774.58
933.977	5734.35
934.286	5737.07
934.594	5692.77
934.902	5644.19
935.21	5637.63
935.519	5665.88
935.827	5651.42
936.135	5581.59
936.443	5542.04
936.751	5555.83
937.059	5557.18
937.367	5503.17
937.674	5503.85
937.982	5428.37
938.29	5455.27
938.597	5454.36
938.905	5306.8
939.213	5310.19
939.52	5291.88
939.827	5324.87
940.135	5276.06
940.442	5252.11
940.749	5256.18
941.056	5229.51
941.363	5163.97
941.67	5208.49
941.977	5138.66
942.284	5162.39
942.591	5092.11
942.898	5085.78
943.205	5033.36
943.511	5029.51
943.818	5103.86
944.125	5000.81
944.431	4973.7
944.738	4982.74
945.044	4932.12
945.35	4904.77
945.657	4912.23
945.963	4821.38
946.269	4833.36
946.575	4823.64
946.881	4827.03
947.187	4804.21
947.493	4753.59
947.799	4754.04
948.105	4721.05
948.41	4695.06
948.716	4687.6
949.022	4701.84
949.327	4648.96
949.633	4620.71
949.938	4634.95
950.244	4576.65
950.549	4555.18
950.854	4509.08
951.16	4546.36
951.465	4523.54
951.77	4484.67
952.075	4480.38
952.38	4450.32
952.685	4415.07
952.99	4447.16
953.294	4409.19
953.599	4389.98
953.904	4372.36
954.209	4357.67
954.513	4358.35
954.818	4299.36
955.122	4253.94
955.426	4258.24
955.731	4258.01
956.035	4255.98
956.339	4229.31
956.643	4227.05
956.948	4170.55
957.252	4166.94
957.556	4168.97
957.86	4148.41
958.163	4141.63
958.467	4113.61
958.771	4046.72
959.075	4114.51
959.378	4039.94
959.682	4041.97
959.985	4046.26
960.289	4023.44
960.592	3980.95
960.896	3992.93
961.199	3950.9
961.502	3902.31
961.805	3908.64
962.108	3844.91
962.411	3859.38
962.714	3811.92
963.017	3817.12
963.32	3815.08
963.623	3825.7
963.926	3767.85
964.228	3768.98
964.531	3734.41
964.833	3792.26
965.136	3739.61
965.438	3697.35
965.741	3709.55
966.043	3670.68
966.345	3657.35
966.648	3611.92
966.95	3625.26
967.252	3597.46
967.554	3576.22
967.856	3582.77
968.158	3533.28
968.46	3527.63
968.761	3540.29
969.063	3508.42
969.365	3525.15
969.666	3490.12
969.968	3463.23
970.269	3451.7
970.571	3420.29
970.872	3450.57
971.174	3412.16
971.475	3391.82
971.776	3415.32
972.077	3362.44
972.378	3347.07
972.679	3328.77
972.98	3309.33
973.281	3303.23
973.582	3312.95
973.883	3301.2
974.183	3232.27
974.484	3245.83
974.785	3260.3
975.085	3244.25
975.386	3230.47
975.686	3226.85
975.986	3166.06
976.287	3187.08
976.587	3117.93
976.887	3141.2
977.187	3089.23
977.487	3130.58
977.787	3119.51
978.087	3068.66
978.387	3061.88
978.687	3041.54
978.987	3051.94
979.286	3028.66
979.586	3004.26
979.885	2983.69
980.185	3013.07
980.484	2968.78
980.784	2957.03
981.083	2941.89
981.382	2965.84
981.682	2950.02
981.981	2908.67
982.28	2872.51
982.579	2904.6
982.878	2867.54
983.177	2867.54
983.475	2843.13
983.774	2854.66
984.073	2809.69
984.372	2794.32
984.67	2803.58
984.969	2803.36
985.267	2762
985.566	2764.49
985.864	2747.99
986.162	2748.44
986.461	2707.99
986.759	2730.37
987.057	2680.65
987.355	2685.4
987.653	2650.37
987.951	2643.14
988.249	2665.73
988.547	2649.92
988.844	2637.71
989.142	2627.32
989.44	2614.44
989.737	2583.7
990.035	2590.93
990.332	2560.88
990.63	2553.87
990.927	2544.83
991.224	2539.86
991.521	2501.9
991.819	2480.43
992.116	2496.7
992.413	2470.03
992.71	2417.83
993.006	2458.96
993.303	2429.13
993.6	2441.79
993.897	2397.95
994.193	2408.34
994.49	2406.98
994.787	2374.22
995.083	2383.93
995.379	2341.45
995.676	2367.21
995.972	2326.76
996.268	2295.58
996.565	2291.51
996.861	2316.82
997.157	2288.57
997.453	2298.96
997.749	2265.75
998.044	2256.03
998.34	2238.63
998.636	2221
998.932	2211.51
999.227	2194.79
999.523	2193.43
999.818	2208.8
1000.114	2180.55
1000.409	2181
1000.704	2158.4
1001	2120.89
1001.295	2121.12
1001.59	2162.92
1001.885	2126.31
1002.18	2126.09
1002.475	2087.67
1002.77	2076.37
1003.065	2059.65
1003.359	2035.92
1003.654	2060.55
1003.949	2035.24
1004.243	2036.37
1004.538	2008.35
1004.832	1981.01
1005.127	1974
1005.421	1984.62
1005.715	1981.23
1006.009	1959.54
1006.304	1947.79
1006.598	1937.17
1006.892	1892.87
1007.186	1917.73
1007.48	1903.5
1007.773	1888.35
1008.067	1859.2
1008.361	1890.84
1008.655	1837.96
1008.948	1849.49
1009.242	1815.59
1009.535	1823.95
1009.829	1804.29
1010.122	1798.19
1010.415	1816.27
1010.708	1770.62
1011.001	1750.5
1011.295	1761.58
1011.588	1719.55
1011.881	1741.47
1012.173	1712.54
1012.466	1730.39
1012.759	1700.79
1013.052	1716.61
1013.344	1699.43
1013.637	1684.97
1013.93	1679.09
1014.222	1663.95
1014.514	1657.4
1014.807	1603.39
1015.099	1612.2
1015.391	1639.77
1015.683	1628.93
1015.976	1604.75
1016.268	1590.74
1016.56	1586.89
1016.851	1564.07
1017.143	1551.64
1017.435	1552.54
1017.727	1536.95
1018.018	1536.5
1018.31	1508.93
1018.602	1521.81
1018.893	1509.83
1019.185	1475.03
1019.476	1500.34
1019.767	1482.04
1020.058	1488.14
1020.35	1437.52
1020.641	1437.74
1020.932	1447.46
1021.223	1437.29
1021.514	1413.34
1021.804	1439.78
1022.095	1387.58
1022.386	1381.25
1022.677	1394.36
1022.967	1361.59
1023.258	1361.59
1023.548	1375.37
1023.839	1350.29
1024.129	1334.92
1024.419	1320.69
1024.709	1316.62
1025	1285.88
1025.29	1276.17
1025.58	1280.69
1025.87	1301.25
1026.16	1266
1026.449	1273
1026.739	1260.35
1027.029	1247.24
1027.319	1247.24
1027.608	1244.3
1027.898	1221.93
1028.187	1222.38
1028.477	1195.72
1028.766	1216.96
1029.055	1185.55
1029.344	1182.38
1029.634	1178.77
1029.923	1194.81
1030.212	1175.83
1030.501	1169.96
1030.79	1168.15
1031.078	1151.65
1031.367	1150.29
1031.656	1124.08
1031.945	1141.71
1032.233	1112.1
1032.522	1095.15
1032.81	1075.04
1033.099	1101.48
1033.387	1089.73
1033.675	1096.74
1033.963	1096.96
1034.251	1061.48
1034.54	1059.22
1034.828	1061.71
1035.116	1056.06
1035.403	1030.52
1035.691	1001.6
1035.979	1044.08
1036.267	1039.11
1036.554	997.08
1036.842	1014.25
1037.129	986.01
1037.417	975.38
1037.704	987.14
1037.992	999.79
1038.279	988.26
1038.566	977.64
1038.853	977.64
1039.14	977.64
