Data from hue_340_FLMS001491_31.txt Node
Date: Mon Feb 06 15:43:01 GMT 2017
User: dcchb
Spectrometer: FLMS00149
Trigger mode: 0
Integration Time (sec): 2.000000E-2
Scans to average: 10
Electric dark correction enabled: true
Nonlinearity correction enabled: false
Boxcar width: 0
XAxis mode: Wavelengths
Number of Pixels in Spectrum: 2048
>>>>>Begin Spectral Data<<<<<
341.393	-20.9
341.776	-20.9
342.16	-20.9
342.543	-60
342.927	-61.58
343.31	-55.48
343.693	-73.78
344.077	-78.3
344.46	-77.4
344.843	-44.18
345.226	-24.52
345.61	-28.13
345.993	-41.69
346.376	-8.25
346.759	6.89
347.142	35.37
347.525	49.6
347.908	63.39
348.291	79.21
348.674	97.06
349.057	100.22
349.44	136.38
349.823	173.22
350.206	170.28
350.588	186.77
350.971	200.79
351.354	232.42
351.737	219.54
352.119	265.42
352.502	246.66
352.884	268.13
353.267	288.47
353.65	292.76
354.032	322.59
354.414	294.79
354.797	295.02
355.179	309.71
355.562	309.26
355.944	323.04
356.326	322.14
356.709	339.31
357.091	323.04
357.473	332.31
357.855	340.89
358.238	336.83
358.62	342.93
359.002	321.46
359.384	351.97
359.766	343.15
360.148	336.83
360.53	350.16
360.912	317.84
361.294	339.54
361.676	337.51
362.057	326.66
362.439	342.7
362.821	335.25
363.203	332.53
363.584	335.47
363.966	315.36
364.348	315.81
364.729	361.23
365.111	313.78
365.493	325.3
365.874	320.56
366.256	292.99
366.637	306.55
367.019	321.46
367.4	320.33
367.781	314.23
368.163	315.13
368.544	300.44
368.925	305.42
369.306	323.04
369.688	294.12
370.069	295.92
370.45	290.73
370.831	312.65
371.212	309.94
371.593	297.28
371.974	302.7
372.355	311.29
372.736	325.3
373.117	317.17
373.498	320.56
373.879	311.74
374.26	293.21
374.641	307.22
375.021	330.95
375.402	301.8
375.783	302.48
376.163	321.69
376.544	304.51
376.925	314
377.305	328.24
377.686	325.08
378.066	305.87
378.447	321.23
378.827	331.86
379.208	301.35
379.588	333.44
379.968	317.39
380.349	330.73
380.729	347
381.109	314.91
381.489	332.08
381.87	349.48
382.25	321.23
382.63	336.15
383.01	339.54
383.39	329.14
383.77	328.92
384.15	311.97
384.53	316.94
384.91	338.41
385.29	331.86
385.67	333.21
386.049	354.91
386.429	342.48
386.809	347.22
387.189	361.46
387.568	338.41
387.948	343.38
388.328	355.58
388.707	330.27
389.087	349.71
389.466	348.58
389.846	357.84
390.225	354
390.605	347.9
390.984	391.29
391.363	356.04
391.743	356.71
392.122	365.08
392.501	368.69
392.881	362.82
393.26	372.76
393.639	354.68
394.018	367.33
394.397	367.11
394.776	348.58
395.155	369.14
395.534	364.4
395.913	352.87
396.292	362.59
396.671	357.39
397.05	356.94
397.429	383.15
397.808	382.93
398.186	361.01
398.565	376.6
398.944	358.52
399.323	389.48
399.701	375.7
400.08	385.64
400.458	374.57
400.837	381.8
401.215	398.29
401.594	402.14
401.972	392.19
402.351	392.65
402.729	387.9
403.107	391.97
403.486	399.42
403.864	395.36
404.242	417.28
404.62	403.27
404.999	392.87
405.377	407.11
405.755	401.91
406.133	409.59
406.511	428.8
406.889	405.98
407.267	403.49
407.645	441.46
408.023	423.38
408.401	427.9
408.779	421.57
409.156	430.38
409.534	431.97
409.912	403.94
410.29	460.89
410.667	424.96
411.045	445.3
411.422	461.12
411.8	441.91
412.178	456.6
412.555	459.08
412.933	466.99
413.31	461.12
413.687	448.46
414.065	473.55
414.442	498.4
414.819	461.34
415.197	497.5
415.574	476.03
415.951	501.12
416.328	505.86
416.705	509.25
417.082	474
417.46	503.6
417.837	507.9
418.214	494.79
418.591	540.66
418.967	530.72
419.344	538.86
419.721	517.16
420.098	540.21
420.475	530.49
420.852	549.25
421.228	540.66
421.605	546.31
421.982	542.47
422.358	578.18
422.735	571.4
423.111	588.57
423.488	589.7
423.864	589.02
424.241	589.25
424.617	589.02
424.994	613.88
425.37	605.97
425.746	580.66
426.123	615.92
426.499	598.29
426.875	625.86
427.251	624.28
427.627	626.99
428.003	624.96
428.379	616.82
428.756	645.52
429.132	641.68
429.507	641.68
429.883	648.46
430.259	668.34
430.635	687.78
431.011	660.43
431.387	663.82
431.763	710.6
432.138	706.31
432.514	695.24
432.89	701.11
433.265	757.38
433.641	732.98
434.016	716.03
434.392	728.68
434.767	737.49
435.143	729.36
435.518	779.3
435.894	720.09
436.269	763.71
436.644	752.64
437.02	751.96
437.395	760.54
437.77	795.8
438.145	787.89
438.52	791.73
438.895	801.67
439.271	789.7
439.646	826.98
440.021	830.83
440.395	833.99
440.77	815.91
441.145	840.09
441.52	833.76
441.895	847.55
442.27	859.98
442.645	877.38
443.019	851.39
443.394	860.66
443.769	882.58
444.143	880.54
444.518	874.89
444.892	882.12
445.267	867.43
445.641	866.76
446.016	899.98
446.39	897.72
446.764	889.36
447.139	904.72
447.513	898.39
447.887	886.64
448.262	910.37
448.636	911.05
449.01	946.08
449.384	934.33
449.758	932.52
450.132	948.11
450.506	942.69
450.88	937.49
451.254	941.56
451.628	951.05
452.002	963.7
452.376	972.29
452.75	969.58
453.123	948.11
453.497	969.81
453.871	1008.67
454.244	1009.35
454.618	994.21
454.992	999.18
455.365	1013.87
455.739	1027.88
456.112	1036.24
456.486	1036.92
456.859	1056.13
457.232	1048.22
457.606	1058.39
457.979	1059.07
458.352	1066.75
458.725	1099.29
459.099	1080.99
459.472	1100.65
459.845	1097.49
460.218	1115.79
460.591	1160.08
460.964	1114.89
461.337	1163.47
461.71	1180.19
462.083	1175.22
462.456	1185.62
462.829	1159.63
463.201	1209.35
463.574	1198.5
463.947	1208.22
464.32	1239.63
464.692	1243.24
465.065	1225.84
465.438	1257.93
465.81	1295.9
466.183	1277.37
466.555	1308.78
466.928	1311.72
467.3	1294.09
467.672	1306.97
468.045	1346.74
468.417	1352.62
468.789	1364.14
469.161	1383.13
469.534	1400.3
469.906	1436.46
470.278	1414.31
470.65	1445.72
471.022	1470.36
471.394	1470.81
471.766	1506.06
472.138	1504.71
472.51	1516.68
472.882	1565.95
473.253	1548.32
473.625	1612.73
473.997	1606.85
474.369	1598.94
474.74	1651.14
475.112	1654.98
475.484	1690.69
475.855	1713.74
476.227	1710.35
476.598	1754.64
476.97	1782.66
477.341	1795.32
477.713	1817.01
478.084	1857.47
478.455	1836.67
478.827	1876.22
479.198	1931.14
479.569	1928.42
479.94	2008.2
480.311	1999.38
480.682	2036.22
481.053	2071.47
481.424	2092.26
481.795	2120.74
482.166	2116.22
482.537	2191.92
482.908	2189.21
483.279	2225.59
483.65	2246.16
484.021	2306.04
484.391	2328.64
484.762	2353.5
485.133	2351.24
485.503	2389.88
485.874	2431.46
486.244	2426.26
486.615	2472.82
486.985	2517.79
487.356	2545.36
487.726	2590.55
488.097	2643.43
488.467	2644.34
488.837	2715.52
489.207	2731.11
489.578	2763.43
489.948	2806.14
490.318	2795.75
490.688	2833.94
491.058	2878.23
491.428	2858.57
491.798	2925.46
492.168	2983.54
492.538	3012.24
492.908	3045.91
493.278	3047.04
493.648	3044.55
494.017	3083.87
494.387	3119.8
494.757	3128.17
495.126	3197.54
495.496	3206.36
495.866	3196.41
496.235	3204.77
496.605	3248.16
496.974	3267.82
497.344	3341.72
497.713	3323.87
498.082	3327.48
498.452	3372.91
498.821	3397.31
499.19	3384.43
499.559	3393.7
499.928	3461.26
500.298	3453.36
500.667	3491.32
501.036	3454.49
501.405	3523.18
501.774	3534.48
502.143	3569.51
502.512	3583.52
502.88	3566.8
503.249	3531.32
503.618	3580.13
503.987	3602.5
504.356	3615.16
504.724	3655.61
505.093	3688.38
505.462	3643.63
505.83	3688.6
506.199	3720.02
506.567	3740.81
506.936	3729.28
507.304	3768.83
507.672	3779.67
508.041	3820.58
508.409	3845.44
508.777	3835.27
509.145	3862.38
509.514	3808.37
509.882	3870.29
510.25	3879.33
510.618	3905.55
510.986	3888.37
511.354	3953.91
511.722	3954.81
512.09	3958.2
512.458	3960.69
512.826	3963.17
513.193	4012.44
513.561	4001.14
513.929	4038.65
514.297	4091.08
514.664	4110.97
515.032	4060.8
515.4	4120
515.767	4130.4
516.135	4141.25
516.502	4098.54
516.869	4184.18
517.237	4174.01
517.604	4166.56
517.972	4197.52
518.339	4209.72
518.706	4176.5
519.073	4199.55
519.44	4258.31
519.808	4265.09
520.175	4241.81
520.542	4337.85
520.909	4314.12
521.276	4320.23
521.643	4342.6
522.009	4314.35
522.376	4351.41
522.743	4418.3
523.11	4413.33
523.477	4446.32
523.843	4471.18
524.21	4497.85
524.577	4548.69
524.943	4542.59
525.31	4535.13
525.676	4584.85
526.043	4606.55
526.409	4654.23
526.776	4650.16
527.142	4667.11
527.508	4661.69
527.874	4716.15
528.241	4672.53
528.607	4733.77
528.973	4785.98
529.339	4731.74
529.705	4841.57
530.071	4818.97
530.437	4865.75
530.803	4860.1
531.169	4898.74
531.535	4879.31
531.901	4890.15
532.267	4910.94
532.632	4979.87
532.998	4966.08
533.364	5009.7
533.73	5063.26
534.095	5069.36
534.461	5059.87
534.826	5106.42
535.192	5151.84
535.557	5135.35
535.923	5205.17
536.288	5198.85
536.653	5172.86
537.019	5188.68
537.384	5245.85
537.749	5317.04
538.114	5267.55
538.479	5319.75
538.845	5286.08
539.21	5311.16
539.575	5373.31
539.94	5350.48
540.305	5385.96
540.67	5353.19
541.034	5428.9
541.399	5452.62
541.764	5412.4
542.129	5487.88
542.494	5521.55
542.858	5496.47
543.223	5596.35
543.587	5581.66
543.952	5574.66
544.316	5608.33
544.681	5629.12
545.045	5631.15
545.41	5657.59
545.774	5716.35
546.138	5743.69
546.503	5787.53
546.867	5789.79
547.231	5788.89
547.595	5824.59
547.959	5845.38
548.324	5858.49
548.688	5877.47
549.052	5899.62
549.416	5923.57
549.779	5891.26
550.143	5926.74
550.507	5967.87
550.871	5959.5
551.235	5982.1
551.599	5983.46
551.962	5995.21
552.326	6065.94
552.689	6050.8
553.053	6049.9
553.417	6020.52
553.78	6147.97
554.143	6151.14
554.507	6183.91
554.87	6150.01
555.234	6219.38
555.597	6230.23
555.96	6251.47
556.323	6231.14
556.686	6264.13
557.05	6284.47
557.413	6303
557.776	6356.56
558.139	6393.39
558.502	6391.13
558.865	6405.14
559.228	6465.03
559.59	6445.14
559.953	6412.37
560.316	6483.56
560.679	6539.83
561.041	6591.35
561.404	6529.66
561.767	6609.88
562.129	6564.23
562.492	6572.14
562.854	6646.27
563.217	6630.22
563.579	6651.24
563.941	6680.16
564.304	6760.84
564.666	6692.14
565.028	6716.55
565.39	6755.87
565.753	6750.22
566.115	6824.11
566.477	6874.28
566.839	6907.05
567.201	6896.65
567.563	6909.31
567.925	6942.98
568.287	6974.17
568.648	6964.45
569.01	7009.42
569.372	7064.56
569.734	7039.7
570.095	7120.6
570.457	7166.25
570.819	7174.16
571.18	7230.88
571.542	7215.97
571.903	7211
572.265	7251.67
572.626	7299.81
572.987	7388.85
573.349	7429.75
573.71	7385.23
574.071	7521.95
574.432	7535.96
574.794	7597.88
575.155	7625.68
575.516	7625.22
575.877	7704.77
576.238	7748.61
576.599	7869.51
576.96	7914.71
577.32	7963.52
577.681	8036.06
578.042	8161.93
578.403	8175.04
578.763	8225.89
579.124	8323.28
579.485	8401.02
579.845	8572.54
580.206	8602.6
580.566	8670.17
580.927	8769.6
581.287	8912.65
581.648	8957.39
582.008	9225.63
582.368	9234.9
582.728	9358.06
583.089	9585.4
583.449	9693.87
583.809	9815.9
584.169	10000.08
584.529	10097.93
584.889	10317.13
585.249	10462.66
585.609	10513.28
585.969	10802.77
586.329	10954.18
586.688	11145.81
587.048	11383.99
587.408	11526.36
587.768	11732.01
588.127	11950.31
588.487	12104.2
588.846	12432.1
589.206	12529.28
589.565	12824.18
589.925	13033.22
590.284	13292.19
590.643	13497.16
591.003	13723.37
591.362	14006.98
591.721	14310.02
592.08	14415.1
592.44	14841.08
592.799	14979.83
593.158	15287.39
593.517	15661.85
593.876	15854.61
594.235	16051.67
594.593	16337.76
594.952	16710.86
595.311	16783.63
595.67	17237.85
596.029	17561.91
596.387	17829.7
596.746	18159.41
597.104	18213.65
597.463	18565.27
597.822	18820.64
598.18	19004.13
598.538	19245.03
598.897	19659.48
599.255	19779.03
599.613	20361.61
599.972	20468.73
600.33	20851.54
600.688	20989.17
601.046	21375.6
601.404	21709.15
601.762	21898.75
602.12	22176.48
602.478	22390.94
602.836	22722.23
603.194	22736.24
603.552	23062.56
603.91	23192.95
604.268	23505.48
604.625	23716.33
604.983	24116.77
605.341	24169.87
605.698	24596.3
606.056	24814.15
606.413	25011.21
606.771	25378.65
607.128	25528.03
607.485	25643.73
607.843	25793.33
608.2	26119.43
608.557	26485.29
608.914	26607.32
609.272	26788.11
609.629	26987.43
609.986	27403.01
610.343	27329.56
610.7	27747.41
611.057	27903.56
611.414	28005.03
611.771	28247.05
612.127	28523.88
612.484	28594.62
612.841	28901.73
613.198	28851.11
613.554	29160.7
613.911	29439.56
614.267	29584.42
614.624	29636.17
614.98	29767.92
615.337	30154.8
615.693	30146.21
616.05	30257.85
616.406	30547.78
616.762	30624.62
617.118	30771.73
617.475	31020.99
617.831	31101.67
618.187	31220.31
618.543	31283.36
618.899	31633.18
619.255	31686.06
619.611	31805.83
619.967	31959.05
620.323	32105.48
620.678	32058.03
621.034	32073.17
621.39	32130.34
621.746	32375.53
622.101	32765.35
622.457	32512.93
622.812	32756.77
623.168	32743.88
623.523	32880.6
623.879	33123.54
624.234	32928.96
624.589	33086.25
624.945	33205.79
625.3	33323.76
625.655	33406.24
626.01	33360.14
626.365	33631.77
626.72	33512.23
627.075	33615.95
627.43	33715.61
627.785	33663.63
628.14	33782.5
628.495	33859.79
628.85	33821.6
629.205	33816.85
629.559	33944.98
629.914	34022.72
630.269	34031.31
630.623	34016.85
630.978	33839.68
631.332	34123.96
631.687	34156.5
632.041	34222.94
632.396	34254.35
632.75	34164.41
633.104	34217.07
633.459	34234.47
633.813	34139.33
634.167	34160.57
634.521	34165.99
634.875	34283.28
635.229	34288.93
635.583	34104.3
635.937	34282.6
636.291	34187.91
636.645	34182.72
636.999	34150.85
637.352	34397.85
637.706	34275.6
638.06	34366.22
638.413	34314.46
638.767	34136.39
639.121	34333.45
639.474	34130.97
639.828	34213.22
640.181	34250.51
640.534	34227.01
640.888	34114.24
641.241	34056.39
641.594	34198.54
641.947	34337.52
642.301	34209.83
642.654	34195.37
643.007	34314.92
643.36	34284.41
643.713	34029.95
644.066	34234.24
644.419	34065.66
644.771	33869.96
645.124	33606.46
645.477	33570.76
645.83	33176.19
646.182	33195.62
646.535	33046.7
646.888	33207.38
647.24	32966.7
647.593	33224.32
647.945	33192.91
648.298	32969.64
648.65	32949.98
649.002	32851.23
649.355	33023.65
649.707	32868.18
650.059	33119.24
650.411	33467.48
650.763	33515.39
651.115	33793.8
651.467	33784.31
651.819	33799
652.171	33774.37
652.523	33659.57
652.875	33674.48
653.227	33561.49
653.578	33732.79
653.93	33661.83
654.282	33568.5
654.633	33487.37
654.985	33486.24
655.337	33568.72
655.688	33476.52
656.039	33617.31
656.391	33439.46
656.742	33515.39
657.094	33354.26
657.445	33638.32
657.796	33406.01
658.147	33464.32
658.498	33377.99
658.849	33619.12
659.2	33523.98
659.551	33352.91
659.902	33645.1
660.253	33382.06
660.604	33416.18
660.955	33335.96
661.306	33445.79
661.656	33317.43
662.007	33446.01
662.358	33273.59
662.708	33422.96
663.059	33329.86
663.409	33056.64
663.76	33448.5
664.11	33400.59
664.461	33417.77
664.811	33407.37
665.161	33327.82
665.511	33274.94
665.862	33304.1
666.212	33386.13
666.562	33307.26
666.912	33323.76
667.262	33197.88
667.612	33303.19
667.962	33257.32
668.312	33217.09
668.662	33348.16
669.011	33289.86
669.361	33212.8
669.711	33261.16
670.06	33142.52
670.41	33102.07
670.76	33184.55
671.109	33189.97
671.459	33138.22
671.808	33113.82
672.157	33323.76
672.507	33014.61
672.856	32963.99
673.205	33088.73
673.554	33260.26
673.904	33034.5
674.253	33356.07
674.602	33220.48
674.951	32574.17
675.3	32502.99
675.649	33192.23
675.998	32924.45
676.346	32933.03
676.695	33028.17
677.044	32738.69
677.393	33059.58
677.741	32965.8
678.09	32811.23
678.438	32820.49
678.787	32892.58
679.135	32914.28
679.484	32747.73
679.832	32748.86
680.181	32495.53
680.529	32672.7
680.877	32563.55
681.225	32462.08
681.573	32721.74
681.922	32507.73
682.27	32367.85
682.618	32530.78
682.966	32308.87
683.314	32286.72
683.661	32308.64
684.009	32120.85
684.357	31958.37
684.705	32085.37
685.053	31980.97
685.4	32025.71
685.748	31909.33
686.095	31926.28
686.443	31637.47
686.79	31761.76
687.138	31682.67
687.485	31762.22
687.832	31595.21
688.18	31627.08
688.527	31518.15
688.874	31545.72
689.221	31394.54
689.568	31399.97
689.915	31341.21
690.262	31331.27
690.609	31193.64
690.956	31091.72
691.303	31096.24
691.65	30984.84
691.997	30940.32
692.344	30763.37
692.69	30756.82
693.037	30843.37
693.383	30517.28
693.73	30630.95
694.077	30415.36
694.423	30473.89
694.769	30293.78
695.116	30225.98
695.462	30179.66
695.808	30053.33
696.155	30154.57
696.501	29941.47
696.847	29902.6
697.193	29671.65
697.539	29877.29
697.885	29523.18
698.231	29491.31
698.577	29569.28
698.923	29419.68
699.269	29254.71
699.614	29213.58
699.96	29147.82
700.306	29265.78
700.651	28979.69
700.997	28910.54
701.342	28858.11
701.688	28891.78
702.033	28913.93
702.379	28732.69
702.724	28647.27
703.069	28791.45
703.415	28403.21
703.76	28590.77
704.105	28412.7
704.45	28387.16
704.795	28266.49
705.14	28046.16
705.485	28103.33
705.83	27936.78
706.175	28048.64
706.52	27914.63
706.865	27842.54
707.209	27775.88
707.554	27700.18
707.899	27816.78
708.243	27595.32
708.588	27677.8
708.932	27517.81
709.277	27353.52
709.621	27414.08
709.966	27157.37
710.31	27290.02
710.654	27072.17
710.998	27245.72
711.342	27092.51
711.687	27075.79
712.031	26945.85
712.375	26709.47
712.719	26895.45
713.063	26713.76
713.407	26843.7
713.75	26730.71
714.094	26751.5
714.438	26570.26
714.782	26621.33
715.125	26465.86
715.469	26567.32
715.812	26348.8
716.156	26187.45
716.499	26246.65
716.843	26290.72
717.186	26109.71
717.53	26297.73
717.873	26227.67
718.216	26144.06
718.559	25953.33
718.902	25874.01
719.246	25952.65
719.589	25866.1
719.932	25699.78
720.275	25789.94
720.617	25678.53
720.96	25575.71
721.303	25618.42
721.646	25512.21
721.989	25447.35
722.331	25546.79
722.674	25489.84
723.016	25480.12
723.359	25420.24
723.701	25396.28
724.044	25359.45
724.386	25149.28
724.729	25170.75
725.071	25211.88
725.413	25156.06
725.755	25099.34
726.097	25010.3
726.439	24864.54
726.782	24867.26
727.124	25003.98
727.465	24826.13
727.807	24933.47
728.149	24810.08
728.491	24742.97
728.833	24648.96
729.175	24720.59
729.516	24596.3
729.858	24601.05
730.199	24596.98
730.541	24585.68
730.882	24585
731.224	24603.08
731.565	24410.54
731.906	24382.75
732.248	24401.51
732.589	24295.97
732.93	24255.52
733.271	24161.96
733.612	24238.35
733.953	24288.97
734.294	24063.21
734.635	24095.52
734.976	24144.79
735.317	24037
735.658	24037.67
735.999	23992.93
736.339	23963.78
736.68	24026.83
737.021	23994.96
737.361	23878.58
737.702	24048.75
738.042	23791.13
738.383	23843.55
738.723	23919.94
739.063	23776.66
739.404	23846.72
739.744	23724.46
740.084	23557.91
740.424	23718.81
740.764	23612.37
741.104	23692.6
741.444	23499.83
741.784	23384.81
742.124	23485.82
742.464	23517.01
742.804	23338.03
743.143	23437.01
743.483	23325.38
743.823	23252.61
744.162	23285.15
744.502	23224.81
744.841	23083.35
745.181	23225.72
745.52	23116.12
745.86	23106.85
746.199	23045.61
746.538	23108.88
746.877	23135.1
747.216	23086.96
747.556	22864.82
747.895	23001.32
748.234	22813.3
748.573	22866.18
748.911	22897.59
749.25	22893.97
749.589	22744.37
749.928	22786.18
750.267	22734.88
750.605	22674.09
750.944	22660.53
751.283	22535.79
751.621	22656.01
751.96	22571.27
752.298	22413.53
752.636	22463.25
752.975	22363.82
753.313	22289.92
753.651	22353.88
753.989	22281.34
754.327	22171.73
754.666	22181.68
755.004	22149.81
755.342	22124.95
755.679	22112.98
756.017	21941.46
756.355	22007.22
756.693	21862.14
757.031	21935.81
757.368	21770.39
757.706	21658.53
758.044	21676.38
758.381	21697.85
758.719	21632.99
759.056	21684.29
759.394	21525.42
759.731	21351.42
760.068	21347.8
760.405	21276.16
760.743	21202.72
761.08	21330.85
761.417	21132.21
761.754	21105.55
762.091	21067.36
762.428	21042.05
762.765	20964.08
763.102	20943.52
763.438	20764.99
763.775	20666.69
764.112	20656.97
764.449	20821.71
764.785	20565.67
765.122	20461.5
765.458	20449.07
765.795	20437.54
766.131	20317.77
766.467	20349.86
766.804	20187.15
767.14	20150.32
767.476	20074.16
767.812	19960.27
768.148	20044.56
768.485	19946.26
768.821	19812.02
769.157	19796.88
769.492	19742.19
769.828	19690.44
770.164	19532.93
770.5	19535.19
770.836	19471.92
771.171	19354.86
771.507	19351.69
771.842	19126.84
772.178	19223.56
772.513	19124.58
772.849	19126.39
773.184	19040.97
773.519	18876.23
773.855	18875.55
774.19	18806.17
774.525	18834.42
774.86	18779.51
775.195	18721.65
775.53	18552.62
775.865	18485.28
776.2	18280.08
776.535	18286.41
776.87	18285.73
777.205	18169.35
777.539	18112.86
777.874	18051.39
778.209	17961.22
778.543	17971.84
778.878	17757.16
779.212	17837.84
779.547	17621.34
779.881	17713.09
780.215	17641.91
780.55	17664.96
780.884	17509.71
781.218	17475.59
781.552	17484.4
781.886	17331.18
782.22	17221.36
782.554	17209.83
782.888	16985.43
783.222	16914.24
783.556	16995.15
783.889	16924.64
784.223	16870.63
784.557	16770.52
784.89	16751.08
785.224	16687.58
785.557	16617.08
785.891	16500.24
786.224	16523.75
786.558	16540.47
786.891	16264.09
787.224	16266.8
787.557	16264.54
787.891	16213.47
788.224	16196.07
788.557	16176.64
788.89	16075.17
789.223	16094.38
789.556	15929.19
789.888	15908.85
790.221	15858
790.554	15697.78
790.887	15737.78
791.219	15660.72
791.552	15620.49
791.884	15613.04
792.217	15521.29
792.549	15506.37
792.882	15416.66
793.214	15331.91
793.546	15326.72
793.879	15256.66
794.211	15234.51
794.543	15198.36
794.875	15042.88
795.207	15150.68
795.539	15083.11
795.871	15125.59
796.203	14899.38
796.535	14841.08
796.867	14858.48
797.198	14793.62
797.53	14710.01
797.862	14631.37
798.193	14613.06
798.525	14609.45
798.856	14602.44
799.188	14400.41
799.519	14421.88
799.85	14387.53
800.182	14310.25
800.513	14318.15
800.844	14179.18
801.175	14177.14
801.506	14167.88
801.837	14118.39
802.168	14150.48
802.499	14010.14
802.83	14001.33
803.161	13896.02
803.491	13913.65
803.822	13897.15
804.153	13810.15
804.483	13635.23
804.814	13681.79
805.145	13578.06
805.475	13707.78
805.805	13602.02
806.136	13615.35
806.466	13594.78
806.796	13509.14
807.126	13432.98
807.457	13414.45
807.787	13399.53
808.117	13367.22
808.447	13322.25
808.777	13320.89
809.107	13284.28
809.436	13275.92
809.766	13218.07
810.096	13091.52
810.426	13181.91
810.755	13118.41
811.085	12991.41
811.414	12997.96
811.744	12961.35
812.073	13016.72
812.403	12910.51
812.732	12825.99
813.061	12830.51
813.39	12755.48
813.719	12693.79
814.049	12875.71
814.378	12717.52
814.707	12690.17
815.036	12676.84
815.365	12553.46
815.693	12537.41
816.022	12475.49
816.351	12487.92
816.68	12414.7
817.008	12475.72
817.337	12341.94
817.665	12281.6
817.994	12296.74
818.322	12346
818.651	12250.86
818.979	12186.46
819.307	12230.53
819.636	12126.35
819.964	12172
820.292	12193.46
820.62	12192.11
820.948	12049.97
821.276	12097.2
821.604	12002.28
821.932	12042.06
822.259	12127.03
822.587	12092.22
822.915	12054.71
823.243	12015.16
823.57	12061.94
823.898	12117.31
824.225	11974.49
824.553	11984.2
824.88	12022.4
825.207	12121.6
825.535	12019.46
825.862	12088.16
826.189	11953.02
826.516	12105.56
826.843	12022.4
827.17	12002.74
827.497	12008.61
827.824	12117.76
828.151	12058.78
828.478	12089.96
828.805	12081.83
829.131	11981.72
829.458	11947.6
829.785	11929.52
830.111	11994.15
830.438	12002.06
830.764	11970.19
831.09	12029.63
831.417	11876.18
831.743	11933.13
832.069	11969.74
832.395	11918.9
832.722	11941.72
833.048	11886.35
833.374	12006.8
833.7	11802.29
834.026	11886.81
834.351	11943.08
834.677	11866.92
835.003	11890.2
835.329	11811.55
835.654	11878.44
835.98	11671.67
836.306	11803.64
836.631	11752.8
836.956	11770.42
837.282	11789.18
837.607	11669.86
837.932	11754.61
838.258	11681.61
838.583	11770.65
838.908	11676.87
839.233	11595.74
839.558	11640.94
839.883	11529.98
840.208	11487.72
840.533	11554.16
840.858	11447.5
841.182	11569.3
841.507	11502.41
841.832	11466.7
842.156	11372.92
842.481	11424.22
842.805	11368.85
843.13	11333.15
843.454	11320.49
843.778	11299.02
844.103	11281.62
844.427	11235.3
844.751	11233.72
845.075	11179.25
845.399	11167.5
845.723	11072.14
846.047	11079.37
846.371	11000.28
846.695	11060.84
847.019	10956.44
847.343	10866.04
847.666	10847.96
847.99	10777.68
848.313	10794.86
848.637	10712.6
848.96	10684.58
849.284	10628.08
849.607	10649.55
849.931	10571.59
850.254	10473.74
850.577	10435.09
850.9	10452.72
851.223	10459.72
851.546	10338.82
851.869	10288.66
852.192	10314.42
852.515	10173.18
852.838	10158.04
853.161	10124.82
853.483	10117.14
853.806	10046.63
854.129	10045.27
854.451	10001.88
854.774	9978.83
855.096	9916.69
855.419	9932.06
855.741	9916.24
856.063	9845.05
856.385	9822.45
856.708	9796.92
857.03	9713.53
857.352	9700.65
857.674	9722.8
857.996	9704.04
858.318	9650.71
858.64	9628.56
858.961	9589.69
859.283	9590.37
859.605	9487.77
859.926	9511.05
860.248	9492.29
860.57	9466.3
860.891	9416.81
861.212	9418.85
861.534	9411.62
861.855	9387.21
862.176	9467.43
862.498	9335.01
862.819	9382.47
863.14	9309.7
863.461	9275.35
863.782	9314.44
864.103	9270.15
864.424	9232.86
864.745	9287.33
865.065	9216.82
865.386	9148.35
865.707	9151.96
866.027	9183.83
866.348	9141.12
866.668	9104.96
866.989	9058.18
867.309	9053.66
867.63	9072.42
867.95	9026.77
868.27	9001.01
868.59	9024.28
868.91	8993.32
869.23	8959.88
869.55	8967.11
869.87	9026.32
870.19	8999.42
870.51	8932.53
870.83	8984.74
871.15	8871.74
871.469	8886.88
871.789	8885.08
872.109	8877.85
872.428	8819.54
872.748	8811.18
873.067	8809.6
873.386	8856.6
873.706	8772.09
874.025	8755.36
874.344	8671.07
874.663	8765.76
874.982	8750.62
875.301	8652.09
875.62	8648.93
875.939	8618.87
876.258	8688.02
876.577	8554.92
876.896	8631.98
877.214	8614.58
877.533	8644.86
877.852	8616.16
878.17	8579.77
878.489	8612.99
878.807	8569.38
879.125	8544.52
879.444	8585.88
879.762	8512.88
880.08	8504.97
880.398	8459.33
880.716	8452.77
881.034	8421.36
881.352	8433.79
881.67	8382.49
881.988	8422.94
882.306	8413.23
882.624	8321.7
882.941	8325.77
883.259	8336.16
883.577	8313.34
883.894	8348.59
884.212	8253.91
884.529	8252.78
884.846	8208.48
885.164	8130.75
885.481	8176.62
885.798	8198.32
886.115	8142.05
886.432	8118.09
886.75	8131.65
887.067	8130.07
887.383	8078.77
887.7	8090.97
888.017	8035.83
888.334	8018.43
888.651	7986.8
888.967	7968.72
889.284	7948.83
889.6	7884.65
889.917	7819.34
890.233	7928.49
890.55	7916.74
890.866	7860.25
891.182	7823.86
891.498	7796.74
891.815	7765.11
892.131	7728.27
892.447	7706.58
892.763	7702.06
893.079	7657.09
893.395	7636.97
893.71	7666.35
894.026	7641.04
894.342	7623.19
894.657	7548.62
894.973	7528.5
895.289	7570.08
895.604	7471.1
895.92	7420.93
896.235	7476.75
896.55	7463.65
896.865	7411.44
897.181	7408.51
897.496	7335.74
897.811	7336.87
898.126	7307.94
898.441	7266.81
898.756	7273.59
899.071	7210.77
899.386	7263.65
899.7	7170.55
900.015	7161.96
900.33	7145.01
900.644	7093.94
900.959	7136.65
901.273	7033.15
901.588	7052.58
901.902	6991.34
902.216	7012.81
902.531	6971.23
902.845	6951.57
903.159	6949.99
903.473	6871.8
903.787	6815.98
904.101	6780.73
904.415	6804.68
904.729	6805.13
905.042	6748.86
905.356	6717.68
905.67	6687.17
905.984	6711.57
906.297	6628.41
906.611	6583.22
906.924	6685.36
907.237	6649.88
907.551	6603.33
907.864	6552.48
908.177	6489.89
908.491	6501.64
908.804	6451.92
909.117	6414.63
909.43	6427.29
909.743	6365.37
910.056	6342.77
910.368	6306.61
910.681	6316.11
910.994	6280.17
911.307	6221.87
911.619	6188.2
911.932	6218.25
912.244	6174.87
912.557	6186.84
912.869	6186.17
913.181	6103.91
913.494	6053.97
913.806	6093.74
914.118	6053.29
914.43	6027.53
914.742	6011.48
915.054	5962.67
915.366	5966.28
915.678	5941.2
915.99	5877.02
916.302	5845.83
916.613	5836.8
916.925	5870.92
917.236	5816.68
917.548	5788.21
917.859	5759.51
918.171	5764.03
918.482	5644.03
918.794	5699.62
919.105	5688.78
919.416	5630.93
919.727	5591.6
920.038	5602
920.349	5589.34
920.66	5526.75
920.971	5532.85
921.282	5488.78
921.593	5497.6
921.903	5454.88
922.214	5407.88
922.525	5409.24
922.835	5338.73
923.146	5361.78
923.456	5311.84
923.767	5283.59
924.077	5306.19
924.387	5305.28
924.697	5235.23
925.008	5252.86
925.318	5255.79
925.628	5174.67
925.938	5162.92
926.248	5131.5
926.558	5104.39
926.867	5095.8
927.177	5068.68
927.487	5080.66
927.796	4998.17
928.106	5030.04
928.416	5016.48
928.725	5003.37
929.034	4944.84
929.344	4973.09
929.653	4888.8
929.962	4903.71
930.271	4868.69
930.581	4827.78
930.89	4799.31
931.199	4762.02
931.508	4725.19
931.817	4777.61
932.125	4753.43
932.434	4703.94
932.743	4639.77
933.051	4712.08
933.36	4677.96
933.669	4652.65
933.977	4627.11
934.286	4607.45
934.594	4624.4
934.902	4560.9
935.21	4551.18
935.519	4550.05
935.827	4528.36
936.135	4474.8
936.443	4447.91
936.751	4442.26
937.059	4434.12
937.367	4411.97
937.674	4382.14
937.982	4385.76
938.29	4388.02
938.597	4325.2
938.905	4306.67
939.213	4290.4
939.52	4242.04
939.827	4306.44
940.135	4263.96
940.442	4244.07
940.749	4226.22
941.056	4221.7
941.363	4145.09
941.67	4117.52
941.977	4136.5
942.284	4117.97
942.591	4100.12
942.898	4077.52
943.205	4089.27
943.511	4053.79
943.818	4029.16
944.125	4024.87
944.431	3975.83
944.738	4021.93
945.044	3960.46
945.35	3934.25
945.657	3940.12
945.963	3913.46
946.269	3883.17
946.575	3902.38
946.881	3849.96
947.187	3864.42
947.493	3831.42
947.799	3847.24
948.105	3823.97
948.41	3808.83
948.716	3790.3
949.022	3738.55
949.327	3758.21
949.633	3739.68
949.938	3731.99
950.244	3687.7
950.549	3675.27
950.854	3687.7
951.16	3638.44
951.465	3611.54
951.77	3610.41
952.075	3585.33
952.38	3569.51
952.685	3571.77
952.99	3509.85
953.294	3531.32
953.599	3538.55
953.904	3489.74
954.209	3485.9
954.513	3492.68
954.818	3484.77
955.122	3456.07
955.426	3441.15
955.731	3402.74
956.035	3402.74
956.339	3394.6
956.643	3374.94
956.948	3372.91
957.252	3365
957.556	3323.64
957.86	3323.19
958.163	3325.45
958.467	3273.93
958.771	3293.13
959.075	3231.44
959.378	3254.72
959.682	3202.06
959.985	3200.48
960.289	3210.88
960.592	3178.33
960.896	3164.32
961.199	3178.33
961.502	3167.71
961.805	3133.82
962.108	3073.7
962.411	3137.66
962.714	3118
963.017	3099.01
963.32	3118.22
963.623	3019.92
963.926	3053.59
964.228	3082.97
964.531	3024.44
964.833	3026.47
965.136	2976.53
965.438	2992.12
965.741	2981.05
966.043	2981.28
966.345	2941.5
966.648	2921.62
966.95	2938.57
967.252	2881.85
967.554	2894.73
967.856	2860.38
968.158	2860.6
968.46	2894.05
968.761	2845.24
969.063	2871.9
969.365	2810.66
969.666	2787.61
969.968	2784.9
970.269	2798.01
970.571	2777.89
970.872	2747.39
971.174	2761.4
971.475	2728.85
971.776	2718.69
972.077	2712.36
972.378	2737.22
972.679	2679.82
972.98	2689.99
973.281	2677.56
973.582	2682.08
973.883	2631.68
974.183	2645.92
974.484	2645.24
974.785	2593.27
975.085	2593.49
975.386	2625.58
975.686	2575.64
975.986	2596.2
976.287	2603.43
976.587	2545.58
976.887	2574.73
977.187	2565.47
977.487	2500.61
977.787	2497
978.087	2506.26
978.387	2483.66
978.687	2463.78
978.987	2483.21
979.286	2449.54
979.586	2428.52
979.885	2448.18
980.185	2423.78
980.484	2424.23
980.784	2372.71
981.083	2388.75
981.382	2376.32
981.682	2374.06
981.981	2344.46
982.28	2334.74
982.579	2331.58
982.878	2344.68
983.177	2337.23
983.475	2341.29
983.774	2312.59
984.073	2310.56
984.372	2288.19
984.67	2270.11
984.969	2287.51
985.267	2267.62
985.566	2256.1
985.864	2240.96
986.162	2238.02
986.461	2241.86
986.759	2191.02
987.057	2199.38
987.355	2170.68
987.653	2163.67
987.951	2157.57
988.249	2159.83
988.547	2162.54
988.844	2118.25
989.142	2153.95
989.44	2129.77
989.737	2098.14
990.035	2102.2
990.332	2110.11
990.63	2073.05
990.927	2044.35
991.224	2066.73
991.521	2044.13
991.819	2042.55
992.116	2022.43
992.413	2033.28
992.71	2023.11
993.006	1993.73
993.303	1995.54
993.6	1986.95
993.897	1996.44
994.193	1960.74
994.49	1948.54
994.787	1981.76
995.083	1949.89
995.379	1917.12
995.676	1944.69
995.972	1958.93
996.268	1910.57
996.565	1885.71
996.861	1878.03
997.157	1898.82
997.453	1877.35
997.749	1849.78
998.044	1842.1
998.34	1870.57
998.636	1847.52
998.932	1828.99
999.227	1802.78
999.523	1806.17
999.818	1806.17
1000.114	1779.73
1000.409	1770.24
1000.704	1781.08
1001	1769.33
1001.295	1785.83
1001.59	1762.1
1001.885	1755.1
1002.18	1746.28
1002.475	1730.01
1002.77	1721.65
1003.065	1693.18
1003.359	1687.98
1003.654	1692.05
1003.949	1686.85
1004.243	1680.97
1004.538	1662.44
1004.832	1675.32
1005.127	1656.34
1005.421	1666.74
1005.715	1622.44
1006.009	1636.23
1006.304	1635.78
1006.598	1579.51
1006.892	1611.82
1007.186	1596.46
1007.48	1565.95
1007.773	1562.56
1008.067	1550.13
1008.361	1550.81
1008.655	1559.85
1008.948	1540.19
1009.242	1544.71
1009.535	1500.64
1009.829	1507.19
1010.122	1511.49
1010.415	1488.66
1010.708	1469.45
1011.001	1473.07
1011.295	1484.82
1011.588	1495.67
1011.881	1466.29
1012.173	1452.96
1012.466	1446.4
1012.759	1427.42
1013.052	1424.03
1013.344	1429.45
1013.637	1423.13
1013.93	1379.29
1014.222	1370.25
1014.514	1392.17
1014.807	1355.11
1015.099	1345.84
1015.391	1367.08
1015.683	1359.63
1015.976	1335.9
1016.268	1342.68
1016.56	1336.58
1016.851	1330.7
1017.143	1309.91
1017.435	1303.81
1017.727	1319.4
1018.018	1283.92
1018.31	1287.08
1018.602	1275.56
1018.893	1285.28
1019.185	1244.15
1019.476	1254.54
1019.767	1262.45
1020.058	1208.22
1020.35	1233.75
1020.641	1234.66
1020.932	1196.47
1021.223	1231.27
1021.514	1197.14
1021.804	1202.79
1022.095	1179.07
1022.386	1193.98
1022.677	1150.59
1022.967	1148.78
1023.258	1144.94
1023.548	1144.49
1023.839	1125.51
1024.129	1138.39
1024.419	1126.41
1024.709	1124.83
1025	1123.47
1025.29	1098.62
1025.58	1090.03
1025.87	1102.91
1026.16	1097.03
1026.449	1095.68
1026.739	1074.21
1027.029	1074.89
1027.319	1063.81
1027.608	1065.4
1027.898	1039.86
1028.187	1053.42
1028.477	1055.9
1028.766	1006.41
1029.055	1005.28
1029.344	1002.35
1029.634	1026.53
1029.923	1007.54
1030.212	1017.04
1030.501	1001.67
1030.79	962.12
1031.078	960.54
1031.367	979.75
1031.656	979.07
1031.945	974.32
1032.233	986.3
1032.522	976.36
1032.81	947.88
1033.099	951.5
1033.387	933.2
1033.675	927.09
1033.963	921.67
1034.251	938.85
1034.54	909.69
1034.828	916.47
1035.116	882.58
1035.403	896.81
1035.691	891.84
1035.979	904.04
1036.267	897.94
1036.554	878.73
1036.842	858.62
1037.129	866.98
1037.417	882.58
1037.704	856.14
1037.992	843.03
1038.279	827.21
1038.566	852.52
1038.853	852.52
1039.14	852.52
