Data from hue_26_FLMS001491_00063.txt Node
Date: Tue Feb 07 17:14:20 GMT 2017
User: dcchb
Spectrometer: FLMS00149
Trigger mode: 0
Integration Time (sec): 2.000000E-2
Scans to average: 10
Electric dark correction enabled: true
Nonlinearity correction enabled: false
Boxcar width: 0
XAxis mode: Wavelengths
Number of Pixels in Spectrum: 2048
>>>>>Begin Spectral Data<<<<<
341.393	-25.15
341.776	-25.15
342.16	-25.15
342.543	-59.96
342.927	-73.97
343.31	-59.05
343.693	-48.2
344.077	-61.31
344.46	-61.54
344.843	-56.34
345.226	-40.52
345.61	-33.74
345.993	-15.66
346.376	-27.87
346.759	2.87
347.142	37.44
347.525	32.24
347.908	60.27
348.291	77.44
348.674	100.04
349.057	93.94
349.44	146.14
349.823	155.63
350.206	176.42
350.588	192.01
350.971	212.13
351.354	219.36
351.737	218.68
352.119	260.04
352.502	272.69
352.884	272.46
353.267	271.33
353.65	299.81
354.032	301.84
354.414	298.9
354.797	320.15
355.179	307.04
355.562	341.16
355.944	340.49
356.326	338.23
356.709	335.29
357.091	331.45
357.473	340.71
357.855	344.1
358.238	363.08
358.62	355.17
359.002	327.6
359.384	345.46
359.766	345.91
360.148	342.29
360.53	340.94
360.912	368.06
361.294	359.92
361.676	329.64
362.057	336.87
362.439	340.94
362.821	324.21
363.203	316.53
363.584	328.96
363.966	339.36
364.348	336.42
364.729	330.54
365.111	336.42
365.493	321.5
365.874	343.88
366.256	316.76
366.637	302.97
367.019	310.66
367.4	324.44
367.781	320.15
368.163	306.81
368.544	331.22
368.925	317.44
369.306	304.33
369.688	334.61
370.069	330.54
370.45	334.16
370.831	297.1
371.212	307.49
371.593	327.83
371.974	323.99
372.355	308.62
372.736	323.76
373.117	328.96
373.498	326.7
373.879	311.56
374.26	321.28
374.641	326.25
375.021	335.97
375.402	328.06
375.783	332.8
376.163	337.77
376.544	337.1
376.925	346.36
377.305	342.75
377.686	324.89
378.066	331.22
378.447	348.17
378.827	341.84
379.208	359.47
379.588	337.77
379.968	349.07
380.349	342.97
380.729	334.38
381.109	347.26
381.489	348.62
381.87	349.52
382.25	349.52
382.63	351.33
383.01	349.98
383.39	347.72
383.77	358.11
384.15	360.15
384.53	363.08
384.91	365.34
385.29	340.49
385.67	349.07
386.049	377.09
386.429	371.9
386.809	380.71
387.189	383.65
387.568	389.98
387.948	368.51
388.328	366.7
388.707	358.79
389.087	402.18
389.466	393.37
389.846	386.81
390.225	366.93
390.605	381.61
390.984	384.78
391.363	378
391.743	393.37
392.122	385.68
392.501	415.74
392.881	384.33
393.26	377.09
393.639	367.38
394.018	391.56
394.397	392.01
394.776	418.45
395.155	423.2
395.534	390.88
395.913	391.11
396.292	395.17
396.671	419.35
397.05	399.69
397.429	412.57
397.808	390.65
398.186	433.14
398.565	426.81
398.944	410.54
399.323	437.88
399.701	425.68
400.08	428.62
400.458	427.71
400.837	427.49
401.215	449.86
401.594	436.3
401.972	428.17
402.351	450.31
402.729	438.11
403.107	459.8
403.486	452.57
403.864	449.18
404.242	453.25
404.62	438.56
404.999	473.36
405.377	451.67
405.755	481.72
406.133	466.36
406.511	456.64
406.889	460.93
407.267	486.47
407.645	488.96
408.023	445.12
408.401	481.5
408.779	496.64
409.156	465.23
409.534	494.15
409.912	501.39
410.29	486.24
410.667	491.44
411.045	490.54
411.422	509.52
411.8	491.89
412.178	512.91
412.555	503.42
412.933	512.23
413.31	534.6
413.687	522.4
414.065	557.2
414.442	531.44
414.819	550.65
415.197	542.06
415.574	547.71
415.951	552.68
416.328	569.63
416.705	551.55
417.082	578.22
417.46	557.2
417.837	580.03
418.214	578.45
418.591	573.47
418.967	590.87
419.344	571.44
419.721	585.68
420.098	572.34
420.475	592.46
420.852	570.31
421.228	596.75
421.605	614.83
421.982	603.08
422.358	619.57
422.735	621.61
423.111	637.65
423.488	638.56
423.864	626.13
424.241	635.39
424.617	624.77
424.994	648.05
425.37	632.23
425.746	645.34
426.123	647.37
426.499	658.9
426.875	643.3
427.251	657.77
427.627	673.81
428.003	691.66
428.379	714.71
428.756	691.44
429.132	706.58
429.507	695.73
429.883	704.09
430.259	706.8
430.635	719.91
431.011	741.83
431.387	746.12
431.763	760.81
432.138	758.55
432.514	759.91
432.89	752
433.265	771.43
433.641	783.41
434.016	807.14
434.392	799.46
434.767	812.79
435.143	815.28
435.518	796.52
435.894	813.69
436.269	836.29
436.644	818.21
437.02	815.5
437.395	856.18
437.77	874.71
438.145	849.85
438.52	889.4
438.895	858.66
439.271	873.58
439.646	892.79
440.021	890.75
440.395	909.51
440.77	902.96
441.145	914.71
441.52	931.43
441.895	906.8
442.27	907.7
442.645	934.82
443.019	953.35
443.394	928.04
443.769	957.19
444.143	939.79
444.518	927.36
444.892	974.14
445.267	946.57
445.641	977.76
446.016	979.11
446.39	990.41
446.764	1004.65
447.139	965.78
447.513	1001.48
447.887	970.3
448.262	1000.81
448.636	1013.69
449.01	1034.93
449.384	1049.17
449.758	1028.15
450.132	1066.57
450.506	1034.48
450.88	1070.64
451.254	1083.06
451.628	1084.42
452.002	1082.84
452.376	1079.9
452.75	1071.09
453.123	1091.43
453.497	1124.19
453.871	1134.81
454.244	1172.55
454.618	1157.64
454.992	1142.95
455.365	1165.55
455.739	1173.23
456.112	1180.69
456.486	1191.31
456.859	1242.61
457.232	1248.03
457.606	1258.88
457.979	1256.62
458.352	1267.47
458.725	1296.62
459.099	1292.78
459.472	1311.08
459.845	1340.91
460.218	1342.04
460.591	1364.19
460.964	1357.63
461.337	1366.9
461.71	1387.69
462.083	1420.68
462.456	1413.68
462.829	1446.45
463.201	1453.22
463.574	1467.91
463.947	1457.97
464.32	1509.04
464.692	1527.8
465.065	1556.5
465.438	1542.71
465.81	1598.08
466.183	1588.81
466.555	1614.12
466.928	1651.86
467.3	1639.89
467.672	1661.35
468.045	1726.66
468.417	1711.3
468.789	1760.34
469.161	1752.88
469.534	1800.79
469.906	1807.11
470.278	1834.46
470.65	1856.15
471.022	1888.92
471.394	1869.03
471.766	1936.83
472.138	1919.43
472.51	1980.44
472.882	2029.25
473.253	2064.73
473.625	2074.9
473.997	2116.03
474.369	2120.1
474.74	2166.43
475.112	2166.88
475.484	2243.71
475.855	2295.91
476.227	2277.84
476.598	2400.09
476.97	2411.84
477.341	2433.54
477.713	2517.15
478.084	2494.78
478.455	2577.49
478.827	2654.32
479.198	2686.19
479.569	2672.4
479.94	2793.98
480.311	2787.65
480.682	2884.37
481.053	2941.77
481.424	2997.82
481.795	3003.92
482.166	3095.22
482.537	3146.97
482.908	3177.25
483.279	3245.04
483.65	3281.2
484.021	3373.4
484.391	3428.54
484.762	3434.64
485.133	3542.44
485.503	3527.97
485.874	3621.76
486.244	3712.83
486.615	3759.38
486.985	3797.8
487.356	3939.71
487.726	3971.12
488.097	4028.07
488.467	4045.47
488.837	4159.14
489.207	4174.51
489.578	4272.59
489.948	4296.77
490.318	4388.51
490.688	4411.79
491.058	4491.11
491.428	4561.17
491.798	4576.76
492.168	4772.91
492.538	4737.66
492.908	4790.76
493.278	4877.32
493.648	4879.12
494.017	4976.75
494.387	5071.66
494.757	5043.19
495.126	5129.29
495.496	5133.13
495.866	5176.74
496.235	5267.14
496.605	5314.82
496.974	5346.91
497.344	5385.78
497.713	5446.11
498.082	5485.89
498.452	5595.26
498.821	5609.05
499.19	5625.32
499.559	5634.36
499.928	5715.71
500.298	5738.08
500.667	5785.99
501.036	5818.99
501.405	5888.36
501.774	5928.14
502.143	5945.08
502.512	5933.11
502.88	6018.53
503.249	6025.99
503.618	6107.57
503.987	6121.8
504.356	6153.67
504.724	6193.89
505.093	6202.7
505.462	6286.77
505.83	6303.04
506.199	6377.61
506.567	6449.03
506.936	6350.04
507.304	6460.32
507.672	6477.5
508.041	6532.41
508.409	6606.31
508.777	6665.52
509.145	6682.69
509.514	6634.33
509.882	6713.43
510.25	6782.8
510.618	6814.44
510.986	6868.22
511.354	6871.39
511.722	6915.68
512.09	6941.22
512.458	6957.03
512.826	7053.53
513.193	7055.79
513.561	7074.09
513.929	7155
514.297	7150.7
514.664	7227.08
515.032	7244.26
515.4	7327.42
515.767	7345.95
516.135	7349.79
516.502	7271.83
516.869	7428.66
517.237	7512.5
517.604	7378.04
517.972	7456.23
518.339	7484.48
518.706	7562.22
519.073	7544.59
519.44	7647.86
519.808	7669.11
520.175	7659.39
520.542	7820.74
520.909	7754.98
521.276	7834.75
521.643	7874.3
522.009	7950.91
522.376	7975.54
522.743	7992.04
523.11	8001.98
523.477	8119.72
523.843	8243.1
524.21	8233.84
524.577	8316.77
524.943	8331.69
525.31	8363.33
525.676	8465.47
526.043	8528.74
526.409	8503.89
526.776	8622.53
527.142	8581.85
527.508	8706.14
527.874	8714.28
528.241	8738.46
528.607	8795.63
528.973	8935.51
529.339	8881.28
529.705	8920.82
530.071	9054.61
530.437	9031.1
530.803	9092.12
531.169	9157.43
531.535	9123.08
531.901	9184.77
532.267	9233.81
532.632	9334.6
532.998	9283.53
533.364	9386.35
533.73	9439.91
534.095	9477.87
534.461	9484.2
534.826	9604.65
535.192	9630.86
535.557	9694.14
535.923	9655.49
536.288	9704.53
536.653	9814.59
537.019	9733.91
537.384	9835.38
537.749	9920.8
538.114	9887.58
538.479	9878.54
538.845	9988.59
539.21	9963.96
539.575	10010.06
539.94	10014.36
540.305	10150.85
540.67	10179.77
541.034	10215.71
541.399	10297.51
541.764	10309.04
542.129	10330.28
542.494	10324.63
542.858	10395.14
543.223	10444.4
543.587	10452.08
543.952	10476.49
544.316	10534.57
544.681	10558.75
545.045	10630.61
545.41	10671.74
545.774	10736.14
546.138	10745.64
546.503	10765.3
546.867	10804.84
547.231	10950.38
547.595	10890.26
547.959	10964.39
548.324	10937.95
548.688	11066.76
549.052	11036.93
549.416	11015.23
549.779	11096.81
550.143	11162.57
550.507	11245.96
550.871	11282.8
551.235	11198.73
551.599	11353.98
551.962	11387.88
552.326	11379.97
552.689	11465.16
553.053	11440.31
553.417	11482.11
553.78	11612.28
554.143	11614.54
554.507	11572.73
554.87	11628.32
555.234	11701.99
555.597	11648.89
555.96	11746.29
556.323	11806.62
556.686	11831.93
557.05	11971.59
557.413	11885.49
557.776	12087.75
558.139	12081.65
558.502	12086.84
558.865	12056.56
559.228	12191.93
559.59	12228.99
559.953	12276.22
560.316	12348.76
560.679	12421.98
561.041	12464.46
561.404	12444.12
561.767	12498.58
562.129	12507.62
562.492	12664.46
562.854	12635.08
563.217	12664
563.579	12682.08
563.941	12774.96
564.304	12832.13
564.666	12909.65
565.028	12969.98
565.39	12983.54
565.753	13046.59
566.115	13101.96
566.477	13072.13
566.839	13188.51
567.201	13293.82
567.563	13278.68
567.925	13347.15
568.287	13322.29
568.648	13475.96
569.01	13490.65
569.372	13608.39
569.734	13488.84
570.095	13652.45
570.457	13726.12
570.819	13794.59
571.18	13766.57
571.542	13906.23
571.903	13866.68
572.265	13955.49
572.626	14018.54
572.987	14062.38
573.349	14187.35
573.71	14227.58
574.071	14276.84
574.432	14324.3
574.794	14501.92
575.155	14595.25
575.516	14522.71
575.877	14619.88
576.238	14810.16
576.599	14727.68
576.96	14999.31
577.32	15033.43
577.681	15120.89
578.042	15167.67
578.403	15293.54
578.763	15403.37
579.124	15531.27
579.485	15598.16
579.845	15810.14
580.206	15882.22
580.566	16154.53
580.927	16124.93
581.287	16337.35
581.648	16336.22
582.008	16565.37
582.368	16755.87
582.728	16942.08
583.089	17048.97
583.449	17180.72
583.809	17434.73
584.169	17639.24
584.529	17751.33
584.889	18131.88
585.249	18099.11
585.609	18442.16
585.969	18649.38
586.329	18925.99
586.688	19191.97
587.048	19361.23
587.408	19501.56
587.768	19696.81
588.127	20088.44
588.487	20246.85
588.846	20760.06
589.206	20820.85
589.565	21064.91
589.925	21571.34
590.284	21693.14
590.643	21988.5
591.003	22415.39
591.362	22722.27
591.721	22936.05
592.08	23263.27
592.44	23587.11
592.799	23961.33
593.158	24244.26
593.517	24574.65
593.876	24876.34
594.235	25201.07
594.593	25425.48
594.952	25874.73
595.311	26112.69
595.67	26460.93
596.029	26986.56
596.387	27296.61
596.746	27693.66
597.104	27963.49
597.463	28277.38
597.822	28666.07
598.18	28807.53
598.538	29104.25
598.897	29691.35
599.255	29786.49
599.613	30460.6
599.972	30690.42
600.33	31117.3
600.688	31228.94
601.046	31637.06
601.404	32055.81
601.762	32267.1
602.12	32800.2
602.478	33117.7
602.836	33427.98
603.194	33510.23
603.552	33905.7
603.91	34105.47
604.268	34599.25
604.625	34751.11
604.983	35175.95
605.341	35158.1
605.698	35658.2
606.056	36035.59
606.413	36203.27
606.771	36643.94
607.128	36950.6
607.485	36987.66
607.843	37345.39
608.2	37650.92
608.557	38018.59
608.914	38162.99
609.272	38661.06
609.629	38901.73
609.986	39310.08
610.343	39240.93
610.7	39701.03
611.057	39837.3
611.414	39991.19
611.771	40376.95
612.127	40545.3
612.484	40660.56
612.841	40978.74
613.198	40991.85
613.554	41384.38
613.911	41598.61
614.267	41765.16
614.624	41923.12
614.98	42153.85
615.337	42565.14
615.693	42597.91
616.05	42697.56
616.406	43096.88
616.762	43079.25
617.118	43266.81
617.475	43485.11
617.831	43642.85
618.187	43908.61
618.543	44029.96
618.899	44259.1
619.255	44471.75
619.611	44397.86
619.967	44643.73
620.323	44812.08
620.678	44732.76
621.034	44893.89
621.39	44948.8
621.746	45097.95
622.101	45573.19
622.457	45343.14
622.812	45552.18
623.168	45664.04
623.523	45839.4
623.879	46070.36
624.234	45848.67
624.589	46159.85
624.945	46185.83
625.3	46217.7
625.655	46320.29
626.01	46472.15
626.365	46572.26
626.72	46477.35
627.075	46510.12
627.43	46732.49
627.785	46602.77
628.14	46817
628.495	46975.19
628.85	46875.98
629.205	46804.57
629.559	47017.22
629.914	46911.92
630.269	47125.92
630.623	46931.8
630.978	46922.31
631.332	47122.08
631.687	47226.71
632.041	47128.63
632.396	47266.26
632.75	47165.69
633.104	47335.18
633.459	47011.35
633.813	47168.86
634.167	47260.61
634.521	47151.23
634.875	47293.38
635.229	47103.32
635.583	47092.48
635.937	47128.86
636.291	47144.23
636.645	47216.77
636.999	47035.08
637.352	47234.62
637.706	47051.8
638.06	47242.3
638.413	47109.88
638.767	46998.69
639.121	47169.31
639.474	46955.53
639.828	46995.76
640.181	47063.78
640.534	47100.39
640.888	46995.53
641.241	46845.93
641.594	46925.93
641.947	47093.61
642.301	47008.41
642.654	47078.47
643.007	46924.57
643.36	46972.03
643.713	46971.58
644.066	47055.42
644.419	46714.86
644.771	46592.15
645.124	46220.86
645.477	46101.09
645.83	45948.55
646.182	45792.85
646.535	45784.04
646.888	45817.03
647.24	45669.24
647.593	45804.37
647.945	45819.29
648.298	45570.71
648.65	45524.16
649.002	45490.48
649.355	45499.98
649.707	45556.92
650.059	45745.62
650.411	46231.03
650.763	46224.93
651.115	46585.37
651.467	46575.88
651.819	46505.37
652.171	46404.36
652.523	46399.16
652.875	46359.39
653.227	46223.57
653.578	46597.8
653.93	46540.4
654.282	46236.91
654.633	46227.64
654.985	46167.76
655.337	46346.51
655.688	46388.54
656.039	46577.46
656.391	46106.06
656.742	46150.13
657.094	46231.48
657.445	46259.5
657.796	46282.1
658.147	46209.34
658.498	46116
658.849	46325.26
659.2	46212.73
659.551	46084.59
659.902	46354.87
660.253	46119.62
660.604	46155.78
660.955	45967.76
661.306	46154.2
661.656	46068.77
662.007	45929.12
662.358	46087.53
662.708	45954.88
663.059	46004.6
663.409	45749.91
663.76	46050.24
664.11	45995.78
664.461	46064.71
664.811	46059.74
665.161	45954.88
665.511	45892.28
665.862	45907.2
666.212	45951.26
666.562	46087.31
666.912	45882.56
667.262	45883.02
667.612	45887.54
667.962	45885.5
668.312	45836.46
668.662	46207.98
669.011	45968.89
669.361	45875.33
669.711	45867.65
670.06	45805.73
670.41	45789.69
670.76	45813.64
671.109	45888.21
671.459	45835.79
671.808	45753.75
672.157	45802.57
672.507	45711.04
672.856	45559.86
673.205	45600.99
673.554	45803.02
673.904	45562.8
674.253	45848.22
674.602	45742
674.951	45130.72
675.3	44848.69
675.649	45612.29
675.998	45501.33
676.346	45565.51
676.695	45757.37
677.044	45325.52
677.393	45562.8
677.741	45412.75
678.09	45563.48
678.438	45149.48
678.787	45375.46
679.135	45405.06
679.484	45279.64
679.832	45233.99
680.181	44961.23
680.529	45117.61
680.877	45013.66
681.225	45098.86
681.573	45145.41
681.922	44929.14
682.27	44770.5
682.618	44840.11
682.966	44650.51
683.314	44816.6
683.661	44672.43
684.009	44431.98
684.357	44459.55
684.705	44505.2
685.053	44479.89
685.4	44387.46
685.748	44059.34
686.095	44081.03
686.443	44112.22
686.79	44019.11
687.138	44037.87
687.485	44039.22
687.832	43836.74
688.18	43845.56
688.527	43549.07
688.874	43612.79
689.221	43625.45
689.568	43404.21
689.915	43278.79
690.262	43277.89
690.609	43168.96
690.956	43115.41
691.303	43132.13
691.65	42935.3
691.997	42926.03
692.344	42678.36
692.69	42553.61
693.037	42591.8
693.383	42342.77
693.73	42569.21
694.077	42200.18
694.423	42273.85
694.769	42213.06
695.116	42044.47
695.462	42130.35
695.808	41838.83
696.155	41988.88
696.501	41603.81
696.847	41726.52
697.193	41444.72
697.539	41466.18
697.885	41101.9
698.231	41165.85
698.577	41263.93
698.923	41035.69
699.269	41001.11
699.614	40668.92
699.96	40661.69
700.306	40681.8
700.651	40465.31
700.997	40477.96
701.342	40311.19
701.688	40130.85
702.033	40148.93
702.379	40096.28
702.724	40060.34
703.069	40087.91
703.415	39658.32
703.76	39792.1
704.105	39664.2
704.45	39433.47
704.795	39234.38
705.14	39263.98
705.485	39247.94
705.83	39094.27
706.175	39064.21
706.52	38941.73
706.865	38892.01
707.209	38802.07
707.554	38744.67
707.899	38765.46
708.243	38541.29
708.588	38352.82
708.932	38152.82
709.277	38171.36
709.621	38245.03
709.966	38045.93
710.31	38047.52
710.654	37692.72
710.998	37746.96
711.342	37863.34
711.687	37710.12
712.031	37639.17
712.375	37436.91
712.719	37599.39
713.063	37367.08
713.407	37435.1
713.75	37244.37
714.094	37241.44
714.438	37053.87
714.782	37096.58
715.125	36899.07
715.469	36975.91
715.812	36800.09
716.156	36638.74
716.499	36611.85
716.843	36722.13
717.186	36543.15
717.53	36629.47
717.873	36475.58
718.216	36501.79
718.559	36302.7
718.902	36165.76
719.246	36331.63
719.589	36406.2
719.932	36121.47
720.275	35877.63
720.617	36032.65
720.96	35738.42
721.303	35749.05
721.646	35902.49
721.989	35483.29
722.331	35700.01
722.674	35678.09
723.016	35790.17
723.359	35481.71
723.701	35498.88
724.044	35368.94
724.386	35064.77
724.729	35251.88
725.071	35302.73
725.413	35184.54
725.755	35159.23
726.097	35055.96
726.439	34902.06
726.782	34859.13
727.124	35072.23
727.465	34893.7
727.807	34818
728.149	34652.13
728.491	34542.75
728.833	34744.33
729.175	34530.32
729.516	34538.23
729.858	34477.67
730.199	34517.89
730.541	34315.19
730.882	34361.29
731.224	34385.01
731.565	34127.62
731.906	34264.34
732.248	34350.66
732.589	33979.15
732.93	34088.75
733.271	33949.55
733.612	33978.02
733.953	33866.38
734.294	33800.4
734.635	33694.64
734.976	33811.02
735.317	33520.18
735.658	33610.35
735.999	33613.06
736.339	33534.64
736.68	33445.83
737.021	33491.25
737.361	33460.52
737.702	33472.04
738.042	33420.52
738.383	33315.21
738.723	33343.01
739.063	33296
739.404	33277.25
739.744	33202.9
740.084	33020.08
740.424	33077.48
740.764	32983.47
741.104	33074.31
741.444	32851.27
741.784	32915.45
742.124	32804.72
742.464	32875.45
742.804	32733.31
743.143	32627.32
743.483	32604.95
743.823	32549.81
744.162	32350.49
744.502	32392.75
744.841	32282.24
745.181	32439.53
745.52	32337.61
745.86	32284.73
746.199	32249.02
746.538	32132.87
746.877	32218.97
747.216	32172.42
747.556	32116.15
747.895	32061.23
748.234	31915.47
748.573	31843.39
748.911	31871.63
749.25	31896.04
749.589	31730.62
749.928	31850.84
750.267	31689.27
750.605	31705.76
750.944	31680.45
751.283	31574.01
751.621	31680.45
751.96	31378.99
752.298	31520.23
752.636	31414.92
752.975	31241.82
753.313	31161.14
753.651	31336.51
753.989	31082.28
754.327	31109.17
754.666	31045.44
755.004	31071.43
755.342	30950.75
755.679	30870.53
756.017	30760.25
756.355	30844.77
756.693	30652
757.031	30671.21
757.368	30481.16
757.706	30363.88
758.044	30349.19
758.381	30317.1
758.719	30262.86
759.056	30217.67
759.394	30205.91
759.731	29952.81
760.068	29940.39
760.405	29845.02
760.743	29807.96
761.08	29854.06
761.417	29593.95
761.754	29587.17
762.091	29553.28
762.428	29482.32
762.765	29336.56
763.102	29427.18
763.438	29172.04
763.775	29130.01
764.112	29170.24
764.449	29103.57
764.785	28956.91
765.122	28816.35
765.458	28698.84
765.795	28668.33
766.131	28664.94
766.467	28500.2
766.804	28336.13
767.14	28268.34
767.476	28153.77
767.812	28106.76
768.148	28086.42
768.485	28003.03
768.821	27771.85
769.157	27732.53
769.492	27673.78
769.828	27594.91
770.164	27340.23
770.5	27364.86
770.836	27298.65
771.171	27118.54
771.507	27193.34
771.842	26915.38
772.178	26822.5
772.513	26759.23
772.849	26681.71
773.184	26596.29
773.519	26578.89
773.855	26607.59
774.19	26472.23
774.525	26277.66
774.86	26321.05
775.195	26224.32
775.53	26080.15
775.865	25913.37
776.2	25820.04
776.535	25661.85
776.87	25569.88
777.205	25535.08
777.539	25362.65
777.874	25422.54
778.209	25196.1
778.543	25164.92
778.878	25058.25
779.212	25095.54
779.547	24920.63
779.881	24954.3
780.215	24703.23
780.55	24844.02
780.884	24626.85
781.218	24512.05
781.552	24448.1
781.886	24344.6
782.22	24273.42
782.554	24150.25
782.888	24073.19
783.222	23854.44
783.556	23723.15
783.889	23807.66
784.223	23665.52
784.557	23603.38
784.89	23562.02
785.224	23485.19
785.557	23316.15
785.891	23204.74
786.224	23075.25
786.558	23110.73
786.891	22989.16
787.224	22959.55
787.557	22761.59
787.891	22788.03
788.224	22811.53
788.557	22701.03
788.89	22593.01
789.223	22561.14
789.556	22423.97
789.888	22153.25
790.221	22256.97
790.554	22151.44
790.887	22164.09
791.219	21972.23
791.552	22043.42
791.884	21906.92
792.217	21770.66
792.549	21763.2
792.882	21631.9
793.214	21558.23
793.546	21669.19
793.879	21363.89
794.211	21369.09
794.543	21404.34
794.875	21223.78
795.207	21261.52
795.539	21124.8
795.871	21170.22
796.203	20979.26
796.535	20881.41
796.867	20801.42
797.198	20662.21
797.53	20760.74
797.862	20603.46
798.193	20558.26
798.525	20538.37
798.856	20510.35
799.188	20323.69
799.519	20256.8
799.85	20094.54
800.182	20215.44
800.513	20067.42
800.844	19917.37
801.175	20039.4
801.506	19906.3
801.837	19780.88
802.168	19825.62
802.499	19623.59
802.83	19742.24
803.161	19589.02
803.491	19629.7
803.822	19511.28
804.153	19497.5
804.483	19311.51
804.814	19308.57
805.145	19267.9
805.475	19195.58
805.805	19144.06
806.136	19163.49
806.466	19073.1
806.796	19104.29
807.126	18919.43
807.457	18808.93
807.787	18915.82
808.117	18777.51
808.447	18748.81
808.777	18746.56
809.107	18586.33
809.436	18562.83
809.766	18566.22
810.096	18493.45
810.426	18408.94
810.755	18421.14
811.085	18311.09
811.414	18293.23
811.744	18188.15
812.073	18192.45
812.403	18198.55
812.732	18082.62
813.061	18079.68
813.39	17954.94
813.719	17851.89
814.049	17960.81
814.378	17902.96
814.707	17806.92
815.036	17699.13
815.365	17641.73
815.693	17553.59
816.022	17588.62
816.351	17448.74
816.68	17409.19
817.008	17460.04
817.337	17372.58
817.665	17278.57
817.994	17389.98
818.322	17272.24
818.651	17225.47
818.979	17128.52
819.307	17226.6
819.636	17196.77
819.964	16906.15
820.292	17079.25
820.62	17033.38
820.948	16917.45
821.276	17058.69
821.604	17036.09
821.932	16994.74
822.259	16986.83
822.587	16957.9
822.915	16907.51
823.243	16898.47
823.57	16957.9
823.898	16887.17
824.225	16891.24
824.553	16851.92
824.88	16903.21
825.207	16894.63
825.535	16831.35
825.862	16931.46
826.189	16799.94
826.516	17020.27
826.843	16947.73
827.17	16948.86
827.497	16998.13
827.824	16883.55
828.151	17004
828.478	16847.4
828.805	16923.1
829.131	16849.88
829.458	16816.44
829.785	16776.66
830.111	16783.89
830.438	16958.13
830.764	16812.37
831.09	16892.37
831.417	16772.14
831.743	16855.98
832.069	16851.92
832.395	16658.02
832.722	16750.68
833.048	16775.08
833.374	16725.37
833.7	16610.79
834.026	16687.63
834.351	16765.14
834.677	16694.86
835.003	16689.43
835.329	16656.89
835.654	16522.43
835.98	16591.58
836.306	16656.44
836.631	16509.78
836.956	16557.01
837.282	16533.96
837.607	16526.05
837.932	16419.16
838.258	16476.11
838.583	16508.42
838.908	16336.67
839.233	16367.86
839.558	16348.88
839.883	16229.79
840.208	16179.62
840.533	16220.29
840.858	16211.48
841.182	16191.14
841.507	16190.92
841.832	16107.3
842.156	16058.94
842.481	16061.88
842.805	16027.53
843.13	15975.1
843.454	15947.31
843.778	15905.27
844.103	15824.6
844.427	15778.72
844.751	15804.49
845.075	15846.07
845.399	15763.81
845.723	15572.63
846.047	15713.87
846.371	15484.72
846.695	15482.69
847.019	15383.93
847.343	15356.36
847.666	15218.96
847.99	15138.51
848.313	15091.06
848.637	15058.74
848.96	15012.42
849.284	15034.56
849.607	14851.97
849.931	14791.86
850.254	14789.15
850.577	14621.92
850.9	14664.4
851.223	14585.53
851.546	14456.72
851.869	14343.28
852.192	14496.27
852.515	14293.11
852.838	14244.75
853.161	14287.46
853.483	14195.71
853.806	14125.89
854.129	14086.11
854.451	14054.02
854.774	13983.74
855.096	13922.5
855.419	14019.22
855.741	13839.11
856.063	13775.61
856.385	13797.76
856.708	13788.49
857.03	13746.23
857.352	13691.09
857.674	13675.28
857.996	13497.2
858.318	13510.99
858.64	13490.65
858.961	13477.09
859.283	13425.57
859.605	13263.54
859.926	13339.47
860.248	13312.35
860.57	13268.28
860.891	13323.65
861.212	13162.52
861.534	13170.2
861.855	13174.72
862.176	13143.76
862.498	13188.51
862.819	13129.3
863.14	13165.46
863.461	13094.95
863.782	13021.28
864.103	13045.69
864.424	12933.6
864.745	12936.09
865.065	12867.16
865.386	12801.4
865.707	12776.54
866.027	12766.6
866.348	12799.37
866.668	12780.16
866.989	12786.49
867.309	12640.5
867.63	12751.68
867.95	12697.22
868.27	12595.76
868.59	12620.84
868.91	12588.52
869.23	12513.5
869.55	12545.14
869.87	12544.68
870.19	12556.66
870.51	12553.05
870.83	12625.36
871.15	12443.67
871.469	12389.89
871.789	12495.42
872.109	12374.52
872.428	12305.14
872.748	12376.78
873.067	12376.55
873.386	12344.46
873.706	12383.56
874.025	12309.89
874.344	12278.48
874.663	12218.59
874.982	12177.69
875.301	12251.58
875.62	12132.04
875.939	12141.53
876.258	12176.56
876.577	12073.74
876.896	12115.54
877.214	11990.12
877.533	12077.8
877.852	12005.94
878.17	11972.27
878.489	11941.99
878.807	12005.49
879.125	11937.47
879.444	11935.89
879.762	11929.56
880.08	11887.98
880.398	11856.57
880.716	11818.15
881.034	11850.92
881.352	11822.67
881.67	11751.26
881.988	11722.56
882.306	11708.55
882.624	11651.6
882.941	11665.84
883.259	11566.86
883.577	11550.13
883.894	11607.31
884.212	11623.13
884.529	11577.7
884.846	11519.63
885.164	11450.02
885.481	11435.11
885.798	11436.24
886.115	11405.05
886.432	11425.62
886.75	11379.29
887.067	11387.2
887.383	11233.08
887.7	11309.91
888.017	11181.33
888.334	11239.63
888.651	11154.66
888.967	11139.3
889.284	11060.43
889.6	11030.6
889.917	11039.64
890.233	11069.47
890.55	10957.38
890.866	10951.05
891.182	10947.44
891.498	10941.34
891.815	10824.73
892.131	10790.83
892.447	10796.03
892.763	10709.7
893.079	10726.88
893.395	10615.02
893.71	10642.59
894.026	10680.78
894.342	10611.4
894.657	10515.36
894.973	10572.76
895.289	10476.04
895.604	10522.14
895.92	10406.66
896.235	10392.42
896.55	10347.68
896.865	10287.57
897.181	10246.67
897.496	10271.98
897.811	10238.08
898.126	10260.68
898.441	10143.39
898.756	10130.74
899.071	10109.04
899.386	10032.66
899.7	10026.33
900.015	9946.33
900.33	9879.44
900.644	9840.57
900.959	9894.13
901.273	9834.47
901.588	9829.73
901.902	9744.98
902.216	9732.55
902.531	9698.43
902.845	9597.42
903.159	9643.29
903.473	9572.79
903.787	9595.61
904.101	9479.45
904.415	9478.1
904.729	9449.62
905.042	9457.53
905.356	9358.78
905.67	9305
905.984	9333.02
906.297	9278.56
906.611	9205.79
906.924	9189.07
907.237	9184.55
907.551	9186.35
907.864	9168.05
908.177	9116.98
908.491	9033.14
908.804	9091.89
909.117	8937.1
909.43	8918.11
909.743	8831.34
910.056	8900.94
910.368	8824.33
910.681	8750.66
910.994	8700.27
911.307	8769.42
911.619	8644.9
911.932	8673.15
912.244	8569.87
912.557	8578.46
912.869	8533.94
913.181	8498.24
913.494	8498.24
913.806	8429.54
914.118	8379.6
914.43	8385.92
914.742	8313.84
915.054	8260.05
915.366	8286.49
915.678	8233.84
915.99	8165.82
916.302	8117.23
916.613	8161.97
916.925	8022.09
917.236	8086.04
917.548	8034.07
917.859	7959.72
918.171	7934.18
918.482	7951.13
918.794	7937.57
919.105	7924.69
919.416	7809.67
919.727	7817.35
920.038	7783.68
920.349	7678.37
920.66	7671.37
920.971	7617.36
921.282	7657.13
921.593	7565.15
921.903	7558.6
922.214	7538.49
922.525	7449
922.835	7453.29
923.146	7444.71
923.456	7376.68
923.767	7364.48
924.077	7364.03
924.387	7293.52
924.697	7235.67
925.008	7224.37
925.318	7168.55
925.628	7192.28
925.938	7167.88
926.248	7120.42
926.558	7052.63
926.867	7082.91
927.177	7061.44
927.487	6974.89
927.796	6942.8
928.106	6846.98
928.416	6876.36
928.725	6851.5
929.034	6855.79
929.344	6781.9
929.653	6800.43
929.962	6745.51
930.271	6694.22
930.581	6717.49
930.89	6661.45
931.199	6639.98
931.508	6628.23
931.817	6606.99
932.125	6563.37
932.434	6489.02
932.743	6410.83
933.051	6425.98
933.36	6441.12
933.669	6362.02
933.977	6385.3
934.286	6323.15
934.594	6328.58
934.902	6237.96
935.21	6270.72
935.519	6260.78
935.827	6278.18
936.135	6208.81
936.443	6155.47
936.751	6106.21
937.059	6147.34
937.367	6058.98
937.674	6094.46
937.982	6047.45
938.29	6065.76
938.597	5934.24
938.905	5933.78
939.213	5896.5
939.52	5877.51
939.827	5902.83
940.135	5823.28
940.442	5857.63
940.749	5833.22
941.056	5768.59
941.363	5744.64
941.67	5727.01
941.977	5648.37
942.284	5621.25
942.591	5645.2
942.898	5620.8
943.205	5586.45
943.511	5556.85
943.818	5574.7
944.125	5567.69
944.431	5480.24
944.738	5473.01
945.044	5475.72
945.35	5409.96
945.657	5365.21
945.963	5388.71
946.269	5394.59
946.575	5319.56
946.881	5327.02
947.187	5265.1
947.493	5272.33
947.799	5254.71
948.105	5213.58
948.41	5181.49
948.716	5149.4
949.022	5117.31
949.327	5167.03
949.633	5119.57
949.938	5110.08
950.244	5058.33
950.549	5007.03
950.854	5006.35
951.16	5005
951.465	4989.85
951.77	4954.83
952.075	4907.82
952.38	4936.75
952.685	4911.89
952.99	4883.19
953.294	4872.8
953.599	4806.13
953.904	4847.71
954.209	4746.47
954.513	4759.8
954.818	4716.42
955.122	4701.5
955.426	4706.47
955.731	4654.95
956.035	4637.77
956.339	4626.02
956.643	4588.51
956.948	4634.84
957.252	4514.84
957.556	4565.23
957.86	4556.42
958.163	4515.74
958.467	4483.2
958.771	4468.74
959.075	4451.34
959.378	4402.3
959.682	4430.1
959.985	4388.97
960.289	4383.32
960.592	4401.17
960.896	4346.93
961.199	4321.62
961.502	4327.5
961.805	4258.8
962.108	4237.78
962.411	4292.47
962.714	4221.97
963.017	4222.87
963.32	4236.43
963.623	4172.48
963.926	4166.83
964.228	4166.15
964.531	4153.04
964.833	4143.32
965.136	4077.56
965.438	4059.71
965.741	4049.09
966.043	4008.64
966.345	4024.23
966.648	4010.9
966.95	3981.52
967.252	3957.11
967.554	3936.32
967.856	3938.81
968.158	3917.79
968.46	3906.95
968.761	3866.49
969.063	3868.3
969.365	3834.86
969.666	3839.6
969.968	3796.67
970.269	3754.86
970.571	3768.64
970.872	3728.19
971.174	3759.15
971.475	3747.85
971.776	3724.35
972.077	3669.89
972.378	3675.31
972.679	3684.35
972.98	3671.7
973.281	3618.82
973.582	3650.68
973.883	3595.77
974.183	3565.71
974.484	3550.12
974.785	3521.87
975.085	3536.79
975.386	3531.81
975.686	3524.36
975.986	3504.92
976.287	3463.79
976.587	3451.14
976.887	3453.62
977.187	3404.81
977.487	3429.44
977.787	3364.81
978.087	3402.1
978.387	3354.87
978.687	3382.89
978.987	3313.74
979.286	3293.85
979.586	3284.14
979.885	3310.35
980.185	3282.55
980.484	3258.37
980.784	3244.14
981.083	3244.59
981.382	3193.52
981.682	3213.18
981.981	3170.02
982.28	3159.62
982.579	3180.41
982.878	3169.11
983.177	3124.14
983.475	3109.9
983.774	3136.12
984.073	3089.79
984.372	3096.35
984.67	3079.4
984.969	3096.57
985.267	3083.92
985.566	3020.41
985.864	2991.72
986.162	2988.33
986.461	3004.6
986.759	2961.43
987.057	2938.84
987.355	2917.37
987.653	2924.82
987.951	2925.5
988.249	2874.88
988.547	2878.27
988.844	2859.74
989.142	2836.92
989.44	2844.83
989.737	2857.26
990.035	2793.3
990.332	2826.3
990.63	2781.55
990.927	2770.7
991.224	2773.64
991.521	2726.41
991.819	2750.14
992.116	2746.07
992.413	2720.54
992.71	2712.17
993.006	2690.25
993.303	2686.64
993.6	2631.72
993.897	2674.44
994.193	2650.93
994.49	2624.04
994.787	2608
995.083	2607.09
995.379	2559.86
995.676	2546.98
995.972	2557.38
996.268	2568
996.565	2506.53
996.861	2528
997.157	2506.08
997.453	2507.66
997.749	2450.03
998.044	2448.9
998.34	2448.23
998.636	2444.84
998.932	2424.5
999.227	2411.39
999.523	2405.29
999.818	2381.56
1000.114	2370.26
1000.409	2363.03
1000.704	2363.03
1001	2382.01
1001.295	2351.28
1001.59	2352.64
1001.885	2310.6
1002.18	2299.76
1002.475	2274.45
1002.77	2258.18
1003.065	2252.98
1003.359	2222.92
1003.654	2210.72
1003.949	2208.23
1004.243	2181.11
1004.538	2172.08
1004.832	2178.4
1005.127	2187.89
1005.421	2185.41
1005.715	2156.26
1006.009	2125.07
1006.304	2126.65
1006.598	2110.38
1006.892	2099.31
1007.186	2088.69
1007.48	2062.02
1007.773	2087.78
1008.067	2054.79
1008.361	1999.65
1008.655	2051.63
1008.948	2040.78
1009.242	2007.33
1009.535	1984.06
1009.829	1991.06
1010.122	1969.37
1010.415	1970.73
1010.708	1956.04
1011.001	1936.6
1011.295	1943.61
1011.588	1911.52
1011.881	1907.22
1012.173	1891.63
1012.466	1864.97
1012.759	1903.83
1013.052	1872.87
1013.344	1856.38
1013.637	1830.62
1013.93	1846.43
1014.222	1848.02
1014.514	1811.18
1014.807	1811.63
1015.099	1781.8
1015.391	1759.21
1015.683	1758.3
1015.976	1752.65
1016.268	1737.96
1016.56	1723.95
1016.851	1715.59
1017.143	1708.36
1017.435	1699.32
1017.727	1653.9
1018.018	1696.61
1018.31	1677.4
1018.602	1648.93
1018.893	1635.82
1019.185	1606.21
1019.476	1641.47
1019.767	1594.69
1020.058	1597.85
1020.35	1567.35
1020.641	1577.74
1020.932	1581.58
1021.223	1530.06
1021.514	1561.92
1021.804	1543.62
1022.095	1505.2
1022.386	1509.95
1022.677	1502.94
1022.967	1483.51
1023.258	1499.78
1023.548	1455.71
1023.839	1464.3
1024.129	1463.85
1024.419	1463.17
1024.709	1416.39
1025	1428.37
1025.29	1407.8
1025.58	1393.79
1025.87	1372.55
1026.16	1388.59
1026.449	1371.19
1026.739	1379.55
1027.029	1369.84
1027.319	1348.37
1027.608	1361.25
1027.898	1325.77
1028.187	1327.13
1028.477	1330.74
1028.766	1298.2
1029.055	1293.23
1029.344	1268.82
1029.634	1264.08
1029.923	1280.35
1030.212	1274.02
1030.501	1278.54
1030.79	1235.15
1031.078	1257.07
1031.367	1234.25
1031.656	1225.66
1031.945	1205.55
1032.233	1229.73
1032.522	1192.67
1032.81	1182.05
1033.099	1173.23
1033.387	1166.45
1033.675	1187.69
1033.963	1165.1
1034.251	1157.41
1034.54	1132.78
1034.828	1132.1
1035.116	1118.77
1035.403	1119.22
1035.691	1129.17
1035.979	1115.83
1036.267	1109.5
1036.554	1093.69
1036.842	1102.5
1037.129	1089.39
1037.417	1076.96
1037.704	1055.04
1037.992	1021.15
1038.279	1043.29
1038.566	1048.26
1038.853	1048.26
1039.14	1048.26
