Data from hue_110_FLMS001491_00020.txt Node
Date: Tue Feb 07 17:00:58 GMT 2017
User: dcchb
Spectrometer: FLMS00149
Trigger mode: 0
Integration Time (sec): 2.000000E-2
Scans to average: 10
Electric dark correction enabled: true
Nonlinearity correction enabled: false
Boxcar width: 0
XAxis mode: Wavelengths
Number of Pixels in Spectrum: 2048
>>>>>Begin Spectral Data<<<<<
341.393	-31.43
341.776	-31.43
342.16	-31.43
342.543	-46.57
342.927	-75.49
343.31	-69.62
343.693	-65.1
344.077	-66.23
344.46	-60.58
344.843	-36.62
345.226	-42.5
345.61	-47.02
345.993	-8.6
346.376	-13.57
346.759	14
347.142	34.11
347.525	46.54
347.908	54.67
348.291	63.26
348.674	95.58
349.057	101.68
349.44	119.98
349.823	132.86
350.206	163.82
350.588	195.69
350.971	227.55
351.354	215.12
351.737	226.19
352.119	249.02
352.502	267.32
352.884	288.34
353.267	303.25
353.65	321.11
354.032	286.53
354.414	293.31
354.797	309.13
355.179	338.06
355.562	310.71
355.944	296.02
356.326	325.4
356.709	351.39
357.091	317.04
357.473	344.38
357.855	315.68
358.238	342.8
358.62	343.25
359.002	337.38
359.384	344.61
359.766	346.42
360.148	341.9
360.53	325.63
360.912	347.77
361.294	319.75
361.676	333.08
362.057	336.7
362.439	331.73
362.821	337.15
363.203	316.59
363.584	322.69
363.966	312.07
364.348	340.77
364.729	322.69
365.111	310.03
365.493	308
365.874	295.57
366.256	311.39
366.637	308.23
367.019	302.12
367.4	312.75
367.781	309.58
368.163	313.2
368.544	301.45
368.925	320.43
369.306	296.48
369.688	310.49
370.069	320.2
370.45	317.94
370.831	308.45
371.212	315.46
371.593	307.55
371.974	320.43
372.355	322.46
372.736	310.71
373.117	315.91
373.498	321.11
373.879	296.7
374.26	318.62
374.641	329.47
375.021	328.79
375.402	316.14
375.783	324.95
376.163	333.08
376.544	312.07
376.925	324.5
377.305	331.73
377.686	333.99
378.066	311.84
378.447	320.2
378.827	331.05
379.208	336.02
379.588	343.71
379.968	302.8
380.349	340.99
380.729	324.72
381.109	341.67
381.489	324.05
381.87	348.9
382.25	340.32
382.63	354.33
383.01	334.67
383.39	329.02
383.77	345.97
384.15	358.85
384.53	340.99
384.91	355.23
385.29	343.93
385.67	354.33
386.049	347.77
386.429	353.87
386.809	342.35
387.189	364.95
387.568	350.49
387.948	362.46
388.328	340.99
388.707	352.97
389.087	358.85
389.466	375.12
389.846	363.59
390.225	359.52
390.605	362.91
390.984	375.57
391.363	372.18
391.743	364.72
392.122	360.88
392.501	336.47
392.881	384.38
393.26	392.07
393.639	376.47
394.018	352.74
394.397	360.88
394.776	382.8
395.155	376.7
395.534	386.42
395.913	367.21
396.292	395.23
396.671	376.02
397.05	388.45
397.429	391.39
397.808	390.71
398.186	376.25
398.565	401.11
398.944	386.42
399.323	390.71
399.701	392.74
400.08	389.58
400.458	384.83
400.837	398.17
401.215	389.35
401.594	407.66
401.972	392.97
402.351	394.55
402.729	404.04
403.107	417.15
403.486	405.85
403.864	398.85
404.242	410.6
404.62	416.25
404.999	390.48
405.377	423.93
405.755	413.76
406.133	419.18
406.511	413.99
406.889	420.09
407.267	411.5
407.645	441.1
408.023	439.07
408.401	444.27
408.779	450.6
409.156	465.06
409.534	446.75
409.912	458.5
410.29	468.9
410.667	459.86
411.045	468.67
411.422	466.64
411.8	463.7
412.178	466.64
412.555	469.35
412.933	464.61
413.31	497.37
413.687	483.81
414.065	502.35
414.442	483.36
414.819	487.2
415.197	508
415.574	479.07
415.951	488.11
416.328	486.75
416.705	497.37
417.082	502.12
417.46	498.73
417.837	516.36
418.214	505.06
418.591	517.71
418.967	517.49
419.344	537.6
419.721	540.54
420.098	547.09
420.475	542.57
420.852	525.17
421.228	521.55
421.605	530.59
421.982	545.51
422.358	535.79
422.735	560.42
423.111	550.25
423.488	546.64
423.864	569.69
424.241	545.96
424.617	554.55
424.994	565.17
425.37	543.25
425.746	578.28
426.123	570.37
426.499	585.96
426.875	583.93
427.251	570.14
427.627	591.61
428.003	599.52
428.379	611.72
428.756	584.83
429.132	631.83
429.507	609.46
429.883	602.68
430.259	652.62
430.635	620.31
431.011	627.77
431.387	632.51
431.763	649.01
432.138	637.94
432.514	655.56
432.89	660.08
433.265	672.96
433.641	679.29
434.016	690.36
434.392	693.98
434.767	692.62
435.143	718.84
435.518	719.74
435.894	715.67
436.269	716.58
436.644	723.13
437.02	734.88
437.395	738.72
437.77	754.77
438.145	723.81
438.52	755.67
438.895	742.57
439.271	759.51
439.646	783.02
440.021	786.18
440.395	766.29
440.77	787.76
441.145	795.67
441.52	808.78
441.895	805.61
442.27	791.83
442.645	828.66
443.019	822.79
443.394	794.54
443.769	808.55
444.143	817.14
444.518	826.18
444.892	821.43
445.267	838.16
445.641	842.9
446.016	853.3
446.39	848.55
446.764	845.84
447.139	853.3
447.513	840.19
447.887	847.65
448.262	887.42
448.636	875.9
449.01	877.02
449.384	897.14
449.758	903.92
450.132	914.09
450.506	894.2
450.88	928.32
451.254	922
451.628	939.62
452.002	962.45
452.376	936.23
452.75	959.51
453.123	956.12
453.497	983.24
453.871	991.15
454.244	968.77
454.618	977.59
454.992	1022.56
455.365	1007.42
455.739	1041.54
456.112	1050.35
456.486	1051.48
456.859	1065.72
457.232	1092.84
457.606	1086.74
457.979	1073.86
458.352	1104.59
458.725	1105.27
459.099	1127.64
459.472	1152.27
459.845	1154.53
460.218	1163.57
460.591	1199.73
460.964	1225.26
461.337	1205.38
461.71	1223
462.083	1232.04
462.456	1241.99
462.829	1258.03
463.201	1298.26
463.574	1309.1
463.947	1330.35
464.32	1341.65
464.692	1367.86
465.065	1370.12
465.438	1387.97
465.81	1406.95
466.183	1442.66
466.555	1459.38
466.928	1461.19
467.3	1492.83
467.672	1523.34
468.045	1557.01
468.417	1569.89
468.789	1573.28
469.161	1593.84
469.534	1633.16
469.906	1653.5
470.278	1689.43
470.65	1719.26
471.022	1717.23
471.394	1792.26
471.766	1799.49
472.138	1822.76
472.51	1898.69
472.882	1951.57
473.253	1950.67
473.625	1993.38
473.997	2041.74
474.369	2082.42
474.74	2109.76
475.112	2174.84
475.484	2210.1
475.855	2244.67
476.227	2298.23
476.598	2379.36
476.97	2427.72
477.341	2486.02
477.713	2549.52
478.084	2603.08
478.455	2689.41
478.827	2756.75
479.198	2835.17
479.569	2895.95
479.94	3021.15
480.311	3047.82
480.682	3123.29
481.053	3218.66
481.424	3327.36
481.795	3364.64
482.166	3486.22
482.537	3554.92
482.908	3666.1
483.279	3786.33
483.65	3871.3
484.021	4001.46
484.391	4101.12
484.762	4140.22
485.133	4286.88
485.503	4380.21
485.874	4549.7
486.244	4615.01
486.615	4709.92
486.985	4868.78
487.356	5032.4
487.726	5058.84
488.097	5241.88
488.467	5313.07
488.837	5476
489.207	5640.06
489.578	5758.7
489.948	5830.79
490.318	6005.7
490.688	6111.24
491.058	6275.53
491.428	6397.11
491.798	6538.57
492.168	6726.59
492.538	6850.2
492.908	6925
493.278	7088.84
493.648	7141.72
494.017	7326.8
494.387	7517.98
494.757	7563.85
495.126	7712.33
495.496	7853.56
495.866	7931.08
496.235	8107.12
496.605	8235.7
496.974	8344.17
497.344	8491.97
497.713	8607.67
498.082	8632.08
498.452	8851.28
498.821	8959.75
499.19	9047.43
499.559	9148.67
499.928	9287.65
500.298	9321.32
500.667	9528.55
501.036	9554.08
501.405	9668.21
501.774	9672.5
502.143	9851.48
502.512	9936.22
502.88	10015.54
503.249	10108.65
503.618	10134.18
503.987	10182.99
504.356	10431.12
504.724	10497.11
505.093	10581.4
505.462	10578.01
505.83	10687.61
506.199	10755.86
506.567	10997.21
506.936	10924.44
507.304	11054.61
507.672	11110.2
508.041	11161.95
508.409	11253.02
508.777	11370.31
509.145	11452.11
509.514	11507.25
509.882	11635.16
510.25	11614.6
510.618	11625.89
510.986	11725.78
511.354	11794.48
511.722	11874.93
512.09	11973.23
512.458	12030.18
512.826	12111.76
513.193	12076.73
513.561	12147.01
513.929	12234.01
514.297	12327.8
514.664	12288.25
515.032	12369.38
515.4	12493.67
515.767	12505.87
516.135	12540.9
516.502	12443.95
516.869	12685.08
517.237	12693.89
517.604	12618.19
517.972	12745.41
518.339	12790.84
518.706	12845.98
519.073	12853.66
519.44	12898.18
519.808	13022.02
520.175	12890.72
520.542	13040.32
520.909	13115.12
521.276	13104.73
521.643	13170.94
522.009	13243.71
522.376	13278.51
522.743	13304.27
523.11	13420.42
523.477	13483.02
523.843	13535.68
524.21	13619.74
524.577	13587.43
524.943	13558.73
525.31	13628.33
525.676	13703.81
526.043	13741.32
526.409	13730.47
526.776	13786.29
527.142	13825.39
527.508	13869.68
527.874	13969.11
528.241	13830.58
528.607	13879.17
528.973	13902.9
529.339	13873.29
529.705	14000.07
530.071	13996.23
530.437	13969.11
530.803	14073.29
531.169	14046.62
531.535	14001.65
531.901	13955.78
532.267	14004.59
532.632	14100.41
532.998	14034.42
533.364	14045.27
533.73	13970.47
534.095	14080.07
534.461	14002.78
534.826	14017.02
535.192	14051.59
535.557	14092.27
535.923	14056.79
536.288	14001.2
536.653	14016.79
537.019	13981.77
537.384	13927.53
537.749	13978.15
538.114	13950.13
538.479	13882.11
538.845	13900.64
539.21	13878.72
539.575	13887.53
539.94	13875.33
540.305	13888.43
540.67	13747.65
541.034	13722.11
541.399	13797.14
541.764	13791.49
542.129	13693.19
542.494	13709
542.858	13610.93
543.223	13616.8
543.587	13653.86
543.952	13558.95
544.316	13616.58
544.681	13487.09
545.045	13517.37
545.41	13514.66
545.774	13510.37
546.138	13445.06
546.503	13441.67
546.867	13356.7
547.231	13426.07
547.595	13317.15
547.959	13284.61
548.324	13247.77
548.688	13317.38
549.052	13197.83
549.416	13170.26
549.779	13145.85
550.143	13145.85
550.507	13215.01
550.871	13213.88
551.235	13050.94
551.599	13133.2
551.962	13090.72
552.326	13002.81
552.689	13115.57
553.053	12987.22
553.417	13001.45
553.78	13059.3
554.143	12932.98
554.507	13074.67
554.87	13003.94
555.234	13067.21
555.597	12847.78
555.96	12858.63
556.323	12944.5
556.686	12887.56
557.05	12899.08
557.413	12822.93
557.776	12868.57
558.139	12985.41
558.502	12894.56
558.865	12881.23
559.228	12908.57
559.59	12928.91
559.953	12900.21
560.316	13004.62
560.679	12957.39
561.041	12889.59
561.404	12963.26
561.767	13057.95
562.129	12903.15
562.492	12981.79
562.854	13001
563.217	13020.21
563.579	12946.54
563.941	12988.34
564.304	13054.78
564.666	13065.86
565.028	12985.63
565.39	13039.19
565.753	13071.73
566.115	13158.96
566.477	13050.72
566.839	13137.72
567.201	13159.41
567.563	13075.8
567.925	13225.4
568.287	13164.16
568.648	13093.43
569.01	13198.51
569.372	13254.55
569.734	13143.82
570.095	13303.14
570.457	13328
570.819	13276.47
571.18	13271.5
571.542	13327.55
571.903	13328.45
572.265	13265.4
572.626	13239.86
572.987	13347.88
573.349	13363.93
573.71	13379.07
574.071	13347.66
574.432	13387.88
574.794	13462.68
575.155	13444.15
575.516	13452.51
575.877	13436.02
576.238	13437.15
576.599	13482.57
576.96	13425.85
577.32	13465.85
577.681	13508.11
578.042	13475.56
578.403	13479.18
578.763	13495.45
579.124	13489.35
579.485	13612.74
579.845	13561.21
580.206	13412.29
580.566	13411.16
580.927	13510.14
581.287	13545.39
581.648	13515.11
582.008	13577.71
582.368	13498.84
582.728	13481.67
583.089	13498.16
583.449	13510.59
583.809	13407.99
584.169	13431.27
584.529	13476.02
584.889	13557.37
585.249	13420.88
585.609	13480.99
585.969	13433.76
586.329	13311.95
586.688	13467.2
587.048	13400.54
587.408	13331.84
587.768	13402.8
588.127	13426.3
588.487	13299.98
588.846	13411.16
589.206	13370.71
589.565	13370.48
589.925	13393.31
590.284	13351.5
590.643	13407.54
591.003	13371.84
591.362	13424.72
591.721	13312.18
592.08	13328.9
592.44	13297.94
592.799	13311.5
593.158	13317.15
593.517	13255.23
593.876	13281.22
594.235	13267.89
594.593	13289.35
594.952	13273.54
595.311	13264.72
595.67	13252.74
596.029	13353.31
596.387	13320.09
596.746	13308.34
597.104	13187.89
597.463	13247.55
597.822	13326.87
598.18	13229.24
598.538	13129.58
598.897	13248.68
599.255	13157.15
599.613	13357.37
599.972	13253.87
600.33	13285.74
600.688	13190.83
601.046	13233.54
601.404	13230.6
601.762	13246.64
602.12	13304.04
602.478	13218.4
602.836	13310.82
603.194	13193.76
603.552	13295.46
603.91	13201.22
604.268	13269.47
604.625	13168
604.983	13222.69
605.341	13192.18
605.698	13242.12
606.056	13310.14
606.413	13196.02
606.771	13366.87
607.128	13275.34
607.485	13275.12
607.843	13294.33
608.2	13333.19
608.557	13358.5
608.914	13251.61
609.272	13368.22
609.629	13341.33
609.986	13398.5
610.343	13375
610.7	13430.59
611.057	13291.39
611.414	13340.43
611.771	13387.43
612.127	13375.23
612.484	13445.51
612.841	13440.76
613.198	13453.64
613.554	13417.49
613.911	13473.76
614.267	13516.69
614.624	13473.98
614.98	13432.4
615.337	13544.94
615.693	13487.31
616.05	13492.51
616.406	13551.49
616.762	13532.51
617.118	13478.73
617.475	13547.2
617.831	13669.68
618.187	13643.47
618.543	13640.98
618.899	13694.09
619.255	13701.55
619.611	13630.59
619.967	13669.91
620.323	13727.31
620.678	13610.93
621.034	13607.09
621.39	13569.35
621.746	13539.06
622.101	13741.32
622.457	13613.64
622.812	13643.24
623.168	13626.07
623.523	13620.64
623.879	13683.69
624.234	13701.09
624.589	13717.59
624.945	13597.59
625.3	13595.79
625.655	13590.81
626.01	13719.17
626.365	13644.6
626.72	13603.7
627.075	13553.75
627.43	13620.42
627.785	13504.94
628.14	13607.76
628.495	13563.25
628.85	13610.02
629.205	13537.03
629.559	13606.86
629.914	13540.87
630.269	13526.41
630.623	13494.55
630.978	13535.9
631.332	13604.37
631.687	13611.15
632.041	13478.05
632.396	13560.99
632.75	13429.01
633.104	13501.1
633.459	13396.02
633.813	13458.62
634.167	13413.42
634.521	13447.99
634.875	13436.47
635.229	13434.43
635.583	13353.08
635.937	13319.64
636.291	13315.57
636.645	13388.79
636.999	13262.24
637.352	13324.61
637.706	13201.45
638.06	13351.27
638.413	13193.54
638.767	13198.73
639.121	13196.25
639.474	13168
639.828	13153.99
640.181	13224.5
640.534	13249.81
640.888	13119.19
641.241	13108.34
641.594	13148.34
641.947	13149.02
642.301	13162.13
642.654	13133.2
643.007	13152.41
643.36	13110.6
643.713	13099.08
644.066	13102.01
644.419	13039.64
644.771	12969.59
645.124	12946.09
645.477	12790.84
645.83	12747.22
646.182	12740.89
646.535	12678.97
646.888	12747.22
647.24	12605.53
647.593	12699.31
647.945	12612.31
648.298	12610.73
648.65	12544.29
649.002	12555.14
649.355	12707.22
649.707	12617.51
650.059	12724.17
650.411	12822.93
650.763	12875.81
651.115	12983.15
651.467	12949.48
651.819	12984.73
652.171	12913.09
652.523	12859.99
652.875	12890.49
653.227	12892.98
653.578	13030.6
653.93	12923.49
654.282	12881.23
654.633	12799.2
654.985	12846.43
655.337	12840.78
655.688	12885.3
656.039	13004.62
656.391	12892.75
656.742	12847.33
657.094	12954
657.445	12949.25
657.796	13004.84
658.147	12836.26
658.498	12932.75
658.849	12882.81
659.2	12979.08
659.551	12834.45
659.902	12952.41
660.253	12914.45
660.604	12866.31
660.955	12826.09
661.306	12956.26
661.656	12858.86
662.007	13008.91
662.358	13012.98
662.708	12913.77
663.059	12875.81
663.409	12839.2
663.76	12965.07
664.11	12979.08
664.461	12958.74
664.811	12985.86
665.161	13034.67
665.511	12954.45
665.862	13018.17
666.212	12954
666.562	12984.05
666.912	12991.28
667.262	12938.63
667.612	12921.23
667.962	12977.72
668.312	12956.26
668.662	13046.65
669.011	12984.28
669.361	12927.33
669.711	12921
670.06	12894.79
670.41	12940.89
670.76	12883.49
671.109	12889.82
671.459	12889.36
671.808	12930.95
672.157	12891.62
672.507	12829.03
672.856	12839.42
673.205	12879.42
673.554	12890.27
673.904	12844.62
674.253	12855.92
674.602	12836.03
674.951	12623.38
675.3	12549.71
675.649	12762.59
675.998	12704.74
676.346	12689.14
676.695	12718.07
677.044	12688.47
677.393	12757.16
677.741	12692.53
678.09	12684.4
678.438	12618.86
678.787	12657.28
679.135	12631.52
679.484	12561.46
679.832	12617.96
680.181	12583.38
680.529	12610.95
680.877	12601.69
681.225	12548.58
681.573	12563.95
681.922	12505.87
682.27	12445.76
682.618	12382.26
682.966	12423.84
683.314	12293.67
683.661	12293
684.009	12271.53
684.357	12294.58
684.705	12288.93
685.053	12261.58
685.4	12324.86
685.748	12158.31
686.095	12157.41
686.443	12174.13
686.79	12157.86
687.138	12187.24
687.485	12141.14
687.832	12140.01
688.18	12082.15
688.527	12002.83
688.874	11962.61
689.221	11991.53
689.568	11934.14
689.915	11938.88
690.262	11876.74
690.609	11827.25
690.956	11856.17
691.303	11701.15
691.65	11694.14
691.997	11709.51
692.344	11688.27
692.69	11627.25
693.037	11640.81
693.383	11521.49
693.73	11515.84
694.077	11447.59
694.423	11450.98
694.769	11408.95
695.116	11292.34
695.462	11357.65
695.808	11288.5
696.155	11312.68
696.501	11224.78
696.847	11158.34
697.193	11163.99
697.539	11139.35
697.885	11051.45
698.231	11015.97
698.577	11046.02
698.923	10964.9
699.269	10884.45
699.614	10827.95
699.96	10841.06
700.306	10814.16
700.651	10719.7
700.997	10748.18
701.342	10704.56
701.688	10637.67
702.033	10641.51
702.379	10638.12
702.724	10596.09
703.069	10577.56
703.415	10488.52
703.76	10448.98
704.105	10453.5
704.45	10420.95
704.795	10337.34
705.14	10260.06
705.485	10404.91
705.83	10195.2
706.175	10239.49
706.52	10202.43
706.865	10153.39
707.209	10145.48
707.554	10077.91
707.899	10129.66
708.243	10032.04
708.588	10056.44
708.932	9931.7
709.277	9931.25
709.621	9927.41
709.966	9883.57
710.31	9917.01
710.654	9840.41
710.998	9794.53
711.342	9868.43
711.687	9731.93
712.031	9725.61
712.375	9704.14
712.719	9696
713.063	9733.74
713.407	9689
713.75	9665.95
714.094	9655.78
714.438	9719.28
714.782	9560.41
715.125	9528.1
715.469	9546.63
715.812	9526.06
716.156	9536.68
716.499	9485.84
716.843	9550.92
717.186	9440.42
717.53	9530.36
717.873	9502.33
718.216	9406.97
718.559	9364.71
718.902	9329.68
719.246	9413.98
719.589	9373.07
719.932	9304.83
720.275	9312.06
720.617	9260.31
720.96	9346.86
721.303	9267.76
721.646	9324.26
721.989	9243.13
722.331	9333.3
722.674	9203.59
723.016	9296.01
723.359	9255.79
723.701	9324.94
724.044	9172.4
724.386	9131.5
724.729	9263.92
725.071	9194.55
725.413	9223.47
725.755	9144.15
726.097	9134.89
726.439	9163.59
726.782	9079.3
727.124	9178.73
727.465	9111.16
727.807	9091.05
728.149	9058.96
728.491	9047.88
728.833	9073.19
729.175	9075.68
729.516	9084.72
729.858	9035.68
730.199	9061.89
730.541	9063.25
730.882	9066.64
731.224	9077.04
731.565	8995.23
731.906	9037.04
732.248	9009.01
732.589	9046.53
732.93	9030.93
733.271	9015.79
733.612	9101.67
733.953	9057.15
734.294	9066.64
734.635	8997.26
734.976	9043.36
735.317	8985.51
735.658	8977.83
735.999	9046.98
736.339	8998.85
736.68	9059.63
737.021	9074.32
737.361	9072.74
737.702	9066.19
738.042	9035.91
738.383	9063.02
738.723	9115.9
739.063	9049.92
739.404	9147.54
739.744	9071.16
740.084	9060.76
740.424	9098.28
740.764	9100.31
741.104	9163.59
741.444	9166.75
741.784	9112.29
742.124	9188.9
742.464	9245.17
742.804	9149.35
743.143	9209.69
743.483	9223.7
743.823	9221.66
744.162	9202
744.502	9281.78
744.841	9247.43
745.181	9402.45
745.52	9321.32
745.86	9369.91
746.199	9418.04
746.538	9458.72
746.877	9475.89
747.216	9515.67
747.556	9553.18
747.895	9690.58
748.234	9659.62
748.573	9689.9
748.911	9801.08
749.25	9787.07
749.589	9869.56
749.928	9969.22
750.267	9978.93
750.605	10052.15
750.944	10102.55
751.283	10241.07
751.621	10324.69
751.96	10340.28
752.298	10435.42
752.636	10633.15
752.975	10664.34
753.313	10702.08
753.651	10886.25
753.989	10895.07
754.327	11060.26
754.666	11090.32
755.004	11294.6
755.342	11363.75
755.679	11500.47
756.017	11469.74
756.355	11709.28
756.693	11811.2
757.031	12082.61
757.368	12081.48
757.706	12182.94
758.044	12330.51
758.381	12518.53
758.719	12690.73
759.056	12780.67
759.394	12996.25
759.731	12976.82
760.068	13181.33
760.405	13331.61
760.743	13434.21
761.08	13662.9
761.417	13784.26
761.754	13909.9
762.091	14033.74
762.428	14196.22
762.765	14345.6
763.102	14505.59
763.438	14696.77
763.775	14732.48
764.112	14962.53
764.449	15092.02
764.785	15176.31
765.122	15320.49
765.458	15475.96
765.795	15640.25
766.131	15768.38
766.467	15908.27
766.804	16010.41
767.14	16122.5
767.476	16227.58
767.812	16304.19
768.148	16509.83
768.485	16593.22
768.821	16632.54
769.157	16710.73
769.492	16842.25
769.828	16985.98
770.164	16997.96
770.5	17087.9
770.836	17272.98
771.171	17234.79
771.507	17322.47
771.842	17354.33
772.178	17482.46
772.513	17603.14
772.849	17632.29
773.184	17683.36
773.519	17786.18
773.855	17721.78
774.19	17782.57
774.525	17923.36
774.86	17991.15
775.195	18013.52
775.53	18065.05
775.865	18079.51
776.2	18035.9
776.535	18042.68
776.87	17980.53
777.205	18107.53
777.539	18075.22
777.874	18229.79
778.209	18220.07
778.543	18228.66
778.878	18143.69
779.212	18217.81
779.547	18239.96
779.881	18249.45
780.215	18318.15
780.55	18355.89
780.884	18237.7
781.218	18281.09
781.552	18338.71
781.886	18196.34
782.22	18274.76
782.554	18228.66
782.888	18031.38
783.222	18060.75
783.556	18004.26
783.889	18100.53
784.223	18072.73
784.557	17978.5
784.89	18127.87
785.224	17921.1
785.557	17940.76
785.891	17926.07
786.224	17922
786.558	17985.95
786.891	17961.1
787.224	17765.85
787.557	17777.6
787.891	17846.52
788.224	17786.18
788.557	17945.73
788.89	17782.12
789.223	17765.62
789.556	17693.53
789.888	17619.64
790.221	17650.14
790.554	17497.15
790.887	17626.42
791.219	17445.4
791.552	17391.84
791.884	17362.24
792.217	17387.78
792.549	17396.36
792.882	17305.97
793.214	17315.46
793.546	17297.16
793.879	17182.81
794.211	17070.95
794.543	17207.89
794.875	17086.54
795.207	17237.27
795.539	17100.55
795.871	17060.33
796.203	16929.94
796.535	16874.8
796.867	16813.1
797.198	16779.43
797.53	16821.92
797.862	16725.2
798.193	16754.35
798.525	16656.72
798.856	16712.77
799.188	16587.8
799.519	16529.04
799.85	16506.22
800.182	16488.37
800.513	16487.24
800.844	16298.99
801.175	16411.53
801.506	16402.72
801.837	16241.59
802.168	16255.38
802.499	16229.16
802.83	16146.68
803.161	16116.62
803.491	16193.01
803.822	16064.87
804.153	15987.81
804.483	15952.11
804.814	15830.08
805.145	15892.22
805.475	15900.36
805.805	15796.41
806.136	15706.92
806.466	15782.4
806.796	15778.78
807.126	15715.73
807.457	15605.9
807.787	15677.99
808.117	15545.11
808.447	15512.35
808.777	15509.63
809.107	15438.68
809.436	15361.16
809.766	15303.54
810.096	15258.79
810.426	15259.7
810.755	15283.2
811.085	15316.65
811.414	15207.27
811.744	15212.69
812.073	15081.4
812.403	15083.21
812.732	15103.54
813.061	15109.87
813.39	14927.95
813.719	14914.85
814.049	15025.58
814.378	14975.19
814.707	14831.46
815.036	14844.34
815.365	14804.79
815.693	14761.63
816.022	14826.94
816.351	14738.36
816.68	14660.62
817.008	14733.16
817.337	14554.18
817.665	14475.76
817.994	14663.1
818.322	14475.54
818.651	14456.55
818.979	14365.71
819.307	14492.49
819.636	14467.18
819.964	14341.98
820.292	14427.18
820.62	14390.34
820.948	14376.78
821.276	14354.64
821.604	14359.61
821.932	14360.51
822.259	14375.2
822.587	14314.19
822.915	14234.41
823.243	14362.77
823.57	14287.07
823.898	14319.38
824.225	14329.33
824.553	14292.72
824.88	14298.82
825.207	14328.2
825.535	14299.72
825.862	14330.68
826.189	14353.96
826.516	14384.47
826.843	14380.85
827.17	14363.68
827.497	14387.18
827.824	14317.35
828.151	14332.72
828.478	14338.82
828.805	14400.96
829.131	14400.96
829.458	14343.79
829.785	14290.46
830.111	14290.23
830.438	14407.52
830.764	14329.55
831.09	14422.66
831.417	14214.75
831.743	14308.08
832.069	14346.5
832.395	14293.62
832.722	14369.1
833.048	14269.22
833.374	14284.36
833.7	14193.28
834.026	14250.91
834.351	14280.51
834.677	14245.94
835.003	14351.02
835.329	14173.85
835.654	14136.11
835.98	14135.21
836.306	14243.68
836.631	14166.39
836.956	14216.34
837.282	14217.47
837.607	14094.98
837.932	13999.84
838.258	13998.26
838.583	14068.09
838.908	13935.66
839.233	13888.21
839.558	13980.86
839.883	13847.31
840.208	13845.05
840.533	13810.47
840.858	13807.53
841.182	13841.66
841.507	13838.49
841.832	13750.81
842.156	13781.54
842.481	13761.88
842.805	13620.87
843.13	13613.87
843.454	13621.55
843.778	13549.91
844.103	13562.34
844.427	13506.98
844.751	13394.89
845.075	13530.48
845.399	13398.96
845.723	13343.14
846.047	13343.36
846.371	13250.94
846.695	13263.82
847.019	13052.07
847.343	13037.16
847.666	13005.75
847.99	13002.58
848.313	12941.34
848.637	12893.21
848.96	12874.45
849.284	12891.85
849.607	12744.74
849.931	12717.17
850.254	12669.94
850.577	12650.27
850.9	12522.59
851.223	12435.37
851.546	12381.81
851.869	12377.06
852.192	12390.85
852.515	12280.34
852.838	12237.18
853.161	12283.05
853.483	12173.45
853.806	12151.3
854.129	12137.75
854.451	12051.65
854.774	12024.08
855.096	11956.51
855.419	11948.15
855.741	11889.39
856.063	11819.11
856.385	11864.31
856.708	11783.4
857.03	11693.69
857.352	11723.52
857.674	11643.07
857.996	11673.13
858.318	11566.24
858.64	11508.84
858.961	11595.61
859.283	11506.8
859.605	11487.37
859.926	11497.31
860.248	11486.92
860.57	11367.14
860.891	11446.46
861.212	11260.03
861.534	11290.31
861.855	11261.38
862.176	11347.03
862.498	11246.24
862.819	11230.88
863.14	11211.89
863.461	11186.36
863.782	11161.95
864.103	11141.61
864.424	11174.16
864.745	11157.88
865.065	11079.69
865.386	10983.2
865.707	11038.34
866.027	10986.14
866.348	10982.52
866.668	10930.09
866.989	10973.93
867.309	10893.26
867.63	10884.22
867.95	10868.17
868.27	10857.55
868.59	10891
868.91	10854.62
869.23	10850.55
869.55	10813.49
869.87	10818.01
870.19	10787.05
870.51	10737.1
870.83	10911.56
871.15	10723.09
871.469	10712.47
871.789	10731
872.109	10631.57
872.428	10629.54
872.748	10687.84
873.067	10570.56
873.386	10563.1
873.706	10576.2
874.025	10572.36
874.344	10542.76
874.663	10596.09
874.982	10524
875.301	10488.3
875.62	10562.87
875.939	10486.04
876.258	10486.72
876.577	10440.62
876.896	10435.87
877.214	10393.61
877.533	10414.18
877.852	10343.22
878.17	10346.15
878.489	10347.96
878.807	10291.92
879.125	10305.03
879.444	10310
879.762	10327.17
880.08	10277.68
880.398	10203.11
880.716	10208.53
881.034	10165.59
881.352	10149.78
881.67	10133.96
881.988	10165.14
882.306	10146.84
882.624	10089.89
882.941	10049.89
883.259	10083.11
883.577	10037.46
883.894	9989.78
884.212	9978.93
884.529	9954.3
884.846	9862.78
885.164	9924.24
885.481	9875.66
885.798	9891.48
886.115	9819.84
886.432	9831.59
886.75	9808.99
887.067	9754.98
887.383	9711.59
887.7	9789.78
888.017	9698.26
888.334	9734.87
888.651	9631.37
888.967	9605.61
889.284	9612.16
889.6	9557.02
889.917	9488.55
890.233	9545.5
890.55	9477.25
890.866	9553.63
891.182	9396.57
891.498	9351.6
891.815	9399.96
892.131	9327.65
892.447	9237.26
892.763	9260.53
893.079	9244.49
893.395	9269.57
893.71	9259.18
894.026	9196.35
894.342	9156.58
894.657	9122.68
894.973	9038.17
895.289	9027.77
895.604	9071.61
895.92	8999.52
896.235	8916.59
896.55	8959.52
896.865	8903.71
897.181	8872.75
897.496	8851.5
897.811	8877.94
898.126	8792.75
898.441	8772.18
898.756	8689.47
899.071	8665.29
899.386	8694.45
899.7	8625.07
900.015	8571.96
900.33	8471.85
900.644	8538.52
900.959	8573.55
901.273	8497.39
901.588	8444.51
901.902	8424.17
902.216	8388.92
902.531	8380.78
902.845	8312.76
903.159	8320.67
903.473	8249.71
903.787	8190.05
904.101	8159.32
904.415	8209.94
904.729	8117.29
905.042	8069.38
905.356	8064.18
905.67	8010.17
905.984	8077.97
906.297	8004.3
906.611	7981.02
906.924	7913.22
907.237	7916.84
907.551	7877.52
907.864	7812.89
908.177	7839.55
908.491	7774.7
908.804	7723.85
909.117	7650.86
909.43	7616.51
909.743	7668.26
910.056	7599.79
910.368	7577.19
910.681	7548.49
910.994	7463.29
911.307	7472.33
911.619	7392.33
911.932	7395.05
912.244	7397.08
912.557	7366.57
912.869	7352.56
913.181	7258.78
913.494	7270.98
913.806	7178.33
914.118	7184.2
914.43	7141.04
914.742	7204.77
915.054	7146.46
915.366	7092
915.678	6998.67
915.99	7028.28
916.302	6966.13
916.613	6953.48
916.925	6897.43
917.236	6918.67
917.548	6885.68
917.859	6906.92
918.171	6799.36
918.482	6794.16
918.794	6721.17
919.105	6738.11
919.416	6703.09
919.727	6725.23
920.038	6658.79
920.349	6653.14
920.66	6622.86
920.971	6576.08
921.282	6594.39
921.593	6558.23
921.903	6476.43
922.214	6488.63
922.525	6504.22
922.835	6456.54
923.146	6354.4
923.456	6438.69
923.767	6320.5
924.077	6325.7
924.387	6257.9
924.697	6290.89
925.008	6275.98
925.318	6203.89
925.628	6190.56
925.938	6187.17
926.248	6127.96
926.558	6127.28
926.867	6095.87
927.177	6126.6
927.487	6041.18
927.796	6002.09
928.106	6000.28
928.416	5973.16
928.725	5929.1
929.034	5925.25
929.344	5952.15
929.653	5890.45
929.962	5884.58
930.271	5863.79
930.581	5774.3
930.89	5780.4
931.199	5713.28
931.508	5702.21
931.817	5766.61
932.125	5727.07
932.434	5636.9
932.743	5632.15
933.051	5670.8
933.36	5526.17
933.669	5555.09
933.977	5505.38
934.286	5487.07
934.594	5486.17
934.902	5432.84
935.21	5466.28
935.519	5444.59
935.827	5400.07
936.135	5334.31
936.443	5324.37
936.751	5349.45
937.059	5273.75
937.367	5301.09
937.674	5278.72
937.982	5288.89
938.29	5187.87
938.597	5229.45
938.905	5158.04
939.213	5156.23
939.52	5102.9
939.827	5151.26
940.135	5120.3
940.442	5117.82
940.749	5102.68
941.056	5070.81
941.363	5032.85
941.67	5023.36
941.977	4991.49
942.284	4952.17
942.591	4963.25
942.898	4895.68
943.205	4881.67
943.511	4862.23
943.818	4817.03
944.125	4802.8
944.431	4810.03
944.738	4796.92
945.044	4786.53
945.35	4731.61
945.657	4685.74
945.963	4693.65
946.269	4637.15
946.575	4643.93
946.881	4644.16
947.187	4578.85
947.493	4612.07
947.799	4541.56
948.105	4578.4
948.41	4532.97
948.716	4482.81
949.022	4500.88
949.327	4483.94
949.633	4459.53
949.938	4455.46
950.244	4384.73
950.549	4393.09
950.854	4391.96
951.16	4401.9
951.465	4346.31
951.77	4275.13
952.075	4325.97
952.38	4277.39
952.685	4283.49
952.99	4261.12
953.294	4257.73
953.599	4173.21
953.904	4183.38
954.209	4183.6
954.513	4188.35
954.818	4143.61
955.122	4133.21
955.426	4090.73
955.731	4087.79
956.035	4052.53
956.339	4086.43
956.643	4062.48
956.948	4027.22
957.252	4003.04
957.556	3991.52
957.86	4017.06
958.163	3989.71
958.467	3935.48
958.771	3928.92
959.075	3937.28
959.378	3887.12
959.682	3903.39
959.985	3885.31
960.289	3797.85
960.592	3872.43
960.896	3832.2
961.199	3808.02
961.502	3759.89
961.805	3764.63
962.108	3743.16
962.411	3763.73
962.714	3704.52
963.017	3712.2
963.32	3697.52
963.623	3672.66
963.926	3696.39
964.228	3641.92
964.531	3656.16
964.833	3617.74
965.136	3591.76
965.438	3584.07
965.741	3561.93
966.043	3542.04
966.345	3496.62
966.648	3476.96
966.95	3482.15
967.252	3484.41
967.554	3482.61
967.856	3428.82
968.158	3407.35
968.46	3452.32
968.761	3383.17
969.063	3386.34
969.365	3386.11
969.666	3381.82
969.968	3307.24
970.269	3351.99
970.571	3326.45
970.872	3314.25
971.174	3273.35
971.475	3323.29
971.776	3260.47
972.077	3267.47
972.378	3265.66
972.679	3216.62
972.98	3179.79
973.281	3189.51
973.582	3165.78
973.883	3199.45
974.183	3140.02
974.484	3193.12
974.785	3083.52
975.085	3104.99
975.386	3132.11
975.686	3093.46
975.986	3014.82
976.287	3034.93
976.587	3031.32
976.887	3046.91
977.187	3001.71
977.487	3019.34
977.787	2984.31
978.087	2978.44
978.387	2943.64
978.687	3012.34
978.987	2938.44
979.286	2914.71
979.586	2908.38
979.885	2898.21
980.185	2870.19
980.484	2897.31
980.784	2840.82
981.083	2857.99
981.382	2857.99
981.682	2854.37
981.981	2817.09
982.28	2786.81
982.579	2755.39
982.878	2752.91
983.177	2749.52
983.475	2741.61
983.774	2717.88
984.073	2701.61
984.372	2700.25
984.67	2696.64
984.969	2690.76
985.267	2660.25
985.566	2674.94
985.864	2649.86
986.162	2630.43
986.461	2644.89
986.759	2594.04
987.057	2578.22
987.355	2615.06
987.653	2581.16
987.951	2594.72
988.249	2526.47
988.547	2541.16
988.844	2538
989.142	2527.38
989.44	2502.52
989.737	2472.92
990.035	2502.29
990.332	2453.93
990.63	2457.32
990.927	2440.37
991.224	2422.52
991.521	2446.02
991.819	2409.19
992.116	2405.8
992.413	2427.27
992.71	2417.55
993.006	2377.55
993.303	2364.9
993.6	2353.6
993.897	2308.17
994.193	2327.83
994.49	2321.51
994.787	2300.04
995.083	2303.88
995.379	2283.54
995.676	2279.7
995.972	2252.36
996.268	2252.58
996.565	2225.24
996.861	2228.85
997.157	2227.95
997.453	2188.85
997.749	2178.23
998.044	2155.41
998.34	2189.76
998.636	2169.87
998.932	2152.92
999.227	2143.88
999.523	2110.44
999.818	2126.03
1000.114	2103.21
1000.409	2098.69
1000.704	2079.93
1001	2065.47
1001.295	2085.35
1001.59	2021.63
1001.885	2037.45
1002.18	2005.36
1002.475	2012.14
1002.77	1975.75
1003.065	1991.12
1003.359	1951.57
1003.654	2004.68
1003.949	1986.15
1004.243	1943.89
1004.538	1984.79
1004.832	1964.23
1005.127	1941.4
1005.421	1890.33
1005.715	1924.68
1006.009	1889.88
1006.304	1861.41
1006.598	1874.29
1006.892	1851.24
1007.186	1851.24
1007.48	1838.81
1007.773	1845.59
1008.067	1813.72
1008.361	1806.49
1008.655	1784.35
1008.948	1807.4
1009.242	1786.83
1009.535	1792.26
1009.829	1782.99
1010.122	1759.04
1010.415	1752.26
1010.708	1712.03
1011.001	1688.08
1011.295	1711.81
1011.588	1705.93
1011.881	1715.65
1012.173	1668.87
1012.466	1672.71
1012.759	1646.95
1013.052	1654.86
1013.344	1631.81
1013.637	1646.72
1013.93	1603.33
1014.222	1616.89
1014.514	1602.2
1014.807	1595.2
1015.099	1543.67
1015.391	1570.57
1015.683	1544.13
1015.976	1523.34
1016.268	1527.18
1016.56	1506.61
1016.851	1509.78
1017.143	1536.22
1017.435	1491.92
1017.727	1504.35
1018.018	1501.64
1018.31	1477.01
1018.602	1467.52
1018.893	1474.52
1019.185	1453.51
1019.476	1412.38
1019.767	1450.12
1020.058	1432.49
1020.35	1430.46
1020.641	1395.66
1020.932	1393.17
1021.223	1395.2
1021.514	1428.2
1021.804	1351.36
1022.095	1376.22
1022.386	1370.35
1022.677	1343.68
1022.967	1322.44
1023.258	1305.26
1023.548	1321.53
1023.839	1344.36
1024.129	1321.53
1024.419	1304.58
1024.709	1297.58
1025	1297.35
1025.29	1247.41
1025.58	1275.88
1025.87	1239.73
1026.16	1237.92
1026.449	1225.04
1026.739	1254.19
1027.029	1220.07
1027.319	1207.64
1027.608	1223.91
1027.898	1196.34
1028.187	1172.16
1028.477	1157.02
1028.766	1169.67
1029.055	1160.18
1029.344	1172.38
1029.634	1192.27
1029.923	1140.75
1030.212	1117.92
1030.501	1164.7
1030.79	1131.03
1031.078	1105.72
1031.367	1116.57
1031.656	1108.88
1031.945	1080.18
1032.233	1096.68
1032.522	1072.95
1032.81	1086.28
1033.099	1082.9
1033.387	1088.54
1033.675	1046.06
1033.963	1030.02
1034.251	1035.66
1034.54	1028.43
1034.828	1025.04
1035.116	1025.04
1035.403	1020.75
1035.691	991.15
1035.979	992.5
1036.267	1003.8
1036.554	978.27
1036.842	984.82
1037.129	974.2
1037.417	968.1
1037.704	981.43
1037.992	951.37
1038.279	930.81
1038.566	957.25
1038.853	957.25
1039.14	957.25
