Data from hue_220_FLMS001491_00083.txt Node
Date: Tue Feb 07 16:40:03 GMT 2017
User: dcchb
Spectrometer: FLMS00149
Trigger mode: 0
Integration Time (sec): 2.000000E-2
Scans to average: 10
Electric dark correction enabled: true
Nonlinearity correction enabled: false
Boxcar width: 0
XAxis mode: Wavelengths
Number of Pixels in Spectrum: 2048
>>>>>Begin Spectral Data<<<<<
341.393	-21.14
341.776	-21.14
342.16	-21.14
342.543	-62.72
342.927	-57.3
343.31	-79
343.693	-74.93
344.077	-54.14
344.46	-47.58
344.843	-37.87
345.226	-68.15
345.61	-23.4
345.993	-32.67
346.376	5.52
346.759	20.44
347.142	12.53
347.525	40.32
347.908	50.27
348.291	79.42
348.674	97.72
349.057	111.51
349.44	124.16
349.823	130.49
350.206	168.46
350.588	201.68
350.971	191.05
351.354	208.23
351.737	234.67
352.119	233.99
352.502	233.54
352.884	282.58
353.267	284.16
353.65	270.6
354.032	294.78
354.414	291.16
354.797	305.4
355.179	338.85
355.562	322.58
355.944	311.28
356.326	332.52
356.709	321.67
357.091	318.51
357.473	344.04
357.855	330.71
358.238	336.81
358.62	342.01
359.002	335.46
359.384	329.81
359.766	326.64
360.148	318.96
360.53	347.89
360.912	333.88
361.294	337.94
361.676	321.22
362.057	316.25
362.439	320.77
362.821	327.77
363.203	321.67
363.584	320.09
363.966	326.42
364.348	308.57
364.729	323.03
365.111	315.34
365.493	320.32
365.874	319.19
366.256	307.21
366.637	315.57
367.019	315.57
367.4	317.83
367.781	320.54
368.163	303.14
368.544	309.7
368.925	315.34
369.306	305.85
369.688	323.93
370.069	311.28
370.45	315.34
370.831	300.43
371.212	292.52
371.593	320.32
371.974	310.15
372.355	304.5
372.736	318.51
373.117	302.01
373.498	290.26
373.879	324.84
374.26	325.97
374.641	292.29
375.021	322.8
375.402	323.93
375.783	298.85
376.163	289.13
376.544	304.72
376.925	305.85
377.305	318.73
377.686	316.25
378.066	307.89
378.447	310.83
378.827	333.42
379.208	328
379.588	321.45
379.968	323.93
380.349	320.54
380.729	321.45
381.109	330.26
381.489	326.19
381.87	341.78
382.25	335.68
382.63	322.58
383.01	333.2
383.39	338.17
383.77	342.69
384.15	349.47
384.53	339.07
384.91	319.64
385.29	325.51
385.67	355.8
386.049	354.44
386.429	328.23
386.809	339.07
387.189	342.46
387.568	340.88
387.948	355.34
388.328	341.11
388.707	348.56
389.087	346.98
389.466	352.86
389.846	357.6
390.225	350.15
390.605	339.3
390.984	372.74
391.363	364.61
391.743	363.03
392.122	377.04
392.501	346.53
392.881	365.96
393.26	354.21
393.639	366.87
394.018	378.62
394.397	391.28
394.776	396.25
395.155	376.36
395.534	382.01
395.913	369.13
396.292	387.66
396.671	389.47
397.05	381.33
397.429	383.37
397.808	361.9
398.186	390.82
398.565	374.55
398.944	389.02
399.323	405.06
399.701	411.61
400.08	417.26
400.458	429.47
400.837	412.52
401.215	399.18
401.594	429.47
401.972	421.1
402.351	384.5
402.729	422.01
403.107	426.98
403.486	420.65
403.864	431.73
404.242	434.66
404.62	438.28
404.999	417.26
405.377	467.21
405.755	447.09
406.133	459.52
406.511	445.96
406.889	443.93
407.267	462.69
407.645	454.78
408.023	465.4
408.401	482.8
408.779	480.76
409.156	482.57
409.534	492.06
409.912	509.24
410.29	525.06
410.667	480.99
411.045	523.93
411.422	535
411.8	559.86
412.178	559.18
412.555	550.37
412.933	545.4
413.31	557.15
413.687	555.79
414.065	577.26
414.442	607.54
414.819	613.64
415.197	611.38
415.574	619.07
415.951	622.91
416.328	636.47
416.705	632.85
417.082	660.42
417.46	640.31
417.837	657.26
418.214	656.13
418.591	648.9
418.967	670.82
419.344	688.89
419.721	714.88
420.098	698.84
420.475	718.95
420.852	717.59
421.228	743.81
421.605	757.14
421.982	766.41
422.358	760.3
422.735	786.07
423.111	802.11
423.488	818.16
423.864	806.86
424.241	828.55
424.617	838.95
424.994	880.98
425.37	887.08
425.746	871.04
426.123	883.92
426.499	899.51
426.875	921.43
427.251	928.21
427.627	951.94
428.003	944.48
428.379	942.67
428.756	997.13
429.132	991.03
429.507	990.36
429.883	1022.9
430.259	1044.37
430.635	1043.24
431.011	1037.59
431.387	1088.66
431.763	1086.85
432.138	1113.52
432.514	1102.89
432.89	1139.73
433.265	1154.64
433.641	1197.81
434.016	1212.04
434.392	1201.88
434.767	1220.86
435.143	1222.67
435.518	1280.29
435.894	1305.15
436.269	1301.99
436.644	1339.5
437.02	1344.47
437.395	1351.25
437.77	1398.93
438.145	1395.54
438.52	1457.46
438.895	1461.08
439.271	1450.91
439.646	1502.66
440.021	1522.32
440.395	1518.03
440.77	1548.98
441.145	1530.68
441.52	1624.24
441.895	1615.2
442.27	1637.8
442.645	1624.46
443.019	1680.73
443.394	1623.56
443.769	1687.74
444.143	1676.44
444.518	1688.19
444.892	1703.78
445.267	1732.71
445.641	1734.97
446.016	1769.09
446.39	1785.59
446.764	1801.86
447.139	1788.98
447.513	1798.92
447.887	1772.03
448.262	1827.85
448.636	1822.88
449.01	1873.5
449.384	1877.56
449.758	1897.22
450.132	1904.68
450.506	1913.95
450.88	1939.03
451.254	1927.96
451.628	1958.92
452.002	2000.72
452.376	1997.33
452.75	2014.74
453.123	2077.78
453.497	2065.13
453.871	2082.76
454.244	2132.02
454.618	2111.91
454.992	2157.1
455.365	2168.86
455.739	2193.94
456.112	2210.44
456.486	2262.41
456.859	2274.16
457.232	2313.26
457.606	2307.16
457.979	2330.89
458.352	2371.34
458.725	2353.03
459.099	2394.16
459.472	2434.39
459.845	2429.87
460.218	2494.04
460.591	2528.39
460.964	2511.22
461.337	2560.48
461.71	2612.23
462.083	2592.57
462.456	2629.86
462.829	2642.74
463.201	2690.65
463.574	2722.29
463.947	2756.64
464.32	2797.09
464.692	2791.21
465.065	2832.11
465.438	2865.56
465.81	2885.22
466.183	2923.86
466.555	2988.49
466.928	2988.04
467.3	2980.59
467.672	3071.66
468.045	3084.09
468.417	3095.38
468.789	3118.89
469.161	3178.55
469.534	3219.68
469.906	3283.18
470.278	3338.99
470.65	3359.11
471.022	3393.91
471.394	3444.75
471.766	3452.66
472.138	3506.67
472.51	3583.73
472.882	3578.31
473.253	3628.25
473.625	3669.61
473.997	3757.51
474.369	3761.58
474.74	3820.79
475.112	3896.95
475.484	3895.59
475.855	3964.97
476.227	3990.5
476.598	4116.37
476.97	4152.76
477.341	4215.36
477.713	4242.47
478.084	4245.86
478.455	4392.07
478.827	4401.79
479.198	4525.86
479.569	4479.76
479.94	4624.38
480.311	4664.83
480.682	4719.07
481.053	4838.62
481.424	4867.09
481.795	4917.26
482.166	5027.76
482.537	5010.36
482.908	5163.8
483.279	5185.5
483.65	5222.56
484.021	5305.95
484.391	5415.32
484.762	5441.31
485.133	5454.42
485.503	5503.23
485.874	5647.18
486.244	5635.88
486.615	5714.52
486.985	5824.58
487.356	5869.32
487.726	5915.65
488.097	6039.71
488.467	6012.6
488.837	6190.67
489.207	6230.22
489.578	6244
489.948	6316.77
490.318	6398.12
490.688	6389.31
491.058	6502.07
491.428	6596.31
491.798	6598.34
492.168	6767.38
492.538	6754.72
492.908	6807.83
493.278	6873.14
493.648	6876.3
494.017	6965.79
494.387	7010.08
494.757	7060.7
495.126	7084.21
495.496	7070.2
495.866	7112.91
496.235	7202.85
496.605	7264.77
496.974	7263.64
497.344	7284.43
497.713	7358.78
498.082	7389.96
498.452	7439.45
498.821	7481.03
499.19	7483.52
499.559	7532.56
499.928	7574.59
500.298	7535.95
500.667	7623.85
501.036	7639.22
501.405	7718.99
501.774	7640.8
502.143	7774.36
502.512	7688.71
502.88	7789.05
503.249	7775.94
503.618	7828.82
503.987	7902.72
504.356	7909.95
504.724	7871.08
505.093	7953.34
505.462	7950.62
505.83	8012.32
506.199	8021.13
506.567	8083.73
506.936	8061.81
507.304	8076.5
507.672	8155.59
508.041	8122.15
508.409	8172.77
508.777	8209.83
509.145	8263.61
509.514	8180.9
509.882	8297.28
510.25	8264.97
510.618	8265.42
510.986	8283.95
511.354	8349.71
511.722	8397.39
512.09	8456.83
512.458	8296.38
512.826	8420.22
513.193	8424.51
513.561	8420.44
513.929	8530.95
514.297	8504.96
514.664	8495.24
515.032	8500.21
515.4	8551.29
515.767	8520.33
516.135	8566.2
516.502	8436.71
516.869	8595.35
517.237	8544.73
517.604	8570.04
517.972	8636.71
518.339	8629.25
518.706	8601.23
519.073	8586.99
519.44	8596.03
519.808	8644.17
520.175	8591.51
520.542	8619.31
520.909	8676.48
521.276	8661.11
521.643	8766.87
522.009	8725.52
522.376	8689.36
522.743	8727.1
523.11	8775.24
523.477	8811.62
523.843	8857.27
524.21	8826.31
524.577	8844.16
524.943	8862.01
525.31	8856.36
525.676	8889.13
526.043	8855.46
526.409	8864.72
526.776	8912.63
527.142	8908.57
527.508	8925.97
527.874	8927.1
528.241	8914.89
528.607	8870.83
528.973	8943.14
529.339	8958.28
529.705	8957.6
530.071	8973.42
530.437	8968.9
530.803	8976.81
531.169	9007.55
531.535	8902.01
531.901	8895.01
532.267	8899.98
532.632	8909.47
532.998	8915.57
533.364	8919.19
533.73	8892.07
534.095	8944.95
534.461	8857.27
534.826	8905.85
535.192	8861.33
535.557	8922.8
535.923	8880.54
536.288	8815.91
536.653	8846.19
537.019	8751.06
537.384	8811.84
537.749	8777.04
538.114	8763.48
538.479	8690.94
538.845	8689.59
539.21	8628.12
539.575	8726.88
539.94	8662.24
540.305	8678.51
540.67	8601.45
541.034	8608.69
541.399	8634.45
541.764	8624.96
542.129	8615.69
542.494	8565.52
542.858	8549.48
543.223	8463.38
543.587	8512.64
543.952	8466.99
544.316	8520.55
544.681	8456.83
545.045	8415.24
545.41	8458.86
545.774	8381.57
546.138	8369.6
546.503	8367.34
546.867	8301.35
547.231	8310.84
547.595	8263.84
547.959	8283.27
548.324	8302.25
548.688	8252.54
549.052	8227.68
549.416	8215.48
549.779	8212.09
550.143	8229.04
550.507	8089.83
550.871	8174.12
551.235	8072.88
551.599	8139.32
551.962	8037.85
552.326	8116.04
552.689	8087.12
553.053	7982.71
553.417	7985.88
553.78	8091.19
554.143	7954.47
554.507	8027.91
554.87	7995.82
555.234	7972.09
555.597	7981.13
555.96	7950.85
556.323	7936.39
556.686	7925.99
557.05	7944.07
557.413	7947.69
557.776	7877.41
558.139	7886.67
558.502	7934.58
558.865	7864.07
559.228	7923.05
559.59	7838.08
559.953	7917.63
560.316	7908.14
560.679	7873.79
561.041	7948.59
561.404	7904.3
561.767	7938.65
562.129	7834.92
562.492	7955.82
562.854	7905.2
563.217	7876.73
563.579	7916.73
563.941	7919.44
564.304	7954.47
564.666	7972.09
565.028	7895.26
565.39	7974.35
565.753	7978.65
566.115	7983.39
566.477	7981.13
566.839	7979.1
567.201	8018.87
567.563	7998.53
567.925	8050.96
568.287	8038.53
568.648	7999.66
569.01	8007.57
569.372	8071.75
569.734	8054.12
570.095	8142.26
570.457	8176.38
570.819	8133.9
571.18	8097.51
571.542	8145.87
571.903	8123.28
572.265	8109.04
572.626	8204.18
572.987	8170.73
573.349	8159.66
573.71	8265.64
574.071	8171.41
574.432	8235.14
574.794	8298.41
575.155	8243.95
575.516	8229.94
575.877	8286.66
576.238	8229.94
576.599	8323.95
576.96	8368.47
577.32	8312.65
577.681	8390.39
578.042	8383.38
578.403	8448.24
578.763	8368.24
579.124	8430.39
579.485	8490.72
579.845	8469.48
580.206	8488.46
580.566	8517.16
580.927	8527.56
581.287	8595.35
581.648	8452.53
582.008	8595.58
582.368	8552.42
582.728	8611.4
583.089	8570.72
583.449	8569.37
583.809	8622.47
584.169	8608.91
584.529	8580.89
584.889	8727.33
585.249	8625.18
585.609	8638.74
585.969	8654.56
586.329	8713.77
586.688	8670.83
587.048	8691.62
587.408	8699.31
587.768	8718.29
588.127	8751.51
588.487	8766.87
588.846	8746.54
589.206	8799.87
589.565	8794.22
589.925	8804.84
590.284	8813.2
590.643	8836.02
591.003	8891.39
591.362	8915.57
591.721	8888.45
592.08	8932.29
592.44	8913.31
592.799	8883.26
593.158	8960.54
593.517	8832.63
593.876	8958.28
594.235	8905.4
594.593	8957.38
594.952	8944.27
595.311	8982.24
595.67	8975
596.029	9018.62
596.387	9033.08
596.746	8975.68
597.104	9017.49
597.463	8927.32
597.822	9037.38
598.18	8995.12
598.538	8990.6
598.897	9033.99
599.255	8960.32
599.613	9073.98
599.972	9070.14
600.33	9071.72
600.688	9015.91
601.046	9045.28
601.404	9083.25
601.762	9126.41
602.12	9110.59
602.478	9077.15
602.836	9135.45
603.194	9091.16
603.552	9146.75
603.91	9104.49
604.268	9196.24
604.625	9094.55
604.983	9125.28
605.341	9114.66
605.698	9146.53
606.056	9174.09
606.413	9119.18
606.771	9174.09
607.128	9209.12
607.485	9149.24
607.843	9139.52
608.2	9213.87
608.557	9283.47
608.914	9207.77
609.272	9277.14
609.629	9257.26
609.986	9267.65
610.343	9225.62
610.7	9346.52
611.057	9269.69
611.414	9252.96
611.771	9293.87
612.127	9312.85
612.484	9219.29
612.841	9289.12
613.198	9289.8
613.554	9309.01
613.911	9324.37
614.267	9363.24
614.624	9379.51
614.98	9390.13
615.337	9379.74
615.693	9384.26
616.05	9313.75
616.406	9464.93
616.762	9342.9
617.118	9330.25
617.475	9365.5
617.831	9436.69
618.187	9422.9
618.543	9475.56
618.899	9400.98
619.255	9411.38
619.611	9422.68
619.967	9450.25
620.323	9452.51
620.678	9489.57
621.034	9365.05
621.39	9446.18
621.746	9417.93
622.101	9468.78
622.457	9493.86
622.812	9432.62
623.168	9499.06
623.523	9455.67
623.879	9535.89
624.234	9423.58
624.589	9427.65
624.945	9499.06
625.3	9495.67
625.655	9466.52
626.01	9485.73
626.365	9476.91
626.72	9445.95
627.075	9457.93
627.43	9483.92
627.785	9420.19
628.14	9407.54
628.495	9450.47
628.85	9501.77
629.205	9424.71
629.559	9453.41
629.914	9395.11
630.269	9400.08
630.623	9394.65
630.978	9394.43
631.332	9444.37
631.687	9446.18
632.041	9393.98
632.396	9385.84
632.75	9370.25
633.104	9362.56
633.459	9264.26
633.813	9296.58
634.167	9338.16
634.521	9271.27
634.875	9268.56
635.229	9205.28
635.583	9210.93
635.937	9285.73
636.291	9247.54
636.645	9270.82
636.999	9298.61
637.352	9224.72
637.706	9139.52
638.06	9229.23
638.413	9163.47
638.767	9157.37
639.121	9219.97
639.474	9116.47
639.828	9124.6
640.181	9107.2
640.534	9157.15
640.888	9084.61
641.241	9040.99
641.594	9106.98
641.947	9099.29
642.301	9033.53
642.654	9124.6
643.007	9064.95
643.36	9072.85
643.713	9033.76
644.066	9083.7
644.419	9038.05
644.771	8981.11
645.124	8918.28
645.477	8861.33
645.83	8814.78
646.182	8899.3
646.535	8822.92
646.888	8821.11
647.24	8754.44
647.593	8802.13
647.945	8721.23
648.298	8717.38
648.65	8728.46
649.002	8655.24
649.355	8749.93
649.707	8737.04
650.059	8831.51
650.411	8960.09
650.763	8886.87
651.115	8966.42
651.467	8895.46
651.819	8873.09
652.171	8925.74
652.523	8909.24
652.875	8907.21
653.227	8834.89
653.578	8924.38
653.93	8969.58
654.282	8898.62
654.633	8887.32
654.985	8937.72
655.337	8903.59
655.688	8907.21
656.039	8928.9
656.391	8854.78
656.742	8886.42
657.094	8951.5
657.445	8957.83
657.796	8923.93
658.147	8900.88
658.498	8971.61
658.849	8905.18
659.2	8977.26
659.551	8931.84
659.902	9009.35
660.253	8981.56
660.604	9002.35
660.955	8946.08
661.306	9039.86
661.656	8947.89
662.007	9034.66
662.358	8917.15
662.708	9029.92
663.059	8993.99
663.409	8948.34
663.76	9001.44
664.11	9006.64
664.461	9049.58
664.811	8932.52
665.161	9030.6
665.511	8948.34
665.862	8923.48
666.212	8999.18
666.562	8957.6
666.912	9039.64
667.262	9008.45
667.612	8916.93
667.962	8985.63
668.312	9026.08
668.662	9012.07
669.011	9003.48
669.361	8944.5
669.711	8973.65
670.06	8962.12
670.41	8905.18
670.76	8923.48
671.109	9028.34
671.459	8911.73
671.808	8964.16
672.157	8960.09
672.507	8940.43
672.856	8889.58
673.205	8870.6
673.554	8949.24
673.904	8882.13
674.253	8985.17
674.602	8913.99
674.951	8778.17
675.3	8758.96
675.649	8872.63
675.998	8832.63
676.346	8896.59
676.695	8805.74
677.044	8807.1
677.393	8873.31
677.741	8819.75
678.09	8795.57
678.438	8794.22
678.787	8802.58
679.135	8752.86
679.484	8755.35
679.832	8772.07
680.181	8717.16
680.529	8837.15
680.877	8720.55
681.225	8732.98
681.573	8661.11
681.922	8706.76
682.27	8630.15
682.618	8645.97
682.966	8582.02
683.314	8619.08
683.661	8578.4
684.009	8524.62
684.357	8548.35
684.705	8481.68
685.053	8467.67
685.4	8539.31
685.748	8494.34
686.095	8460.22
686.443	8418.63
686.79	8415.7
687.138	8390.61
687.485	8421.12
687.832	8449.37
688.18	8385.64
688.527	8339.09
688.874	8326.89
689.221	8340.22
689.568	8314.46
689.915	8238.98
690.262	8260.67
690.609	8245.53
690.956	8187.45
691.303	8179.32
691.65	8155.59
691.997	8085.76
692.344	8068.81
692.69	8029.94
693.037	8023.62
693.383	7956.73
693.73	7959.21
694.077	7899.33
694.423	7893
694.769	7936.84
695.116	7857.52
695.462	7846.22
695.808	7782.72
696.155	7838.08
696.501	7735.71
696.847	7724.64
697.193	7631.54
697.539	7737.75
697.885	7661.14
698.231	7631.99
698.577	7621.82
698.923	7585.21
699.269	7551.76
699.614	7440.13
699.96	7459.79
700.306	7481.71
700.651	7385.22
700.997	7403.07
701.342	7390.19
701.688	7429.28
702.033	7363.75
702.379	7235.61
702.724	7254.6
703.069	7330.53
703.415	7162.17
703.76	7204.2
704.105	7194.03
704.45	7176.86
704.795	7106.13
705.14	7099.57
705.485	7043.08
705.83	7019.8
706.175	7002.85
706.52	7007.15
706.865	6981.61
707.209	7019.8
707.554	6883.08
707.899	6969.18
708.243	6909.3
708.588	6890.77
708.932	6852.35
709.277	6850.54
709.621	6843.53
709.966	6808.28
710.31	6795.4
710.654	6728.06
710.998	6747.94
711.342	6756.98
711.687	6693.48
712.031	6698.68
712.375	6699.81
712.719	6732.35
713.063	6675.86
713.407	6654.16
713.75	6627.5
714.094	6646.25
714.438	6640.38
714.782	6655.74
715.125	6521.96
715.469	6540.94
715.812	6488.06
716.156	6518.57
716.499	6562.64
716.843	6579.59
717.186	6522.41
717.53	6548.18
717.873	6479.25
718.216	6532.36
718.559	6492.58
718.902	6423.21
719.246	6429.76
719.589	6426.82
719.932	6418.46
720.275	6423.21
720.617	6469.53
720.96	6415.07
721.303	6419.14
721.646	6446.03
721.989	6390.44
722.331	6350.21
722.674	6359.03
723.016	6391.12
723.359	6351.8
723.701	6334.85
724.044	6277.22
724.386	6295.07
724.729	6359.25
725.071	6330.1
725.413	6314.28
725.755	6297.11
726.097	6332.81
726.439	6268.63
726.782	6234.29
727.124	6296.88
727.465	6217.79
727.807	6244.45
728.149	6301.85
728.491	6283.32
728.833	6225.25
729.175	6215.75
729.516	6279.71
729.858	6263.89
730.199	6257.56
730.541	6267.5
730.882	6221.4
731.224	6261.18
731.565	6235.64
731.906	6265.7
732.248	6266.83
732.589	6260.05
732.93	6220.5
733.271	6230.44
733.612	6228.41
733.953	6233.38
734.294	6197.22
734.635	6211.91
734.976	6234.06
735.317	6262.99
735.658	6248.3
735.999	6235.19
736.339	6223.66
736.68	6278.8
737.021	6278.13
737.361	6216.43
737.702	6313.61
738.042	6294.4
738.383	6330.1
738.723	6274.51
739.063	6257.56
739.404	6351.34
739.744	6291.91
740.084	6333.72
740.424	6360.38
740.764	6403.09
741.104	6372.13
741.444	6384.56
741.784	6375.52
742.124	6443.77
742.464	6414.85
742.804	6405.81
743.143	6464.11
743.483	6488.06
743.823	6456.65
744.162	6481.74
744.502	6562.86
744.841	6548.85
745.181	6639.7
745.52	6604.44
745.86	6688.28
746.199	6705.46
746.538	6709.53
746.877	6749.53
747.216	6817.09
747.556	6830.65
747.895	6891.9
748.234	6862.97
748.573	6886.92
748.911	7001.95
749.25	7061.83
749.589	7104.54
749.928	7160.36
750.267	7239.91
750.605	7262.96
750.944	7385.89
751.283	7373.92
751.621	7505.21
751.96	7542.95
752.298	7673.8
752.636	7725.09
752.975	7820.23
753.313	7906.78
753.651	8051.41
753.989	8146.78
754.327	8169.83
754.666	8306.1
755.004	8436.71
755.342	8551.06
755.679	8712.64
756.017	8786.76
756.355	8991.5
756.693	9006.64
757.031	9267.2
757.368	9329.57
757.706	9446.4
758.044	9569.11
758.381	9834.64
758.719	9908.99
759.056	10060.63
759.394	10197.8
759.731	10387.17
760.068	10485.25
760.405	10637.56
760.743	10738.8
761.08	11001.17
761.417	11074.61
761.754	11279.12
762.091	11501.72
762.428	11607.03
762.765	11766.57
763.102	11973.12
763.438	12125.88
763.775	12174.24
764.112	12524.52
764.449	12689.71
764.785	12838.41
765.122	12950.94
765.458	13020.1
765.795	13189.36
766.131	13429.8
766.467	13549.12
766.804	13635.9
767.14	13745.95
767.476	14008.32
767.812	14051.03
768.148	14309.55
768.485	14324.24
768.821	14411.25
769.157	14642.43
769.492	14716.1
769.828	14882.65
770.164	15005.35
770.5	15124.9
770.836	15307.04
771.171	15306.59
771.507	15446.25
771.842	15560.82
772.178	15663.87
772.513	15737.54
772.849	15791.1
773.184	15914.71
773.519	15998.77
773.855	16003.29
774.19	16108.38
774.525	16219.79
774.86	16308.14
775.195	16419.1
775.53	16507.01
775.865	16554.47
776.2	16593.33
776.535	16460.68
776.87	16628.59
777.205	16646.67
777.539	16732.99
777.874	16791.97
778.209	16724.4
778.543	16821.35
778.878	16876.72
779.212	16890.5
779.547	16815.93
779.881	17048.69
780.215	16993.1
780.55	17119.42
780.884	16950.39
781.218	17107.45
781.552	17112.87
781.886	17082.36
782.22	17105.19
782.554	17066.32
782.888	17049.14
783.222	17046.2
783.556	17000.33
783.889	17043.72
784.223	16908.81
784.557	16974.34
784.89	17026.09
785.224	17008.01
785.557	16853.22
785.891	16968.24
786.224	17001.23
786.558	16951.97
786.891	16900.67
787.224	16922.14
787.557	16926.43
787.891	16807.34
788.224	16903.16
788.557	16913.33
788.89	16907.68
789.223	16965.3
789.556	16884.4
789.888	16877.17
790.221	16822.26
790.554	16696.61
790.887	16772.31
791.219	16718.08
791.552	16587.46
791.884	16654.12
792.217	16723.5
792.549	16612.54
792.882	16445.09
793.214	16435.15
793.546	16494.35
793.879	16472.43
794.211	16379.78
794.543	16463.17
794.875	16454.81
795.207	16501.36
795.539	16499.78
795.871	16346.56
796.203	16206.9
796.535	16221.14
796.867	16215.04
797.198	16147.92
797.53	16218.88
797.862	16142.95
798.193	16188.37
798.525	16021.82
798.856	16076.51
799.188	15834.26
799.519	15937.53
799.85	15794.94
800.182	15885.78
800.513	15881.94
800.844	15728.95
801.175	15822.51
801.506	15822.06
801.837	15675.84
802.168	15714.26
802.499	15677.65
802.83	15615.28
803.161	15518.79
803.491	15551.78
803.822	15529.18
804.153	15462.07
804.483	15527.83
804.814	15397.43
805.145	15370.09
805.475	15348.85
805.805	15280.38
806.136	15276.31
806.466	15310.43
806.796	15193.82
807.126	15130.77
807.457	15133.94
807.787	15162.86
808.117	15079.25
808.447	15072.92
808.777	15071.79
809.107	15054.62
809.436	14896.88
809.766	14954.73
810.096	14935.53
810.426	14887.39
810.755	14847.17
811.085	14888.29
811.414	14848.52
811.744	14730.78
812.073	14708.86
812.403	14690.33
812.732	14629.54
813.061	14612.82
813.39	14573.73
813.719	14576.66
814.049	14667.74
814.378	14573.05
814.707	14504.12
815.036	14422.32
815.365	14476.78
815.693	14389.1
816.022	14339.16
816.351	14321.98
816.68	14271.81
817.008	14272.04
817.337	14199.5
817.665	14185.71
817.994	14166.73
818.322	14220.29
818.651	14144.59
818.979	14045.83
819.307	14135.09
819.636	14141.42
819.964	14013.52
820.292	14089.22
820.62	14010.35
820.948	14037.02
821.276	14034.98
821.604	14012.84
821.932	14048.09
822.259	14024.81
822.587	14107.52
822.915	14029.56
823.243	14027.07
823.57	13992.95
823.898	13990.24
824.225	13947.75
824.553	13969.68
824.88	14094.64
825.207	14108.43
825.535	13918.6
825.862	14069.56
826.189	14025.04
826.516	13970.8
826.843	14091.25
827.17	14109.56
827.497	14029.56
827.824	14037.47
828.151	14144.59
828.478	14041.54
828.805	14176
829.131	14060.29
829.458	14036.79
829.785	13966.74
830.111	14023.01
830.438	14112.04
830.764	14069.33
831.09	14072.27
831.417	14001.09
831.743	14048.09
832.069	14030.69
832.395	13913.86
832.722	14060.97
833.048	13985.72
833.374	13893.52
833.7	13934.65
834.026	14049.22
834.351	14009
834.677	13937.59
835.003	13879.28
835.329	13849.23
835.654	13879.06
835.98	13818.94
836.306	13872.73
836.631	13798.15
836.956	13846.74
837.282	13766.52
837.607	13710.92
837.932	13774.88
838.258	13733.3
838.583	13727.2
838.908	13736.01
839.233	13768.55
839.558	13609.46
839.883	13738.49
840.208	13550.03
840.533	13580.53
840.858	13576.24
841.182	13632.28
841.507	13567.2
841.832	13508.9
842.156	13520.87
842.481	13444.72
842.805	13487.2
843.13	13371.05
843.454	13422.8
843.778	13334.21
844.103	13320.88
844.427	13209.47
844.751	13283.14
845.075	13266.87
845.399	13129.25
845.723	13074.78
846.047	13174.22
846.371	13079.3
846.695	12906.43
847.019	12966.99
847.343	12953.88
847.666	12861
847.99	12830.72
848.313	12748.46
848.637	12651.52
848.96	12618.3
849.284	12660.1
849.607	12534.23
849.931	12452.88
850.254	12462.14
850.577	12430.51
850.9	12350.51
851.223	12319.1
851.546	12290.17
851.869	12123.85
852.192	12232.09
852.515	12127.69
852.838	12013.57
853.161	12029.39
853.483	11900.8
853.806	11904.87
854.129	11919.33
854.451	11845.21
854.774	11796.4
855.096	11756.63
855.419	11646.8
855.741	11709.17
856.063	11605.44
856.385	11597.08
856.708	11664.42
857.03	11590.08
857.352	11490.19
857.674	11467.37
857.996	11403.64
858.318	11405
858.64	11337.65
858.961	11350.76
859.283	11287.94
859.605	11287.49
859.926	11280.03
860.248	11241.84
860.57	11132.69
860.891	11125.23
861.212	11169.07
861.534	11118.22
861.855	11064.44
862.176	11098.79
862.498	11067.15
862.819	11054.05
863.14	11001.39
863.461	11057.66
863.782	10936.53
864.103	10932.92
864.424	10956.65
864.745	10989.87
865.065	10834.62
865.386	10849.08
865.707	10815.41
866.027	10835.29
866.348	10836.65
866.668	10810.89
866.989	10802.98
867.309	10703.77
867.63	10778.12
867.95	10727.5
868.27	10671.68
868.59	10667.16
868.91	10663.77
869.23	10642.08
869.55	10587.62
869.87	10642.76
870.19	10617.22
870.51	10664.45
870.83	10600.72
871.15	10570.22
871.469	10614.06
871.789	10588.52
872.109	10523.21
872.428	10500.84
872.748	10463.78
873.067	10474.4
873.386	10496.09
873.706	10480.95
874.025	10426.94
874.344	10377.91
874.663	10379.94
874.982	10367.51
875.301	10372.48
875.62	10310.34
875.939	10314.63
876.258	10316.21
876.577	10287.96
876.896	10254.74
877.214	10202.99
877.533	10200.28
877.852	10146.5
878.17	10194.86
878.489	10237.57
878.807	10140.62
879.125	10118.02
879.444	10181.53
879.762	10097.23
880.08	10142.88
880.398	10064.92
880.716	10034.41
881.034	10014.98
881.352	10024.24
881.67	10000.74
881.988	9949.67
882.306	10008.2
882.624	9862.21
882.941	9873.96
883.259	9848.43
883.577	9878.26
883.894	9847.52
884.212	9843.46
884.529	9878.03
884.846	9793.29
885.164	9722.1
885.481	9720.52
885.798	9739.28
886.115	9741.99
886.432	9605.95
886.75	9643.01
887.067	9637.59
887.383	9596.46
887.7	9671.93
888.017	9566.18
888.334	9589.68
888.651	9443.92
888.967	9472.39
889.284	9411.38
889.6	9431.72
889.917	9347.65
890.233	9378.38
890.55	9325.96
890.866	9320.98
891.182	9291.83
891.498	9243.7
891.815	9185.17
892.131	9138.84
892.447	9137.49
892.763	9127.99
893.079	9115.11
893.395	9120.31
893.71	9003.03
894.026	9016.13
894.342	9018.39
894.657	8946.53
894.973	8895.01
895.289	8944.27
895.604	8850.49
895.92	8841.9
896.235	8719.42
896.55	8725.97
896.865	8773.88
897.181	8720.55
897.496	8772.98
897.811	8636.03
898.126	8598.74
898.441	8574.56
898.756	8563.94
899.071	8544.06
899.386	8522.13
899.7	8419.31
900.015	8376.38
900.33	8370.27
900.644	8349.71
900.959	8352.65
901.273	8346.55
901.588	8297.06
901.902	8275.81
902.216	8258.19
902.531	8186.55
902.845	8189.71
903.159	8168.47
903.473	8106.55
903.787	8045.54
904.101	8027.46
904.415	8038.98
904.729	8001.02
905.042	7948.36
905.356	7887.12
905.67	7922.15
905.984	7888.93
906.297	7827.46
906.611	7810.29
906.924	7791.76
907.237	7823.4
907.551	7689.61
907.864	7703.85
908.177	7676.73
908.491	7677.64
908.804	7581.59
909.117	7578.66
909.43	7509.96
909.743	7434.48
910.056	7471.99
910.368	7441.49
910.681	7366.91
910.994	7381.83
911.307	7354.93
911.619	7179.12
911.932	7321.71
912.244	7209.63
912.557	7202.17
912.869	7208.04
913.181	7130.08
913.494	7131.21
913.806	7149.06
914.118	7105.22
914.43	7007.6
914.742	6987.94
915.054	6917.88
915.366	6899.35
915.678	6950.88
915.99	6942.06
916.302	6834.5
916.613	6790.88
916.925	6828.62
917.236	6804.89
917.548	6766.47
917.859	6799.92
918.171	6740.26
918.482	6664.33
918.794	6629.76
919.105	6654.84
919.416	6585.91
919.727	6565.35
920.038	6575.52
920.349	6543.43
920.66	6468.18
920.971	6521.74
921.282	6461.85
921.593	6401.29
921.903	6367.84
922.214	6376.88
922.525	6353.6
922.835	6305.47
923.146	6275.64
923.456	6256.43
923.767	6224.79
924.077	6240.39
924.387	6178.24
924.697	6166.26
925.008	6080.16
925.318	6114.97
925.628	6057.34
925.938	6047.17
926.248	6035.19
926.558	5994.97
926.867	5960.17
927.177	6018.25
927.487	5905.25
927.796	5875.88
928.106	5919.94
928.416	5875.42
928.725	5837.69
929.034	5841.98
929.344	5758.14
929.653	5787.29
929.962	5747.52
930.271	5745.26
930.581	5714.75
930.89	5634.53
931.199	5630.01
931.508	5590.91
931.817	5612.15
932.125	5615.54
932.434	5593.85
932.743	5547.75
933.051	5478.37
933.36	5501.2
933.669	5464.36
933.977	5487.86
934.286	5466.17
934.594	5415.1
934.902	5364.48
935.21	5336.68
935.519	5353.18
935.827	5364.03
936.135	5282.22
936.443	5256.91
936.751	5228.66
937.059	5241.99
937.367	5204.93
937.674	5211.04
937.982	5214.65
938.29	5185.73
938.597	5125.39
938.905	5091.72
939.213	5134.43
939.52	5022.79
939.827	5086.07
940.135	4987.76
940.442	4997.03
940.749	5027.09
941.056	4974.43
941.363	4914.09
941.67	4940.76
941.977	4917.94
942.284	4833.19
942.591	4827.77
942.898	4842.91
943.205	4828.22
943.511	4799.52
943.818	4778.5
944.125	4780.76
944.431	4737.38
944.738	4751.61
945.044	4701.44
945.35	4642.24
945.657	4625.29
945.963	4585.29
946.269	4592.29
946.575	4588.45
946.881	4593.88
947.187	4566.53
947.493	4540.54
947.799	4524.73
948.105	4498.51
948.41	4484.27
948.716	4457.61
949.022	4472.98
949.327	4424.62
949.633	4376.25
949.938	4382.58
950.244	4404.05
950.549	4352.07
950.854	4335.58
951.16	4314.56
951.465	4267.56
951.77	4257.61
952.075	4269.37
952.38	4230.5
952.685	4214.9
952.99	4219.2
953.294	4181.68
953.599	4134
953.904	4176.94
954.209	4111.4
954.513	4131.29
954.818	4055.59
955.122	4101.23
955.426	4086.77
955.731	4033.89
956.035	4046.32
956.339	3956.83
956.643	4014.23
956.948	3976.04
957.252	3925.87
957.556	3921.13
957.86	3912.54
958.163	3911.63
958.467	3884.29
958.771	3827.57
959.075	3872.77
959.378	3854.91
959.682	3845.65
959.985	3807.68
960.289	3781.92
960.592	3799.32
960.896	3747.8
961.199	3748.02
961.502	3701.24
961.805	3717.52
962.108	3700.34
962.411	3716.39
962.714	3675.03
963.017	3602.72
963.32	3664.18
963.623	3612.21
963.926	3604.52
964.228	3609.27
964.531	3587.8
964.833	3541.25
965.136	3519.1
965.438	3532.89
965.741	3526.56
966.043	3511.19
966.345	3493.57
966.648	3509.84
966.95	3422.38
967.252	3426.45
967.554	3422.38
967.856	3431.2
968.158	3396.85
968.46	3377.86
968.761	3360.91
969.063	3364.08
969.365	3352.55
969.666	3254.02
969.968	3289.5
970.269	3271.2
970.571	3268.49
970.872	3271.43
971.174	3227.81
971.475	3231.88
971.776	3226.23
972.077	3222.16
972.378	3232.1
972.679	3162.95
972.98	3150.98
973.281	3136.97
973.582	3144.42
973.883	3123.63
974.183	3127.25
974.484	3122.73
974.785	3085.67
975.085	3050.87
975.386	3063.97
975.686	3024.65
975.986	3042.5
976.287	3040.92
976.587	2977.87
976.887	3024.43
977.187	2992.79
977.487	2986.46
977.787	2924.09
978.087	2933.13
978.387	2906.46
978.687	2919.8
978.987	2876.41
979.286	2870.31
979.586	2899.91
979.885	2858.33
980.185	2840.93
980.484	2826.69
980.784	2833.02
981.083	2787.6
981.382	2798.9
981.682	2801.16
981.981	2790.76
982.28	2794.38
982.579	2716.41
982.878	2718.9
983.177	2729.97
983.475	2732.91
983.774	2710.54
984.073	2703.98
984.372	2668.28
984.67	2700.82
984.969	2671.44
985.267	2635.51
985.566	2635.96
985.864	2611.33
986.162	2604.55
986.461	2565.68
986.759	2574.72
987.057	2549.86
987.355	2553.93
987.653	2541.73
987.951	2552.35
988.249	2539.24
988.547	2539.92
988.844	2499.69
989.142	2503.54
989.44	2482.97
989.737	2461.96
990.035	2474.61
990.332	2426.7
990.63	2409.08
990.927	2391.67
991.224	2385.12
991.521	2382.18
991.819	2365.69
992.116	2366.14
992.413	2352.81
992.71	2339.92
993.006	2331.34
993.303	2341.96
993.6	2327.5
993.897	2327.5
994.193	2297.21
994.49	2298.8
994.787	2274.39
995.083	2262.41
995.379	2270.77
995.676	2247.05
995.972	2238.46
996.268	2213.83
996.565	2200.49
996.861	2185.8
997.157	2214.05
997.453	2186.26
997.749	2168.4
998.044	2151
998.34	2159.14
998.636	2132.25
998.932	2136.77
999.227	2123.66
999.523	2092.47
999.818	2102.87
1000.114	2068.29
1000.409	2035.75
1000.704	2066.26
1001	2051.12
1001.295	2028.52
1001.59	2002.53
1001.885	2024.68
1002.18	2032.59
1002.475	2008.86
1002.77	1985.36
1003.065	1946.49
1003.359	1956.21
1003.654	1955.75
1003.949	1943.1
1004.243	1924.57
1004.538	1917.34
1004.832	1901.29
1005.127	1900.84
1005.421	1887.96
1005.715	1868.07
1006.009	1874.63
1006.304	1837.11
1006.598	1842.31
1006.892	1856.77
1007.186	1842.99
1007.48	1809.54
1007.773	1806.38
1008.067	1817.68
1008.361	1792.59
1008.655	1820.39
1008.948	1774.74
1009.242	1762.09
1009.535	1737
1009.829	1755.98
1010.122	1719.83
1010.415	1712.6
1010.708	1697
1011.001	1684.8
1011.295	1687.74
1011.588	1663.33
1011.881	1683.9
1012.173	1641.19
1012.466	1677.12
1012.759	1616.33
1013.052	1617.01
1013.344	1602.32
1013.637	1615.2
1013.93	1622.66
1014.222	1602.32
1014.514	1560.96
1014.807	1564.35
1015.099	1572.26
1015.391	1559.15
1015.683	1535.88
1015.976	1529.1
1016.268	1522.32
1016.56	1531.81
1016.851	1489.55
1017.143	1486.16
1017.435	1489.33
1017.727	1477.8
1018.018	1481.19
1018.31	1483.22
1018.602	1452.49
1018.893	1461.76
1019.185	1423.79
1019.476	1438.25
1019.767	1409.33
1020.058	1415.2
1020.35	1411.59
1020.641	1393.73
1020.932	1391.47
1021.223	1365.71
1021.514	1365.03
1021.804	1346.73
1022.095	1358.03
1022.386	1351.02
1022.677	1347.86
1022.967	1326.84
1023.258	1304.47
1023.548	1288.88
1023.839	1280.74
1024.129	1288.43
1024.419	1257.69
1024.709	1266.51
1025	1259.95
1025.29	1255.89
1025.58	1263.79
1025.87	1250.69
1026.16	1241.87
1026.449	1216.11
1026.739	1217.47
1027.029	1180.63
1027.319	1200.52
1027.608	1189.67
1027.898	1176.11
1028.187	1178.15
1028.477	1141.99
1028.766	1171.37
1029.055	1179.28
1029.344	1143.8
1029.634	1153.29
1029.923	1131.82
1030.212	1108.09
1030.501	1125.94
1030.79	1144.25
1031.078	1072.61
1031.367	1105.38
1031.656	1089.56
1031.945	1094.53
1032.233	1079.39
1032.522	1066.96
1032.81	1079.84
1033.099	1054.53
1033.387	1031.03
1033.675	1035.55
1033.963	1018.83
1034.251	1038.49
1034.54	1028.32
1034.828	993.97
1035.116	1019.73
1035.403	993.52
1035.691	963.01
1035.979	980.19
1036.267	976.57
1036.554	985.16
1036.842	987.64
1037.129	971.37
1037.417	959.62
1037.704	966.85
1037.992	954.42
1038.279	912.62
1038.566	937.02
1038.853	937.02
1039.14	937.02
