Data from hue_40_FLMS001491_21.txt Node
Date: Mon Feb 06 15:07:39 GMT 2017
User: dcchb
Spectrometer: FLMS00149
Trigger mode: 0
Integration Time (sec): 2.000000E-2
Scans to average: 10
Electric dark correction enabled: true
Nonlinearity correction enabled: false
Boxcar width: 0
XAxis mode: Wavelengths
Number of Pixels in Spectrum: 2048
>>>>>Begin Spectral Data<<<<<
341.393	-7.2
341.776	-7.2
342.16	-7.2
342.543	-49.69
342.927	-67.54
343.31	-53.53
343.693	-62.12
344.077	-56.47
344.46	-67.99
344.843	-58.28
345.226	-42.23
345.61	-31.84
345.993	-22.12
346.376	13.36
346.759	10.42
347.142	4.77
347.525	60.59
347.908	45.45
348.291	63.53
348.674	94.94
349.057	101.49
349.44	141.49
349.823	136.07
350.206	164.09
350.588	179.23
350.971	221.94
351.354	217.2
351.737	263.98
352.119	239.34
352.502	252
352.884	278.89
353.267	287.7
353.65	280.02
354.032	309.62
354.414	317.31
354.797	320.02
355.179	334.71
355.562	330.64
355.944	335.61
356.326	329.29
356.709	338.55
357.091	335.39
357.473	335.84
357.855	364.54
358.238	357.08
358.62	361.83
359.002	327.03
359.384	323.18
359.766	350.98
360.148	335.16
360.53	347.36
360.912	346.23
361.294	348.49
361.676	339.91
362.057	347.14
362.439	348.49
362.821	341.49
363.203	342.39
363.584	327.03
363.966	327.48
364.348	334.71
364.729	340.81
365.111	335.16
365.493	325.67
365.874	341.04
366.256	314.37
366.637	335.84
367.019	311.21
367.4	338.55
367.781	313.24
368.163	305.1
368.544	304.65
368.925	314.82
369.306	318.44
369.688	310.75
370.069	322.05
370.45	322.28
370.831	311.88
371.212	320.25
371.593	333.35
371.974	310.75
372.355	319.57
372.736	309.17
373.117	316.63
373.498	329.51
373.879	331.32
374.26	317.08
374.641	344.43
375.021	321.6
375.402	319.12
375.783	330.64
376.163	347.14
376.544	346.46
376.925	323.18
377.305	327.93
377.686	324.31
378.066	335.16
378.447	338.1
378.827	333.35
379.208	333.8
379.588	349.85
379.968	333.35
380.349	338.78
380.729	345.56
381.109	358.66
381.489	347.59
381.87	346.23
382.25	361.6
382.63	365.22
383.01	339.91
383.39	329.29
383.77	345.56
384.15	339.23
384.53	350.53
384.91	345.56
385.29	348.27
385.67	347.82
386.049	361.6
386.429	364.09
386.809	375.84
387.189	366.57
387.568	357.08
387.948	363.86
388.328	353.47
388.707	367.93
389.087	363.63
389.466	360.7
389.846	350.98
390.225	404.31
390.605	365.44
390.984	389.62
391.363	360.24
391.743	379
392.122	379
392.501	384.42
392.881	370.19
393.26	380.13
393.639	375.16
394.018	386.46
394.397	372.67
394.776	398.21
395.155	376.52
395.534	375.16
395.913	395.27
396.292	396.18
396.671	383.75
397.05	413.58
397.429	384.42
397.808	388.27
398.186	408.83
398.565	398.21
398.944	410.64
399.323	418.77
399.701	410.64
400.08	406.35
400.458	424.2
400.837	413.8
401.215	397.08
401.594	405.67
401.972	399.79
402.351	421.71
402.729	421.03
403.107	405.89
403.486	435.27
403.864	405.22
404.242	421.49
404.62	418.32
404.999	416.74
405.377	427.81
405.755	427.59
406.133	431.66
406.511	422.39
406.889	443.18
407.267	434.14
407.645	419.9
408.023	435.05
408.401	440.92
408.779	425.33
409.156	435.27
409.534	472.11
409.912	469.17
410.29	470.07
410.667	446.8
411.045	471.43
411.422	480.24
411.8	483.63
412.178	449.73
412.555	483.86
412.933	491.54
413.31	503.74
413.687	478.21
414.065	496.96
414.442	492.67
414.819	512.56
415.197	510.98
415.574	489.73
415.951	489.73
416.328	529.73
416.705	494.03
417.082	491.31
417.46	542.16
417.837	499
418.214	508.94
418.591	508.49
418.967	508.49
419.344	526.57
419.721	538.55
420.098	542.16
420.475	536.06
420.852	573.57
421.228	557.53
421.605	541.71
421.982	547.58
422.358	581.71
422.735	562.5
423.111	566.34
423.488	568.15
423.864	564.76
424.241	592.33
424.617	582.39
424.994	574.25
425.37	598.66
425.746	567.92
426.123	627.81
426.499	585.32
426.875	590.52
427.251	625.55
427.627	610.63
428.003	613.57
428.379	623.97
428.756	615.15
429.132	643.4
429.507	605.21
429.883	615.83
430.259	641.14
430.635	642.5
431.011	673.46
431.387	667.36
431.763	691.54
432.138	675.72
432.514	661.93
432.89	655.15
433.265	673
433.641	684.76
434.016	693.8
434.392	700.8
434.767	717.07
435.143	709.61
435.518	737.18
435.894	708.26
436.269	747.13
436.644	737.41
437.02	738.54
437.395	756.62
437.77	762.72
438.145	769.5
438.52	771.99
438.895	770.86
439.271	776.28
439.646	796.84
440.021	793.45
440.395	820.35
440.77	790.06
441.145	800.23
441.52	813.11
441.895	787.13
442.27	810.63
442.645	838.2
443.019	829.16
443.394	828.93
443.769	840.91
444.143	826.45
444.518	859.21
444.892	838.2
445.267	852.89
445.641	889.5
446.016	857.86
446.39	875.26
446.764	856.05
447.139	844.3
447.513	883.17
447.887	888.14
448.262	891.3
448.636	898.76
449.01	909.83
449.384	888.14
449.758	909.83
450.132	927.24
450.506	938.31
450.88	925.43
451.254	926.56
451.628	934.01
452.002	955.48
452.376	956.84
452.75	964.07
453.123	961.81
453.497	975.14
453.871	983.05
454.244	1004.97
454.618	1004.07
454.992	1029.15
455.365	1033.22
455.739	1041.58
456.112	1029.15
456.486	1054.92
456.859	1075.48
457.232	1054.92
457.606	1087.91
457.979	1100.34
458.352	1098.98
458.725	1110.06
459.099	1131.52
459.472	1125.65
459.845	1148.7
460.218	1136.5
460.591	1186.44
460.964	1169.94
461.337	1191.86
461.71	1239.09
462.083	1227.11
462.456	1252.2
462.829	1261.01
463.201	1271.86
463.574	1282.03
463.947	1322.93
464.32	1340.56
464.692	1349.15
465.065	1344.63
465.438	1352.31
465.81	1388.92
466.183	1407
466.555	1426.21
466.928	1437.73
467.3	1484.28
467.672	1475.24
468.045	1497.16
468.417	1524.51
468.789	1541.91
469.161	1531.29
469.534	1551.85
469.906	1624.17
470.278	1608.8
470.65	1645.86
471.022	1697.38
471.394	1717.05
471.766	1733.32
472.138	1770.83
472.51	1811.51
472.882	1815.8
473.253	1855.35
473.625	1935.8
473.997	1956.14
474.369	1980.54
474.74	2020.99
475.112	2039.75
475.484	2083.59
475.855	2130.82
476.227	2173.76
476.598	2237.71
476.97	2273.64
477.341	2383.47
477.713	2365.39
478.084	2433.41
478.455	2507.31
478.827	2594.31
479.198	2620.52
479.569	2675.89
479.94	2750.01
480.311	2827.3
480.682	2910.69
481.053	2994.53
481.424	3040.4
481.795	3096.44
482.166	3188.42
482.537	3262.32
482.908	3321.75
483.279	3456.21
483.65	3509.99
484.021	3632.02
484.391	3682.87
484.762	3794.28
485.133	3842.19
485.503	3914.5
485.874	4047.61
486.244	4067.04
486.615	4222.74
486.985	4361.27
487.356	4427.48
487.726	4545.9
488.097	4669.06
488.467	4739.56
488.837	4909.5
489.207	4924.64
489.578	5084.41
489.948	5204.86
490.318	5342.26
490.688	5351.3
491.058	5516.49
491.428	5640.78
491.798	5728.69
492.168	5934.11
492.538	6007.78
492.908	6054.56
493.278	6171.17
493.648	6246.42
494.017	6458.84
494.387	6513.98
494.757	6655.67
495.126	6766.86
495.496	6827.19
495.866	6881.2
496.235	7045.27
496.605	7195.55
496.974	7226.28
497.344	7364.13
497.713	7440.28
498.082	7518.7
498.452	7671.24
498.821	7761.41
499.19	7837.34
499.559	8010.89
499.928	8052.25
500.298	8134.96
500.667	8263.77
501.036	8261.96
501.405	8412.24
501.774	8425.12
502.143	8551.89
502.512	8708.73
502.88	8779.23
503.249	8768.84
503.618	8819.23
503.987	8941.71
504.356	9068.26
504.724	9136.06
505.093	9237.07
505.462	9327.47
505.83	9468.48
506.199	9528.37
506.567	9648.36
506.936	9727.91
507.304	9786.44
507.672	9869.37
508.041	9960.22
508.409	10056.49
508.777	10089.48
509.145	10264.17
509.514	10256.26
509.882	10355.01
510.25	10378.29
510.618	10510.94
510.986	10508
511.354	10564.27
511.722	10716.81
512.09	10878.16
512.458	10780.08
512.826	10970.59
513.193	11002.9
513.561	11123.13
513.929	11175.55
514.297	11237.47
514.664	11336.68
515.032	11342.1
515.4	11522.44
515.767	11516.11
516.135	11677.46
516.502	11615.77
516.869	11844.69
517.237	11820.06
517.604	11799.94
517.972	11980.5
518.339	12060.5
518.706	12051.46
519.073	12166.71
519.44	12216.43
519.808	12366.93
520.175	12383.88
520.542	12590.21
520.909	12567.16
521.276	12622.52
521.643	12718.34
522.009	12808.51
522.376	13014.83
522.743	12992.45
523.11	13040.36
523.477	13198.55
523.843	13226.8
524.21	13327.14
524.577	13467.92
524.943	13519.67
525.31	13560.58
525.676	13793.34
526.043	13762.6
526.409	13901.58
526.776	13969.6
527.142	14081.92
527.508	14157.4
527.874	14288.47
528.241	14304.06
528.607	14359.42
528.973	14537.05
529.339	14489.59
529.705	14697.72
530.071	14736.36
530.437	14735.46
530.803	14844.16
531.169	14949.24
531.535	14930.03
531.901	15021.33
532.267	15181.78
532.632	15203.24
532.998	15279.63
533.364	15290.7
533.73	15375.44
534.095	15537.92
534.461	15536.57
534.826	15637.13
535.192	15692.05
535.557	15903.34
535.923	15867.86
536.288	15965.94
536.653	16008.19
537.019	16037.12
537.384	16109.66
537.749	16178.81
538.114	16224.23
538.479	16190.79
538.845	16380.61
539.21	16324.12
539.575	16431.01
539.94	16597.56
540.305	16582.42
540.67	16585.13
541.034	16568.41
541.399	16788.74
541.764	16797.33
542.129	16811.56
542.494	16979.02
542.858	16963.2
543.223	17049.07
543.587	17090.43
543.952	17226.92
544.316	17219.91
544.681	17266.47
545.045	17273.02
545.41	17491.55
545.774	17497.65
546.138	17478.44
546.503	17548.72
546.867	17682.05
547.231	17795.27
547.595	17827.13
547.959	17842.72
548.324	17856.06
548.688	18047.92
549.052	18027.8
549.416	18015.6
549.779	18131.75
550.143	18193.45
550.507	18298.3
550.871	18324.07
551.235	18346.89
551.599	18456.72
551.962	18412.43
552.326	18621.91
552.689	18661.01
553.053	18624.17
553.417	18699.65
553.78	18914.56
554.143	18761.79
554.507	18893.32
554.87	19021
555.234	19197.72
555.597	19053.09
555.96	19209.24
556.323	19290.14
556.686	19324.49
557.05	19466.86
557.413	19423.25
557.776	19513.41
558.139	19649.91
558.502	19631.83
558.865	19740.75
559.228	19916.11
559.59	19925.61
559.953	19950.01
560.316	20137.58
560.679	20122.44
561.041	20130.8
561.404	20312.71
561.767	20436.1
562.129	20373.5
562.492	20548.41
562.854	20672.71
563.217	20613.5
563.579	20641.97
563.941	20794.28
564.304	20879.71
564.666	21093.03
565.028	21086.03
565.39	21149.98
565.753	21244.22
566.115	21246.02
566.477	21424.32
566.839	21492.34
567.201	21569.63
567.563	21601.72
567.925	21772.56
568.287	21734.6
568.648	21805.78
569.01	21942.5
569.372	22095.49
569.734	22111.09
570.095	22168.48
570.457	22246.9
570.819	22410.06
571.18	22356.5
571.542	22540
571.903	22553.56
572.265	22560.34
572.626	22743.39
572.987	22863.38
573.349	22953.55
573.71	23057.73
574.071	23166.42
574.432	23294.78
574.794	23462.01
575.155	23402.35
575.516	23398.06
575.877	23649.12
576.238	23793.75
576.599	23929.12
576.96	24022
577.32	24050.7
577.681	24177.7
578.042	24408.43
578.403	24429.22
578.763	24529.78
579.124	24731.58
579.485	24900.39
579.845	25086.15
580.206	25080.05
580.566	25170.44
580.927	25375.41
581.287	25589.86
581.648	25585.12
582.008	25843.64
582.368	26019.23
582.728	26048.83
583.089	26255.61
583.449	26406.79
583.809	26518.2
584.169	26723.39
584.529	26823.73
584.889	27282.02
585.249	27107.79
585.609	27273.44
585.969	27670.26
586.329	27808.79
586.688	27995.22
587.048	28129.01
587.408	28206.97
587.768	28509.56
588.127	28506.4
588.487	28728.54
588.846	29162.2
589.206	29049.21
589.565	29280.39
589.925	29691
590.284	29764.22
590.643	29963.08
591.003	30273.36
591.362	30432.9
591.721	30494.82
592.08	30914.02
592.44	31012.32
592.799	31134.58
593.158	31292.99
593.517	31456.38
593.876	31684.62
594.235	31855.01
594.593	32094.1
594.952	32312.4
595.311	32454.32
595.67	32594.43
596.029	32999.39
596.387	33043.68
596.746	33323.45
597.104	33298.14
597.463	33431.47
597.822	33756.88
598.18	33853.15
598.538	34017.89
598.897	34238.45
599.255	34160.71
599.613	34748.27
599.972	34773.58
600.33	34877.76
600.688	34937.64
601.046	35223.28
601.404	35484.07
601.762	35529.94
602.12	35809.03
602.478	35993.21
602.836	36119.76
603.194	35981.46
603.552	36175.8
603.91	36295.12
604.268	36698.72
604.625	36593.87
604.983	36749.34
605.341	36765.16
605.698	37166.51
606.056	37229.78
606.413	37338.93
606.771	37428.87
607.128	37639.94
607.485	37549.32
607.843	37686.27
608.2	38057.56
608.557	38188.85
608.914	38259.81
609.272	38451.67
609.629	38540.71
609.986	38673.81
610.343	38693.93
610.7	39114.03
611.057	38985.44
611.414	39177.3
611.771	39154.7
612.127	39363.96
612.484	39493.68
612.841	39566.9
613.198	39538.88
613.554	39653.22
613.911	39956.94
614.267	40019.54
614.624	39973.89
614.98	40245.98
615.337	40342.7
615.693	40429.93
616.05	40400.32
616.406	40620.43
616.762	40595.57
617.118	40691.84
617.475	40799.63
617.831	40935.9
618.187	41043.92
618.543	41107.42
618.899	41342.44
619.255	41367.75
619.611	41305.16
619.967	41518.26
620.323	41600.74
620.678	41443.46
621.034	41371.6
621.39	41416.79
621.746	41645.94
622.101	41998.25
622.457	41678.71
622.812	41916.89
623.168	41886.38
623.523	41885.93
623.879	42031.69
624.234	41948.98
624.589	42122.08
624.945	42171.57
625.3	42278.46
625.655	42198.69
626.01	42168.41
626.365	42251.12
626.72	42344
627.075	42399.14
627.43	42312.36
627.785	42364.56
628.14	42389.65
628.495	42520.04
628.85	42426.71
629.205	42376.77
629.559	42672.35
629.914	42343.1
630.269	42562.75
630.623	42447.95
630.978	42406.82
631.332	42579.93
631.687	42631.68
632.041	42507.16
632.396	42589.87
632.75	42504
633.104	42460.38
633.459	42258.58
633.813	42374.51
634.167	42188.98
634.521	42426.71
634.875	42339.93
635.229	42309.2
635.583	42281.18
635.937	42257
636.291	42063.33
636.645	42279.82
636.999	42176.32
637.352	42387.61
637.706	42183.78
638.06	42213.83
638.413	42106.27
638.767	42010.68
639.121	42130.9
639.474	41930.45
639.828	41871.92
640.181	42150.78
640.534	41985.59
640.888	41956.21
641.241	41837.12
641.594	41907.85
641.947	41971.13
642.301	41873.28
642.654	41919.6
643.007	41844.8
643.36	41764.35
643.713	41654.3
644.066	41841.19
644.419	41663.11
644.771	41426.96
645.124	41158.49
645.477	41100.19
645.83	40678.28
646.182	40571.84
646.535	40480.32
646.888	40616.59
647.24	40333.43
647.593	40533.2
647.945	40540.88
648.298	40387.21
648.65	40219.31
649.002	40242.13
649.355	40487.1
649.707	40269.25
650.059	40564.39
650.411	40948.1
650.763	40884.6
651.115	41443.91
651.467	41356.23
651.819	41349
652.171	41127.53
652.523	41107.65
652.875	41166.63
653.227	40988.56
653.578	41176.57
653.93	41043.47
654.282	41012.06
654.633	40909.91
654.985	41026.52
655.337	40885.28
655.688	40949.23
656.039	41033.53
656.391	40716.92
656.742	40949.91
657.094	40709.01
657.445	40884.6
657.796	40837.37
658.147	40828.33
658.498	40847.09
658.849	40805.73
659.2	40779.52
659.551	40742.69
659.902	40971.15
660.253	40613.2
660.604	40790.59
660.955	40533.88
661.306	40696.13
661.656	40640.54
662.007	40648.45
662.358	40695.46
662.708	40673.08
663.059	40595.8
663.409	40402.13
663.76	40675.79
664.11	40643.71
664.461	40589.02
664.811	40751.05
665.161	40539.08
665.511	40682.8
665.862	40518.74
666.212	40728.45
666.562	40663.82
666.912	40535.01
667.262	40652.97
667.612	40602.35
667.962	40541.79
668.312	40483.48
668.662	40678.96
669.011	40483.71
669.361	40496.14
669.711	40447.55
670.06	40350.38
670.41	40379.53
670.76	40289.36
671.109	40483.48
671.459	40379.08
671.808	40280.1
672.157	40462.92
672.507	39974.8
672.856	40117.17
673.205	40201.68
673.554	40309.93
673.904	40304.96
674.253	40259.76
674.602	40186.54
674.951	39688.93
675.3	39586.33
675.649	40032.87
675.998	40072.65
676.346	40094.57
676.695	40264.96
677.044	39951.07
677.393	39959.2
677.741	40115.58
678.09	39930.73
678.438	39848.02
678.787	39889.83
679.135	39903.61
679.484	39691.41
679.832	39762.37
680.181	39604.18
680.529	39788.13
680.877	39677.18
681.225	39556.28
681.573	39784.97
681.922	39579.78
682.27	39415.94
682.618	39322.38
682.966	39339.56
683.314	39453.45
683.661	39270.86
684.009	39025.22
684.357	39070.41
684.705	38946.35
685.053	39084.42
685.4	38993.13
685.748	38833.81
686.095	38889.4
686.443	38499.58
686.79	38500.26
687.138	38626.13
687.485	38651.22
687.832	38627.49
688.18	38606.47
688.527	38242.86
688.874	38243.09
689.221	38348.4
689.568	38176.43
689.915	38133.94
690.262	38020.05
690.609	37877.68
690.956	37821.86
691.303	37836.77
691.65	37487.63
691.997	37680.62
692.344	37480.62
692.69	37421.42
693.037	37407.86
693.383	37135.32
693.73	37222.33
694.077	37001.54
694.423	36989.79
694.769	36815.11
695.116	36750.02
695.462	36765.39
695.808	36734.2
696.155	36791.15
696.501	36460.76
696.847	36468.67
697.193	36275.68
697.539	36349.58
697.885	36027.78
698.231	35906.88
698.577	35988.01
698.923	35896.71
699.269	35539.43
699.614	35568.58
699.96	35613.1
700.306	35469.15
700.651	35404.52
700.997	35261.47
701.342	35179.89
701.688	35257.41
702.033	35220.35
702.379	35053.57
702.724	34860.35
703.069	35084.98
703.415	34710.98
703.76	34739
704.105	34480.48
704.45	34605.45
704.795	34378.11
705.14	34335.85
705.485	34325.23
705.83	34038.46
706.175	34194.84
706.52	33981.96
706.865	34046.59
707.209	33906.93
707.554	33804.56
707.899	33904.45
708.243	33613.61
708.588	33671.01
708.932	33388.08
709.277	33414.06
709.621	33470.33
709.966	33138.37
710.31	33310.11
710.654	33028.99
710.998	33076.22
711.342	33033.06
711.687	32976.11
712.031	32753.74
712.375	32736.57
712.719	32709.22
713.063	32739.51
713.407	32908.32
713.75	32640.53
714.094	32454.54
714.438	32335.45
714.782	32490.02
715.125	32230.82
715.469	32348.78
715.812	32137.04
716.156	32025.17
716.499	32036.47
716.843	32005.74
717.186	31761
717.53	31973.2
717.873	31978.85
718.216	31892.3
718.559	31746.76
718.902	31584.28
719.246	31634.45
719.589	31488.24
719.932	31346.1
720.275	31332.76
720.617	31385.64
720.96	31289.15
721.303	31369.15
721.646	31218.42
721.989	30985.2
722.331	31155.37
722.674	31018.42
723.016	31103.62
723.359	31153.11
723.701	30886.9
724.044	30806.45
724.386	30661.59
724.729	30728.49
725.071	30688.03
725.413	30590.18
725.755	30600.13
726.097	30573.69
726.439	30306.12
726.782	30290.98
727.124	30464.31
727.465	30321.49
727.807	30331.66
728.149	30237.43
728.491	30105
728.833	30244.88
729.175	30020.48
729.516	29979.13
729.858	30012.8
730.199	29989.07
730.541	30010.09
730.882	29893.48
731.224	29769.19
731.565	29797.44
731.906	29736.87
732.248	29650.55
732.589	29541.4
732.93	29497.56
733.271	29345.25
733.612	29595.63
733.953	29577.78
734.294	29376.88
734.635	29297.79
734.976	29323.55
735.317	29246.26
735.658	29247.62
735.999	29240.39
736.339	29204.23
736.68	29303.66
737.021	29158.81
737.361	29019.6
737.702	29078.81
738.042	28968.53
738.383	28994.07
738.723	28983.45
739.063	28809.44
739.404	28924.69
739.744	28830.68
740.084	28750.23
740.424	28817.58
740.764	28719.5
741.104	28692.61
741.444	28417.13
741.784	28429.56
742.124	28432.73
742.464	28531.03
742.804	28251.49
743.143	28279.96
743.483	28382.11
743.823	28187.31
744.162	28156.58
744.502	28093.98
744.841	28134.66
745.181	28214.2
745.52	28103.7
745.86	28072.74
746.199	27968.56
746.538	27938.28
746.877	28022.12
747.216	27924.72
747.556	27951.38
747.895	27915.68
748.234	27743.03
748.573	27650.6
748.911	27749.36
749.25	27650.15
749.589	27498.97
749.928	27473.66
750.267	27668.45
750.605	27569.47
750.944	27509.59
751.283	27398.63
751.621	27447.89
751.96	27205.87
752.298	27237.96
752.636	27309.82
752.975	27100.11
753.313	27098.98
753.651	27167.9
753.989	26842.26
754.327	26870.28
754.666	26742.38
755.004	26840
755.342	26893.56
755.679	26745.99
756.017	26621.48
756.355	26622.61
756.693	26556.84
757.031	26530.63
757.368	26377.19
757.706	26455.15
758.044	26310.75
758.381	26295.16
758.719	26131.32
759.056	26219.9
759.394	26067.14
759.731	25933.58
760.068	25957.99
760.405	25823.08
760.743	25754.15
761.08	25810.88
761.417	25537.21
761.754	25451.11
762.091	25446.82
762.428	25381.96
762.765	25293.15
763.102	25344.9
763.438	25131.34
763.775	25017.9
764.112	25172.93
764.449	25028.52
764.785	24962.08
765.122	24813.39
765.458	24687.51
765.795	24651.36
766.131	24650.91
766.467	24398.48
766.804	24468.76
767.14	24317.35
767.476	24275.32
767.812	24205.95
768.148	24348.31
768.485	24182.67
768.821	24005.95
769.157	23959.4
769.492	23827.42
769.828	23828.78
770.164	23727.09
770.5	23668.78
770.836	23723.47
771.171	23389.24
771.507	23435.12
771.842	23236.71
772.178	23124.17
772.513	23108.8
772.849	22986.32
773.184	22954.23
773.519	22947
773.855	22794.68
774.19	22720.33
774.525	22684.18
774.86	22655.48
775.195	22524.41
775.53	22430.85
775.865	22418.42
776.2	22167.35
776.535	22006
776.87	22085.32
777.205	22081.71
777.539	21884.2
777.874	21951.99
778.209	21785.67
778.543	21689.18
778.878	21554.26
779.212	21623.41
779.547	21550.87
779.881	21501.38
780.215	21333.7
780.55	21422.74
780.884	21146.14
781.218	21156.08
781.552	21173.93
781.886	20905.47
782.22	20922.42
782.554	20840.38
782.888	20627.06
783.222	20532.6
783.556	20540.51
783.889	20415.31
784.223	20311.36
784.557	20246.5
784.89	20210.8
785.224	20121.53
785.557	20098.48
785.891	19884.48
786.224	19933.97
786.558	20001.31
786.891	19755.89
787.224	19736.91
787.557	19633.41
787.891	19529.68
788.224	19619.4
788.557	19422.79
788.89	19387.32
789.223	19439.74
789.556	19319.29
789.888	19222.57
790.221	19081.56
790.554	18947.1
790.887	19098.96
791.219	18861.23
791.552	18887.44
791.884	18814.67
792.217	18705.3
792.549	18626.88
792.882	18567.9
793.214	18487.68
793.546	18529.26
793.879	18374.69
794.211	18285.42
794.543	18293.33
794.875	18231.41
795.207	18321.13
795.539	18197.97
795.871	18247.23
796.203	18016.28
796.535	17933.34
796.867	17866.68
797.198	17907.58
797.53	17879.56
797.862	17700.58
798.193	17649.51
798.525	17493.13
798.856	17583.29
799.188	17389.4
799.519	17369.06
799.85	17326.8
800.182	17323.41
800.513	17319.12
800.844	17176.98
801.175	17273.47
801.506	17215.17
801.837	17089.75
802.168	17037.77
802.499	16975.85
802.83	16868.74
803.161	16874.61
803.491	16915.52
803.822	16759.14
804.153	16664.45
804.483	16544.45
804.814	16572.25
805.145	16521.4
805.475	16531.57
805.805	16463.32
806.136	16438.24
806.466	16395.76
806.796	16332.93
807.126	16205.93
807.457	16215.2
807.787	16177.46
808.117	16165.7
808.447	16085.71
808.777	16113.5
809.107	15972.04
809.436	15945.6
809.766	15939.27
810.096	15913.73
810.426	15755.09
810.755	15776.11
811.085	15749.44
811.414	15765.49
811.744	15519.17
812.073	15560.07
812.403	15608.88
812.732	15450.7
813.061	15496.57
813.39	15403.01
813.719	15408.66
814.049	15461.09
814.378	15359.62
814.707	15289.8
815.036	15211.38
815.365	15208.22
815.693	15076.02
816.022	15103.59
816.351	15047.54
816.68	14929.35
817.008	15068.78
817.337	14875.12
817.665	14847.32
817.994	14850.71
818.322	14906.08
818.651	14745.4
818.979	14719.42
819.307	14718.29
819.636	14750.6
819.964	14647.1
820.292	14642.13
820.62	14657.04
820.948	14593.54
821.276	14618.63
821.604	14598.06
821.932	14580.89
822.259	14572.53
822.587	14528.46
822.915	14539.31
823.243	14535.01
823.57	14634.9
823.898	14510.16
824.225	14412.3
824.553	14422.47
824.88	14478.97
825.207	14459.08
825.535	14477.16
825.862	14545.86
826.189	14380.89
826.516	14434.22
826.843	14525.07
827.17	14521.68
827.497	14474.9
827.824	14498.18
828.151	14536.82
828.478	14484.62
828.805	14456.82
829.131	14455.24
829.458	14391.51
829.785	14377.05
830.111	14373.89
830.438	14437.16
830.764	14493.88
831.09	14479.87
831.417	14370.95
831.743	14457.5
832.069	14455.24
832.395	14394.45
832.722	14360.33
833.048	14359.42
833.374	14370.72
833.7	14371.18
834.026	14363.49
834.351	14330.27
834.677	14339.99
835.003	14356.03
835.329	14280.56
835.654	14257.05
835.98	14198.3
836.306	14207.79
836.631	14244.63
836.956	14284.62
837.282	14177.28
837.607	14120.33
837.932	14050.51
838.258	14068.13
838.583	14076.27
838.908	13998.98
839.233	14092.99
839.558	14002.82
839.883	13948.14
840.208	13854.58
840.533	13953.33
840.858	13883.51
841.182	13926.44
841.507	13846.67
841.832	13854.13
842.156	13820.91
842.481	13744.75
842.805	13656.39
843.13	13666.56
843.454	13683.28
843.778	13528.03
844.103	13556.28
844.427	13538.88
844.751	13436.51
845.075	13566.23
845.399	13464.31
845.723	13404.65
846.047	13372.78
846.371	13306.35
846.695	13296.63
847.019	13142.51
847.343	13128.95
847.666	13135.73
847.99	13036.52
848.313	12969.63
848.637	12874.27
848.96	12887.82
849.284	12868.62
849.607	12768.73
849.931	12753.82
850.254	12621.39
850.577	12505.91
850.9	12489.64
851.223	12452.58
851.546	12475.41
851.869	12348.86
852.192	12378.46
852.515	12324.22
852.838	12289.65
853.161	12278.12
853.483	12152.7
853.806	12134.85
854.129	12095.3
854.451	12025.25
854.774	11945.93
855.096	11940.73
855.419	11893.27
855.741	11881.52
856.063	11838.81
856.385	11798.36
856.708	11730.12
857.03	11767.63
857.352	11792.26
857.674	11689.44
857.996	11609.89
858.318	11559.72
858.64	11638.82
858.961	11519.05
859.283	11464.13
859.605	11403.8
859.926	11453.74
860.248	11378.26
860.57	11389.33
860.891	11428.2
861.212	11337.36
861.534	11325.38
861.855	11180.75
862.176	11250.35
862.498	11225.5
862.819	11238.83
863.14	11150.7
863.461	11196.57
863.782	11115.67
864.103	11090.58
864.424	11097.82
864.745	11167.64
865.065	11039.29
865.386	11051.72
865.707	10941.66
866.027	10958.38
866.348	11034.99
866.668	10988.21
866.989	10892.17
867.309	10860.76
867.63	10916.8
867.95	10820.76
868.27	10823.02
868.59	10788.67
868.91	10790.03
869.23	10789.58
869.55	10737.37
869.87	10837.48
870.19	10725.4
870.51	10762.68
870.83	10775.11
871.15	10669.13
871.469	10652.18
871.789	10669.58
872.109	10620.54
872.428	10586.87
872.748	10649.69
873.067	10562.91
873.386	10590.48
873.706	10575.12
874.025	10509.36
874.344	10518.85
874.663	10491.05
874.982	10487.89
875.301	10412.18
875.62	10466.87
875.939	10500.09
876.258	10430.04
876.577	10378.29
876.896	10404.73
877.214	10360.89
877.533	10326.54
877.852	10343.71
878.17	10345.74
878.489	10238.63
878.807	10274.79
879.125	10253.09
879.444	10276.14
879.762	10234.79
880.08	10241.79
880.398	10109.14
880.716	10143.94
881.034	10085.41
881.352	10158.18
881.67	10089.71
881.988	10127.9
882.306	10024.62
882.624	10071.4
882.941	10007.9
883.259	9924.06
883.577	9965.42
883.894	9984.85
884.212	9933.78
884.529	9871.18
884.846	9933.78
885.164	9883.38
885.481	9811.52
885.798	9806.55
886.115	9717.29
886.432	9791.41
886.75	9713.9
887.067	9700.56
887.383	9686.33
887.7	9719.55
888.017	9631.87
888.334	9621.24
888.651	9674.35
888.967	9592.09
889.284	9530.4
889.6	9507.8
889.917	9450.85
890.233	9440.01
890.55	9469.38
890.866	9400.91
891.182	9377.63
891.498	9350.06
891.815	9328.14
892.131	9320.24
892.447	9295.6
892.763	9215.83
893.079	9202.72
893.395	9204.08
893.71	9136.96
894.026	9145.1
894.342	9090.18
894.657	9013.35
894.973	9044.76
895.289	9101.71
895.604	9014.93
895.92	8976.97
896.235	8919.57
896.55	8916.18
896.865	8885.9
897.181	8844.09
897.496	8845.9
897.811	8887.7
898.126	8705.79
898.441	8746.46
898.756	8754.15
899.071	8668.73
899.386	8598.45
899.7	8597.09
900.015	8533.59
900.33	8539.24
900.644	8526.13
900.959	8531.1
901.273	8478.9
901.588	8440.26
901.902	8428.28
902.216	8337.21
902.531	8328.17
902.845	8338.34
903.159	8251.11
903.473	8227.38
903.787	8187.16
904.101	8134.05
904.415	8158.68
904.729	8121.4
905.042	8160.72
905.356	8020.16
905.67	7997.33
905.984	8087.05
906.297	8002.76
906.611	7903.32
906.924	7942.42
907.237	7841.63
907.551	7832.14
907.864	7812.93
908.177	7803.44
908.491	7838.01
908.804	7762.31
909.117	7787.17
909.43	7660.84
909.743	7646.38
910.056	7590.11
910.368	7593.5
910.681	7536.78
910.994	7490.45
911.307	7484.58
911.619	7403.45
911.932	7462.88
912.244	7395.77
912.557	7401.64
912.869	7363
913.181	7313.51
913.494	7328.65
913.806	7199.39
914.118	7226.28
914.43	7139.5
914.742	7161.65
915.054	7150.35
915.366	7117.13
915.678	7052.5
915.99	7051.59
916.302	6939.96
916.613	6981.31
916.925	6959.39
917.236	6974.76
917.548	6839.4
917.859	6876.46
918.171	6800.75
918.482	6761.88
918.794	6788.1
919.105	6779.74
919.416	6712.62
919.727	6699.97
920.038	6665.16
920.349	6663.58
920.66	6567.99
920.971	6592.85
921.282	6552.85
921.593	6467.88
921.903	6469.01
922.214	6440.31
922.525	6419.07
922.835	6405.51
923.146	6335.68
923.456	6299.3
923.767	6355.57
924.077	6311.73
924.387	6342.46
924.697	6260.88
925.008	6268.79
925.318	6222.01
925.628	6201.67
925.938	6165.06
926.248	6151.28
926.558	6093.43
926.867	6055.69
927.177	6063.37
927.487	5996.71
927.796	5976.37
928.106	5928.46
928.416	5929.59
928.725	5928.01
929.034	5891.4
929.344	5883.26
929.653	5844.17
929.962	5827.45
930.271	5777.96
930.581	5771.85
930.89	5749.03
931.199	5665.19
931.508	5680.1
931.817	5690.73
932.125	5637.62
932.434	5601.24
932.743	5540.45
933.051	5548.13
933.36	5535.02
933.669	5563.72
933.977	5469.94
934.286	5448.47
934.594	5497.51
934.902	5416.16
935.21	5406.67
935.519	5343.62
935.827	5372.99
936.135	5320.79
936.443	5319.89
936.751	5292.77
937.059	5248.7
937.367	5250.96
937.674	5224.07
937.982	5197.86
938.29	5123.06
938.597	5201.7
938.905	5064.75
939.213	5043.74
939.52	5058.65
939.827	5076.96
940.135	5069.95
940.442	5047.81
940.749	5024.08
941.056	5044.64
941.363	4950.18
941.67	4942.72
941.977	4888.26
942.284	4891.88
942.591	4870.63
942.898	4831.09
943.205	4845.32
943.511	4827.25
943.818	4805.55
944.125	4747.25
944.431	4725.33
944.738	4703.41
945.044	4711.32
945.35	4658.66
945.657	4672.22
945.963	4653.69
946.269	4630.19
946.575	4601.94
946.881	4589.29
947.187	4568.5
947.493	4505.22
947.799	4548.16
948.105	4543.64
948.41	4505.67
948.716	4483.98
949.022	4450.08
949.327	4467.48
949.633	4398.33
949.938	4399.91
950.244	4379.12
950.549	4376.18
950.854	4370.08
951.16	4320.14
951.465	4321.72
951.77	4299.35
952.075	4262.29
952.38	4235.4
952.685	4215.28
952.99	4176.64
953.294	4200.82
953.599	4178.68
953.904	4181.84
954.209	4177.55
954.513	4116.08
954.818	4093.93
955.122	4104.33
955.426	4120.15
955.731	4040.15
956.035	4019.13
956.339	3989.75
956.643	4002.18
956.948	4020.04
957.252	3921.73
957.556	3980.49
957.86	3924.67
958.163	3907.95
958.467	3889.42
958.771	3882.41
959.075	3838.57
959.378	3853.03
959.682	3835.18
959.985	3775.52
960.289	3765.35
960.592	3784.56
960.896	3771
961.199	3723.55
961.502	3725.35
961.805	3726.48
962.108	3663.21
962.411	3671.34
962.714	3616.43
963.017	3655.3
963.32	3640.16
963.623	3618.92
963.926	3594.74
964.228	3614.4
964.531	3582.31
964.833	3581.63
965.136	3474.51
965.438	3524.68
965.741	3465.93
966.043	3501.18
966.345	3449.2
966.648	3462.76
966.95	3494.63
967.252	3439.49
967.554	3455.76
967.856	3407.62
968.158	3387.96
968.46	3389.09
968.761	3368.3
969.063	3339.38
969.365	3345.25
969.666	3316.78
969.968	3269.55
970.269	3305.03
970.571	3282.65
970.872	3253.28
971.174	3231.58
971.475	3241.07
971.776	3213.73
972.077	3202.88
972.378	3194.97
972.679	3185.03
972.98	3188.19
973.281	3102.77
973.582	3150.91
973.883	3123.34
974.183	3123.34
974.484	3152.26
974.785	3087.86
975.085	3067.74
975.386	3065.71
975.686	3021.64
975.986	3053.96
976.287	3014.19
976.587	2982.32
976.887	2965.83
977.187	2938.03
977.487	2973.06
977.787	2947.07
978.087	2917.01
978.387	2918.6
978.687	2938.03
978.987	2869.11
979.286	2894.64
979.586	2832.27
979.885	2859.16
980.185	2852.16
980.484	2858.94
980.784	2795.66
981.083	2808.54
981.382	2766.74
981.682	2784.59
981.981	2763.57
982.28	2741.43
982.579	2725.61
982.878	2751.59
983.177	2730.8
983.475	2697.81
983.774	2706.62
984.073	2678.6
984.372	2662.78
984.67	2683.12
984.969	2660.52
985.267	2697.36
985.566	2626.4
985.864	2578.04
986.162	2626.4
986.461	2596.12
986.759	2581.2
987.057	2577.59
987.355	2548.89
987.653	2528.55
987.951	2528.32
988.249	2511.37
988.547	2523.58
988.844	2498.95
989.142	2496.91
989.44	2447.2
989.737	2507.76
990.035	2445.39
990.332	2453.98
990.63	2435.9
990.927	2415.11
991.224	2431.15
991.521	2396.35
991.819	2386.18
992.116	2362.23
992.413	2355.9
992.71	2349.8
993.006	2357.48
993.303	2357.48
993.6	2309.12
993.897	2319.74
994.193	2312.96
994.49	2306.86
994.787	2286.97
995.083	2332.17
995.379	2243.59
995.676	2239.07
995.972	2229.12
996.268	2251.95
996.565	2232.74
996.861	2198.84
997.157	2177.6
997.453	2194.32
997.749	2191.84
998.044	2156.13
998.34	2145.06
998.636	2167.43
998.932	2131.72
999.227	2121.33
999.523	2162.01
999.818	2114.1
1000.114	2102.12
1000.409	2075.23
1000.704	2063.48
1001	2029.35
1001.295	2062.57
1001.59	2047.66
1001.885	2046.08
1002.18	2004.95
1002.475	2037.04
1002.77	1960.88
1003.065	1970.15
1003.359	1971.95
1003.654	1989.35
1003.949	1917.72
1004.243	1947.77
1004.538	1931.95
1004.832	1918.62
1005.127	1902.8
1005.421	1888.79
1005.715	1888.11
1006.009	1869.36
1006.304	1827.78
1006.598	1842.92
1006.892	1849.47
1007.186	1843.14
1007.48	1797.04
1007.773	1795.24
1008.067	1795.24
1008.361	1778.96
1008.655	1798.17
1008.948	1786.42
1009.242	1747.1
1009.535	1762.24
1009.829	1736.48
1010.122	1762.24
1010.415	1740.55
1010.708	1744.39
1011.001	1708.01
1011.295	1699.87
1011.588	1681.57
1011.881	1683.37
1012.173	1657.16
1012.466	1653.77
1012.759	1652.87
1013.052	1656.93
1013.344	1634.79
1013.637	1608.12
1013.93	1593.88
1014.222	1592.75
1014.514	1581.91
1014.807	1562.02
1015.099	1562.7
1015.391	1596.6
1015.683	1561.34
1015.976	1571.74
1016.268	1567.22
1016.56	1531.06
1016.851	1529.48
1017.143	1500.78
1017.435	1476.15
1017.727	1486.54
1018.018	1478.41
1018.31	1484.06
1018.602	1455.58
1018.893	1466.88
1019.185	1440.22
1019.476	1445.19
1019.767	1427.79
1020.058	1417.39
1020.35	1419.43
1020.641	1388.47
1020.932	1391.18
1021.223	1392.31
1021.514	1344.4
1021.804	1364.29
1022.095	1356.15
1022.386	1367.22
1022.677	1340.11
1022.967	1345.08
1023.258	1346.21
1023.548	1303.5
1023.839	1322.71
1024.129	1294.46
1024.419	1297.4
1024.709	1283.84
1025	1291.97
1025.29	1250.84
1025.58	1257.85
1025.87	1245.19
1026.16	1230.5
1026.449	1225.53
1026.739	1218.53
1027.029	1221.69
1027.319	1210.84
1027.608	1221.24
1027.898	1171.3
1028.187	1188.02
1028.477	1183.27
1028.766	1154.12
1029.055	1165.87
1029.344	1153.67
1029.634	1128.36
1029.923	1124.52
1030.212	1141.47
1030.501	1131.52
1030.79	1124.74
1031.078	1126.33
1031.367	1074.58
1031.656	1075.25
1031.945	1080
1032.233	1074.12
1032.522	1054.01
1032.81	1054.69
1033.099	1061.7
1033.387	1065.54
1033.675	1014.92
1033.963	1044.97
1034.251	1029.83
1034.54	1042.94
1034.828	1004.75
1035.116	1025.99
1035.403	1018.76
1035.691	1014.01
1035.979	1007.46
1036.267	978.31
1036.554	998.42
1036.842	982.15
1037.129	974.69
1037.417	958.87
1037.704	972.66
1037.992	973.79
1038.279	947.12
1038.566	917.97
1038.853	917.97
1039.14	917.97
