Data from hue_140_FLMS001491_00069.txt Node
Date: Tue Feb 07 16:56:16 GMT 2017
User: dcchb
Spectrometer: FLMS00149
Trigger mode: 0
Integration Time (sec): 2.000000E-2
Scans to average: 10
Electric dark correction enabled: true
Nonlinearity correction enabled: false
Boxcar width: 0
XAxis mode: Wavelengths
Number of Pixels in Spectrum: 2048
>>>>>Begin Spectral Data<<<<<
341.393	-9.49
341.776	-9.49
342.16	-9.49
342.543	-89.49
342.927	-65.31
343.31	-66.89
343.693	-68.02
344.077	-90.85
344.46	-58.08
344.843	-58.08
345.226	-38.64
345.61	-21.24
345.993	-28.93
346.376	-10.62
346.759	29.38
347.142	26.67
347.525	39.77
347.908	54.01
348.291	82.94
348.674	89.04
349.057	119.54
349.44	120
349.823	146.21
350.206	180.79
350.588	189.37
350.971	197.73
351.354	217.85
351.737	233.21
352.119	260.78
352.502	266.21
352.884	254.91
353.267	292.65
353.65	295.59
354.032	289.71
354.414	305.08
354.797	331.97
355.179	319.77
355.562	317.05
355.944	349.37
356.326	324.96
356.709	330.39
357.091	330.61
357.473	336.94
357.855	327
358.238	324.06
358.62	345.3
359.002	320.44
359.384	336.04
359.766	348.24
360.148	352.76
360.53	318.64
360.912	345.08
361.294	338.75
361.676	334.45
362.057	311.18
362.439	316.15
362.821	316.38
363.203	326.32
363.584	311.86
363.966	312.76
364.348	323.16
364.729	333.1
365.111	314.57
365.493	319.09
365.874	309.14
366.256	322.25
366.637	341.69
367.019	317.28
367.4	294.68
367.781	309.14
368.163	315.47
368.544	294.68
368.925	326.77
369.306	318.86
369.688	309.82
370.069	324.74
370.45	315.7
370.831	296.72
371.212	314.34
371.593	321.8
371.974	310.5
372.355	326.55
372.736	312.08
373.117	317.51
373.498	317.96
373.879	331.97
374.26	317.96
374.641	303.04
375.021	324.74
375.402	313.44
375.783	338.75
376.163	325.19
376.544	322.48
376.925	338.3
377.305	331.97
377.686	319.09
378.066	310.05
378.447	335.81
378.827	313.89
379.208	334.23
379.588	341.01
379.968	323.61
380.349	337.17
380.729	347.79
381.109	370.61
381.489	348.47
381.87	328.8
382.25	339.2
382.63	351.86
383.01	322.48
383.39	330.61
383.77	346.88
384.15	330.16
384.53	346.43
384.91	334.23
385.29	344.62
385.67	338.75
386.049	336.71
386.429	368.8
386.809	336.71
387.189	338.52
387.568	349.82
387.948	351.63
388.328	353.89
388.707	354.34
389.087	351.86
389.466	340.56
389.846	330.61
390.225	361.35
390.605	355.24
390.984	377.39
391.363	379.43
391.743	361.35
392.122	372.19
392.501	359.54
392.881	373.55
393.26	362.7
393.639	383.94
394.018	366.77
394.397	360.22
394.776	360.67
395.155	374.23
395.534	369.03
395.913	394.79
396.292	371.29
396.671	377.17
397.05	405.64
397.429	380.55
397.808	375.13
398.186	375.13
398.565	380.33
398.944	404.06
399.323	388.69
399.701	397.5
400.08	372.87
400.458	398.18
400.837	411.06
401.215	396.15
401.594	388.46
401.972	397.96
402.351	416.94
402.729	387.79
403.107	381.91
403.486	404.51
403.864	424.85
404.242	396.37
404.62	419.42
404.999	413.77
405.377	434.56
405.755	430.27
406.133	410.38
406.511	414.45
406.889	435.24
407.267	412.87
407.645	417.84
408.023	430.5
408.401	439.99
408.779	430.05
409.156	440.89
409.534	430.27
409.912	432.08
410.29	434.56
410.667	449.93
411.045	463.72
411.422	450.16
411.8	451.06
412.178	468.91
412.555	477.95
412.933	454.45
413.31	454.23
413.687	475.92
414.065	486.09
414.442	475.47
414.819	476.82
415.197	488.8
415.574	481.34
415.951	499.42
416.328	479.54
416.705	491.06
417.082	508.24
417.46	498.74
417.837	520.21
418.214	499.42
418.591	496.94
418.967	510.72
419.344	508.24
419.721	531.96
420.098	539.19
420.475	526.09
420.852	519.31
421.228	541
421.605	536.48
421.982	537.39
422.358	532.19
422.735	558.4
423.111	576.93
423.488	566.99
423.864	555.69
424.241	556.14
424.617	551.4
424.994	548.23
425.37	574.9
425.746	575.35
426.123	574.9
426.499	564.96
426.875	582.81
427.251	572.41
427.627	608.35
428.003	600.21
428.379	607.22
428.756	609.7
429.132	618.51
429.507	598.18
429.883	624.84
430.259	639.31
430.635	619.64
431.011	639.08
431.387	633.66
431.763	648.34
432.138	642.02
432.514	641.57
432.89	665.75
433.265	668.46
433.641	683.82
434.016	662.81
434.392	697.61
434.767	684.95
435.143	683.37
435.518	701
435.894	704.84
436.269	709.59
436.644	721.56
437.02	724.73
437.395	714.56
437.77	713.43
438.145	742.13
438.52	742.81
438.895	783.26
439.271	750.26
439.646	767.89
440.021	794.1
440.395	792.3
440.77	787.32
441.145	766.53
441.52	809.02
441.895	796.82
442.27	785.52
442.645	785.52
443.019	817.15
443.394	817.61
443.769	815.8
444.143	826.87
444.518	821.45
444.892	818.51
445.267	849.47
445.641	848.57
446.016	825.52
446.39	846.53
446.764	840.2
447.139	828.9
447.513	852.63
447.887	859.64
448.262	889.24
448.636	873.42
449.01	872.07
449.384	888.34
449.758	887.89
450.132	883.37
450.506	882.01
450.88	929.47
451.254	919.07
451.628	951.61
452.002	934.89
452.376	958.17
452.75	955
453.123	959.75
453.497	983.7
453.871	966.08
454.244	992.97
454.618	987.09
454.992	1011.95
455.365	1025.06
455.739	1050.82
456.112	1045.17
456.486	1057.6
456.859	1060.54
457.232	1088.33
457.606	1078.16
457.979	1120.65
458.352	1120.65
458.725	1122
459.099	1137.37
459.472	1126.52
459.845	1159.07
460.218	1170.82
460.591	1194.54
460.964	1221.21
461.337	1210.14
461.71	1256.46
462.083	1232.06
462.456	1256.46
462.829	1247.88
463.201	1270.93
463.574	1290.59
463.947	1310.93
464.32	1350.92
464.692	1349.8
465.065	1390.25
465.438	1387.99
465.81	1407.87
466.183	1410.36
466.555	1462.11
466.928	1470.92
467.3	1475.89
467.672	1485.84
468.045	1521.54
468.417	1545.95
468.789	1558.83
469.161	1596.79
469.534	1637.25
469.906	1658.04
470.278	1692.38
470.65	1711.59
471.022	1724.47
471.394	1805.38
471.766	1826.84
472.138	1875.2
472.51	1896.22
472.882	1944.13
473.253	1964.24
473.625	2005.6
473.997	2045.14
474.369	2065.03
474.74	2098.7
475.112	2163.11
475.484	2240.17
475.855	2252.6
476.227	2317.91
476.598	2366.72
476.97	2413.5
477.341	2495.75
477.713	2527.17
478.084	2589.31
478.455	2678.35
478.827	2739.36
479.198	2802.41
479.569	2858.46
479.94	2982.29
480.311	3052.12
480.682	3157.21
481.053	3243.76
481.424	3291.89
481.795	3394.04
482.166	3452.56
482.537	3489.4
482.908	3657.98
483.279	3746.57
483.65	3854.36
484.021	3929.39
484.391	4036.96
484.762	4155.14
485.133	4255.03
485.503	4337.06
485.874	4467
486.244	4551.07
486.615	4696.6
486.985	4750.61
487.356	4936.37
487.726	5010.49
488.097	5184.95
488.467	5274.89
488.837	5393.53
489.207	5518.05
489.578	5653.18
489.948	5790.81
490.318	5938.6
490.688	6048.43
491.058	6138.37
491.428	6332.94
491.798	6400.74
492.168	6553.05
492.538	6682.76
492.908	6802.98
493.278	6932.25
493.648	7083.43
494.017	7178.34
494.387	7357.77
494.757	7462.4
495.126	7589.86
495.496	7656.3
495.866	7848.83
496.235	7846.35
496.605	7998.66
496.974	8171.54
497.344	8337.18
497.713	8353
498.082	8437.52
498.452	8642.03
498.821	8686.33
499.19	8733.1
499.559	8944.85
499.928	9003.15
500.298	9142.81
500.667	9226.65
501.036	9195.46
501.405	9374.89
501.774	9456.02
502.143	9509.35
502.512	9593.42
502.88	9804.49
503.249	9803.58
503.618	9874.99
503.987	9923.58
504.356	10051.71
504.724	10049
505.093	10145.04
505.462	10283.35
505.83	10346.62
506.199	10484.24
506.567	10526.28
506.936	10468.88
507.304	10682.43
507.672	10778.7
508.041	10862.77
508.409	10825.93
508.777	10980.5
509.145	11028.41
509.514	11055.08
509.882	11050.56
510.25	11167.16
510.618	11183.43
510.986	11255.52
511.354	11331.91
511.722	11379.81
512.09	11527.83
512.458	11445.8
512.826	11571
513.193	11617.1
513.561	11634.04
513.929	11737.09
514.297	11798.11
514.664	11872.23
515.032	11803.53
515.4	11884.89
515.767	11975.73
516.135	11982.51
516.502	11866.81
516.869	12130.75
517.237	12126.23
517.604	12081.72
517.972	12266.57
518.339	12211.43
518.706	12244.42
519.073	12218.89
519.44	12260.47
519.808	12404.65
520.175	12381.6
520.542	12439.22
520.909	12548.6
521.276	12488.26
521.643	12519.9
522.009	12589.95
522.376	12609.84
522.743	12619.1
523.11	12765.99
523.477	12709.5
523.843	12767.35
524.21	12913.33
524.577	12825.65
524.943	12863.62
525.31	12864.97
525.676	13021.58
526.043	13013.9
526.409	13002.6
526.776	13055.7
527.142	12990.39
527.508	13127.34
527.874	13119.66
528.241	13073.33
528.607	13073.1
528.973	13234.91
529.339	13119.43
529.705	13176.15
530.071	13197.39
530.437	13284.4
530.803	13222.7
531.169	13216.38
531.535	13176.15
531.901	13128.02
532.267	13145.19
532.632	13103.61
532.998	13148.35
533.364	13141.12
533.73	13106.1
534.095	13199.2
534.461	13154.46
534.826	13142.71
535.192	13236.94
535.557	13144.74
535.923	13081.69
536.288	13122.82
536.653	13156.04
537.019	12997.85
537.384	13034.46
537.749	12978.42
538.114	13014.57
538.479	12955.82
538.845	12946.78
539.21	12824.3
539.575	12934.35
539.94	12860.68
540.305	12883.73
540.67	12776.16
541.034	12828.36
541.399	12830.62
541.764	12722.83
542.129	12712.43
542.494	12714.24
542.858	12693.23
543.223	12666.33
543.587	12665.43
543.952	12570.29
544.316	12620.23
544.681	12570.29
545.045	12513.57
545.41	12494.13
545.774	12497.52
546.138	12414.36
546.503	12478.09
546.867	12371.88
547.231	12348.83
547.595	12335.49
547.959	12381.14
548.324	12280.81
548.688	12206.01
549.052	12172.34
549.416	12180.47
549.779	12187.93
550.143	12200.81
550.507	12170.98
550.871	12096.41
551.235	12081.26
551.599	12090.3
551.962	12118.33
552.326	11960.59
552.689	12033.58
553.053	11927.82
553.417	11882.4
553.78	12054.15
554.143	12027.25
554.507	11967.59
554.87	11827.71
555.234	11994.03
555.597	11850.54
555.96	11864.55
556.323	11897.09
556.686	11862.29
557.05	11848.95
557.413	11838.56
557.776	11838.11
558.139	11885.11
558.502	11845.34
558.865	11802.18
559.228	11915.62
559.59	11881.72
559.953	11905.68
560.316	11941.15
560.679	11835.17
561.041	11898.9
561.404	11862.51
561.767	11932.79
562.129	11799.24
562.492	11839.69
562.854	11924.43
563.217	11855.51
563.579	11885.56
563.941	11904.32
564.304	11864.55
564.666	12003.98
565.028	11979.35
565.39	11952.23
565.753	11993.81
566.115	11985.9
566.477	12058.21
566.839	12008.27
567.201	12090.98
567.563	12022.73
567.925	12075.84
568.287	12052.11
568.648	12069.97
569.01	12143.64
569.372	12123.75
569.734	12121.94
570.095	12090.53
570.457	12197.65
570.819	12189.06
571.18	12125.78
571.542	12178.66
571.903	12217.98
572.265	12198.32
572.626	12295.04
572.987	12270.19
573.349	12207.81
573.71	12189.51
574.071	12289.39
574.432	12332.33
574.794	12288.26
575.155	12379.79
575.516	12311.99
575.877	12325.1
576.238	12279.68
576.599	12325.1
576.96	12292.78
577.32	12302.05
577.681	12411.2
578.042	12299.34
578.403	12253.69
578.763	12377.98
579.124	12325.33
579.485	12438.32
579.845	12375.95
580.206	12438.09
580.566	12392.89
580.927	12392.89
581.287	12454.59
581.648	12360.35
582.008	12360.8
582.368	12328.72
582.728	12388.83
583.089	12398.54
583.449	12296.4
583.809	12297.53
584.169	12306.12
584.529	12328.94
584.889	12377.53
585.249	12313.8
585.609	12220.7
585.969	12411.88
586.329	12255.27
586.688	12353.12
587.048	12355.38
587.408	12330.98
587.768	12299.79
588.127	12190.87
588.487	12250.98
588.846	12265.89
589.206	12196.74
589.565	12178.44
589.925	12277.42
590.284	12208.49
590.643	12236.74
591.003	12249.62
591.362	12247.81
591.721	12207.81
592.08	12185.89
592.44	12235.38
592.799	12165.33
593.158	12114.71
593.517	12213.92
593.876	12227.7
594.235	12127.14
594.593	12105.67
594.952	12187.93
595.311	12107.25
595.67	12068.16
596.029	12193.35
596.387	12210.53
596.746	12181.15
597.104	12066.35
597.463	12166.91
597.822	12114.48
598.18	11989.97
598.538	12101.6
598.897	12100.02
599.255	12077.2
599.613	12211.88
599.972	12031.55
600.33	12184.54
600.688	12117.42
601.046	12151.09
601.404	12237.42
601.762	12101.6
602.12	12142.51
602.478	12196.29
602.836	12211.88
603.194	12101.15
603.552	12093.92
603.91	12059.57
604.268	12200.36
604.625	12080.36
604.983	12064.54
605.341	12098.66
605.698	12096.86
606.056	12258.89
606.413	12147.03
606.771	12201.94
607.128	12186.57
607.485	12173.01
607.843	12133.92
608.2	12304.76
608.557	12196.52
608.914	12219.34
609.272	12301.37
609.629	12252.11
609.986	12277.42
610.343	12203.75
610.7	12330.75
611.057	12305.21
611.414	12322.39
611.771	12246.23
612.127	12376.62
612.484	12294.14
612.841	12307.7
613.198	12318.55
613.554	12215.27
613.911	12324.42
614.267	12367.36
614.624	12372.1
614.98	12317.19
615.337	12426.34
615.693	12360.8
616.05	12442.16
616.406	12488.94
616.762	12376.4
617.118	12438.09
617.475	12422.95
617.831	12424.98
618.187	12530.97
618.543	12427.92
618.899	12551.53
619.255	12516.73
619.611	12590.63
619.967	12596.5
620.323	12587.69
620.678	12525.55
621.034	12572.32
621.39	12479.22
621.746	12505.21
622.101	12628.14
622.457	12552.66
622.812	12594.7
623.168	12509.95
623.523	12597.86
623.879	12651.42
624.234	12528.94
624.589	12529.84
624.945	12606
625.3	12554.92
625.655	12551.08
626.01	12581.36
626.365	12520.12
626.72	12492.55
627.075	12456.62
627.43	12429.73
627.785	12514.02
628.14	12484.42
628.495	12530.97
628.85	12467.92
629.205	12419.33
629.559	12506.11
629.914	12453.46
630.269	12441.25
630.623	12430.18
630.978	12417.3
631.332	12403.06
631.687	12525.77
632.041	12379.56
632.396	12453.46
632.75	12379.34
633.104	12356.29
633.459	12300.02
633.813	12305.67
634.167	12323.97
634.521	12342.27
634.875	12391.76
635.229	12264.76
635.583	12281.71
635.937	12175.5
636.291	12182.96
636.645	12170.75
636.999	12163.97
637.352	12159.91
637.706	12114.71
638.06	12199.45
638.413	12233.58
638.767	12110.19
639.121	12094.6
639.474	11966.24
639.828	12068.38
640.181	12070.64
640.534	12085.78
640.888	12005.11
641.241	12017.76
641.594	12056.86
641.947	12040.81
642.301	11988.84
642.654	12000.59
643.007	12004.43
643.36	12017.09
643.713	12036.29
644.066	12017.99
644.419	11886.69
644.771	12001.94
645.124	11817.77
645.477	11812.34
645.83	11747.04
646.182	11671.78
646.535	11658.22
646.888	11611.67
647.24	11574.84
647.593	11682.86
647.945	11680.82
648.298	11549.53
648.65	11531.67
649.002	11467.95
649.355	11580.94
649.707	11612.12
650.059	11617.1
650.411	11802.63
650.763	11769.18
651.115	11883.08
651.467	11770.76
651.819	11818.67
652.171	11874.04
652.523	11834.04
652.875	11877.43
653.227	11800.37
653.578	11841.72
653.93	11835.85
654.282	11775.28
654.633	11787.26
654.985	11845.56
655.337	11809.41
655.688	11809.63
656.039	11882.4
656.391	11802.63
656.742	11876.07
657.094	11812.57
657.445	11798.79
657.796	11854.38
658.147	11825.68
658.498	11836.52
658.849	11876.3
659.2	11853.7
659.551	11791.33
659.902	11909.97
660.253	11886.92
660.604	11843.98
660.955	11804.21
661.306	11907.71
661.656	11840.82
662.007	11827.49
662.358	11812.57
662.708	11841.95
663.059	11882.17
663.409	11729.86
663.76	11941.83
664.11	11894.15
664.461	11894.15
664.811	11842.4
665.161	11860.48
665.511	11870.2
665.862	11899.12
666.212	11807.15
666.562	11850.54
666.912	11793.81
667.262	11873.81
667.612	11887.15
667.962	11828.84
668.312	11883.08
668.662	11859.35
669.011	11840.82
669.361	11817.32
669.711	11873.59
670.06	11758.33
670.41	11871.78
670.76	11792.46
671.109	11810.99
671.459	11853.47
671.808	11808.05
672.157	11803.08
672.507	11722.86
672.856	11687.38
673.205	11811.89
673.554	11800.37
673.904	11763.08
674.253	11817.54
674.602	11752.23
674.951	11600.15
675.3	11563.31
675.649	11756.98
675.998	11755.17
676.346	11674.72
676.695	11691.9
677.044	11651.67
677.393	11624.55
677.741	11548.17
678.09	11553.59
678.438	11590.2
678.787	11608.28
679.135	11575.29
679.484	11460.49
679.832	11535.52
680.181	11497.78
680.529	11530.77
680.877	11452.35
681.225	11477.21
681.573	11512.01
681.922	11436.08
682.27	11391.34
682.618	11447.83
682.966	11378.23
683.314	11387.27
683.661	11344.56
684.009	11292.81
684.357	11342.75
684.705	11266.37
685.053	11353.6
685.4	11349.98
685.748	11227.5
686.095	11216.2
686.443	11191.34
686.79	11118.13
687.138	11105.47
687.485	11089.2
687.832	11072.25
688.18	11051.91
688.527	11061.63
688.874	11026.6
689.221	10954.74
689.568	11002.42
689.915	10917
690.262	10961.29
690.609	10875.87
690.956	10810.34
691.303	10807.4
691.65	10682.88
691.997	10801.98
692.344	10707.29
692.69	10656.44
693.037	10697.8
693.383	10526.5
693.73	10634.52
694.077	10489.89
694.423	10566.73
694.769	10392.72
695.116	10409.44
695.462	10399.73
695.808	10343.23
696.155	10387.3
696.501	10288.32
696.847	10292.84
697.193	10147.76
697.539	10224.36
697.885	10179.17
698.231	10116.12
698.577	10145.04
698.923	10080.64
699.269	10006.74
699.614	9945.5
699.96	9967.2
700.306	9910.25
700.651	9865.5
700.997	9864.83
701.342	9820.76
701.688	9769.46
702.033	9811.04
702.379	9728.33
702.724	9706.19
703.069	9649.01
703.415	9603.82
703.76	9629.35
704.105	9608.79
704.45	9567.66
704.795	9543.93
705.14	9517.49
705.485	9449.24
705.83	9395.69
706.175	9460.09
706.52	9387.55
706.865	9383.03
707.209	9400.88
707.554	9284.95
707.899	9324.95
708.243	9245.63
708.588	9222.36
708.932	9222.58
709.277	9202.47
709.621	9184.62
709.966	9182.58
710.31	9138.97
710.654	9076.82
710.998	9068.69
711.342	9089.25
711.687	9019.2
712.031	8965.87
712.375	8921.12
712.719	8914.34
713.063	8961.8
713.407	8918.86
713.75	8872.76
714.094	8838.64
714.438	8806.32
714.782	8799.54
715.125	8809.03
715.469	8849.03
715.812	8764.06
716.156	8703.05
716.499	8755.48
716.843	8698.98
717.186	8704.4
717.53	8727
717.873	8655.59
718.216	8643.39
718.559	8710.96
718.902	8607.91
719.246	8613.11
719.589	8600
719.932	8626.89
720.275	8578.53
720.617	8649.49
720.96	8562.71
721.303	8624.63
721.646	8576.05
721.989	8502.15
722.331	8559.55
722.674	8567.46
723.016	8477.52
723.359	8451.3
723.701	8523.62
724.044	8419.44
724.386	8403.62
724.729	8520.68
725.071	8447.46
725.413	8451.08
725.755	8418.54
726.097	8427.35
726.439	8395.71
726.782	8362.94
727.124	8449.5
727.465	8429.83
727.807	8346.45
728.149	8421.93
728.491	8315.49
728.833	8381.47
729.175	8366.33
729.516	8397.29
729.858	8355.71
730.199	8328.14
730.541	8355.49
730.882	8293.12
731.224	8364.75
731.565	8299.89
731.906	8314.81
732.248	8338.31
732.589	8324.53
732.93	8300.57
733.271	8286.56
733.612	8336.96
733.953	8331.98
734.294	8236.39
734.635	8271.65
734.976	8249.27
735.317	8253.34
735.658	8320.91
735.999	8334.02
736.339	8266.9
736.68	8377.86
737.021	8326.33
737.361	8277.07
737.702	8332.44
738.042	8303.51
738.383	8385.77
738.723	8381.47
739.063	8282.95
739.404	8376.5
739.744	8362.72
740.084	8348.71
740.424	8394.81
740.764	8322.94
741.104	8354.58
741.444	8341.93
741.784	8378.76
742.124	8389.84
742.464	8409.95
742.804	8407.01
743.143	8448.37
743.483	8507.8
743.823	8447.46
744.162	8534.69
744.502	8527.46
744.841	8526.33
745.181	8642.94
745.52	8576.95
745.86	8709.38
746.199	8703.05
746.538	8731.52
746.877	8762.71
747.216	8827.34
747.556	8829.6
747.895	8876.15
748.234	8950.5
748.573	8955.92
748.911	8962.7
749.25	9099.87
749.589	9097.39
749.928	9172.64
750.267	9196.59
750.605	9334.9
750.944	9355.23
751.283	9471.84
751.621	9508.68
751.96	9533.76
752.298	9653.53
752.636	9779.18
752.975	9823.02
753.313	9908.21
753.651	10008.1
753.989	10082.22
754.327	10201.09
754.666	10244.93
755.004	10381.42
755.342	10552.72
755.679	10632.94
756.017	10683.11
756.355	10869.77
756.693	10871.58
757.031	11067.96
757.368	11183.43
757.706	11318.35
758.044	11424.33
758.381	11633.37
758.719	11718.79
759.056	11928.73
759.394	12055.95
759.731	12099.79
760.068	12266.34
760.405	12405.78
760.743	12591.31
761.08	12807.35
761.417	12873.33
761.754	13055.25
762.091	13294.79
762.428	13315.58
762.765	13513.54
763.102	13726.64
763.438	13846.87
763.775	13878.51
764.112	14125.05
764.449	14321.88
764.785	14422.45
765.122	14528.88
765.458	14693.4
765.795	14782.89
766.131	15017.68
766.467	15130.22
766.804	15227.85
767.14	15382.42
767.476	15456.09
767.812	15542.42
768.148	15632.58
768.485	15769.3
768.821	15870.77
769.157	15944.44
769.492	16123.42
769.828	16243.19
770.164	16215.84
770.5	16417.65
770.836	16531.99
771.171	16574.48
771.507	16700.58
771.842	16700.35
772.178	16861.93
772.513	17067.57
772.849	17084.07
773.184	17091.08
773.519	17220.34
773.855	17317.96
774.19	17228.93
774.525	17399.54
774.86	17461.46
775.195	17510.73
775.53	17625.75
775.865	17621.91
776.2	17535.81
776.535	17550.05
776.87	17669.14
777.205	17709.59
777.539	17716.14
777.874	17809.02
778.209	17663.04
778.543	17821
778.878	17807.22
779.212	17888.34
779.547	17664.85
779.881	17998.85
780.215	17840.21
780.55	17927.44
780.884	17911.62
781.218	17870.72
781.552	18009.24
781.886	18037.49
782.22	17964.27
782.554	17895.12
782.888	17837.72
783.222	17858.74
783.556	17847.21
783.889	17884.28
784.223	17780.78
784.557	17800.21
784.89	17871.62
785.224	17809.25
785.557	17752.53
785.891	17712.3
786.224	17702.36
786.558	17756.37
786.891	17602.7
787.224	17615.58
787.557	17644.28
787.891	17604.73
788.224	17706.88
788.557	17716.6
788.89	17604.73
789.223	17624.4
789.556	17621.46
789.888	17463.5
790.221	17559.54
790.554	17338.3
790.887	17437.96
791.219	17403.16
791.552	17275.93
791.884	17300.56
792.217	17324.97
792.549	17301.92
792.882	17096.5
793.214	17049.95
793.546	17201.36
793.879	16988.48
794.211	16935.6
794.543	17127.46
794.875	17027.57
795.207	17039.1
795.539	17007.69
795.871	17013.56
796.203	16824.19
796.535	16810.41
796.867	16847.01
797.198	16772.89
797.53	16683.4
797.862	16655.38
798.193	16775.15
798.525	16553.92
798.856	16638.88
799.188	16485.67
799.519	16414.71
799.85	16318.67
800.182	16400.92
800.513	16454.26
800.844	16249.52
801.175	16413.81
801.506	16352.79
801.837	16193.47
802.168	16197.54
802.499	16134.94
802.83	16141.27
803.161	16133.14
803.491	16105.34
803.822	16037.09
804.153	15920.49
804.483	15880.26
804.814	15842.97
805.145	15792.81
805.475	15850.66
805.805	15787.61
806.136	15767.72
806.466	15742.86
806.796	15727.27
807.126	15642.07
807.457	15626.26
807.787	15592.81
808.117	15524.79
808.447	15460.38
808.777	15614.05
809.107	15441.63
809.436	15367.28
809.766	15339.03
810.096	15328.86
810.426	15268.75
810.755	15346.04
811.085	15300.39
811.414	15255.19
811.744	15108.08
812.073	15060.85
812.403	15151.24
812.732	14981.75
813.061	15076.21
813.39	14951.02
813.719	14969.1
814.049	14907.18
814.378	14998.25
814.707	14986.05
815.036	14860.63
815.365	14870.57
815.693	14776.33
816.022	14785.83
816.351	14735.21
816.68	14651.14
817.008	14740.86
817.337	14638.71
817.665	14516
817.994	14557.81
818.322	14657.47
818.651	14563.46
818.979	14429.9
819.307	14502.44
819.636	14494.76
819.964	14380.19
820.292	14437.81
820.62	14432.39
820.948	14388.1
821.276	14421.99
821.604	14358.94
821.932	14406.4
822.259	14390.81
822.587	14344.03
822.915	14283.69
823.243	14352.17
823.57	14354.88
823.898	14337.48
824.225	14315.1
824.553	14333.18
824.88	14303.58
825.207	14452.28
825.535	14392.39
825.862	14276.91
826.189	14379.96
826.516	14388.55
826.843	14471.26
827.17	14396.23
827.497	14378.15
827.824	14459.51
828.151	14412.28
828.478	14382.22
828.805	14476.46
829.131	14485.04
829.458	14381.32
829.785	14370.47
830.111	14402.79
830.438	14325.95
830.764	14493.86
831.09	14412.95
831.417	14256.12
831.743	14412.05
832.069	14393.07
832.395	14303.35
832.722	14388.1
833.048	14244.37
833.374	14357.36
833.7	14270.81
834.026	14211.83
834.351	14306.29
834.677	14316.23
835.003	14237.59
835.329	14188.55
835.654	14243.02
835.98	14233.75
836.306	14183.81
836.631	14125.05
836.956	14231.49
837.282	14231.72
837.607	14123.02
837.932	14036.47
838.258	14080.08
838.583	14101.78
838.908	14019.74
839.233	13999.41
839.558	13997.82
839.883	13891.39
840.208	13936.13
840.533	13863.14
840.858	13884.38
841.182	13836.7
841.507	13850.71
841.832	13822.46
842.156	13735.91
842.481	13769.58
842.805	13706.98
843.13	13717.61
843.454	13620.43
843.778	13604.39
844.103	13613.88
844.427	13520.77
844.751	13536.37
845.075	13542.24
845.399	13426.09
845.723	13387.9
846.047	13346.77
846.371	13255.24
846.695	13344.96
847.019	13233.32
847.343	13086.44
847.666	13138.86
847.99	13003.95
848.313	13037.62
848.637	12916.72
848.96	12982.03
849.284	12902.94
849.607	12765.31
849.931	12759.44
850.254	12717.41
850.577	12658.42
850.9	12614.58
851.223	12545.21
851.546	12493.68
851.869	12430.41
852.192	12409.17
852.515	12261.82
852.838	12224.31
853.161	12264.54
853.483	12270.19
853.806	12161.26
854.129	12098.44
854.451	12019.57
854.774	12038.78
855.096	12058.89
855.419	11968.27
855.741	11926.47
856.063	11884.89
856.385	11825.9
856.708	11806.02
857.03	11667.94
857.352	11779.58
857.674	11769.18
857.996	11633.14
858.318	11622.07
858.64	11648.51
858.961	11649.86
859.283	11506.82
859.605	11548.85
859.926	11557.44
860.248	11487.83
860.57	11431.11
860.891	11406.25
861.212	11345.24
861.534	11339.36
861.855	11324.22
862.176	11281.96
862.498	11353.83
862.819	11334.84
863.14	11222.53
863.461	11278.12
863.782	11195.19
864.103	11198.58
864.424	11156.77
864.745	11163.55
865.065	11118.13
865.386	11077.67
865.707	11020.5
866.027	11091.91
866.348	11025.02
866.668	11022.54
866.989	11030.22
867.309	10964.01
867.63	11010.33
867.95	10964.68
868.27	10827.29
868.59	10926.49
868.91	10898.24
869.23	10900.28
869.55	10838.81
869.87	10862.54
870.19	10850.79
870.51	10862.99
870.83	10881.75
871.15	10776.89
871.469	10680.4
871.789	10806.27
872.109	10708.64
872.428	10744.8
872.748	10764.46
873.067	10733.96
873.386	10637.01
873.706	10608.08
874.025	10646.5
874.344	10561.76
874.663	10620.06
874.982	10586.61
875.301	10589.55
875.62	10525.37
875.939	10487.18
876.258	10527.18
876.577	10488.54
876.896	10476.33
877.214	10399.27
877.533	10443.12
877.852	10453.51
878.17	10446.73
878.489	10398.14
878.807	10387.75
879.125	10353.85
879.444	10336
879.762	10329.22
880.08	10271.59
880.398	10262.78
880.716	10239.96
881.034	10286.74
881.352	10298.94
881.67	10193.18
881.988	10216.23
882.306	10169.22
882.624	10126.29
882.941	10095.78
883.259	10031.15
883.577	10056.68
883.894	9953.41
884.212	9999.96
884.529	10039.51
884.846	9950.92
885.164	10023.47
885.481	9870.93
885.798	9941.43
886.115	9827.54
886.432	9848.78
886.75	9793.64
887.067	9861.66
887.383	9796.58
887.7	9770.59
888.017	9723.13
888.334	9775.34
888.651	9703.7
888.967	9586.41
889.284	9656.92
889.6	9602.69
889.917	9492.63
890.233	9527.43
890.55	9523.59
890.866	9565.62
891.182	9491.95
891.498	9439.98
891.815	9419.41
892.131	9370.83
892.447	9344.16
892.763	9286.76
893.079	9302.35
893.395	9255.12
893.71	9231.62
894.026	9225.52
894.342	9178.52
894.657	9123.15
894.973	9075.47
895.289	9125.86
895.604	9057.61
895.92	9024.4
896.235	8969.48
896.55	8992.76
896.865	8924.51
897.181	8979.65
897.496	8912.08
897.811	8789.83
898.126	8844.97
898.441	8837.51
898.756	8783.05
899.071	8699.21
899.386	8709.15
899.7	8648.36
900.015	8570.62
900.33	8564.07
900.644	8548.7
900.959	8613.33
901.273	8484.3
901.588	8464.64
901.902	8389.61
902.216	8407.01
902.531	8433.9
902.845	8376.05
903.159	8334.47
903.473	8311.19
903.787	8291.08
904.101	8196.39
904.415	8158.88
904.729	8195.72
905.042	8085.44
905.356	8117.07
905.67	8132.89
905.984	8040.92
906.297	8051.54
906.611	7960.69
906.924	7950.98
907.237	7929.96
907.551	7902.62
907.864	7863.75
908.177	7838.89
908.491	7863.52
908.804	7741.94
909.117	7695.84
909.43	7704.43
909.743	7641.61
910.056	7590.31
910.368	7576.75
910.681	7571.55
910.994	7569.97
911.307	7515.51
911.619	7404.78
911.932	7475.96
912.244	7344.44
912.557	7374.5
912.869	7336.76
913.181	7293.59
913.494	7314.38
913.806	7244.78
914.118	7225.35
914.43	7250.88
914.742	7135.86
915.054	7183.54
915.366	7091.79
915.678	7086.82
915.99	7015.86
916.302	6965.47
916.613	7028.29
916.925	6994.62
917.236	6958.46
917.548	6893.6
917.859	6889.99
918.171	6871.23
918.482	6851.57
918.794	6772.03
919.105	6757.34
919.416	6728.64
919.727	6761.63
920.038	6679.15
920.349	6675.76
920.66	6626.27
920.971	6620.16
921.282	6552.14
921.593	6546.04
921.903	6553.5
922.214	6505.82
922.525	6494.29
922.835	6505.82
923.146	6384.92
923.456	6438.7
923.767	6409.55
924.077	6375.43
924.387	6297.91
924.697	6319.38
925.008	6292.49
925.318	6246.39
925.628	6203.45
925.938	6217.01
926.248	6159.16
926.558	6136.56
926.867	6126.62
927.177	6138.82
927.487	6078.48
927.796	6015.66
928.106	6001.2
928.416	6023.34
928.725	5982.22
929.034	5901.31
929.344	5952.39
929.653	5870.13
929.962	5869.68
930.271	5830.13
930.581	5840.52
930.89	5794.88
931.199	5809.56
931.508	5735.44
931.817	5739.96
932.125	5686.4
932.434	5708.32
932.743	5657.93
933.051	5680.08
933.36	5619.06
933.669	5572.06
933.977	5557.14
934.286	5568.67
934.594	5540.65
934.902	5472.85
935.21	5473.08
935.519	5460.87
935.827	5437.37
936.135	5410.71
936.443	5380.42
936.751	5388.56
937.059	5337.26
937.367	5306.08
937.674	5309.24
937.982	5306.53
938.29	5261.33
938.597	5271.73
938.905	5191.73
939.213	5212.74
939.52	5129.81
939.827	5134.1
940.135	5083.71
940.442	5135.46
940.749	5065.86
941.056	5090.04
941.363	5069.7
941.67	5031.73
941.977	4980.21
942.284	4971.17
942.591	4959.42
942.898	4930.72
943.205	4950.15
943.511	4922.13
943.818	4857.73
944.125	4849.14
944.431	4819.76
944.738	4827.22
945.044	4769.82
945.35	4755.36
945.657	4704.74
945.963	4769.14
946.269	4682.59
946.575	4724.4
946.881	4676.94
947.187	4644.85
947.493	4580.44
947.799	4572.76
948.105	4596.04
948.41	4552.2
948.716	4541.58
949.022	4532.99
949.327	4500.9
949.633	4467.23
949.938	4464.52
950.244	4462.26
950.549	4423.39
950.854	4386.33
951.16	4422.03
951.465	4384.07
951.77	4398.98
952.075	4331.19
952.38	4300.23
952.685	4286.89
952.99	4299.32
953.294	4279.21
953.599	4265.42
953.904	4196.05
954.209	4232.21
954.513	4202.83
954.818	4189.49
955.122	4148.59
955.426	4126.22
955.731	4116.95
956.035	4095.71
956.339	4111.08
956.643	4075.83
956.948	4065.43
957.252	4012.32
957.556	3984.3
957.86	3997.86
958.163	3979.33
958.467	3975.71
958.771	3914.7
959.075	3930.74
959.378	3888.94
959.682	3885.1
959.985	3868.82
960.289	3895.94
960.592	3853.91
960.896	3864.53
961.199	3821.37
961.502	3796.51
961.805	3761.48
962.108	3777.53
962.411	3754.03
962.714	3785.89
963.017	3703.41
963.32	3690.07
963.623	3711.31
963.926	3701.6
964.228	3688.49
964.531	3662.73
964.833	3642.16
965.136	3606.91
965.438	3590.64
965.741	3555.16
966.043	3573.01
966.345	3571.43
966.648	3569.4
966.95	3512.68
967.252	3466.8
967.554	3490.98
967.856	3491.66
968.158	3415.28
968.46	3454.15
968.761	3428.84
969.063	3404.88
969.365	3371.89
969.666	3377.76
969.968	3357.2
970.269	3328.95
970.571	3321.27
970.872	3312.46
971.174	3281.27
971.475	3319.69
971.776	3264.09
972.077	3277.65
972.378	3268.61
972.679	3220.03
972.98	3262.74
973.281	3203.08
973.582	3195.4
973.883	3151.56
974.183	3161.95
974.484	3141.16
974.785	3164.44
975.085	3155.62
975.386	3142.29
975.686	3087.6
975.986	3104.33
976.287	3051.45
976.587	3054.38
976.887	3014.84
977.187	3050.54
977.487	3048.28
977.787	2982.97
978.087	3029.98
978.387	2993.59
978.687	2989.07
978.987	2935.29
979.286	2946.82
979.586	2881.96
979.885	2923.09
980.185	2868.63
980.484	2891.45
980.784	2851.22
981.083	2854.84
981.382	2874.05
981.682	2832.69
981.981	2846.93
982.28	2790.21
982.579	2797.67
982.878	2825.91
983.177	2787.72
983.475	2768.97
983.774	2744.11
984.073	2758.8
984.372	2731.23
984.67	2705.47
984.969	2674.51
985.267	2677.9
985.566	2681.51
985.864	2636.77
986.162	2672.25
986.461	2616.2
986.759	2638.8
987.057	2618.01
987.355	2580.5
987.653	2577.56
987.951	2583.43
988.249	2576.88
988.547	2550.89
988.844	2529.65
989.142	2488.07
989.44	2534.17
989.737	2471.8
990.035	2493.04
990.332	2481.52
990.63	2459.82
990.927	2488.97
991.224	2477.67
991.521	2416.66
991.819	2417.34
992.116	2419.15
992.413	2454.62
992.71	2389.54
993.006	2385.47
993.303	2380.5
993.6	2401.52
993.897	2358.58
994.193	2355.64
994.49	2326.27
994.787	2289.43
995.083	2330.11
995.379	2285.82
995.676	2296.44
995.972	2271.8
996.268	2255.53
996.565	2262.77
996.861	2244.01
997.157	2214.63
997.453	2222.09
997.749	2211.02
998.044	2185.25
998.34	2175.31
998.636	2166.72
998.932	2219.38
999.227	2163.56
999.523	2164.01
999.818	2153.39
1000.114	2117.46
1000.409	2129.21
1000.704	2087.85
1001	2070.45
1001.295	2064.8
1001.59	2037.91
1001.885	2038.82
1002.18	2052.83
1002.475	2026.39
1002.77	2034.07
1003.065	2021.64
1003.359	2019.38
1003.654	1993.62
1003.949	1988.87
1004.243	1964.47
1004.538	1930.57
1004.832	1966.05
1005.127	1961.76
1005.421	1946.16
1005.715	1909.33
1006.009	1913.85
1006.304	1889.89
1006.598	1859.16
1006.892	1863.23
1007.186	1847.86
1007.48	1859.61
1007.773	1806.05
1008.067	1807.86
1008.361	1821.2
1008.655	1786.17
1008.948	1802.44
1009.242	1792.5
1009.535	1790.46
1009.829	1768.09
1010.122	1768.54
1010.415	1751.37
1010.708	1758.15
1011.001	1735.55
1011.295	1722.44
1011.588	1694.19
1011.881	1706.17
1012.173	1683.12
1012.466	1688.77
1012.759	1646.06
1013.052	1681.54
1013.344	1695.1
1013.637	1667.53
1013.93	1625.04
1014.222	1576.91
1014.514	1609.9
1014.807	1591.6
1015.099	1584.82
1015.391	1559.51
1015.683	1560.64
1015.976	1564.7
1016.268	1536
1016.56	1528.32
1016.851	1513.18
1017.143	1526.97
1017.435	1504.82
1017.727	1508.43
1018.018	1508.66
1018.31	1503.01
1018.602	1492.62
1018.893	1464.14
1019.185	1456.91
1019.476	1467.98
1019.767	1467.76
1020.058	1449.91
1020.35	1413.52
1020.641	1397.03
1020.932	1383.92
1021.223	1394.09
1021.514	1395.67
1021.804	1375.78
1022.095	1367.65
1022.386	1345.05
1022.677	1343.92
1022.967	1356.8
1023.258	1317.25
1023.548	1324.94
1023.839	1315.45
1024.129	1303.47
1024.419	1304.37
1024.709	1293.3
1025	1310.02
1025.29	1283.13
1025.58	1263.47
1025.87	1248.33
1026.16	1235.45
1026.449	1239.29
1026.739	1209.91
1027.029	1218.05
1027.319	1210.59
1027.608	1227.31
1027.898	1197.48
1028.187	1202.45
1028.477	1190.93
1028.766	1190.25
1029.055	1172.85
1029.344	1157.71
1029.634	1151.16
1029.923	1172.62
1030.212	1126.3
1030.501	1140.31
1030.79	1147.54
1031.078	1116.13
1031.367	1100.99
1031.656	1094.43
1031.945	1101.67
1032.233	1085.17
1032.522	1080.2
1032.81	1079.29
1033.099	1086.3
1033.387	1066.64
1033.675	1067.09
1033.963	1053.08
1034.251	1026.87
1034.54	1056.92
1034.828	1033.19
1035.116	1011.72
1035.403	1039.52
1035.691	1003.82
1035.979	1018.28
1036.267	1013.76
1036.554	983.02
1036.842	969.24
1037.129	970.82
1037.417	969.01
1037.704	957.04
1037.992	961.33
1038.279	922.69
1038.566	949.81
1038.853	949.81
1039.14	949.81
