Data from hue_22_FLMS001491_00088.txt Node
Date: Tue Feb 07 17:10:47 GMT 2017
User: dcchb
Spectrometer: FLMS00149
Trigger mode: 0
Integration Time (sec): 2.000000E-2
Scans to average: 10
Electric dark correction enabled: true
Nonlinearity correction enabled: false
Boxcar width: 0
XAxis mode: Wavelengths
Number of Pixels in Spectrum: 2048
>>>>>Begin Spectral Data<<<<<
341.393	-10.75
341.776	-10.75
342.16	-10.75
342.543	-87.58
342.927	-86.9
343.31	-86.9
343.693	-43.74
344.077	-68.6
344.46	-63.63
344.843	-72.44
345.226	-28.83
345.61	-45.55
345.993	-17.75
346.376	-0.13
346.759	18.4
347.142	35.13
347.525	37.16
347.908	49.82
348.291	95.24
348.674	94.33
349.057	97.5
349.44	121.9
349.823	128.68
350.206	171.85
350.588	181.34
350.971	208.91
351.354	231.05
351.737	234.89
352.119	243.26
352.502	262.46
352.884	266.08
353.267	296.81
353.65	297.94
354.032	304.72
354.414	309.24
354.797	322.12
355.179	323.93
355.562	329.58
355.944	324.38
356.326	333.42
356.709	363.93
357.091	344.72
357.473	352.41
357.855	305.63
358.238	335.46
358.62	321.67
359.002	349.69
359.384	362.35
359.766	348.56
360.148	356.02
360.53	328.23
360.912	332.52
361.294	346.76
361.676	323.03
362.057	329.81
362.439	335.23
362.821	327.1
363.203	314.44
363.584	338.85
363.966	327.32
364.348	329.13
364.729	311.05
365.111	338.62
365.493	323.25
365.874	315.12
366.256	295.68
366.637	325.74
367.019	316.93
367.4	314.89
367.781	305.85
368.163	325.29
368.544	316.47
368.925	328
369.306	328.45
369.688	302.69
370.069	318.96
370.45	322.8
370.831	345.63
371.212	304.72
371.593	330.03
371.974	313.76
372.355	298.17
372.736	328
373.117	298.17
373.498	336.81
373.879	323.25
374.26	300.2
374.641	314.67
375.021	300.43
375.402	331.39
375.783	321.22
376.163	324.61
376.544	317.6
376.925	323.03
377.305	335.01
377.686	328.68
378.066	333.88
378.447	330.49
378.827	333.42
379.208	340.43
379.588	333.42
379.968	331.84
380.349	340.65
380.729	336.59
381.109	329.36
381.489	341.11
381.87	350.6
382.25	346.98
382.63	367.32
383.01	337.27
383.39	353.76
383.77	344.5
384.15	370.03
384.53	354.21
384.91	370.94
385.29	349.02
385.67	352.18
386.049	365.06
386.429	366.19
386.809	351.28
387.189	355.57
387.568	361.45
387.948	362.8
388.328	376.36
388.707	357.38
389.087	379.75
389.466	376.81
389.846	349.92
390.225	388.79
390.605	385.17
390.984	375.68
391.363	365.96
391.743	376.13
392.122	380.88
392.501	390.37
392.881	383.37
393.26	388.11
393.639	399.86
394.018	385.4
394.397	387.89
394.776	389.24
395.155	393.76
395.534	411.39
395.913	391.73
396.292	393.08
396.671	400.99
397.05	395.12
397.429	412.52
397.808	414.1
398.186	404.83
398.565	413.2
398.944	395.34
399.323	408.22
399.701	423.36
400.08	410.94
400.458	421.1
400.837	417.26
401.215	402.35
401.594	418.17
401.972	451.61
402.351	422.91
402.729	395.34
403.107	431.95
403.486	421.1
403.864	419.52
404.242	457.71
404.62	438.73
404.999	434.44
405.377	425.62
405.755	449.35
406.133	445.28
406.511	460.88
406.889	457.26
407.267	446.87
407.645	463.14
408.023	468.56
408.401	471.27
408.779	474.89
409.156	470.82
409.534	485.51
409.912	472.63
410.29	453.42
410.667	484.38
411.045	466.3
411.422	477.15
411.8	480.54
412.178	477.6
412.555	493.19
412.933	476.47
413.31	497.26
413.687	494.55
414.065	486.19
414.442	512.18
414.819	500.88
415.197	508.33
415.574	521.89
415.951	524.38
416.328	523.47
416.705	495
417.082	502.68
417.46	530.25
417.837	545.4
418.214	526.19
418.591	532.29
418.967	562.57
419.344	553.76
419.721	529.12
420.098	563.47
420.475	569.12
420.852	565.73
421.228	558.28
421.605	567.09
421.982	564.6
422.358	572.06
422.735	559.63
423.111	588.11
423.488	573.64
423.864	590.14
424.241	605.28
424.617	604.15
424.994	593.3
425.37	595.79
425.746	615.68
426.123	598.28
426.499	598.5
426.875	627.65
427.251	621.1
427.627	636.92
428.003	642.34
428.379	641.44
428.756	640.08
429.132	655.9
429.507	651.61
429.883	655.67
430.259	656.58
430.635	671.04
431.011	662.91
431.387	674.88
431.763	677.82
432.138	689.12
432.514	707.42
432.89	697.26
433.265	707.42
433.641	716.01
434.016	733.41
434.392	725.96
434.767	732.28
435.143	726.63
435.518	742.45
435.894	754.88
436.269	767.31
436.644	774.77
437.02	784.26
437.395	779.74
437.77	778.16
438.145	796.69
438.52	798.04
438.895	783.81
439.271	800.98
439.646	815.22
440.021	814.09
440.395	825.39
440.77	817.7
441.145	818.61
441.52	839.17
441.895	839.4
442.27	855.67
442.645	880.98
443.019	855.67
443.394	865.16
443.769	864.93
444.143	867.87
444.518	879.17
444.892	891.6
445.267	883.69
445.641	884.37
446.016	889.34
446.39	902.9
446.764	921.43
447.139	905.61
447.513	905.61
447.887	932.96
448.262	912.17
448.636	918.49
449.01	909.23
449.384	918.94
449.758	941.32
450.132	956.91
450.506	958.27
450.88	968.89
451.254	961.88
451.628	993.52
452.002	977.93
452.376	1002.11
452.75	1036.46
453.123	1003.01
453.497	1022.9
453.871	1043.01
454.244	1043.24
454.618	1050.24
454.992	1058.6
455.365	1073.07
455.739	1067.19
456.112	1130.69
456.486	1097.7
456.859	1115.32
457.232	1129.33
457.606	1133.18
457.979	1139.28
458.352	1173.63
458.725	1168.43
459.099	1195.1
459.472	1189.67
459.845	1218.6
460.218	1243.46
460.591	1240.74
460.964	1248.43
461.337	1275.32
461.71	1283.68
462.083	1277.58
462.456	1286.39
462.829	1299.73
463.201	1330.91
463.574	1331.59
463.947	1340.4
464.32	1386.05
464.692	1372.94
465.065	1418.14
465.438	1424.24
465.81	1448.42
466.183	1441.87
466.555	1458.59
466.928	1485.26
467.3	1452.04
467.672	1486.39
468.045	1537.69
468.417	1547.18
468.789	1580.62
469.161	1567.97
469.534	1633.28
469.906	1633.95
470.278	1645.48
470.65	1678.92
471.022	1717.34
471.394	1735.19
471.766	1736.1
472.138	1762.31
472.51	1770
472.882	1830.33
473.253	1825.59
473.625	1879.15
473.997	1921.86
474.369	1934.29
474.74	1971.57
475.112	1994.85
475.484	2017.45
475.855	2057.22
476.227	2084.56
476.598	2113.72
476.97	2159.82
477.341	2220.15
477.713	2257.89
478.084	2271.23
478.455	2334.27
478.827	2362.97
479.198	2420.6
479.569	2415.63
479.94	2515.51
480.311	2504.67
480.682	2564.55
481.053	2628.05
481.424	2678.45
481.795	2705.79
482.166	2766.81
482.537	2782.17
482.908	2890.64
483.279	2894.26
483.65	2960.02
484.021	2986.46
484.391	3076.4
484.762	3126.8
485.133	3124.08
485.503	3207.25
485.874	3280.46
486.244	3320.01
486.615	3384.64
486.985	3429.39
487.356	3531.98
487.726	3514.58
488.097	3569.95
488.467	3633
488.837	3718.19
489.207	3748.7
489.578	3812.65
489.948	3845.2
490.318	3930.39
490.688	3941.92
491.058	4016.26
491.428	4069.14
491.798	4124.51
492.168	4154.57
492.538	4206.99
492.908	4275.24
493.278	4294.45
493.648	4373.09
494.017	4424.84
494.387	4454.9
494.757	4505.52
495.126	4547.1
495.496	4576.25
495.866	4602.24
496.235	4682.91
496.605	4704.83
496.974	4753.65
497.344	4806.07
497.713	4911.38
498.082	4898.5
498.452	4984.37
498.821	4957.26
499.19	4947.09
499.559	5033.19
499.928	5030.02
500.298	5085.61
500.667	5136.24
501.036	5135.56
501.405	5240.41
501.774	5210.13
502.143	5217.59
502.512	5280.86
502.88	5362.22
503.249	5351.6
503.618	5393.18
503.987	5410.58
504.356	5469.11
504.724	5485.38
505.093	5500.97
505.462	5501.65
505.83	5558.82
506.199	5590.69
506.567	5635.43
506.936	5686.05
507.304	5714.07
507.672	5716.11
508.041	5795.65
508.409	5792.71
508.777	5881.98
509.145	5879.04
509.514	5916.1
509.882	5953.16
510.25	6015.99
510.618	6010.11
510.986	5988.87
511.354	6075.65
511.722	6119.03
512.09	6059.15
512.458	6118.36
512.826	6182.08
513.193	6251.69
513.561	6205.13
513.929	6251.01
514.297	6327.39
514.664	6362.42
515.032	6407.84
515.4	6433.83
515.767	6458.46
516.135	6443.55
516.502	6407.16
516.869	6575.75
517.237	6560.15
517.604	6538.68
517.972	6615.29
518.339	6665.23
518.706	6613.26
519.073	6632.24
519.44	6732.13
519.808	6806.7
520.175	6726.02
520.542	6844.89
520.909	6879.69
521.276	6897.09
521.643	6917.43
522.009	6990.88
522.376	6986.81
522.743	7020.03
523.11	7082.85
523.477	7140.48
523.843	7161.27
524.21	7290.75
524.577	7325.56
524.943	7276.97
525.31	7383.41
525.676	7347.25
526.043	7451.88
526.409	7526.45
526.776	7566.91
527.142	7567.58
527.508	7597.64
527.874	7710.18
528.241	7716.73
528.607	7686.9
528.973	7764.64
529.339	7758.31
529.705	7883.96
530.071	7905.88
530.437	7930.51
530.803	7953.34
531.169	8049.38
531.535	8022.03
531.901	8049.38
532.267	8105.2
532.632	8157.85
532.998	8193.33
533.364	8164.4
533.73	8262.48
534.095	8323.5
534.461	8334.12
534.826	8406.21
535.192	8441.46
535.557	8432.19
535.923	8458.63
536.288	8545.86
536.653	8547.44
537.019	8580.44
537.384	8625.41
537.749	8610.95
538.114	8667.22
538.479	8699.98
538.845	8753.54
539.21	8714.67
539.575	8803.71
539.94	8877.38
540.305	8938.85
540.67	8889.58
541.034	8892.29
541.399	8967.55
541.764	8952.86
542.129	9010.94
542.494	9044.61
542.858	9118.96
543.223	9140.2
543.587	9152.85
543.952	9148.33
544.316	9234.66
544.681	9189.01
545.045	9331.15
545.41	9451.15
545.774	9440.98
546.138	9485.05
546.503	9484.14
546.867	9469
547.231	9523.92
547.595	9546.29
547.959	9554.65
548.324	9649.56
548.688	9703.35
549.052	9626.51
549.416	9679.17
549.779	9655.44
550.143	9766.85
550.507	9800.29
550.871	9804.36
551.235	9822.67
551.599	9945.37
551.962	9913.06
552.326	9995.32
552.689	10034.19
553.053	10010.91
553.417	10053.62
553.78	10167.74
554.143	10091.81
554.507	10221.75
554.87	10227.17
555.234	10232.15
555.597	10231.92
555.96	10260.39
556.323	10358.24
556.686	10314.63
557.05	10443.21
557.413	10477.34
557.776	10468.07
558.139	10537
558.502	10514.62
558.865	10552.36
559.228	10598.01
559.59	10618.58
559.953	10659.48
560.316	10793.04
560.679	10734.51
561.041	10854.73
561.404	10833.26
561.767	10903.09
562.129	10913.26
562.492	11066.93
562.854	10983.09
563.217	10939.25
563.579	11089.3
563.941	11138.11
564.304	11181.73
564.666	11193.93
565.028	11279.58
565.39	11271.89
565.753	11326.58
566.115	11382.62
566.477	11430.98
566.839	11497.42
567.201	11511.21
567.563	11577.65
567.925	11596.63
568.287	11684.54
568.648	11699.9
569.01	11772.44
569.372	11795.49
569.734	11801.37
570.095	11873.46
570.457	11927.92
570.819	11963.63
571.18	11968.82
571.542	12060.57
571.903	12108.71
572.265	12176.28
572.626	12269.38
572.987	12247.01
573.349	12308.25
573.71	12481.35
574.071	12396.61
574.432	12534.91
574.794	12644.74
575.155	12654.46
575.516	12621.46
575.877	12674.34
576.238	12771.06
576.599	12868.24
576.96	12971.96
577.32	13079.75
577.681	13077.95
578.042	13222.12
578.403	13298.28
578.763	13413.08
579.124	13459.63
579.485	13661.43
579.845	13774.2
580.206	13846.06
580.566	13891.26
580.927	14073.85
581.287	14142.1
581.648	14344.58
582.008	14453.05
582.368	14595.2
582.728	14724.91
583.089	14937.79
583.449	15076.99
583.809	15196.76
584.169	15416.19
584.529	15498.45
584.889	15837.65
585.249	15902.05
585.609	16066.12
585.969	16321.25
586.329	16449.16
586.688	16714.01
587.048	16978.41
587.408	17143.83
587.768	17322.13
588.127	17546.76
588.487	17787.43
588.846	18153.75
589.206	18247.75
589.565	18571.36
589.925	18937.45
590.284	19047.51
590.643	19419.02
591.003	19828.05
591.362	20037.99
591.721	20320.47
592.08	20576.06
592.44	20930.4
592.799	21201.8
593.158	21426.88
593.517	21717.49
593.876	21994.55
594.235	22308.44
594.593	22640.63
594.952	23095.99
595.311	23238.36
595.67	23662.53
596.029	24044.44
596.387	24314.94
596.746	24761.03
597.104	24905.21
597.463	25163.51
597.822	25574.57
598.18	25762.36
598.538	26205.74
598.897	26648.66
599.255	26646.86
599.613	27344.69
599.972	27572.26
600.33	27911.46
600.688	28000.72
601.046	28396.87
601.404	28742.17
601.762	29066.91
602.12	29516.38
602.478	29714.35
602.836	30091.51
603.194	30168.12
603.552	30610.37
603.91	30779.63
604.268	31209.22
604.625	31334.64
604.983	31820.96
605.341	31996.32
605.698	32408.74
606.056	32677.88
606.413	32821.38
606.771	33180.92
607.128	33404.42
607.485	33571.19
607.843	33923.05
608.2	34338.18
608.557	34703.59
608.914	34694.1
609.272	35183.35
609.629	35412.05
609.986	35727.97
610.343	35825.6
610.7	36150.11
611.057	36344.45
611.414	36542.19
611.771	36776.76
612.127	37148.27
612.484	37158.67
612.841	37527.25
613.198	37657.64
613.554	37819.9
613.911	38141.92
614.267	38403.83
614.624	38517.28
614.98	38754.11
615.337	39021.45
615.693	39062.57
616.05	39359.06
616.406	39565.84
616.762	39570.58
617.118	39927.64
617.475	39983.45
617.831	40270.45
618.187	40370.11
618.543	40438.36
618.899	40833.38
619.255	40862.53
619.611	40945.69
619.967	41372.8
620.323	41477.88
620.678	41403.53
621.034	41616.18
621.39	41562.85
621.746	41797.42
622.101	42224.98
622.457	42059.11
622.812	42221.59
623.168	42317.4
623.523	42420
623.879	42608.92
624.234	42378.87
624.589	42653.44
624.945	42809.82
625.3	42996.93
625.655	42911.29
626.01	42955.81
626.365	42978.63
626.72	43076.25
627.075	43172.52
627.43	43247.1
627.785	43277.38
628.14	43510.14
628.495	43468.33
628.85	43619.06
629.205	43445.28
629.559	43705.84
629.914	43732.28
630.269	43820.87
630.623	43763.69
630.978	43719.85
631.332	43994.2
631.687	44063.57
632.041	43876.91
632.396	44040.75
632.75	43837.82
633.104	44004.14
633.459	43886.18
633.813	44097.47
634.167	43990.58
634.521	44030.13
634.875	44051.14
635.229	44127.3
635.583	43908.1
635.937	43998.94
636.291	44005.5
636.645	44145.83
636.999	43886.18
637.352	43977.02
637.706	43843.69
638.06	44096.11
638.413	43964.14
638.767	43872.17
639.121	43974.31
639.474	43823.81
639.828	43847.76
640.181	43974.99
640.534	43950.36
640.888	43788.1
641.241	43818.61
641.594	43813.86
641.947	43982.67
642.301	43825.61
642.654	43860.87
643.007	43974.76
643.36	43803.24
643.713	43798.5
644.066	43949.45
644.419	43684.83
644.771	43477.6
645.124	43241.45
645.477	43199.19
645.83	42813.21
646.182	42741.35
646.535	42662.48
646.888	42742.25
647.24	42558.75
647.593	42830.61
647.945	42551.97
648.298	42661.12
648.65	42488.93
649.002	42544.97
649.355	42611.86
649.707	42514.91
650.059	42781.12
650.411	43206.19
650.763	43242.58
651.115	43661.1
651.467	43555.11
651.819	43550.59
652.171	43297.04
652.523	43330.03
652.875	43359.18
653.227	43202.8
653.578	43527.99
653.93	43327.55
654.282	43246.19
654.633	43143.37
654.985	43167.33
655.337	43234.22
655.688	43339.52
656.039	43450.93
656.391	43028.57
656.742	43227.66
657.094	43217.04
657.445	43316.25
657.796	43207.78
658.147	43195.8
658.498	43064.28
658.849	43163.71
659.2	43074.22
659.551	42958.74
659.902	43168.46
660.253	43024.05
660.604	43153.09
660.955	42889.14
661.306	43123.03
661.656	43050.27
662.007	43095.01
662.358	43033.54
662.708	43121.9
663.059	43135.46
663.409	42846.43
663.76	43107.44
664.11	43121.22
664.461	43196.03
664.811	43116.03
665.161	43205.52
665.511	42843.72
665.862	43024.05
666.212	43018.4
666.562	43130.04
666.912	42839.2
667.262	42961.91
667.612	42945.64
667.962	43024.5
668.312	42930.5
668.662	43240.09
669.011	43002.36
669.361	42951.51
669.711	42880.55
670.06	42806.66
670.41	42894.56
670.76	42698.41
671.109	42950.83
671.459	42745.19
671.808	42777.96
672.157	42910.83
672.507	42626.32
672.856	42669.03
673.205	42689.82
673.554	42792.87
673.904	42550.84
674.253	42956.03
674.602	42595.59
674.951	42159.44
675.3	41954.7
675.649	42615.02
675.998	42501.35
676.346	42476.95
676.695	42672.88
677.044	42277.63
677.393	42439.43
677.741	42610.5
678.09	42385.88
678.438	42237.63
678.787	42412.09
679.135	42468.81
679.484	42185.2
679.832	42327.35
680.181	41955.61
680.529	42238.08
680.877	42000.8
681.225	41985.21
681.573	42327.8
681.922	41865.66
682.27	41830.19
682.618	41955.15
682.966	41813.91
683.314	41857.08
683.661	41624.99
684.009	41456.41
684.357	41573.7
684.705	41490.53
685.053	41560.59
685.4	41457.54
685.748	41204.21
686.095	41268.39
686.443	41115.4
686.79	41198.79
687.138	41175.51
687.485	41177.55
687.832	40946.14
688.18	41059.81
688.527	40861.62
688.874	40804.68
689.221	40604.45
689.568	40629.09
689.915	40547.73
690.262	40490.56
690.609	40527.62
690.956	40371.69
691.303	40226.16
691.65	40026.62
691.997	40027.52
692.344	39650.81
692.69	39920.18
693.037	39840.86
693.383	39352.51
693.73	39636.8
694.077	39460.3
694.423	39491.49
694.769	39343.92
695.116	39254.43
695.462	39139.86
695.808	38997.94
696.155	39104.61
696.501	38911.62
696.847	38770.38
697.193	38461.69
697.539	38825.07
697.885	38424.4
698.231	38280.45
698.577	38406.09
698.923	38372.88
699.269	38133.56
699.614	37950.51
699.96	37925.88
700.306	37900.35
700.651	37720.24
700.997	37553.91
701.342	37720.69
701.688	37529.96
702.033	37409.96
702.379	37373.58
702.724	37273.47
703.069	37398.44
703.415	36983.31
703.76	37132.91
704.105	37100.59
704.45	36810.2
704.795	36738.34
705.14	36528.63
705.485	36585.13
705.83	36586.71
706.175	36601.17
706.52	36461.51
706.865	36225.59
707.209	36221.07
707.554	36067.4
707.899	36110.34
708.243	35891.36
708.588	35831.93
708.932	35733.62
709.277	35645.26
709.621	35661.31
709.966	35472.61
710.31	35567.3
710.654	35177.25
710.998	35236.01
711.342	35236.23
711.687	35166.63
712.031	34987.65
712.375	34765.29
712.719	35157.37
713.063	35017.48
713.407	35059.29
713.75	34755.57
714.094	34743.37
714.438	34527.55
714.782	34545.18
715.125	34395.58
715.469	34618.85
715.812	34385.41
716.156	34136.6
716.499	34169.37
716.843	34152.65
717.186	33979.09
717.53	34155.81
717.873	34183.38
718.216	34154.23
718.559	33856.16
718.902	33701.13
719.246	33965.53
719.589	33580.01
719.932	33521.03
720.275	33538.88
720.617	33601.93
720.96	33344.08
721.303	33435.6
721.646	33370.29
721.989	33057.99
722.331	33263.18
722.674	33351.76
723.016	33278.32
723.359	33213.01
723.701	33235.38
724.044	33024.99
724.386	32806.92
724.729	32962.17
725.071	32784.32
725.413	32867.94
725.755	32791.78
726.097	32772.57
726.439	32517.21
726.782	32573.03
727.124	32583.2
727.465	32455.06
727.807	32353.15
728.149	32408.96
728.491	32337.55
728.833	32267.5
729.175	32273.37
729.516	32180.95
729.858	32091.68
730.199	32203.55
730.541	32041.97
730.882	31945.93
731.224	32046.49
731.565	31882.88
731.906	31886.49
732.248	31891.01
732.589	31734.63
732.93	31644.92
733.271	31634.52
733.612	31723.56
733.953	31717.68
734.294	31471.81
734.635	31478.14
734.976	31528.54
735.317	31471.59
735.658	31365.38
735.999	31400.86
736.339	31349.11
736.68	31406.73
737.021	31124.93
737.361	31156.79
737.702	31211.71
738.042	31079.73
738.383	31028.21
738.723	31146.17
739.063	31004.93
739.404	31169.22
739.744	30836.8
740.084	30789.35
740.424	30831.6
740.764	30710.48
741.104	30862.79
741.444	30723.36
741.784	30504.61
742.124	30667.77
742.464	30581.67
742.804	30501.22
743.143	30410.37
743.483	30361.11
743.823	30309.36
744.162	30338.51
744.502	30347.55
744.841	30156.82
745.181	30413.99
745.52	30224.39
745.86	30155.01
746.199	30200.89
746.538	30130.61
746.877	30142.13
747.216	30187.55
747.556	29999.76
747.895	30049.03
748.234	29978.29
748.573	29918.18
748.911	29808.81
749.25	29745.53
749.589	29737.4
749.928	29759.99
750.267	29678.19
750.605	29597.74
750.944	29536.95
751.283	29424.64
751.621	29564.52
751.96	29358.42
752.298	29305.32
752.636	29272.55
752.975	29176.05
753.313	29082.27
753.651	29250.63
753.989	28981.71
754.327	28938.32
754.666	28788.27
755.004	28851.09
755.342	28911.88
755.679	28778.55
756.017	28651.77
756.355	28790.98
756.693	28532.68
757.031	28629.85
757.368	28491.55
757.706	28432.8
758.044	28334.27
758.381	28418.56
758.719	28238.45
759.056	28305.12
759.394	28065.35
759.731	28039.14
760.068	28012.47
760.405	27878.46
760.743	27812.02
761.08	27858.12
761.417	27670.78
761.754	27666.49
762.091	27587.17
762.428	27528.41
762.765	27403.9
763.102	27341.98
763.438	27324.13
763.775	27209.1
764.112	27237.8
764.449	27142.21
764.785	27094.3
765.122	26914.19
765.458	26844.59
765.795	26736.35
766.131	26792.61
766.467	26673.97
766.804	26519.85
767.14	26385.85
767.476	26384.72
767.812	26275.79
768.148	26299.75
768.485	26159.64
768.821	25994.22
769.157	25899.53
769.492	25890.27
769.828	25843.94
770.164	25614.34
770.5	25484.85
770.836	25507.22
771.171	25352.65
771.507	25299.55
771.842	25210.51
772.178	25219.32
772.513	25052.1
772.849	24940.69
773.184	24790.41
773.519	24787.7
773.855	24740.47
774.19	24657.08
774.525	24605.55
774.86	24616.85
775.195	24489.85
775.53	24366.69
775.865	24170.31
776.2	24121.5
776.535	24033.14
776.87	23908.17
777.205	23819.36
777.539	23709.31
777.874	23774.39
778.209	23625.69
778.543	23629.76
778.878	23465.7
779.212	23420.73
779.547	23186.83
779.881	23144.58
780.215	23080.17
780.55	23170.11
780.884	22961.76
781.218	22871.36
781.552	22864.13
781.886	22749.33
782.22	22610.8
782.554	22546.4
782.888	22394.76
783.222	22326.74
783.556	22320.42
783.889	22193.87
784.223	22151.38
784.557	22018.28
784.89	22023.25
785.224	21930.37
785.557	21852.41
785.891	21824.16
786.224	21692.18
786.558	21657.61
786.891	21472.98
787.224	21379.2
787.557	21403.15
787.891	21319.31
788.224	21370.61
788.557	21214.46
788.89	21130.84
789.223	21103.72
789.556	20984.63
789.888	20925.65
790.221	20943.05
790.554	20610.86
790.887	20695.15
791.219	20535.38
791.552	20516.62
791.884	20344.2
792.217	20330.19
792.549	20368.38
792.882	20114.37
793.214	20168.38
793.546	20164.99
793.879	19977.43
794.211	19879.35
794.543	19963.19
794.875	19874.83
795.207	19944.43
795.539	19813.36
795.871	19757.55
796.203	19579.7
796.535	19521.62
796.867	19390.55
797.198	19376.31
797.53	19327.73
797.862	19247.95
798.193	19189.2
798.525	19206.83
798.856	19111.69
799.188	18934.06
799.519	18908.08
799.85	18890.45
800.182	18788.98
800.513	18800.51
800.844	18641.87
801.175	18725.93
801.506	18669.66
801.837	18569.78
802.168	18520.29
802.499	18507.18
802.83	18333.85
803.161	18322.55
803.491	18266.74
803.822	18365.49
804.153	18232.39
804.483	18059.29
804.814	17913.75
805.145	17924.83
805.475	17999.63
805.805	17892.74
806.136	17924.37
806.466	17872.4
806.796	17815.68
807.126	17652.29
807.457	17611.39
807.787	17692.74
808.117	17563.03
808.447	17496.81
808.777	17460.2
809.107	17432.63
809.436	17306.31
809.766	17307.89
810.096	17257.05
810.426	17283.03
810.755	17208.69
811.085	17210.95
811.414	17105.86
811.744	16943.83
812.073	16990.61
812.403	16969.82
812.732	16721.47
813.061	16864.06
813.39	16731.86
813.719	16704.97
814.049	16756.04
814.378	16679.43
814.707	16668.36
815.036	16673.11
815.365	16466.78
815.693	16451.42
816.022	16427.92
816.351	16286.9
816.68	16327.58
817.008	16398.76
817.337	16171.65
817.665	16166.23
817.994	16198.77
818.322	16151.99
818.651	16082.84
818.979	16068.83
819.307	16102.05
819.636	16003.75
819.964	15911.54
820.292	15940.92
820.62	15999.45
820.948	15934.37
821.276	15953.13
821.604	15899.79
821.932	15859.57
822.259	15850.3
822.587	15807.82
822.915	15768.72
823.243	15857.08
823.57	15828.84
823.898	15854.6
824.225	15795.62
824.553	15827.93
824.88	15789.06
825.207	15898.66
825.535	15814.15
825.862	15825.45
826.189	15742.28
826.516	15816.86
826.843	15939.11
827.17	15841.49
827.497	15881.04
827.824	15841.72
828.151	15856.63
828.478	15729.4
828.805	15864.31
829.131	15804.2
829.458	15719.69
829.785	15669.07
830.111	15672.91
830.438	15735.28
830.764	15786.58
831.09	15711.78
831.417	15640.37
831.743	15736.63
832.069	15719.01
832.395	15552.68
832.722	15730.53
833.048	15598.11
833.374	15571.21
833.7	15640.82
834.026	15588.62
834.351	15586.81
834.677	15536.41
835.003	15579.12
835.329	15505
835.654	15593.59
835.98	15475.85
836.306	15494.83
836.631	15449.41
836.956	15468.62
837.282	15472.46
837.607	15346.36
837.932	15383.2
838.258	15384.1
838.583	15277.89
838.908	15234.73
839.233	15328.51
839.558	15257.1
839.883	15239.25
840.208	15166.48
840.533	15112.92
840.858	15150.66
841.182	15123.77
841.507	15141.17
841.832	14968.29
842.156	14949.76
842.481	14918.12
842.805	14940.5
843.13	14924.68
843.454	14877.22
843.778	14802.42
844.103	14806.04
844.427	14766.49
844.751	14778.47
845.075	14716.55
845.399	14667.96
845.723	14581.64
846.047	14540.96
846.371	14390.68
846.695	14500.51
847.019	14407.86
847.343	14251.7
847.666	14249.22
847.99	14219.84
848.313	14150.46
848.637	14096.23
848.96	14058.71
849.284	13986.62
849.607	13938.94
849.931	13869.34
850.254	13905.95
850.577	13810.58
850.9	13587.76
851.223	13634.77
851.546	13511.61
851.869	13455.56
852.192	13556.8
852.515	13386.87
852.838	13286.3
853.161	13323.36
853.483	13242.01
853.806	13204.05
854.129	13088.34
854.451	13116.36
854.774	13060.55
855.096	12951.62
855.419	13005.41
855.741	13024.62
856.063	12934.67
856.385	12855.58
856.708	12791.17
857.03	12797.95
857.352	12811.29
857.674	12683.16
857.996	12698.07
858.318	12582.37
858.64	12624.17
858.961	12624.63
859.283	12560.9
859.605	12449.04
859.926	12534.68
860.248	12461.01
860.57	12399.09
860.891	12422.82
861.212	12292.21
861.534	12340.11
861.855	12315.03
862.176	12281.13
862.498	12239.55
862.819	12213.79
863.14	12196.16
863.461	12145.09
863.782	12042.04
864.103	12117.07
864.424	12060.35
864.745	12115.49
865.065	11988.48
865.386	11938.54
865.707	11960.24
866.027	11961.14
866.348	11989.61
866.668	11882.5
866.989	11858.32
867.309	11736.74
867.63	11851.76
867.95	11862.16
868.27	11652.9
868.59	11881.59
868.91	11794.37
869.23	11759.56
869.55	11756.85
869.87	11718.21
870.19	11699.68
870.51	11680.7
870.83	11694.25
871.15	11668.94
871.469	11600.02
871.789	11595.95
872.109	11540.36
872.428	11470.31
872.748	11576.97
873.067	11523.64
873.386	11532.45
873.706	11484.09
874.025	11418.33
874.344	11424.21
874.663	11436.18
874.982	11471.21
875.301	11407.03
875.62	11333.13
875.939	11281.61
876.258	11365.68
876.577	11304.66
876.896	11332.91
877.214	11225.34
877.533	11248.84
877.852	11245
878.17	11271.21
878.489	11185.12
878.807	11211.33
879.125	11126.36
879.444	11150.99
879.762	11094.95
880.08	11141.95
880.398	11080.71
880.716	11100.15
881.034	11075.06
881.352	11006.59
881.67	11031.67
881.988	10953.03
882.306	10929.08
882.624	10892.02
882.941	10871
883.259	10777.44
883.577	10846.82
883.894	10855.18
884.212	10799.59
884.529	10731.79
884.846	10703.77
885.164	10708.29
885.481	10675.98
885.798	10700.61
886.115	10625.58
886.432	10629.65
886.75	10580.84
887.067	10613.38
887.383	10528.41
887.7	10592.59
888.017	10530.44
888.334	10574.74
888.651	10480.5
888.967	10427.85
889.284	10365.7
889.6	10313.95
889.917	10299.72
890.233	10328.19
890.55	10264.24
890.866	10272.82
891.182	10221.3
891.498	10209.77
891.815	10141.75
892.131	10105.14
892.447	10115.31
892.763	10029.67
893.079	10030.57
893.395	10022.66
893.71	9959.16
894.026	9956.9
894.342	9992.6
894.657	9860.18
894.973	9862.21
895.289	9891.14
895.604	9744.93
895.92	9696.57
896.235	9693.63
896.55	9678.26
896.865	9652.05
897.181	9596.23
897.496	9608.89
897.811	9531.37
898.126	9519.17
898.441	9475.33
898.756	9479.62
899.071	9431.26
899.386	9438.49
899.7	9312.4
900.015	9303.36
900.33	9191.72
900.644	9205.28
900.959	9222.91
901.273	9227.2
901.588	9196.24
901.902	9102.46
902.216	9082.12
902.531	9055.23
902.845	9078.05
903.159	9027.66
903.473	8979.07
903.787	8989.47
904.101	8815.01
904.415	8876.02
904.729	8859.07
905.042	8803.71
905.356	8845.29
905.67	8763.94
905.984	8734.56
906.297	8746.76
906.611	8662.02
906.924	8675.58
907.237	8660.66
907.551	8540.44
907.864	8643.94
908.177	8470.16
908.491	8535.92
908.804	8434.45
909.117	8384.51
909.43	8321.24
909.743	8303.61
910.056	8308.81
910.368	8246.89
910.681	8176.16
910.994	8278.98
911.307	8230.84
911.619	8118.53
911.932	8075.37
912.244	8036.05
912.557	8044.86
912.869	7978.19
913.181	7965.09
913.494	7924.18
913.806	7847.8
914.118	7843.28
914.43	7827.69
914.742	7723.74
915.054	7721.7
915.366	7697.07
915.678	7680.57
915.99	7624.98
916.302	7600.35
916.613	7554.48
916.925	7518.77
917.236	7541.37
917.548	7529.84
917.859	7505.89
918.171	7460.92
918.482	7342.96
918.794	7412.56
919.105	7418.66
919.416	7255.05
919.727	7307.93
920.038	7223.41
920.349	7175.5
920.66	7130.53
920.971	7168.5
921.282	7111.55
921.593	7076.75
921.903	7067.48
922.214	7017.77
922.525	7025.68
922.835	6994.72
923.146	6889.41
923.456	6978.9
923.767	6876.3
924.077	6838.11
924.387	6792.01
924.697	6760.83
925.008	6741.62
925.318	6714.72
925.628	6727.83
925.938	6673.6
926.248	6666.36
926.558	6626.14
926.867	6598.34
927.177	6580.26
927.487	6496.88
927.796	6457.1
928.106	6476.99
928.416	6422.53
928.725	6421.85
929.034	6357.67
929.344	6426.6
929.653	6331.68
929.962	6298.69
930.271	6240.61
930.581	6255.3
930.89	6227.51
931.199	6221.63
931.508	6178.24
931.817	6169.65
932.125	6153.61
932.434	6092.14
932.743	6068.41
933.051	6041.52
933.36	6047.85
933.669	5972.15
933.977	5981.64
934.286	5996.33
934.594	5919.27
934.902	5891.7
935.21	5900.73
935.519	5869.78
935.827	5892.83
936.135	5832.26
936.443	5787.29
936.751	5777.8
937.059	5747.52
937.367	5693.06
937.674	5689.67
937.982	5715.2
938.29	5628.2
938.597	5638.37
938.905	5576.22
939.213	5550.91
939.52	5518.15
939.827	5516.34
940.135	5501.42
940.442	5488.77
940.749	5437.02
941.056	5466.17
941.363	5403.35
941.67	5381.2
941.977	5369.22
942.284	5310.92
942.591	5305.95
942.898	5281.54
943.205	5247.19
943.511	5234.54
943.818	5234.09
944.125	5138.27
944.431	5126.74
944.738	5144.6
945.044	5128.33
945.35	5096.24
945.657	5063.69
945.963	5047.65
946.269	4987.54
946.575	5044.26
946.881	4938.05
947.187	4960.87
947.493	4942.12
947.799	4933.3
948.105	4867.77
948.41	4841.78
948.716	4899.63
949.022	4816.92
949.327	4832.74
949.633	4777.83
949.938	4794.1
950.244	4755.68
950.549	4713.65
950.854	4675.68
951.16	4676.36
951.465	4666.19
951.77	4663.48
952.075	4675.46
952.38	4667.55
952.685	4612.63
952.99	4590.49
953.294	4541
953.599	4505.07
953.904	4513.43
954.209	4443.82
954.513	4465.74
954.818	4470.49
955.122	4432.07
955.426	4445.86
955.731	4420.1
956.035	4324.96
956.339	4361.79
956.643	4341.91
956.948	4319.31
957.252	4318.63
957.556	4313.21
957.86	4258.74
958.163	4280.21
958.467	4227.33
958.771	4226.43
959.075	4164.51
959.378	4141.23
959.682	4169.48
959.985	4136.04
960.289	4116.6
960.592	4089.71
960.896	4085.42
961.199	4073.21
961.502	4042.03
961.805	4033.89
962.108	4029.37
962.411	3960.45
962.714	3947.57
963.017	3937.17
963.32	3947.11
963.623	3976.27
963.926	3906.66
964.228	3870.96
964.531	3876.61
964.833	3824.18
965.136	3835.03
965.438	3865.53
965.741	3808.81
966.043	3795.93
966.345	3802.94
966.648	3761.36
966.95	3730.85
967.252	3705.99
967.554	3700.79
967.856	3749.15
968.158	3657.63
968.46	3679.1
968.761	3620.34
969.063	3603.85
969.365	3618.53
969.666	3595.48
969.968	3590.29
970.269	3574.02
970.571	3553.23
970.872	3524.75
971.174	3528.37
971.475	3498.09
971.776	3458.76
972.077	3500.35
972.378	3458.54
972.679	3438.88
972.98	3435.71
973.281	3404.76
973.582	3393.91
973.883	3368.37
974.183	3402.04
974.484	3321.37
974.785	3334.7
975.085	3318.43
975.386	3285.89
975.686	3288.6
975.986	3305.77
976.287	3258.77
976.587	3258.77
976.887	3221.94
977.187	3239.56
977.487	3191.88
977.787	3228.94
978.087	3197.3
978.387	3149.39
978.687	3122.73
978.987	3169.06
979.286	3152.11
979.586	3116.85
979.885	3087.93
980.185	3110.75
980.484	3082.05
980.784	3060.81
981.083	3062.39
981.382	3051.09
981.682	3014.26
981.981	2977.42
982.28	3021.94
982.579	2943.3
982.878	2946.91
983.177	2962.28
983.475	2930.87
983.774	2915.5
984.073	2919.8
984.372	2898.33
984.67	2940.81
984.969	2851.1
985.267	2824.43
985.566	2854.94
985.864	2812.68
986.162	2810.42
986.461	2779.91
986.759	2822.4
987.057	2741.27
987.355	2772.46
987.653	2783.3
987.951	2721.16
988.249	2729.07
988.547	2707.82
988.844	2705.79
989.142	2694.27
989.44	2680.03
989.737	2663.53
990.035	2631.22
990.332	2631.67
990.63	2636.87
990.927	2609.75
991.224	2615.17
991.521	2602.52
991.819	2589.18
992.116	2561.84
992.413	2563.2
992.71	2534.27
993.006	2531.56
993.303	2541.73
993.6	2523.87
993.897	2489.75
994.193	2469.41
994.49	2498.79
994.787	2465.12
995.083	2451.11
995.379	2432.13
995.676	2421.28
995.972	2444.1
996.268	2411.11
996.565	2388.06
996.861	2372.01
997.157	2377.44
997.453	2352.35
997.749	2357.33
998.044	2331.79
998.34	2367.27
998.636	2337.66
998.932	2281.62
999.227	2247.05
999.523	2245.92
999.818	2275.07
1000.114	2267.16
1000.409	2236.65
1000.704	2250.89
1001	2186.03
1001.295	2183.32
1001.59	2202.75
1001.885	2171.57
1002.18	2148.74
1002.475	2186.03
1002.77	2154.39
1003.065	2110.1
1003.359	2117.33
1003.654	2096.09
1003.949	2104.9
1004.243	2092.93
1004.538	2066.49
1004.832	2046.6
1005.127	2048.18
1005.421	2051.57
1005.715	2038.46
1006.009	2001.4
1006.304	2019.25
1006.598	1974.06
1006.892	2012.48
1007.186	1984.91
1007.48	1969.54
1007.773	1948.52
1008.067	1935.64
1008.361	1927.28
1008.655	1918.92
1008.948	1880.73
1009.242	1881.63
1009.535	1893.61
1009.829	1877.11
1010.122	1901.52
1010.415	1835.3
1010.708	1854.51
1011.001	1839.37
1011.295	1803.44
1011.588	1801.18
1011.881	1817.9
1012.173	1802.54
1012.466	1787.4
1012.759	1758.47
1013.052	1762.09
1013.344	1785.14
1013.637	1725.25
1013.93	1715.76
1014.222	1711.47
1014.514	1693.16
1014.807	1692.03
1015.099	1675.76
1015.391	1674.41
1015.683	1652.48
1015.976	1680.05
1016.268	1641.64
1016.56	1642.54
1016.851	1611.81
1017.143	1620.85
1017.435	1620.62
1017.727	1598.47
1018.018	1575.65
1018.31	1589.44
1018.602	1581.53
1018.893	1569.1
1019.185	1530.23
1019.476	1541.08
1019.767	1522.77
1020.058	1533.39
1020.35	1504.01
1020.641	1510.12
1020.932	1496.1
1021.223	1499.49
1021.514	1468.99
1021.804	1437.58
1022.095	1460.17
1022.386	1435.77
1022.677	1408.2
1022.967	1404.81
1023.258	1402.55
1023.548	1400.29
1023.839	1396.9
1024.129	1381.53
1024.419	1368.65
1024.709	1335.66
1025	1335.43
1025.29	1346.28
1025.58	1333.85
1025.87	1313.28
1026.16	1304.25
1026.449	1310.8
1026.739	1306.28
1027.029	1314.87
1027.319	1268.54
1027.608	1274.19
1027.898	1272.38
1028.187	1266.73
1028.477	1231.25
1028.766	1227.86
1029.055	1229.45
1029.344	1234.19
1029.634	1187.64
1029.923	1202.55
1030.212	1212.04
1030.501	1209.33
1030.79	1229.9
1031.078	1195.32
1031.367	1182.89
1031.656	1171.37
1031.945	1147.19
1032.233	1152.16
1032.522	1125.94
1032.81	1151.71
1033.099	1115.78
1033.387	1095.44
1033.675	1091.37
1033.963	1110.58
1034.251	1100.63
1034.54	1072.16
1034.828	1104.7
1035.116	1090.47
1035.403	1073.74
1035.691	1065.61
1035.979	1047.75
1036.267	1071.94
1036.554	1018.83
1036.842	1044.14
1037.129	992.39
1037.417	1003.01
1037.704	1010.02
1037.992	998.26
1038.279	996
1038.566	1007.53
1038.853	1007.53
1039.14	1007.53
