Data from hue_38_FLMS001491_00002.txt Node
Date: Tue Feb 07 17:30:57 GMT 2017
User: dcchb
Spectrometer: FLMS00149
Trigger mode: 0
Integration Time (sec): 2.000000E-2
Scans to average: 10
Electric dark correction enabled: true
Nonlinearity correction enabled: false
Boxcar width: 0
XAxis mode: Wavelengths
Number of Pixels in Spectrum: 2048
>>>>>Begin Spectral Data<<<<<
341.393	-7.95
341.776	-7.95
342.16	-7.95
342.543	-82.07
342.927	-70.32
343.31	-58.12
343.693	-68.97
344.077	-65.35
344.46	-63.09
344.843	-58.57
345.226	-45.46
345.61	-12.02
345.993	-8.86
346.376	-3.66
346.759	2.9
347.142	30.24
347.525	43.57
347.908	56.23
348.291	80.63
348.674	76.57
349.057	93.97
349.44	139.84
349.823	136.9
350.206	150.69
350.588	201.76
350.971	217.58
351.354	226.39
351.737	228.65
352.119	262.78
352.502	256.9
352.884	271.36
353.267	306.16
353.65	291.25
354.032	292.61
354.414	312.49
354.797	312.72
355.179	307.52
355.562	326.73
355.944	338.48
356.326	339.16
356.709	342.55
357.091	368.99
357.473	361.53
357.855	364.02
358.238	332.6
358.62	373.28
359.002	339.16
359.384	355.2
359.766	333.51
360.148	338.48
360.53	339.16
360.912	349.78
361.294	335.32
361.676	345.49
362.057	351.81
362.439	317.92
362.821	350.46
363.203	332.15
363.584	333.73
363.966	356.11
364.348	341.42
364.729	340.06
365.111	327.86
365.493	331.25
365.874	316.79
366.256	333.51
366.637	332.6
367.019	306.16
367.4	335.99
367.781	317.01
368.163	320.18
368.544	327.63
368.925	341.64
369.306	312.94
369.688	321.08
370.069	322.44
370.45	296.45
370.831	312.72
371.212	336.9
371.593	320.85
371.974	312.04
372.355	337.12
372.736	322.21
373.117	310.68
373.498	315.88
373.879	307.75
374.26	307.75
374.641	322.66
375.021	315.66
375.402	319.5
375.783	312.27
376.163	332.15
376.544	321.53
376.925	333.06
377.305	352.49
377.686	345.94
378.066	340.29
378.447	345.71
378.827	327.18
379.208	314.98
379.588	330.57
379.968	340.06
380.349	339.38
380.729	336.22
381.109	341.87
381.489	363.56
381.87	353.17
382.25	362.66
382.63	333.96
383.01	354.52
383.39	347.97
383.77	335.09
384.15	354.07
384.53	343.45
384.91	332.6
385.29	359.5
385.67	345.49
386.049	349.1
386.429	346.39
386.809	359.95
387.189	349.78
387.568	367.63
387.948	380.06
388.328	367.41
388.707	354.52
389.087	380.06
389.466	356.33
389.846	361.53
390.225	357.91
390.605	384.81
390.984	372.83
391.363	369.44
391.743	375.99
392.122	367.41
392.501	378.03
392.881	353.17
393.26	359.27
393.639	372.6
394.018	380.06
394.397	389.1
394.776	408.31
395.155	376.67
395.534	377.8
395.913	392.49
396.292	404.47
396.671	387.07
397.05	368.54
397.429	387.07
397.808	404.01
398.186	393.17
398.565	368.08
398.944	418.25
399.323	396.56
399.701	404.92
400.08	398.59
400.458	427.74
400.837	379.83
401.215	395.88
401.594	398.37
401.972	402.88
402.351	420.74
402.729	412.38
403.107	401.53
403.486	437.46
403.864	418.25
404.242	417.35
404.62	432.04
404.999	405.37
405.377	437.23
405.755	428.87
406.133	427.52
406.511	438.36
406.889	457.12
407.267	470.91
407.645	416.22
408.023	442.43
408.401	451.92
408.779	449.89
409.156	459.15
409.534	450.34
409.912	457.12
410.29	458.93
410.667	456.22
411.045	468.87
411.422	473.39
411.8	494.18
412.178	469.78
412.555	475.2
412.933	466.61
413.31	473.62
413.687	500.51
414.065	482.88
414.442	486.5
414.819	476.33
415.197	488.53
415.574	500.96
415.951	511.81
416.328	520.17
416.705	513.62
417.082	516.1
417.46	503.22
417.837	528.31
418.214	543.45
418.591	545.93
418.967	537.57
419.344	526.27
419.721	533.95
420.098	531.24
420.475	540.73
420.852	512.26
421.228	558.36
421.605	568.08
421.982	563.78
422.358	576.89
422.735	546.38
423.111	559.49
423.488	574.86
423.864	585.48
424.241	585.7
424.617	572.82
424.994	604.01
425.37	576.67
425.746	580.73
426.123	613.27
426.499	608.76
426.875	602.43
427.251	597.91
427.627	622.99
428.003	596.55
428.379	624.35
428.756	608.53
429.132	622.09
429.507	643.33
429.883	628.64
430.259	641.97
430.635	663.67
431.011	651.47
431.387	654.4
431.763	685.59
432.138	683.78
432.514	661.86
432.89	686.95
433.265	714.74
433.641	679.49
434.016	691.92
434.392	722.65
434.767	712.03
435.143	702.09
435.518	716.55
435.894	728.07
436.269	719.71
436.644	748.86
437.02	753.61
437.395	731.24
437.77	773.5
438.145	761.97
438.52	747.28
438.895	778.47
439.271	785.47
439.646	787.28
440.021	800.39
440.395	812.59
440.77	813.5
441.145	782.08
441.52	801.29
441.895	773.04
442.27	803.78
442.645	800.84
443.019	834.96
443.394	834.74
443.769	851.91
444.143	852.82
444.518	844.91
444.892	844.68
445.267	837.9
445.641	824.79
446.016	865.92
446.39	860.05
446.764	867.73
447.139	855.3
447.513	885.58
447.887	874.06
448.262	880.39
448.636	902.31
449.01	875.19
449.384	912.93
449.758	906.83
450.132	926.03
450.506	949.76
450.88	923.1
451.254	934.4
451.628	939.59
452.002	937.11
452.376	947.28
452.75	984.79
453.123	966.94
453.497	996.77
453.871	999.71
454.244	989.08
454.618	985.92
454.992	1016.65
455.365	1020.5
455.739	1032.25
456.112	1071.34
456.486	1040.83
456.859	1074.05
457.232	1076.99
457.606	1084.9
457.979	1085.35
458.352	1110.44
458.725	1119.48
459.099	1157.67
459.472	1150.66
459.845	1194.05
460.218	1168.51
460.591	1197.67
460.964	1192.92
461.337	1234.05
461.71	1220.26
462.083	1240.38
462.456	1251.22
462.829	1258.46
463.201	1269.08
463.574	1289.87
463.947	1278.57
464.32	1320.37
464.692	1341.62
465.065	1366.25
465.438	1338.23
465.81	1376.64
466.183	1408.51
466.555	1442.41
466.928	1423.65
467.3	1428.39
467.672	1444.21
468.045	1493.03
468.417	1488.51
468.789	1512.01
469.161	1550.2
469.534	1541.84
469.906	1603.76
470.278	1623.19
470.65	1640.82
471.022	1684.89
471.394	1714.26
471.766	1720.59
472.138	1735.96
472.51	1788.84
472.882	1834.94
473.253	1863.19
473.625	1858.44
473.997	1935.73
474.369	1927.14
474.74	1981.83
475.112	2026.8
475.484	2090.98
475.855	2139.79
476.227	2141.37
476.598	2217.98
476.97	2228.83
477.341	2307.69
477.713	2375.26
478.084	2403.28
478.455	2429.72
478.827	2477.86
479.198	2582.94
479.569	2617.74
479.94	2698.64
480.311	2728.25
480.682	2838.98
481.053	2871.52
481.424	2947.22
481.795	3031.06
482.166	3112.87
482.537	3169.14
482.908	3231.29
483.279	3315.58
483.65	3418.17
484.021	3536.59
484.391	3587.66
484.762	3612.29
485.133	3759.63
485.503	3782.68
485.874	3905.17
486.244	3974.77
486.615	4056.57
486.985	4131.6
487.356	4257.47
487.726	4267.19
488.097	4417.47
488.467	4497.01
488.837	4649.33
489.207	4780.4
489.578	4862.65
489.948	4948.75
490.318	5018.36
490.688	5082.54
491.058	5211.8
491.428	5370.21
491.798	5441.4
492.168	5546.93
492.538	5631.22
492.908	5785.57
493.278	5838
493.648	5906.69
494.017	6054.71
494.387	6140.59
494.757	6234.14
495.126	6344.88
495.496	6391.65
495.866	6448.38
496.235	6634.81
496.605	6719.1
496.974	6760.46
497.344	6907.57
497.713	7007.01
498.082	7057.4
498.452	7165.42
498.821	7239.54
499.19	7326.09
499.559	7428.46
499.928	7501.91
500.298	7549.14
500.667	7680.21
501.036	7712.75
501.405	7814.22
501.774	7899.41
502.143	8033.64
502.512	8016.47
502.88	8204.04
503.249	8263.02
503.618	8307.54
503.987	8352.05
504.356	8495.55
504.724	8556.12
505.093	8583.69
505.462	8661.42
505.83	8751.14
506.199	8866.84
506.567	8948.42
506.936	8953.85
507.304	9112.03
507.672	9171.47
508.041	9212.37
508.409	9309.09
508.777	9392.48
509.145	9446.04
509.514	9493.04
509.882	9619.82
510.25	9631.57
510.618	9725.8
510.986	9786.14
511.354	9889.87
511.722	9989.98
512.09	10029.98
512.458	10049.41
512.826	10216.41
513.193	10226.58
513.561	10281.5
513.929	10374.37
514.297	10472.45
514.664	10527.82
515.032	10566.46
515.4	10625.21
515.767	10604.88
516.135	10733.46
516.502	10817.53
516.869	10975.71
517.237	10996.5
517.604	10999.67
517.972	11066.56
518.339	11160.34
518.706	11208.02
519.073	11308.81
519.44	11359.66
519.808	11428.81
520.175	11450.5
520.542	11588.58
520.909	11641.91
521.276	11709.71
521.643	11757.39
522.009	11904.28
522.376	11996.25
522.743	11977.72
523.11	12098.85
523.477	12204.61
523.843	12326.87
524.21	12432.17
524.577	12522.57
524.943	12557.82
525.31	12685.95
525.676	12797.59
526.043	12766.85
526.409	12802.33
526.776	12885.27
527.142	12923.23
527.508	13023.12
527.874	13167.07
528.241	13267.86
528.607	13242.1
528.973	13394.41
529.339	13491.13
529.705	13592.82
530.071	13685.93
530.437	13693.38
530.803	13866.71
531.169	13873.94
531.535	13808.63
531.901	13896.99
532.267	14033.94
532.632	14213.82
532.998	14116.87
533.364	14282.97
533.73	14239.58
534.095	14395.51
534.461	14448.84
534.826	14559.35
535.192	14572.46
535.557	14695.16
535.923	14731.77
536.288	14663.98
536.653	14840.7
537.019	14826.91
537.384	14839.12
537.749	14897.42
538.114	14934.03
538.479	15048.15
538.845	15054.25
539.21	15144.64
539.575	15186.22
539.94	15290.18
540.305	15341.25
540.67	15302.61
541.034	15430.06
541.399	15510.74
541.764	15497.63
542.129	15605.87
542.494	15576.27
542.858	15722.93
543.223	15775.81
543.587	15759.32
543.952	15878.41
544.316	15880.67
544.681	15958.18
545.045	16068.24
545.41	16174.45
545.774	16171.28
546.138	16183.26
546.503	16297.83
546.867	16284.95
547.231	16400.2
547.595	16470.94
547.959	16526.75
548.324	16601.78
548.688	16604.27
549.052	16663.02
549.416	16688.11
549.779	16839.74
550.143	16799.74
550.507	16951.6
550.871	16920.19
551.235	16961.09
551.599	17087.64
551.962	17167.64
552.326	17216.91
552.689	17201.54
553.053	17208.32
553.417	17292.38
553.78	17522.21
554.143	17411.48
554.507	17638.59
554.87	17572.38
555.234	17709.1
555.597	17721.75
555.96	17679.27
556.323	17926.94
556.686	17832.48
557.05	18007.62
557.413	18114.51
557.776	18077.45
558.139	18205.13
558.502	18245.13
558.865	18233.38
559.228	18378.46
559.59	18428.17
559.953	18494.39
560.316	18652.8
560.679	18694.83
561.041	18797.88
561.404	18862.51
561.767	18932.79
562.129	18791.78
562.492	19139.12
562.854	19041.94
563.217	19109.96
563.579	19097.99
563.941	19242.84
564.304	19276.06
564.666	19454.59
565.028	19446.23
565.39	19559.9
565.753	19625.43
566.115	19720.34
566.477	19859.55
566.839	19854.58
567.201	19987.23
567.563	19923.28
567.925	20146.77
568.287	20054.35
568.648	20099.99
569.01	20261.12
569.372	20395.58
569.734	20383.15
570.095	20501.11
570.457	20587.66
570.819	20689.13
571.18	20756.7
571.542	20892.74
571.903	20905.62
572.265	21022.23
572.626	21139.97
572.987	21229.46
573.349	21323.92
573.71	21307.19
574.071	21456.57
574.432	21596.9
574.794	21735.21
575.155	21683
575.516	21739.72
575.877	21795.99
576.238	22050
576.599	22246.38
576.96	22317.34
577.32	22382.42
577.681	22505.58
578.042	22686.59
578.403	22745.35
578.763	22918.9
579.124	22962.97
579.485	23223.98
579.845	23485.67
580.206	23514.37
580.566	23564.76
580.927	23732.67
581.287	24014.69
581.648	24051.53
582.008	24265.08
582.368	24398.64
582.728	24511.18
583.089	24628.69
583.449	24719.99
583.809	25002.24
584.169	25046.76
584.529	25275.45
584.889	25528.78
585.249	25687.87
585.609	25739.85
585.969	26167.63
586.329	26192.94
586.688	26533.05
587.048	26613.04
587.408	26865.01
587.768	27120.83
588.127	27242.41
588.487	27384.77
588.846	27923.74
589.206	27822.73
589.565	27945.66
589.925	28417.52
590.284	28577.74
590.643	28809.37
591.003	28939.76
591.362	29295.23
591.721	29445.51
592.08	29581.78
592.44	29857.48
592.799	30057.25
593.158	30174.08
593.517	30449.33
593.876	30763.89
594.235	30793.27
594.593	31195.3
594.952	31418.79
595.311	31517.1
595.67	31774.49
596.029	32142.39
596.387	32245.66
596.746	32555.94
597.104	32621.25
597.463	32846.33
597.822	33167.45
598.18	33194.57
598.538	33395.92
598.897	33773.08
599.255	33601.33
599.613	34159.51
599.972	34160.42
600.33	34398.38
600.688	34343.46
601.046	34794.97
601.404	34998.81
601.762	35002.88
602.12	35277.45
602.478	35457.56
602.836	35601.06
603.194	35642.86
603.552	35868.39
603.91	35926.02
604.268	36230.19
604.625	36267.25
604.983	36594.7
605.341	36658.65
605.698	36835.83
606.056	37029.04
606.413	37177.51
606.771	37308.58
607.128	37488.01
607.485	37456.15
607.843	37615.01
608.2	37907.21
608.557	38043.03
608.914	38024.49
609.272	38413.41
609.629	38595.78
609.986	38762.78
610.343	38622.44
610.7	39072.83
611.057	39060.17
611.414	39174.29
611.771	39316.66
612.127	39490.9
612.484	39550.56
612.841	39744.45
613.198	39693.15
613.554	39917.33
613.911	40195.74
614.267	40062.41
614.624	40124.78
614.98	40424.21
615.337	40619.91
615.693	40506.69
616.05	40518.67
616.406	40901.93
616.762	40865.55
617.118	40934.25
617.475	41015.15
617.831	41097.18
618.187	41136.96
618.543	41334.46
618.899	41628.47
619.255	41493.78
619.611	41500.79
619.967	41752.31
620.323	41911.62
620.678	41742.59
621.034	41753.89
621.39	41770.61
621.746	41881.79
622.101	42400.88
622.457	42089.92
622.812	42244.72
623.168	42384.83
623.523	42418.5
623.879	42556.8
624.234	42234.55
624.589	42591.61
624.945	42565.62
625.3	42845.84
625.655	42637.93
626.01	42648.33
626.365	42728.33
626.72	42529.46
627.075	42738.72
627.43	42906.17
627.785	42712.73
628.14	42913.18
628.495	42880.41
628.85	42766.29
629.205	42676.58
629.559	43051.71
629.914	42877.02
630.269	42818.72
630.623	42860.98
630.978	42678.61
631.332	43019.17
631.687	43161.76
632.041	42845.38
632.396	42992.05
632.75	42787.99
633.104	42919.96
633.459	42812.39
633.813	42837.48
634.167	42776.46
634.521	42763.35
634.875	43043.12
635.229	42967.87
635.583	42672.73
635.937	42844.25
636.291	42639.97
636.645	42873.86
636.999	42817.81
637.352	42871.37
637.706	42814.43
638.06	42671.38
638.413	42733.52
638.767	42643.13
639.121	42811.94
639.474	42402.91
639.828	42536.92
640.181	42569.46
640.534	42575.34
640.888	42401.78
641.241	42387.54
641.594	42484.72
641.947	42697.14
642.301	42394.32
642.654	42410.37
643.007	42385.74
643.36	42368.11
643.713	42444.72
644.066	42557.93
644.419	42280.2
644.771	42082.01
645.124	41698.97
645.477	41637.28
645.83	41524.97
646.182	41363.62
646.535	41214.47
646.888	41280.91
647.24	41125.2
647.593	41291.75
647.945	41210.63
648.298	41034.36
648.65	41028.26
649.002	40999.56
649.355	41066.45
649.707	41086.79
650.059	41247.01
650.411	41662.59
650.763	41756.37
651.115	41998.18
651.467	41892.42
651.819	41943.49
652.171	41809.93
652.523	41743.49
652.875	41696.04
653.227	41649.94
653.578	41891.74
653.93	41759.54
654.282	41568.58
654.633	41571.97
654.985	41604.29
655.337	41729.71
655.688	41597.96
656.039	41674.12
656.391	41386.67
656.742	41504.63
657.094	41596.38
657.445	41647.68
657.796	41653.1
658.147	41581.01
658.498	41479.09
658.849	41538.98
659.2	41588.92
659.551	41464.86
659.902	41615.13
660.253	41453.78
660.604	41534.68
660.955	41386.67
661.306	41574.68
661.656	41326.33
662.007	41464.4
662.358	41385.99
662.708	41479.54
663.059	41264.86
663.409	41092.21
663.76	41463.27
664.11	41435.48
664.461	41345.76
664.811	41326.55
665.161	41387.34
665.511	41268.93
665.862	41181.02
666.212	41276.39
666.562	41304.63
666.912	41191.64
667.262	41202.94
667.612	41200.23
667.962	41252.43
668.312	41242.72
668.662	41388.7
669.011	41329.49
669.361	41185.54
669.711	41103.74
670.06	41075.04
670.41	41101.02
670.76	41182.15
671.109	41287.69
671.459	40968.15
671.808	41038.43
672.157	41181.47
672.507	40802.95
672.856	40844.53
673.205	40990.29
673.554	41040.91
673.904	40986
674.253	41141.25
674.602	40970.63
674.951	40450.42
675.3	40200.26
675.649	40911.88
675.998	40783.74
676.346	40771.09
676.695	41023.96
677.044	40567.03
677.393	40768.15
677.741	40882.27
678.09	40765.21
678.438	40602.73
678.787	40669.17
679.135	40802.27
679.484	40442.06
679.832	40635.5
680.181	40290.42
680.529	40354.83
680.877	40320.48
681.225	40265.11
681.573	40618.78
681.922	40309.18
682.27	40136.76
682.618	40117.09
682.966	39980.6
683.314	40188.05
683.661	40112.8
684.009	39876.65
684.357	39802.53
684.705	39755.3
685.053	39767.95
685.4	39740.83
685.748	39562.76
686.095	39603.21
686.443	39432.14
686.79	39389.88
687.138	39521.18
687.485	39681.63
687.832	39461.52
688.18	39426.94
688.527	39173.84
688.874	39078.93
689.221	39045.03
689.568	38879.16
689.915	38694.76
690.262	38772.05
690.609	38806.85
690.956	38595.1
691.303	38587.42
691.65	38485.95
691.997	38486.86
692.344	38103.14
692.69	38187.43
693.037	38150.82
693.383	37768.68
693.73	37893.2
694.077	37685.97
694.423	37739.98
694.769	37690.27
695.116	37632.64
695.462	37584.51
695.808	37391.52
696.155	37406.88
696.501	37120.79
696.847	37182.93
697.193	36952.43
697.539	37050.51
697.885	36884.64
698.231	36777.07
698.577	36715.83
698.923	36716.28
699.269	36556.96
699.614	36365.1
699.96	36399
700.306	36306.35
700.651	36080.36
700.997	36030.87
701.342	36012.34
701.688	35857.09
702.033	35858
702.379	35931.44
702.724	35585.69
703.069	35640.83
703.415	35388.63
703.76	35393.83
704.105	35370.55
704.45	35347.28
704.795	35221.18
705.14	35033.61
705.485	34889.66
705.83	34854.86
706.175	34960.39
706.52	34829.78
706.865	34750.46
707.209	34733.73
707.554	34526.73
707.899	34684.7
708.243	34446.74
708.588	34407.64
708.932	34153.18
709.277	34144.37
709.621	34220.53
709.966	33885.85
710.31	33947.09
710.654	33749.13
710.998	33649.02
711.342	33731.95
711.687	33639.53
712.031	33482.47
712.375	33417.16
712.719	33537.15
713.063	33311.17
713.407	33412.86
713.75	33341.23
714.094	33270.5
714.438	33145.53
714.782	33218.52
715.125	32917.96
715.469	33060.33
715.812	32901.47
716.156	32695.14
716.499	32729.27
716.843	32794.8
717.186	32556.62
717.53	32739.89
717.873	32654.47
718.216	32651.08
718.559	32544.86
718.902	32228.04
719.246	32425.77
719.589	32196.63
719.932	32063.75
720.275	32090.87
720.617	32053.58
720.96	31975.16
721.303	32006.35
721.646	31885.45
721.989	31871.21
722.331	31906.92
722.674	31782.4
723.016	31835.05
723.359	31689.97
723.701	31742.17
724.044	31584.66
724.386	31402.3
724.729	31531.78
725.071	31512.35
725.413	31385.35
725.755	31440.26
726.097	31285.01
726.439	31117.33
726.782	31040.5
727.124	31193.26
727.465	30981.74
727.807	31035.75
728.149	30983.55
728.491	30877.56
728.833	30881.63
729.175	30736.55
729.516	30721.64
729.858	30671.92
730.199	30675.08
730.541	30662.43
730.882	30530
731.224	30788.98
731.565	30519.61
731.906	30598.48
732.248	30547.85
732.589	30351.48
732.93	30278.03
733.271	30243.68
733.612	30358.26
733.953	30305.83
734.294	30214.3
734.635	30240.74
734.976	30093.4
735.317	29959.85
735.658	29996.68
735.999	29906.97
736.339	29940.64
736.68	30052.05
737.021	29900.41
737.361	29822.22
737.702	29825.84
738.042	29709.23
738.383	29653.64
738.723	29703.36
739.063	29624.72
739.404	29706.75
739.744	29510.59
740.084	29415.46
740.424	29466.98
740.764	29360.32
741.104	29396.47
741.444	29321.22
741.784	29228.34
742.124	29324.16
742.464	29267.66
742.804	29156.48
743.143	29193.99
743.483	29172.98
743.823	29043.26
744.162	28989.48
744.502	28972.76
744.841	28914.23
745.181	28948.8
745.52	28882.59
745.86	28888.92
746.199	28841.46
746.538	28670.62
746.877	28762.14
747.216	28731.41
747.556	28628.13
747.895	28564.63
748.234	28398.31
748.573	28453.67
748.911	28409.61
749.25	28417.52
749.589	28214.13
749.928	28230.63
750.267	28326.22
750.605	28138.65
750.944	28183.17
751.283	28094.59
751.621	28107.69
751.96	27797.42
752.298	27919.22
752.636	27923.07
752.975	27809.4
753.313	27765.33
753.651	27780.47
753.989	27631.1
754.327	27677.42
754.666	27529.63
755.004	27644.2
755.342	27525.34
755.679	27500.48
756.017	27426.36
756.355	27451.67
756.693	27205.57
757.031	27257.32
757.368	27217.55
757.706	27217.1
758.044	27071.11
758.381	27120.37
758.719	27015.29
759.056	26948.85
759.394	26853.04
759.731	26714.06
760.068	26639.26
760.405	26546.15
760.743	26492.82
761.08	26631.57
761.417	26390.68
761.754	26384.8
762.091	26373.73
762.428	26271.58
762.765	26020.06
763.102	26077.01
763.438	25957.92
763.775	25843.57
764.112	25906.62
764.449	25834.08
764.785	25729.22
765.122	25634.09
765.458	25323.36
765.795	25491.94
766.131	25332.17
766.467	25229.12
766.804	25203.36
767.14	24921.34
767.476	25054.89
767.812	24935.57
768.148	24803.83
768.485	24839.76
768.821	24582.59
769.157	24591.63
769.492	24624.39
769.828	24537.62
770.164	24301.92
770.5	24235.7
770.836	24270.73
771.171	24071.64
771.507	23998.2
771.842	23814.7
772.178	23941.7
772.513	23775.38
772.849	23771.31
773.184	23670.07
773.519	23618.55
773.855	23517.53
774.19	23287.03
774.525	23300.36
774.86	23278.44
775.195	23109.86
775.53	23071.22
775.865	22925.23
776.2	22742.64
776.535	22731.56
776.87	22786.25
777.205	22463.1
777.539	22440.72
777.874	22472.81
778.209	22304.91
778.543	22323.89
778.878	22172.93
779.212	22297
779.547	22118.25
779.881	22107.62
780.215	21854.07
780.55	21909.21
780.884	21864.02
781.218	21636.45
781.552	21740.85
781.886	21545.38
782.22	21414.31
782.554	21365.5
782.888	21207.76
783.222	21104.94
783.556	21125.28
783.889	20997.37
784.223	20872.63
784.557	20904.72
784.89	20945.85
785.224	20786.76
785.557	20675.8
785.891	20646.19
786.224	20532.75
786.558	20634.44
786.891	20397.84
787.224	20299.54
787.557	20283.94
787.891	20288.24
788.224	20150.16
788.557	20150.84
788.89	20079.43
789.223	20051.18
789.556	19907.68
789.888	19831.3
790.221	19778.65
790.554	19667.69
790.887	19618.88
791.219	19486.45
791.552	19460.91
791.884	19340.69
792.217	19227.7
792.549	19243.97
792.882	19176.85
793.214	19054.15
793.546	19142.28
793.879	18953.58
794.211	18852.8
794.543	18935.28
794.875	18874.04
795.207	18788.62
795.539	18704.55
795.871	18692.35
796.203	18474.27
796.535	18519.02
796.867	18399.7
797.198	18414.61
797.53	18371.23
797.862	18264.56
798.193	18319.25
798.525	18050.1
798.856	18084.45
799.188	17983.67
799.519	17985.47
799.85	17691.92
800.182	17883.78
800.513	17752.94
800.844	17641.75
801.175	17735.31
801.506	17665.03
801.837	17578.03
802.168	17543.68
802.499	17557.69
802.83	17414.64
803.161	17390.46
803.491	17420.52
803.822	17389.33
804.153	17231.59
804.483	17146.4
804.814	17078.15
805.145	17084.03
805.475	16998.15
805.805	16870.93
806.136	16947.76
806.466	16904.37
806.796	16897.37
807.126	16686.98
807.457	16648.33
807.787	16649.46
808.117	16609.01
808.447	16545.06
808.777	16544.61
809.107	16467.55
809.436	16378.96
809.766	16444.72
810.096	16393.65
810.426	16303.94
810.755	16229.14
811.085	16225.29
811.414	16156.82
811.744	16077.73
812.073	16037.05
812.403	15993.21
812.732	15948.24
813.061	15954.79
813.39	15859.88
813.719	15799.77
814.049	15884.29
814.378	15839.32
814.707	15684.07
815.036	15720.67
815.365	15670.05
815.693	15562.94
816.022	15621.47
816.351	15462.83
816.68	15438.65
817.008	15447.91
817.337	15273.68
817.665	15294.24
817.994	15218.77
818.322	15336.5
818.651	15231.2
818.979	15221.93
819.307	15229.39
819.636	15166.34
819.964	15086.57
820.292	15030.75
820.62	15046.12
820.948	15021.94
821.276	15114.81
821.604	15040.01
821.932	15099
822.259	15062.39
822.587	15041.82
822.915	15000.02
823.243	14950.07
823.57	14950.52
823.898	14993.24
824.225	14985.55
824.553	14887.25
824.88	14967.7
825.207	15002.28
825.535	14890.64
825.862	14999.79
826.189	14955.27
826.516	14998.21
826.843	15021.03
827.17	14925.21
827.497	14993.01
827.824	14925.44
828.151	15027.13
828.478	14883.41
828.805	14933.8
829.131	14960.02
829.458	14880.7
829.785	14872.11
830.111	14824.2
830.438	14918.89
830.764	14876.18
831.09	14892
831.417	14790.98
831.743	14955.27
832.069	14883.18
832.395	14774.94
832.722	14864.2
833.048	14802.05
833.374	14820.58
833.7	14772.68
834.026	14777.2
834.351	14821.26
834.677	14743.98
835.003	14795.05
835.329	14673.47
835.654	14769.74
835.98	14698.78
836.306	14681.15
836.631	14639.8
836.956	14676.63
837.282	14632.34
837.607	14554.15
837.932	14534.04
838.258	14503.31
838.583	14483.42
838.908	14463.08
839.233	14498.56
839.558	14410.43
839.883	14345.8
840.208	14297.43
840.533	14274.16
840.858	14276.19
841.182	14332.91
841.507	14195.74
841.832	14218.79
842.156	14147.83
842.481	14190.09
842.805	14118.23
843.13	14157.55
843.454	14115.97
843.778	14032.13
844.103	13985.8
844.427	13988.97
844.751	13977.44
845.075	13884.79
845.399	13815.64
845.723	13826.03
846.047	13881.4
846.371	13760.5
846.695	13742.42
847.019	13544.01
847.343	13573.16
847.666	13494.74
847.99	13372.04
848.313	13434.63
848.637	13332.04
848.96	13289.78
849.284	13209.55
849.607	13160.29
849.931	13108.31
850.254	13145.37
850.577	12965.27
850.9	12895.89
851.223	12914.65
851.546	12776.8
851.869	12811.15
852.192	12819.51
852.515	12660.87
852.838	12679.62
853.161	12659.51
853.483	12625.84
853.806	12542.68
854.129	12468.78
854.451	12445.73
854.774	12436.01
855.096	12351.72
855.419	12316.47
855.741	12245.74
856.063	12176.13
856.385	12207.32
856.708	12095.68
857.03	12148.34
857.352	12135.46
857.674	12023.6
857.996	11970.04
858.318	11937.72
858.64	12027.44
858.961	11870.38
859.283	11851.4
859.605	11822.92
859.926	11872.41
860.248	11745.41
860.57	11772.76
860.891	11724.17
861.212	11637.39
861.534	11624.51
861.855	11632.87
862.176	11629.26
862.498	11555.59
862.819	11591.29
863.14	11539.09
863.461	11435.59
863.782	11465.19
864.103	11450.05
864.424	11457.06
864.745	11400.34
865.065	11410.73
865.386	11303.62
865.707	11305.88
866.027	11333.9
866.348	11319.21
866.668	11293.22
866.989	11271.07
867.309	11206.89
867.63	11216.16
867.95	11275.82
868.27	11137.97
868.59	11153.34
868.91	11105.43
869.23	11127.12
869.55	11118.76
869.87	11194.47
870.19	11141.81
870.51	11158.53
870.83	11175.93
871.15	11070.18
871.469	10999.89
871.789	11028.82
872.109	11064.75
872.428	10992.21
872.748	10951.31
873.067	10964.42
873.386	10943.85
873.706	10913.34
874.025	10821.14
874.344	10866.11
874.663	10911.31
874.982	10868.82
875.301	10778.43
875.62	10788.15
875.939	10735.72
876.258	10714.93
876.577	10727.36
876.896	10772.78
877.214	10733.23
877.533	10667.93
877.852	10651.2
878.17	10619.34
878.489	10658.43
878.807	10655.95
879.125	10602.39
879.444	10545.44
879.762	10499.12
880.08	10527.36
880.398	10488.95
880.716	10487.59
881.034	10497.08
881.352	10446.91
881.67	10416.86
881.988	10441.72
882.306	10369.63
882.624	10343.64
882.941	10271.33
883.259	10254.6
883.577	10297.54
883.894	10233.13
884.212	10277.65
884.529	10217.09
884.846	10178
885.164	10151.78
885.481	10093.48
885.798	10124.44
886.115	10073.82
886.432	10015.74
886.75	10041.5
887.067	10073.59
887.383	10044.21
887.7	10032.24
888.017	9894.61
888.334	10002.63
888.651	9934.16
888.967	9889.87
889.284	9880.6
889.6	9882.86
889.917	9720.61
890.233	9806.25
890.55	9716.99
890.866	9731.68
891.182	9702.98
891.498	9667.27
891.815	9642.42
892.131	9572.59
892.447	9593.83
892.763	9504.79
893.079	9512.02
893.395	9472.93
893.71	9454.62
894.026	9435.19
894.342	9442.65
894.657	9321.29
894.973	9351.8
895.289	9343.67
895.604	9274.06
895.92	9207.85
896.235	9195.87
896.55	9203.78
896.865	9212.82
897.181	9136.89
897.496	9089.21
897.811	9087.18
898.126	8985.94
898.441	8997.46
898.756	9008.99
899.071	8897.8
899.386	8902.32
899.7	8921.76
900.015	8844.7
900.33	8820.52
900.644	8741.2
900.959	8817.13
901.273	8755.21
901.588	8639.5
901.902	8695.32
902.216	8658.49
902.531	8656.91
902.845	8495.55
903.159	8545.04
903.473	8431.83
903.787	8442.45
904.101	8467.53
904.415	8413.75
904.729	8298.72
905.042	8256.24
905.356	8321.32
905.67	8230.93
905.984	8238.61
906.297	8244.26
906.611	8231.83
906.924	8171.49
907.237	8140.99
907.551	8142.57
907.864	8049.24
908.177	8085.62
908.491	8023.02
908.804	7938.73
909.117	7846.3
909.43	7895.34
909.743	7891.95
910.056	7820.09
910.368	7747.32
910.681	7827.1
910.994	7723.14
911.307	7668.68
911.619	7661.45
911.932	7682.92
912.244	7546.88
912.557	7545.75
912.869	7521.79
913.181	7495.81
913.494	7500.1
913.806	7456.03
914.118	7450.16
914.43	7386.43
914.742	7339.88
915.054	7311.4
915.366	7294.23
915.678	7274.79
915.99	7226.89
916.302	7213.78
916.613	7178.98
916.925	7227.11
917.236	7161.8
917.548	7117.51
917.859	7124.74
918.171	7054.91
918.482	7065.99
918.794	6994.35
919.105	6999.55
919.416	6931.53
919.727	6931.3
920.038	6908.93
920.349	6800
920.66	6836.84
920.971	6786.45
921.282	6787.12
921.593	6703.74
921.903	6696.5
922.214	6739.44
922.525	6677.07
922.835	6632.78
923.146	6629.61
923.456	6544.64
923.767	6522.72
924.077	6530.63
924.387	6489.05
924.697	6435.95
925.008	6397.98
925.318	6392.78
925.628	6388.49
925.938	6365.44
926.248	6286.35
926.558	6287.25
926.867	6238.89
927.177	6183.52
927.487	6233.69
927.796	6153.69
928.106	6178.78
928.416	6146.24
928.725	6111.66
929.034	6049.06
929.344	6018.56
929.653	6063.75
929.962	5986.47
930.271	5957.54
930.581	5928.84
930.89	5903.31
931.199	5876.64
931.508	5875.28
931.817	5871.44
932.125	5832.35
932.434	5798.9
932.743	5745.57
933.051	5711.45
933.36	5676.87
933.669	5680.03
933.977	5642.75
934.286	5626.48
934.594	5594.84
934.902	5543.31
935.21	5580.38
935.519	5519.59
935.827	5475.29
936.135	5459.7
936.443	5468.97
936.751	5453.83
937.059	5468.51
937.367	5388.74
937.674	5448.18
937.982	5362.3
938.29	5372.02
938.597	5304.22
938.905	5218.58
939.213	5252.47
939.52	5254.96
939.827	5258.58
940.135	5176.09
940.442	5173.38
940.749	5183.78
941.056	5168.18
941.363	5102.65
941.67	5136.77
941.977	5082.54
942.284	5022.2
942.591	5037.57
942.898	4979.94
943.205	4974.97
943.511	4969.77
943.818	4899.26
944.125	4952.6
944.431	4948.53
944.738	4889.55
945.044	4866.95
945.35	4856.33
945.657	4805.03
945.963	4816.1
946.269	4775.65
946.575	4767.29
946.881	4749.44
947.187	4733.39
947.493	4701.3
947.799	4706.73
948.105	4652.49
948.41	4572.27
948.716	4609.1
949.022	4602.55
949.327	4610.91
949.633	4561.87
949.938	4550.8
950.244	4534.3
950.549	4471.7
950.854	4472.61
951.16	4483.68
951.465	4421.08
951.77	4388.09
952.075	4407.3
952.38	4386.96
952.685	4351.03
952.99	4326.62
953.294	4278.26
953.599	4300.86
953.904	4308.09
954.209	4245.04
954.513	4289.56
954.818	4243.24
955.122	4233.52
955.426	4192.62
955.731	4157.59
956.035	4158.49
956.339	4147.65
956.643	4134.99
956.948	4076.23
957.252	4076.23
957.556	4077.82
957.86	4048.44
958.163	4049.79
958.467	4045.73
958.771	4029.91
959.075	3980.42
959.378	3990.14
959.682	3981.77
959.985	3895.9
960.289	3885.73
960.592	3878.05
960.896	3845.73
961.199	3834.21
961.502	3870.59
961.805	3847.09
962.108	3832.63
962.411	3788.78
962.714	3775
963.017	3741.33
963.32	3841.44
963.623	3727.09
963.926	3716.24
964.228	3688.9
964.531	3682.57
964.833	3664.95
965.136	3663.36
965.438	3628.11
965.741	3595.8
966.043	3587.89
966.345	3573.2
966.648	3571.62
966.95	3581.11
967.252	3544.27
967.554	3516.93
967.856	3512.41
968.158	3497.27
968.46	3468.57
968.761	3462.92
969.063	3446.87
969.365	3393.77
969.666	3443.26
969.968	3386.54
970.269	3408.46
970.571	3383.82
970.872	3362.58
971.174	3310.61
971.475	3339.08
971.776	3306.54
972.077	3314.67
972.378	3290.04
972.679	3271.96
972.98	3265.41
973.281	3252.75
973.582	3210.95
973.883	3231.74
974.183	3235.8
974.484	3203.72
974.785	3167.11
975.085	3179.31
975.386	3158.29
975.686	3136.6
975.986	3130.72
976.287	3133.43
976.587	3067.45
976.887	3074.68
977.187	3048.01
977.487	3044.62
977.787	3034.45
978.087	3041.01
978.387	3041.01
978.687	3034.23
978.987	2975.7
979.286	2985.64
979.586	2934.34
979.885	2969.37
980.185	2952.42
980.484	2920.11
980.784	2909.71
981.083	2908.13
981.382	2857.51
981.682	2876.49
981.981	2855.93
982.28	2847.79
982.579	2844.63
982.878	2822.26
983.177	2799.66
983.475	2790.17
983.774	2787.91
984.073	2765.99
984.372	2770.28
984.67	2740.22
984.969	2722.82
985.267	2742.03
985.566	2712.65
985.864	2696.84
986.162	2683.05
986.461	2702.94
986.759	2666.55
987.057	2623.62
987.355	2612.09
987.653	2631.53
987.951	2630.4
988.249	2628.59
988.547	2568.93
988.844	2585.2
989.142	2564.86
989.44	2526.44
989.737	2545.88
990.035	2515.6
990.332	2521.25
990.63	2504.3
990.927	2501.81
991.224	2464.98
991.521	2431.53
991.819	2436.05
992.116	2426.33
992.413	2420.23
992.71	2403.06
993.006	2406.67
993.303	2378.43
993.6	2384.98
993.897	2368.93
994.193	2363.29
994.49	2351.31
994.787	2334.81
995.083	2315.83
995.379	2317.86
995.676	2316.96
995.972	2284.87
996.268	2326.45
996.565	2271.31
996.861	2278.32
997.157	2238.32
997.453	2229.05
997.749	2244.42
998.044	2198.09
998.34	2173.46
998.636	2203.29
998.932	2156.96
999.227	2183.18
999.523	2163.97
999.818	2145.44
1000.114	2168.26
1000.409	2108.83
1000.704	2102.05
1001	2131.88
1001.295	2090.75
1001.59	2086.46
1001.885	2086.91
1002.18	2048.27
1002.475	2052.79
1002.77	2063.86
1003.065	2032.67
1003.359	2022.96
1003.654	1985.67
1003.949	1992.22
1004.243	1973.47
1004.538	1995.16
1004.832	1992
1005.127	1977.08
1005.421	1963.52
1005.715	1983.63
1006.009	1906.12
1006.304	1919
1006.598	1932.34
1006.892	1889.4
1007.186	1887.14
1007.48	1873.81
1007.773	1844.65
1008.067	1857.99
1008.361	1811.44
1008.655	1822.96
1008.948	1853.92
1009.242	1803.53
1009.535	1786.58
1009.829	1808.95
1010.122	1803.07
1010.415	1774.83
1010.708	1745.45
1011.001	1762.85
1011.295	1734.15
1011.588	1750.19
1011.881	1738.89
1012.173	1689.86
1012.466	1712.23
1012.759	1731.89
1013.052	1688.95
1013.344	1696.41
1013.637	1658.67
1013.93	1636.07
1014.222	1624.1
1014.514	1650.99
1014.807	1633.14
1015.099	1603.76
1015.391	1582.97
1015.683	1589.97
1015.976	1576.41
1016.268	1570.99
1016.56	1570.76
1016.851	1548.62
1017.143	1543.42
1017.435	1506.58
1017.727	1502.97
1018.018	1520.37
1018.31	1497.09
1018.602	1486.7
1018.893	1479.47
1019.185	1474.72
1019.476	1465.46
1019.767	1473.59
1020.058	1473.59
1020.35	1433.82
1020.641	1470.43
1020.932	1418
1021.223	1395.63
1021.514	1396.31
1021.804	1392.46
1022.095	1390.2
1022.386	1382.07
1022.677	1363.09
1022.967	1368.06
1023.258	1353.59
1023.548	1328.51
1023.839	1360.15
1024.129	1340.26
1024.419	1317.66
1024.709	1301.39
1025	1291.9
1025.29	1276.76
1025.58	1308.4
1025.87	1272.47
1026.16	1261.17
1026.449	1268.62
1026.739	1225.46
1027.029	1264.33
1027.319	1232.24
1027.608	1221.62
1027.898	1214.61
1028.187	1220.26
1028.477	1197.44
1028.766	1200.38
1029.055	1196.99
1029.344	1198.34
1029.634	1175.29
1029.923	1164.67
1030.212	1201.28
1030.501	1154.28
1030.79	1149.53
1031.078	1115.63
1031.367	1175.75
1031.656	1112.7
1031.945	1095.07
1032.233	1115.63
1032.522	1086.48
1032.81	1065.47
1033.099	1086.71
1033.387	1069.99
1033.675	1086.48
1033.963	1052.13
1034.251	1065.01
1034.54	1063.88
1034.828	1049.87
1035.116	1053.04
1035.403	1039.03
1035.691	1040.61
1035.979	1043.55
1036.267	1022.3
1036.554	989.31
1036.842	1021.85
1037.129	1014.62
1037.417	981.63
1037.704	964
1037.992	981.63
1038.279	993.38
1038.566	948.41
1038.853	948.41
1039.14	948.41
