Data from hue_00_FLMS001491_31.txt Node
Date: Mon Feb 06 15:29:36 GMT 2017
User: dcchb
Spectrometer: FLMS00149
Trigger mode: 0
Integration Time (sec): 2.000000E-2
Scans to average: 10
Electric dark correction enabled: true
Nonlinearity correction enabled: false
Boxcar width: 0
XAxis mode: Wavelengths
Number of Pixels in Spectrum: 2048
>>>>>Begin Spectral Data<<<<<
341.393	-5.32
341.776	-5.32
342.16	-5.32
342.543	-53.69
342.927	-46.91
343.31	-56.17
343.693	-75.83
344.077	-87.13
344.46	-50.07
344.843	-35.15
345.226	-59.11
345.61	-17.08
345.993	-10.52
346.376	-2.61
346.759	19.53
347.142	46.88
347.525	22.7
347.908	54.56
348.291	70.38
348.674	85.29
349.057	94.33
349.44	145.41
349.823	156.48
350.206	166.65
350.588	205.07
350.971	218.4
351.354	238.96
351.737	232.18
352.119	265.4
352.502	260.43
352.884	270.15
353.267	286.19
353.65	291.16
354.032	300.66
354.414	316.25
354.797	307.44
355.179	336.81
355.562	309.7
355.944	316.02
356.326	326.64
356.709	338.17
357.091	340.2
357.473	330.49
357.855	335.46
358.238	356.47
358.62	339.98
359.002	329.58
359.384	344.04
359.766	347.21
360.148	350.37
360.53	330.94
360.912	354.21
361.294	332.29
361.676	333.65
362.057	330.49
362.439	351.5
362.821	338.85
363.203	329.13
363.584	313.31
363.966	343.37
364.348	346.3
364.729	320.77
365.111	317.83
365.493	326.19
365.874	315.34
366.256	323.25
366.637	326.87
367.019	315.57
367.4	334.55
367.781	307.21
368.163	313.76
368.544	321.45
368.925	315.12
369.306	333.42
369.688	349.92
370.069	287.1
370.45	329.36
370.831	303.14
371.212	324.84
371.593	310.15
371.974	308.11
372.355	314.21
372.736	316.02
373.117	340.65
373.498	324.84
373.879	332.97
374.26	333.2
374.641	325.06
375.021	341.56
375.402	321.22
375.783	332.29
376.163	338.4
376.544	325.06
376.925	331.84
377.305	321.22
377.686	315.8
378.066	312.86
378.447	329.13
378.827	327.77
379.208	340.65
379.588	322.58
379.968	331.16
380.349	309.7
380.729	337.49
381.109	322.8
381.489	335.91
381.87	333.88
382.25	350.15
382.63	349.69
383.01	346.53
383.39	335.01
383.77	343.82
384.15	325.97
384.53	340.43
384.91	323.93
385.29	346.3
385.67	349.92
386.049	354.21
386.429	350.82
386.809	355.57
387.189	355.12
387.568	334.78
387.948	361.9
388.328	353.76
388.707	346.08
389.087	335.91
389.466	366.42
389.846	375.68
390.225	371.61
390.605	345.63
390.984	362.8
391.363	377.04
391.743	375.46
392.122	352.18
392.501	354.67
392.881	376.59
393.26	382.91
393.639	354.44
394.018	372.07
394.397	398.73
394.776	381.56
395.155	354.21
395.534	358.96
395.913	386.76
396.292	381.11
396.671	377.49
397.05	368
397.429	357.83
397.808	396.47
398.186	375
398.565	377.49
398.944	400.54
399.323	398.05
399.701	381.11
400.08	399.64
400.458	386.76
400.837	401.22
401.215	387.21
401.594	402.35
401.972	389.92
402.351	389.24
402.729	377.49
403.107	424.49
403.486	408
403.864	396.02
404.242	410.71
404.62	414.33
404.999	415.46
405.377	393.08
405.755	404.83
406.133	393.31
406.511	403.93
406.889	420.65
407.267	414.55
407.645	405.51
408.023	424.95
408.401	409.13
408.779	436.25
409.156	417.94
409.534	433.31
409.912	418.39
410.29	451.61
410.667	440.99
411.045	452.06
411.422	450.48
411.8	448.67
412.178	472.85
412.555	465.85
412.933	461.56
413.31	483.7
413.687	469.69
414.065	483.25
414.442	454.32
414.819	456.58
415.197	485.06
415.574	492.74
415.951	502.01
416.328	480.76
416.705	481.89
417.082	497.26
417.46	496.58
417.837	501.1
418.214	513.31
418.591	478.5
418.967	506.75
419.344	498.84
419.721	483.48
420.098	517.6
420.475	530.71
420.852	501.78
421.228	526.86
421.605	549.69
421.982	515.11
422.358	537.49
422.735	536.13
423.111	549.69
423.488	555.11
423.864	545.62
424.241	537.26
424.617	536.81
424.994	569.12
425.37	539.07
425.746	561.44
426.123	554.89
426.499	562.12
426.875	581.33
427.251	579.74
427.627	578.61
428.003	598.95
428.379	579.97
428.756	588.78
429.132	603.7
429.507	601.89
429.883	603.47
430.259	598.73
430.635	606.41
431.011	632.85
431.387	611.38
431.763	634.21
432.138	613.87
432.514	620.42
432.89	644.83
433.265	641.44
433.641	665.39
434.016	664.26
434.392	654.77
434.767	671.72
435.143	682.57
435.518	688.89
435.894	672.85
436.269	695.67
436.644	691.83
437.02	690.93
437.395	691.38
437.77	707.2
438.145	733.41
438.52	723.7
438.895	738.61
439.271	719.63
439.646	739.06
440.021	742.45
440.395	755.33
440.77	722.79
441.145	749.23
441.52	779.74
441.895	764.6
442.27	768.89
442.645	765.05
443.019	764.82
443.394	754.2
443.769	792.17
444.143	751.94
444.518	781.55
444.892	776.35
445.267	787.42
445.641	788.55
446.016	787.42
446.39	779.74
446.764	804.37
447.139	802.11
447.513	840.98
447.887	814.54
448.262	815.67
448.636	831.26
449.01	842.11
449.384	816.35
449.758	829
450.132	827.87
450.506	863.58
450.88	848.21
451.254	841.88
451.628	849.57
452.002	876.91
452.376	853.64
452.75	847.31
453.123	907.19
453.497	869.91
453.871	891.15
454.244	893.41
454.618	915.78
454.992	904.93
455.365	928.66
455.739	929.57
456.112	943.12
456.486	932.5
456.859	972.5
457.232	965.95
457.606	971.15
457.979	973.63
458.352	992.39
458.725	986.51
459.099	1012.73
459.472	1024.7
459.845	1004.82
460.218	1018.6
460.591	1008.89
460.964	1035.1
461.337	1030.13
461.71	1087.98
462.083	1095.66
462.456	1092.73
462.829	1080.97
463.201	1080.97
463.574	1117.36
463.947	1106.74
464.32	1162.33
464.692	1138.83
465.065	1143.57
465.438	1171.37
465.81	1196.23
466.183	1197.13
466.555	1201.2
466.928	1205.94
467.3	1227.41
467.672	1248.65
468.045	1266.28
468.417	1285.04
468.789	1274.19
469.161	1302.21
469.534	1327.3
469.906	1364.58
470.278	1377.24
470.65	1372.94
471.022	1403.23
471.394	1364.36
471.766	1416.33
472.138	1424.69
472.51	1458.59
472.882	1498.59
473.253	1471.92
473.625	1499.72
473.997	1554.41
474.369	1546.95
474.74	1592.83
475.112	1623.78
475.484	1634.86
475.855	1668.76
476.227	1686.61
476.598	1734.97
476.97	1742.2
477.341	1788.3
477.713	1801.86
478.084	1795.31
478.455	1875.76
478.827	1883.89
479.198	1932.93
479.569	1968.63
479.94	1976.09
480.311	1992.59
480.682	2049.54
481.053	2095.41
481.424	2144.45
481.795	2159.59
482.166	2198.23
482.537	2226.93
482.908	2268.97
483.279	2309.42
483.65	2335.63
484.021	2372.01
484.391	2424.44
484.762	2470.32
485.133	2455.4
485.503	2506.25
485.874	2572.23
486.244	2610.43
486.615	2642.97
486.985	2723.87
487.356	2772.68
487.726	2789.4
488.097	2832.11
488.467	2846.58
488.837	2903.07
489.207	2936.97
489.578	2983.98
489.948	3033.47
490.318	3057.87
490.688	3047.93
491.058	3167.02
491.428	3164.31
491.798	3242.73
492.168	3272.78
492.538	3284.31
492.908	3325.21
493.278	3357.98
493.648	3406.11
494.017	3370.18
494.387	3474.36
494.757	3537.41
495.126	3548.71
495.496	3569.72
495.866	3595.94
496.235	3629.61
496.605	3634.58
496.974	3673.45
497.344	3681.36
497.713	3728.36
498.082	3771.53
498.452	3797.29
498.821	3776.95
499.19	3845.2
499.559	3878.19
499.928	3926.32
500.298	3906.44
500.667	3922.48
501.036	3947.79
501.405	4002.48
501.774	4022.82
502.143	4013.33
502.512	4009.26
502.88	4064.85
503.249	4036.6
503.618	4101.69
503.987	4172.42
504.356	4181.23
504.724	4160.67
505.093	4193.21
505.462	4179.2
505.83	4230.72
506.199	4287.9
506.567	4316.6
506.936	4290.83
507.304	4322.7
507.672	4363.83
508.041	4354.11
508.409	4343.26
508.777	4390.04
509.145	4445.86
509.514	4420.1
509.882	4452.41
510.25	4453.32
510.618	4484.95
510.986	4550.49
511.354	4550.26
511.722	4564.72
512.09	4577.15
512.458	4569.02
512.826	4599.98
513.193	4624.16
513.561	4625.74
513.929	4690.15
514.297	4660.99
514.664	4718.17
515.032	4731.73
515.4	4713.2
515.767	4736.92
516.135	4804.94
516.502	4749.13
516.869	4833.42
517.237	4834.32
517.604	4760.2
517.972	4874.55
518.339	4882
518.706	4861.21
519.073	4874.1
519.44	4899.63
519.808	4940.76
520.175	4950.93
520.542	4963.81
520.909	4978.05
521.276	5006.97
521.643	5007.65
522.009	5112.05
522.376	5069.12
522.743	5096.24
523.11	5116.8
523.477	5145.5
523.843	5170.81
524.21	5219.85
524.577	5264.82
524.943	5226.85
525.31	5295.33
525.676	5335.78
526.043	5379.84
526.409	5366.51
526.776	5396.34
527.142	5410.13
527.508	5427.3
527.874	5445.38
528.241	5456.68
528.607	5510.46
528.973	5542.33
529.339	5545.72
529.705	5633.4
530.071	5620.06
530.437	5650.35
530.803	5662.77
531.169	5735.32
531.535	5727.86
531.901	5754.98
532.267	5764.02
532.632	5788.42
532.998	5829.1
533.364	5884.24
533.73	5887.4
534.095	5903.45
534.461	5890.79
534.826	5924.46
535.192	5959.72
535.557	6005.14
535.923	6015.08
536.288	6065.02
536.653	6063.67
537.019	6044.91
537.384	6105.7
537.749	6134.63
538.114	6213.27
538.479	6147.96
538.845	6197.9
539.21	6201.52
539.575	6233.38
539.94	6197.45
540.305	6344.56
540.67	6272.48
541.034	6314.96
541.399	6366.94
541.764	6318.12
542.129	6430.89
542.494	6439.48
542.858	6488.52
543.223	6464.79
543.587	6499.36
543.952	6573.71
544.316	6589.76
544.681	6589.08
545.045	6578.91
545.41	6650.77
545.774	6685.57
546.138	6716.53
546.503	6697.55
546.867	6696.87
547.231	6747.49
547.595	6770.09
547.959	6777.77
548.324	6815.06
548.688	6830.88
549.052	6853.7
549.416	6931.22
549.779	6943.65
550.143	6904.55
550.507	6997.2
550.871	6977.54
551.235	6984.77
551.599	7058.67
551.962	7069.07
552.326	7042.85
552.689	7168.05
553.053	7120.59
553.417	7143.87
553.78	7247.59
554.143	7166.24
554.507	7196.97
554.87	7255.95
555.234	7301.83
555.597	7210.98
555.96	7250.08
556.323	7364.65
556.686	7315.84
557.05	7392.9
557.413	7400.13
557.776	7407.59
558.139	7442.84
558.502	7441.71
558.865	7460.69
559.228	7559.45
559.59	7572.33
559.953	7563.97
560.316	7648.49
560.679	7613.46
561.041	7685.77
561.404	7750.63
561.767	7744.98
562.129	7738.2
562.492	7817.07
562.854	7800.8
563.217	7838.08
563.579	7852.55
563.941	7896.39
564.304	7905.88
564.666	7989.49
565.028	7989.04
565.39	7931.42
565.753	8005.31
566.115	8045.31
566.477	8093.9
566.839	8057.06
567.201	8092.99
567.563	8168.92
567.925	8165.99
568.287	8134.12
568.648	8211.41
569.01	8248.24
569.372	8310.84
569.734	8281.92
570.095	8343.83
570.457	8347.9
570.819	8495.47
571.18	8432.87
571.542	8504.51
571.903	8583.15
572.265	8597.39
572.626	8752.86
572.987	8710.38
573.349	8752.19
573.71	8793.09
574.071	8887.32
574.432	8852.52
574.794	8965.96
575.155	8927.55
575.516	9020.88
575.877	9131.61
576.238	9221.55
576.599	9234.21
576.96	9267.2
577.32	9397.37
577.681	9470.58
578.042	9568.89
578.403	9580.86
578.763	9715.32
579.124	9858.37
579.485	9950.35
579.845	10031.47
580.206	10231.69
580.566	10195.31
580.927	10340.39
581.287	10625.13
581.648	10587.39
582.008	10831.68
582.368	10872.13
582.728	11031.45
583.089	11226.47
583.449	11403.41
583.809	11537.2
584.169	11713.01
584.529	11855.15
584.889	12240.23
585.249	12367.68
585.609	12451.75
585.969	12729.48
586.329	12857.16
586.688	13230.71
587.048	13389.8
587.408	13652.85
587.768	13849.9
588.127	14096.45
588.487	14327.41
588.846	14581.64
589.206	14786.38
589.565	15023.21
589.925	15418.9
590.284	15627.94
590.643	15929.85
591.003	16207.36
591.362	16548.14
591.721	16740
592.08	17027.22
592.44	17421.34
592.799	17672.63
593.158	18014.31
593.517	18301.54
593.876	18572.49
594.235	18848.42
594.593	19034.85
594.952	19526.37
595.311	19663.08
595.67	20155.05
596.029	20554.81
596.387	20791.64
596.746	21119.09
597.104	21382.81
597.463	21780.54
597.822	22142.57
598.18	22394.54
598.538	22683.8
598.897	22991.36
599.255	23190.45
599.613	23872.24
599.972	23939.81
600.33	24336.18
600.688	24555.16
601.046	24944.98
601.404	25277.4
601.762	25545.64
602.12	25892.53
602.478	26227.88
602.836	26455.22
603.194	26559.17
603.552	26946.96
603.91	27114.19
604.268	27493.61
604.625	27743.1
604.983	28150.77
605.341	28242.97
605.698	28615.62
606.056	28976.29
606.413	29195.04
606.771	29527.01
607.128	29820.78
607.485	29897.39
607.843	30065.07
608.2	30494.21
608.557	30831.38
608.914	30868.44
609.272	31231.14
609.629	31511.81
609.986	31823.22
610.343	31920.62
610.7	32295.97
611.057	32431.34
611.414	32586.36
611.771	32777.54
612.127	33128.49
612.484	33435.38
612.841	33658.65
613.198	33662.94
613.554	33923.5
613.911	34215.47
614.267	34310.38
614.624	34554.9
614.98	34684.61
615.337	35092.06
615.693	35044.38
616.05	35153.98
616.406	35527.98
616.762	35471.48
617.118	35624.7
617.475	35871.47
617.831	36147.17
618.187	36142.65
618.543	36500.38
618.899	36671.45
619.255	36748.51
619.611	36763.65
619.967	37080.93
620.323	37269.85
620.678	37248.16
621.034	37236.86
621.39	37430.53
621.746	37533.12
622.101	37916.16
622.457	37891.98
622.812	38007.69
623.168	38204.52
623.523	38184.86
623.879	38453.1
624.234	38235.7
624.589	38492.65
624.945	38538.97
625.3	38748.46
625.655	38637.73
626.01	38780.1
626.365	39023.48
626.72	38887.21
627.075	39145.96
627.43	38985.06
627.785	39085.17
628.14	39266.64
628.495	39157.04
628.85	39241.1
629.205	39271.61
629.559	39549.12
629.914	39431.38
630.269	39252.4
630.623	39479.74
630.978	39387.99
631.332	39650.58
631.687	39653.07
632.041	39673.63
632.396	39646.51
632.75	39545.73
633.104	39633.63
633.459	39514.99
633.813	39655.33
634.167	39600.64
634.521	39704.82
634.875	39839.28
635.229	39661.43
635.583	39631.6
635.937	39817.36
636.291	39765.61
636.645	39735.55
636.999	39612.16
637.352	39764.7
637.706	39734.2
638.06	39903.46
638.413	39648.55
638.767	39645.16
639.121	39775.78
639.474	39555.44
639.828	39597.25
640.181	39772.61
640.534	39681.54
640.888	39584.37
641.241	39604.93
641.594	39551.83
641.947	39797.02
642.301	39598.61
642.654	39730.13
643.007	39784.14
643.36	39590.02
643.713	39642.67
644.066	39723.12
644.419	39399.74
644.771	39224.38
645.124	38875.01
645.477	38771.06
645.83	38583.72
646.182	38493.1
646.535	38416.26
646.888	38592.76
647.24	38262.14
647.593	38457.39
647.945	38590.27
648.298	38343.95
648.65	38295.82
649.002	38147.34
649.355	38364.74
649.707	38271.86
650.059	38535.58
650.411	38912.3
650.763	39042.46
651.115	39350.93
651.467	39173.98
651.819	39259.18
652.171	39197.71
652.523	39113.42
652.875	39129.69
653.227	39062.12
653.578	39172.18
653.93	39246.52
654.282	38995.23
654.633	38983.03
654.985	39110.48
655.337	38992.52
655.688	38943.48
656.039	39099.18
656.391	38748.68
656.742	38903.03
657.094	38800.89
657.445	39100.54
657.796	39041.78
658.147	38927.21
658.498	38920.21
658.849	39003.37
659.2	38883.6
659.551	38879.75
659.902	39000.2
660.253	38755.69
660.604	38899.19
660.955	38801.34
661.306	38930.6
661.656	38865.74
662.007	38773.77
662.358	38809.25
662.708	38799.53
663.059	38710.95
663.409	38520.89
663.76	38906.65
664.11	38784.84
664.461	38794.33
664.811	38719.08
665.161	38865.29
665.511	38642.25
665.862	38723.83
666.212	38872.3
666.562	38749.36
666.912	38803.37
667.262	38704.84
667.612	38683.83
667.962	38766.09
668.312	38682.47
668.662	38770.15
669.011	38786.88
669.361	38557.73
669.711	38533.32
670.06	38580.55
670.41	38536.71
670.76	38534.68
671.109	38583.94
671.459	38559.54
671.808	38542.59
672.157	38522.48
672.507	38302.37
672.856	38397.28
673.205	38374.46
673.554	38595.92
673.904	38446.32
674.253	38675.69
674.602	38460.56
674.951	37880.91
675.3	37786.22
675.649	38283.61
675.998	38372.65
676.346	38354.8
676.695	38409.03
677.044	38198.42
677.393	38332.65
677.741	38259.21
678.09	38197.74
678.438	37986.9
678.787	38306.66
679.135	38094.69
679.484	37850.18
679.832	38104.86
680.181	37845.88
680.529	38190.06
680.877	37835.71
681.225	37942.38
681.573	38063.05
681.922	37654.93
682.27	37688.37
682.618	37658.32
682.966	37695.38
683.314	37675.72
683.661	37565.21
684.009	37496.06
684.357	37375.61
684.705	37353.92
685.053	37347.37
685.4	37355.27
685.748	37156.41
686.095	37258.78
686.443	37015.17
686.79	37157.09
687.138	37042.97
687.485	37072.34
687.832	36841.39
688.18	36965.91
688.527	36611.34
688.874	36706.25
689.221	36566.82
689.568	36632.36
689.915	36398.69
690.262	36475.3
690.609	36379.93
690.956	36178.58
691.303	36221.97
691.65	35980.62
691.997	35927.29
692.344	35968.19
692.69	35831.02
693.037	35761.42
693.383	35742.89
693.73	35667.41
694.077	35461.54
694.423	35497.7
694.769	35375.67
695.116	35269.91
695.462	35231.04
695.808	35189
696.155	35118.27
696.501	34887.77
696.847	34946.52
697.193	34648.91
697.539	34814.78
697.885	34475.8
698.231	34365.07
698.577	34448.46
698.923	34267.45
699.269	34280.55
699.614	34120.78
699.96	34160.78
700.306	34094.57
700.651	33913.78
700.997	33718.76
701.342	33856.38
701.688	33658.2
702.033	33655.94
702.379	33587.69
702.724	33402.16
703.069	33545.43
703.415	33094.82
703.76	33251.43
704.105	33114.48
704.45	33023.19
704.795	32921.95
705.14	32987.48
705.485	32719.01
705.83	32859.8
706.175	32563.08
706.52	32553.37
706.865	32547.49
707.209	32411.45
707.554	32433.6
707.899	32454.16
708.243	32409.19
708.588	32238.8
708.932	31998.81
709.277	31966.04
709.621	32068.41
709.966	31817.34
710.31	32014.4
710.654	31602.21
710.998	31576.44
711.342	31607.63
711.687	31570.57
712.031	31403.34
712.375	31317.69
712.719	31442.89
713.063	31255.77
713.407	31395.66
713.75	31226.4
714.094	31319.28
714.438	31013.97
714.782	31053.07
715.125	30868.44
715.469	30960.87
715.812	30869.8
716.156	30703.92
716.499	30643.59
716.843	30639.97
717.186	30467.09
717.53	30567.2
717.873	30618.05
718.216	30431.16
718.559	30438.17
718.902	30263.71
719.246	30289.92
719.589	30197.27
719.932	30081.79
720.275	30076.37
720.617	30056.48
720.96	30037.05
721.303	29980.78
721.646	29918.18
721.989	29775.36
722.331	29844.06
722.674	29718.87
723.016	29890.61
723.359	29624.86
723.701	29647.68
724.044	29444.75
724.386	29403.85
724.729	29522.94
725.071	29440.68
725.413	29439.1
725.755	29403.85
726.097	29229.84
726.439	29065.1
726.782	29120.01
727.124	29230.06
727.465	29026.45
727.807	29100.58
728.149	28948.72
728.491	28945.78
728.833	28998.43
729.175	28952.11
729.516	28756.86
729.858	28776.07
730.199	28812.45
730.541	28724.32
730.882	28675.96
731.224	28781.49
731.565	28538.78
731.906	28581.95
732.248	28614.49
732.589	28419.24
732.93	28369.52
733.271	28333.14
733.612	28259.02
733.953	28263.54
734.294	28160.26
734.635	28130.21
734.976	28253.59
735.317	28045.46
735.658	28093.6
735.999	28195.29
736.339	28085.69
736.68	28141.96
737.021	27947.84
737.361	27863.32
737.702	28056.31
738.042	27905.81
738.383	27820.61
738.723	27892.92
739.063	27716.66
739.404	27896.31
739.744	27661.52
740.084	27614.97
740.424	27566.83
740.764	27548.08
741.104	27585.14
741.444	27499.26
741.784	27494.74
742.124	27461.98
742.464	27393.73
742.804	27255.43
743.143	27321.41
743.483	27389.66
743.823	27246.39
744.162	27118.48
744.502	27110.57
744.841	27012.27
745.181	27178.37
745.52	27045.26
745.86	27038.71
746.199	26964.59
746.538	26978.15
746.877	26899.05
747.216	26890.24
747.556	26821.99
747.895	26844.14
748.234	26793.52
748.573	26602.79
748.911	26580.42
749.25	26600.53
749.589	26440.31
749.928	26627.87
750.267	26552.4
750.605	26396.24
750.944	26437.37
751.283	26365.96
751.621	26346.52
751.96	26210.71
752.298	26291.84
752.636	26180.43
752.975	26057.94
753.313	26104.95
753.651	26300.88
753.989	25960.77
754.327	26021.56
754.666	25892.07
755.004	25879.42
755.342	25808.91
755.679	25800.1
756.017	25700.21
756.355	25681.01
756.693	25576.83
757.031	25652.53
757.368	25471.07
757.706	25425.19
758.044	25393.56
758.381	25339.77
758.719	25308.13
759.056	25317.4
759.394	25232.66
759.731	25018.2
760.068	25052.77
760.405	24885.77
760.743	24908.14
761.08	24855.72
761.417	24723.52
761.754	24670.86
762.091	24617.53
762.428	24469.96
762.765	24476.52
763.102	24591.77
763.438	24340.48
763.775	24311.32
764.112	24164.89
764.449	24218.9
764.785	24180.93
765.122	24015.51
765.458	23928.51
765.795	23870.88
766.131	23887.83
766.467	23648.97
766.804	23561.97
767.14	23546.37
767.476	23517.45
767.812	23449.65
768.148	23339.82
768.485	23286.27
768.821	23161.52
769.157	23184.12
769.492	22963.11
769.828	23121.75
770.164	22833.85
770.5	22830.23
770.836	22790.69
771.171	22601.76
771.507	22538.94
771.842	22517.47
772.178	22460.75
772.513	22388.44
772.849	22309.79
773.184	22246.75
773.519	22224.37
773.855	22086.07
774.19	22016.92
774.525	21965.4
774.86	21855.8
775.195	21801.79
775.53	21726.53
775.865	21626.42
776.2	21461.91
776.535	21420.78
776.87	21446.31
777.205	21228.92
777.539	21155.25
777.874	21218.07
778.209	20958.42
778.543	21033.44
778.878	20845.43
779.212	20839.1
779.547	20748.48
779.881	20734.02
780.215	20660.57
780.55	20607.24
780.884	20489.96
781.218	20498.54
781.552	20537.19
781.886	20383.29
782.22	20236.18
782.554	20184.88
782.888	19982.62
783.222	19889.52
783.556	19776.3
783.889	19761.16
784.223	19636.87
784.557	19640.49
784.89	19583.99
785.224	19563.88
785.557	19419.48
785.891	19384.22
786.224	19348.06
786.558	19362.75
786.891	19161.4
787.224	19083.21
787.557	19064.91
787.891	19113.49
788.224	18969.09
788.557	18985.14
788.89	18847.06
789.223	18769.32
789.556	18733.84
789.888	18637.57
790.221	18588.76
790.554	18397.36
790.887	18348.54
791.219	18307.87
791.552	18348.54
791.884	18193.29
792.217	18088.66
792.549	18083.47
792.882	17934.99
793.214	17877.14
793.546	17961.43
793.879	17920.31
794.211	17697.26
794.543	17817.03
794.875	17637.6
795.207	17731.61
795.539	17684.83
795.871	17509.47
796.203	17487.32
796.535	17409.81
796.867	17303.15
797.198	17367.1
797.53	17335.01
797.862	17194
798.193	17179.99
798.525	17070.61
798.856	17099.76
799.188	16921.01
799.519	16974.57
799.85	16797.62
800.182	16731.18
800.513	16853.89
800.844	16658.19
801.175	16675.14
801.506	16571.87
801.837	16588.36
802.168	16486.22
802.499	16383.85
802.83	16349.27
803.161	16261.59
803.491	16359.22
803.822	16272.89
804.153	16173.91
804.483	16078.32
804.814	16013.46
805.145	16007.14
805.475	16041.71
805.805	15938.66
806.136	15972.33
806.466	15939.11
806.796	15886.46
807.126	15715.17
807.457	15709.52
807.787	15667.48
808.117	15561.05
808.447	15565.79
808.777	15610.99
809.107	15509.52
809.436	15432.91
809.766	15409.86
810.096	15436.53
810.426	15254.39
810.755	15292.58
811.085	15294.61
811.414	15183.88
811.744	15194.95
812.073	15153.6
812.403	15056.88
812.732	15025.24
813.061	15015.07
813.39	14938.01
813.719	14832.25
814.049	14926.94
814.378	14816.88
814.707	14805.59
815.036	14769.65
815.365	14712.93
815.693	14574.18
816.022	14645.59
816.351	14577.34
816.68	14540.28
817.008	14559.26
817.337	14387.74
817.665	14372.15
817.994	14402.21
818.322	14406.95
818.651	14303.45
818.979	14196.34
819.307	14307.97
819.636	14277.69
819.964	14205.15
820.292	14259.38
820.62	14220.29
820.948	14110.01
821.276	14263.68
821.604	14185.94
821.932	14199.5
822.259	14142.55
822.587	14119.5
822.915	14140.74
823.243	14129.22
823.57	14137.58
823.898	14066.17
824.225	14015.55
824.553	14041.54
824.88	14009.67
825.207	14126.51
825.535	14093.51
825.862	13993.4
826.189	14005.83
826.516	14074.31
826.843	14167.86
827.17	14113.4
827.497	14095.32
827.824	14048.09
828.151	14203.34
828.478	14098.03
828.805	14080.18
829.131	14065.27
829.458	13993.4
829.785	13917.02
830.111	13958.6
830.438	13994.99
830.764	14021.88
831.09	14043.12
831.417	13918.6
831.743	13984.14
832.069	13954.53
832.395	13877.47
832.722	13929.68
833.048	13890.81
833.374	13854.2
833.7	13929
834.026	13897.59
834.351	13905.72
834.677	13857.14
835.003	13937.36
835.329	13877.7
835.654	13769.23
835.98	13751.15
836.306	13742.34
836.631	13721.09
836.956	13793.18
837.282	13835.67
837.607	13644.71
837.932	13659.85
838.258	13603.36
838.583	13536.01
838.908	13585.96
839.233	13602.91
839.558	13616.46
839.883	13497.37
840.208	13555.9
840.533	13567.88
840.858	13474.32
841.182	13473.64
841.507	13398.62
841.832	13371.5
842.156	13311.39
842.481	13346.19
842.805	13322.01
843.13	13311.39
843.454	13325.17
843.778	13192.29
844.103	13190.71
844.427	13132.63
844.751	13156.82
845.075	13032.07
845.399	12983.71
845.723	12933.77
846.047	13023.71
846.371	12872.53
846.695	12890.16
847.019	12796.6
847.343	12735.58
847.666	12699.65
847.99	12650.61
848.313	12555.25
848.637	12537.85
848.96	12515.7
849.284	12467.57
849.607	12359.1
849.931	12366.55
850.254	12308.02
850.577	12236.84
850.9	12143.51
851.223	12105.54
851.546	12138.54
851.869	11959.78
852.192	12062.15
852.515	11929.95
852.838	11872.56
853.161	11907.36
853.483	11798.66
853.806	11781.71
854.129	11844.99
854.451	11723.63
854.774	11610.42
855.096	11564.99
855.419	11604.77
855.741	11575.39
856.063	11407.93
856.385	11497.65
856.708	11459.01
857.03	11470.08
857.352	11460.14
857.674	11282.29
857.996	11332.46
858.318	11261.27
858.64	11218.56
858.961	11175.17
859.283	11197.54
859.605	11136.3
859.926	11171.78
860.248	11059.47
860.57	11047.27
860.891	11078.23
861.212	11037.1
861.534	10940.83
861.855	10976.53
862.176	10884.56
862.498	10991
862.819	10935.63
863.14	10912.58
863.461	10888.85
863.782	10818.12
864.103	10813.6
864.424	10777.67
864.745	10808.4
865.065	10714.17
865.386	10693.15
865.707	10685.02
866.027	10638.46
866.348	10650.21
866.668	10652.02
866.989	10603.44
867.309	10504.91
867.63	10589.2
867.95	10518.69
868.27	10430.79
868.59	10503.55
868.91	10480.73
869.23	10501.29
869.55	10415.19
869.87	10465.59
870.19	10483.44
870.51	10400.73
870.83	10401.18
871.15	10360.05
871.469	10359.15
871.789	10368.41
872.109	10336.55
872.428	10268.3
872.748	10298.13
873.067	10299.26
873.386	10266.5
873.706	10228.53
874.025	10251.81
874.344	10184.01
874.663	10284.57
874.982	10136.56
875.301	10148.53
875.62	10061.53
875.939	10123.67
876.258	10120.96
876.577	10061.98
876.896	10077.35
877.214	10075.54
877.533	10083
877.852	10011.81
878.17	10109.21
878.489	9993.06
878.807	10011.81
879.125	9909.44
879.444	9957.8
879.762	9871.25
880.08	9865.83
880.398	9888.65
880.716	9904.02
881.034	9837.13
881.352	9829.22
881.67	9844.81
881.988	9833.96
882.306	9791.25
882.624	9727.98
882.941	9680.52
883.259	9616.57
883.577	9668.09
883.894	9665.61
884.212	9601.43
884.529	9554.88
884.846	9577.7
885.164	9581.54
885.481	9511.26
885.798	9599.85
886.115	9467.87
886.432	9505.84
886.75	9494.99
887.067	9436.46
887.383	9334.09
887.7	9384.03
888.017	9356.01
888.334	9380.87
888.651	9334.54
888.967	9343.13
889.284	9178.61
889.6	9243.92
889.917	9129.58
890.233	9175.22
890.55	9172.97
890.866	9169.12
891.182	9112.4
891.498	9086.64
891.815	9081.22
892.131	9080.09
892.447	9008.45
892.763	8934.1
893.079	8898.17
893.395	8922.35
893.71	8949.02
894.026	8918.96
894.342	8870.37
894.657	8789.7
894.973	8746.08
895.289	8788.79
895.604	8790.6
895.92	8720.55
896.235	8719.19
896.55	8613.88
896.865	8626.99
897.181	8615.24
897.496	8562.13
897.811	8602.13
898.126	8489.82
898.441	8492.98
898.756	8432.65
899.071	8504.51
899.386	8409.37
899.7	8308.35
900.015	8363.95
900.33	8350.84
900.644	8324.85
900.959	8307.23
901.273	8244.85
901.588	8234.68
901.902	8132.54
902.216	8137.06
902.531	8164.4
902.845	8121.24
903.159	8009.38
903.473	8027.46
903.787	7978.65
904.101	7981.81
904.415	7947.69
904.729	7898.2
905.042	7872.66
905.356	7881.47
905.67	7777.52
905.984	7818.42
906.297	7795.15
906.611	7712.89
906.924	7689.84
907.237	7675.15
907.551	7654.81
907.864	7722.16
908.177	7645.32
908.491	7562.61
908.804	7493.46
909.117	7503.86
909.43	7435.61
909.743	7449.39
910.056	7328.04
910.368	7313.8
910.681	7309.96
910.994	7281.72
911.307	7282.39
911.619	7219.8
911.932	7212.34
912.244	7182.96
912.557	7177.76
912.869	7137.09
913.181	7101.83
913.494	7097.77
913.806	7019.8
914.118	7032.46
914.43	6993.14
914.742	7003.08
915.054	6910.2
915.366	6911.1
915.678	6860.94
915.99	6818.45
916.302	6744.78
916.613	6788.85
916.925	6745.68
917.236	6778.9
917.548	6735.97
917.859	6726.48
918.171	6613.03
918.482	6577.33
918.794	6616.65
919.105	6579.81
919.416	6469.08
919.727	6493.71
920.038	6522.64
920.349	6452.81
920.66	6426.82
920.971	6436.77
921.282	6342.3
921.593	6315.41
921.903	6306.6
922.214	6263.66
922.525	6286.26
922.835	6289.2
923.146	6215.98
923.456	6167.39
923.767	6166.72
924.077	6128.07
924.387	6122.88
924.697	6058.92
925.008	6107.51
925.318	6116.55
925.628	6036.55
925.938	6030.45
926.248	5928.76
926.558	5919.04
926.867	5931.92
927.177	5907.29
927.487	5839.49
927.796	5814.18
928.106	5803.56
928.416	5827.06
928.725	5779.38
929.034	5746.84
929.344	5704.58
929.653	5713.62
929.962	5645.83
930.271	5633.85
930.581	5621.19
930.89	5645.37
931.199	5515.66
931.508	5608.76
931.817	5523.8
932.125	5516.79
932.434	5540.52
932.743	5467.3
933.051	5422.56
933.36	5392.05
933.669	5389.34
933.977	5328.55
934.286	5307.53
934.594	5310.92
934.902	5251.71
935.21	5240.41
935.519	5256.01
935.827	5221.88
936.135	5173.75
936.443	5157.7
936.751	5142.34
937.059	5140.53
937.367	5116.12
937.674	5046.29
937.982	5082.23
938.29	5009.46
938.597	5041.77
938.905	5004.94
939.213	4980.31
939.52	4950.03
939.827	4998.16
940.135	4908.22
940.442	4885.17
940.749	4845.62
941.056	4859.63
941.363	4813.31
941.67	4859.63
941.977	4802.01
942.284	4796.13
942.591	4796.36
942.898	4732.86
943.205	4738.73
943.511	4684.27
943.818	4674.55
944.125	4677.49
944.431	4631.62
944.738	4625.97
945.044	4599.3
945.35	4620.09
945.657	4528.79
945.963	4527.66
946.269	4489.02
946.575	4545.97
946.881	4467.1
947.187	4430.49
947.493	4456.7
947.799	4437.27
948.105	4427.1
948.41	4403.6
948.716	4383.03
949.022	4327.22
949.327	4350.72
949.633	4307.78
949.938	4275.69
950.244	4306.88
950.549	4224.17
950.854	4244.28
951.16	4214
951.465	4219.42
951.77	4181.68
952.075	4187.33
952.38	4145.98
952.685	4162.48
952.99	4159.99
953.294	4098.97
953.599	4059.65
953.904	4047.22
954.209	4044.96
954.513	4006.32
954.818	3969.03
955.122	3996.6
955.426	3965.64
955.731	3998.19
956.035	3949.37
956.339	3894.91
956.643	3909.6
956.948	3903.27
957.252	3865.76
957.556	3876.38
957.86	3835.7
958.163	3796.84
958.467	3809.94
958.771	3780.34
959.075	3782.37
959.378	3760.68
959.682	3751.64
959.985	3728.81
960.289	3716.84
960.592	3704.63
960.896	3704.18
961.199	3668.7
961.502	3632.55
961.805	3639.78
962.108	3613.11
962.411	3630.06
962.714	3571.76
963.017	3592.09
963.32	3557.52
963.623	3563.85
963.926	3482.27
964.228	3505.77
964.531	3471.42
964.833	3470.52
965.136	3440.91
965.438	3395.49
965.741	3425.09
966.043	3397.07
966.345	3380.57
966.648	3343.97
966.95	3378.54
967.252	3359.11
967.554	3329.95
967.856	3324.08
968.158	3287.92
968.46	3256.74
968.761	3275.49
969.063	3293.35
969.365	3245.44
969.666	3279.33
969.968	3215.61
970.269	3190.3
970.571	3213.57
970.872	3195.27
971.174	3196.62
971.475	3163.41
971.776	3127.93
972.077	3145.33
972.378	3085.89
972.679	3129.06
972.98	3093.35
973.281	3064.65
973.582	3071.66
973.883	3063.75
974.183	3057.65
974.484	3019
974.785	3005.44
975.085	2983.07
975.386	2993.24
975.686	2990.75
975.986	2950.08
976.287	2950.3
976.587	2915.73
976.887	2911.21
977.187	2911.89
977.487	2907.59
977.787	2880.48
978.087	2872.79
978.387	2869.18
978.687	2850.42
978.987	2801.16
979.286	2806.13
979.586	2760.25
979.885	2773.81
980.185	2752.12
980.484	2778.1
980.784	2745.56
981.083	2748.28
981.382	2751.21
981.682	2737.2
981.981	2686.58
982.28	2699.01
982.579	2678.9
982.878	2649.52
983.177	2669.41
983.475	2635.06
983.774	2646.81
984.073	2606.58
984.372	2615.62
984.67	2589.64
984.969	2579.01
985.267	2578.34
985.566	2548.96
985.864	2550.77
986.162	2530.88
986.461	2502.86
986.759	2531.78
987.057	2493.82
987.355	2499.69
987.653	2488.85
987.951	2478.9
988.249	2506.02
988.547	2454.5
988.844	2410.2
989.142	2428.96
989.44	2414.95
989.737	2431.45
990.035	2389.19
990.332	2407.72
990.63	2381.96
990.927	2360.26
991.224	2346.03
991.521	2345.8
991.819	2346.48
992.116	2334.05
992.413	2343.31
992.71	2330.89
993.006	2311
993.303	2253.15
993.6	2283.88
993.897	2286.59
994.193	2269.42
994.49	2211.57
994.787	2247.27
995.083	2227.38
995.379	2214.73
995.676	2213.6
995.972	2187.84
996.268	2171.79
996.565	2154.62
996.861	2123.88
997.157	2151.68
997.453	2135.18
997.749	2154.84
998.044	2119.82
998.34	2089.76
998.636	2092.47
998.932	2113.26
999.227	2063.1
999.523	2068.29
999.818	2050.44
1000.114	2068.75
1000.409	2026.71
1000.704	2003.66
1001	2009.99
1001.295	1977.9
1001.59	1994.62
1001.885	1950.33
1002.18	1976.77
1002.475	1959.6
1002.77	1911.91
1003.065	1939.26
1003.359	1957.79
1003.654	1922.99
1003.949	1902.42
1004.243	1907.62
1004.538	1884.12
1004.832	1866.04
1005.127	1860.39
1005.421	1848.86
1005.715	1846.38
1006.009	1823.1
1006.304	1829.66
1006.598	1829.43
1006.892	1806.61
1007.186	1803.22
1007.48	1794.85
1007.773	1768.19
1008.067	1772.71
1008.361	1774.06
1008.655	1748.98
1008.948	1724.57
1009.242	1738.81
1009.535	1704.91
1009.829	1688.19
1010.122	1714.63
1010.415	1687.51
1010.708	1704.01
1011.001	1679.15
1011.295	1664.46
1011.588	1625.14
1011.881	1624.91
1012.173	1642.77
1012.466	1613.39
1012.759	1613.39
1013.052	1604.35
1013.344	1597.57
1013.637	1580.85
1013.93	1585.37
1014.222	1607.74
1014.514	1584.46
1014.807	1553.05
1015.099	1555.54
1015.391	1535.65
1015.683	1506.95
1015.976	1531.13
1016.268	1499.04
1016.56	1506.73
1016.851	1510.79
1017.143	1471.25
1017.435	1500.85
1017.727	1467.18
1018.018	1437.58
1018.31	1441.87
1018.602	1454.07
1018.893	1435.54
1019.185	1411.81
1019.476	1404.36
1019.767	1425.15
1020.058	1401.19
1020.35	1380.4
1020.641	1377.92
1020.932	1377.24
1021.223	1356.22
1021.514	1361.64
1021.804	1337.92
1022.095	1313.96
1022.386	1320.74
1022.677	1334.75
1022.967	1300.18
1023.258	1281.87
1023.548	1275.32
1023.839	1291.36
1024.129	1285.71
1024.419	1279.39
1024.709	1248.2
1025	1263.34
1025.29	1242.33
1025.58	1245.49
1025.87	1226.73
1026.16	1219.5
1026.449	1199.39
1026.739	1201.42
1027.029	1186.73
1027.319	1165.72
1027.608	1197.13
1027.898	1176.11
1028.187	1167.53
1028.477	1173.18
1028.766	1172.72
1029.055	1141.31
1029.344	1132.05
1029.634	1124.14
1029.923	1099.05
1030.212	1107.19
1030.501	1109
1030.79	1118.26
1031.078	1088.66
1031.367	1102.22
1031.656	1077.13
1031.945	1076.68
1032.233	1097.02
1032.522	1059.28
1032.81	1066.29
1033.099	1059.05
1033.387	1054.31
1033.675	1039.39
1033.963	1032.61
1034.251	1003.69
1034.54	1022.44
1034.828	1013.86
1035.116	1019.06
1035.403	1006.63
1035.691	965.95
1035.979	1002.33
1036.267	975.67
1036.554	986.29
1036.842	981.54
1037.129	968.43
1037.417	926.63
1037.704	942
1037.992	946.51
1038.279	931.83
1038.566	940.87
1038.853	940.87
1039.14	940.87
