Data from hue_36_FLMS001491_00074.txt Node
Date: Tue Feb 07 17:30:16 GMT 2017
User: dcchb
Spectrometer: FLMS00149
Trigger mode: 0
Integration Time (sec): 2.000000E-2
Scans to average: 10
Electric dark correction enabled: true
Nonlinearity correction enabled: false
Boxcar width: 0
XAxis mode: Wavelengths
Number of Pixels in Spectrum: 2048
>>>>>Begin Spectral Data<<<<<
341.393	-5.65
341.776	-5.65
342.16	-5.65
342.543	-87.46
342.927	-76.38
343.31	-72.77
343.693	-66.66
344.077	-80.68
344.46	-62.37
344.843	-63.28
345.226	-32.99
345.61	-57.17
345.993	-24.63
346.376	-9.27
346.759	23.95
347.142	32.54
347.525	58.3
347.908	67.12
348.291	70.51
348.674	100.79
349.057	116.61
349.44	137.17
349.823	149.6
350.206	157.51
350.588	199.77
350.971	228.02
351.354	237.28
351.737	241.12
352.119	251.97
352.502	268.02
352.884	262.82
353.267	282.48
353.65	293.33
354.032	297.39
354.414	328.58
354.797	318.64
355.179	337.17
355.562	333.1
355.944	336.71
356.326	348.01
356.709	338.75
357.091	347.79
357.473	340.78
357.855	371.06
358.238	351.86
358.62	343.04
359.002	367
359.384	344.85
359.766	343.95
360.148	327.67
360.53	337.39
360.912	363.61
361.294	355.02
361.676	337.62
362.057	335.13
362.439	347.11
362.821	326.09
363.203	337.39
363.584	321.57
363.966	340.56
364.348	336.49
364.729	327.9
365.111	340.78
365.493	352.53
365.874	333.78
366.256	335.81
366.637	314.34
367.019	312.08
367.4	327.9
367.781	317.28
368.163	300.78
368.544	323.83
368.925	315.47
369.306	349.82
369.688	316.83
370.069	321.8
370.45	328.8
370.831	334.45
371.212	340.33
371.593	327.45
371.974	327.67
372.355	311.63
372.736	331.06
373.117	305.75
373.498	303.27
373.879	319.09
374.26	331.97
374.641	305.3
375.021	332.65
375.402	331.97
375.783	326.77
376.163	314.12
376.544	333.78
376.925	330.16
377.305	357.73
377.686	326.77
378.066	341.69
378.447	336.04
378.827	334
379.208	324.74
379.588	330.16
379.968	330.61
380.349	333.32
380.729	334.45
381.109	353.21
381.489	342.14
381.87	340.78
382.25	357.05
382.63	331.97
383.01	349.82
383.39	348.24
383.77	335.13
384.15	375.58
384.53	359.99
384.91	353.21
385.29	379.2
385.67	353.89
386.049	362.93
386.429	357.05
386.809	361.8
387.189	368.13
387.568	354.79
387.948	364.96
388.328	360.22
388.707	369.93
389.087	359.31
389.466	372.65
389.846	341.69
390.225	361.35
390.605	379.65
390.984	355.24
391.363	359.09
391.743	372.87
392.122	364.06
392.501	391.63
392.881	393.89
393.26	366.77
393.639	376.26
394.018	386.88
394.397	352.53
394.776	407.45
395.155	395.02
395.534	367.45
395.913	384.4
396.292	412.42
396.671	384.17
397.05	398.63
397.429	398.18
397.808	396.83
398.186	379.2
398.565	407.67
398.944	387.79
399.323	386.2
399.701	415.13
400.08	383.94
400.458	414
400.837	414.23
401.215	385.53
401.594	417.39
401.972	407.45
402.351	418.07
402.729	409.48
403.107	405.19
403.486	424.62
403.864	421.91
404.242	429.14
404.62	417.16
404.999	418.75
405.377	415.81
405.755	417.62
406.133	439.54
406.511	422.36
406.889	427.79
407.267	451.29
407.645	449.71
408.023	441.57
408.401	435.69
408.779	455.58
409.156	451.74
409.534	463.72
409.912	450.16
410.29	459.42
410.667	440.44
411.045	448.8
411.422	475.24
411.8	436.15
412.178	465.98
412.555	458.52
412.933	476.82
413.31	489.7
413.687	482.7
414.065	491.51
414.442	468.01
414.819	486.77
415.197	472.76
415.574	483.38
415.951	489.03
416.328	479.08
416.705	484.51
417.082	491.96
417.46	523.83
417.837	536.71
418.214	513.66
418.591	497.39
418.967	510.72
419.344	525.41
419.721	505.52
420.098	534.22
420.475	527.22
420.852	503.26
421.228	524.51
421.605	521.57
421.982	527.9
422.358	545.52
422.735	557.5
423.111	531.74
423.488	578.97
423.864	544.84
424.241	552.53
424.617	563.38
424.994	561.34
425.37	578.97
425.746	544.84
426.123	578.06
426.499	580.55
426.875	580.78
427.251	585.3
427.627	568.35
428.003	604.05
428.379	603.15
428.756	588.69
429.132	587.78
429.507	609.7
429.883	611.96
430.259	613.77
430.635	621.9
431.011	609.25
431.387	635.92
431.763	610.38
432.138	637.5
432.514	618.06
432.89	644.05
433.265	668.91
433.641	651.73
434.016	660.1
434.392	683.6
434.767	674.78
435.143	684.28
435.518	686.31
435.894	709.81
436.269	695.57
436.644	706.42
437.02	699.42
437.395	684.5
437.77	707.33
438.145	710.04
438.52	723.6
438.895	731.05
439.271	726.08
439.646	723.37
440.021	736.7
440.395	728.12
440.77	733.54
441.145	755.23
441.52	767.89
441.895	749.36
442.27	762.92
442.645	750.71
443.019	788.91
443.394	803.59
443.769	781.67
444.143	784.61
444.518	785.74
444.892	795.46
445.267	786.65
445.641	785.97
446.016	808.34
446.39	796.82
446.764	820.32
447.139	797.72
447.513	807.21
447.887	836.59
448.262	853.31
448.636	831.62
449.01	840.2
449.384	845.85
449.758	851.73
450.132	863.93
450.506	840.43
450.88	858.51
451.254	863.25
451.628	881.11
452.002	888.11
452.376	883.59
452.75	887.21
453.123	891.73
453.497	918.85
453.871	937.38
454.244	929.24
454.618	930.15
454.992	919.52
455.365	955.46
455.739	977.38
456.112	969.69
456.486	1001.33
456.859	977.38
457.232	1013.53
457.606	969.92
457.979	1015.11
458.352	1030.48
458.725	1040.2
459.099	1062.34
459.472	1064.38
459.845	1067.32
460.218	1094.66
460.591	1085.4
460.964	1097.37
461.337	1120.65
461.71	1136.92
462.083	1121.1
462.456	1148.22
462.829	1144.6
463.201	1178.73
463.574	1189.8
463.947	1190.03
464.32	1180.31
464.692	1204.49
465.065	1241.32
465.438	1236.35
465.81	1262.34
466.183	1264.15
466.555	1279.51
466.928	1307.08
467.3	1330.59
467.672	1343.92
468.045	1370.13
468.417	1362.22
468.789	1365.39
469.161	1412.39
469.534	1444.48
469.906	1449.23
470.278	1444.48
470.65	1512.5
471.022	1517.02
471.394	1530.36
471.766	1562.22
472.138	1612.61
472.51	1630.69
472.882	1660.52
473.253	1701.2
473.625	1717.69
473.997	1755.66
474.369	1769.9
474.74	1812.83
475.112	1838.37
475.484	1875.88
475.855	1908.65
476.227	1945.71
476.598	2004.24
476.97	2035.2
477.341	2088.98
477.713	2129.89
478.084	2160.85
478.455	2217.57
478.827	2281.97
479.198	2353.16
479.569	2362.65
479.94	2468.86
480.311	2511.57
480.682	2566.03
481.053	2639.93
481.424	2683.09
481.795	2706.82
482.166	2790.44
482.537	2898.68
482.908	2961.28
483.279	2987.72
483.65	3110.88
484.021	3200.59
484.391	3243.3
484.762	3305.9
485.133	3389.52
485.503	3479.46
485.874	3550.42
486.244	3648.04
486.615	3758.09
486.985	3810.52
487.356	3947.47
487.726	3965.77
488.097	4153.11
488.467	4192.88
488.837	4344.52
489.207	4365.08
489.578	4507.45
489.948	4605.08
490.318	4700.67
490.688	4788.8
491.058	4854.79
491.428	4968
491.798	5075.57
492.168	5226.53
492.538	5306.98
492.908	5387.43
493.278	5450.93
493.648	5636.01
494.017	5692.73
494.387	5731.6
494.757	5842.56
495.126	5967.75
495.496	6047.3
495.866	6091.59
496.235	6207.97
496.605	6380.17
496.974	6356.67
497.344	6503.56
497.713	6550.11
498.082	6660.16
498.452	6805.24
498.821	6777.67
499.19	6859.93
499.559	7038.46
499.928	7091.79
500.298	7209.75
500.667	7314.38
501.036	7296.76
501.405	7420.82
501.774	7454.95
502.143	7599.35
502.512	7606.81
502.88	7732.45
503.249	7785.56
503.618	7938.77
503.987	7871.21
504.356	7972.22
504.724	8103.74
505.093	8122.72
505.462	8160.46
505.83	8338.09
506.199	8425.99
506.567	8491.53
506.936	8505.09
507.304	8640.9
507.672	8612.43
508.041	8687.46
508.409	8807.68
508.777	8924.51
509.145	8999.54
509.514	9008.8
509.882	9096.03
510.25	9095.35
510.618	9219.19
510.986	9262.81
511.354	9388
511.722	9433.88
512.09	9525.4
512.458	9562.46
512.826	9690.82
513.193	9634.55
513.561	9756.58
513.929	9770.14
514.297	9862.57
514.664	10015.56
515.032	9952.73
515.4	10173.29
515.767	10138.94
516.135	10184.59
516.502	10220.97
516.869	10435.88
517.237	10401.99
517.604	10320.41
517.972	10433.62
518.339	10549.1
518.706	10592.26
519.073	10635.43
519.44	10741.86
519.808	10808.08
520.175	10827.51
520.542	11030.44
520.909	10990.9
521.276	11010.78
521.643	11154.51
522.009	11145.02
522.376	11256.65
522.743	11355.41
523.11	11382.53
523.477	11597.44
523.843	11545.23
524.21	11673.14
524.577	11723.99
524.943	11788.84
525.31	11891.44
525.676	12045.56
526.043	12122.39
526.409	12065.67
526.776	12240.13
527.142	12275.84
527.508	12405.1
527.874	12345.89
528.241	12480.35
528.607	12556.96
528.973	12697.07
529.339	12619.33
529.705	12777.07
530.071	12927.8
530.437	12968.47
530.803	13043.72
531.169	13055.93
531.535	13084.63
531.901	13152.87
532.267	13303.38
532.632	13287.11
532.998	13371.63
533.364	13411.4
533.73	13517.84
534.095	13561.9
534.461	13669.7
534.826	13672.41
535.192	13712.18
535.557	13821.33
535.923	13846.64
536.288	13857.71
536.653	13945.62
537.019	13976.81
537.384	14056.13
537.749	14071.27
538.114	14245.5
538.479	14211.15
538.845	14192.85
539.21	14250.92
539.575	14375.44
539.94	14371.6
540.305	14480.07
540.67	14440.52
541.034	14584.7
541.399	14630.8
541.764	14574.98
542.129	14776.79
542.494	14756.22
542.858	14853.17
543.223	14965.03
543.587	15006.61
543.952	15010.68
544.316	15020.85
544.681	15043.45
545.045	15188.53
545.41	15236.89
545.774	15199.37
546.138	15250.67
546.503	15408.18
546.867	15389.2
547.231	15519.37
547.595	15423.32
547.959	15566.14
548.324	15566.37
548.688	15677.1
549.052	15699.93
549.416	15791.22
549.779	15827.83
550.143	15764.33
550.507	15956.19
550.871	16031.67
551.235	16004.55
551.599	16124.55
551.962	16197.09
552.326	16243.64
552.689	16308.72
553.053	16244.54
553.417	16303.07
553.78	16501.49
554.143	16408.16
554.507	16472.56
554.87	16661.03
555.234	16707.36
555.597	16761.14
555.96	16839.78
556.323	16824.64
556.686	16858.31
557.05	17006.78
557.413	16898.09
557.776	17003.85
558.139	17192.77
558.502	17212.88
558.865	17245.87
559.228	17321.58
559.59	17392.99
559.953	17421.69
560.316	17639.99
560.679	17599.09
561.041	17723.6
561.404	17735.58
561.767	17893.77
562.129	17815.35
562.492	18015.57
562.854	18007.89
563.217	17958.17
563.579	18076.81
563.941	18217.83
564.304	18329.01
564.666	18406.07
565.028	18308.22
565.39	18606.06
565.753	18642.9
566.115	18760.18
566.477	18730.81
566.839	18818.49
567.201	18817.36
567.563	18960.41
567.925	19021.65
568.287	19023.68
568.648	19042.44
569.01	19211.92
569.372	19367.17
569.734	19272.04
570.095	19469.09
570.457	19516.32
570.819	19560.62
571.18	19555.42
571.542	19772.59
571.903	19788.86
572.265	19912.7
572.626	19934.39
572.987	20042.18
573.349	20119.47
573.71	20166.48
574.071	20333.25
574.432	20371.67
574.794	20522.4
575.155	20577.09
575.516	20597.2
575.877	20723.97
576.238	20888.49
576.599	20983.86
576.96	21078.54
577.32	21158.99
577.681	21302.72
578.042	21322.15
578.403	21507.01
578.763	21598.53
579.124	21754.68
579.485	21835.58
579.845	22049.36
580.206	22162.58
580.566	22245.97
580.927	22450.03
581.287	22662
581.648	22724.37
582.008	22915.78
582.368	23093.4
582.728	23267.18
583.089	23442.55
583.449	23552.15
583.809	23722.09
584.169	24042.08
584.529	24067.62
584.889	24488.85
585.249	24528.62
585.609	24573.37
585.969	24976.29
586.329	25038.66
586.688	25302.39
587.048	25528.14
587.408	25665.09
587.768	25940.56
588.127	26099.2
588.487	26277.5
588.846	26633.88
589.206	26673.42
589.565	26830.48
589.925	27143.24
590.284	27408.54
590.643	27580.52
591.003	27842.43
591.362	28176.66
591.721	28227.05
592.08	28466.14
592.44	28929.41
592.799	29073.13
593.158	29224.99
593.517	29357.65
593.876	29703.17
594.235	29870.85
594.593	30025.2
594.952	30425.19
595.311	30660.66
595.67	30947.66
596.029	31185.62
596.387	31309.23
596.746	31582.67
597.104	31682.78
597.463	31948.54
597.822	32184.24
598.18	32322.77
598.538	32460.62
598.897	32859.02
599.255	32894.95
599.613	33464.88
599.972	33457.88
600.33	33675.05
600.688	33644.99
601.046	33962.27
601.404	34206.56
601.762	34337.85
602.12	34762.7
602.478	34833.66
602.836	35089.7
603.194	35070.72
603.552	35306.87
603.91	35187.32
604.268	35646.29
604.625	35735.78
604.983	35923.8
605.341	35929.45
605.698	36179.16
606.056	36542.54
606.413	36511.81
606.771	36836.77
607.128	36982.76
607.485	36940.27
607.843	37182.07
608.2	37469.98
608.557	37776.63
608.914	37668.39
609.272	37969.4
609.629	38151.54
609.986	38403.28
610.343	38224.08
610.7	38532.77
611.057	38655.25
611.414	38752.65
611.771	38975.02
612.127	39037.62
612.484	39093.89
612.841	39363.03
613.198	39458.4
613.554	39495.68
613.911	39796.24
614.267	39988.1
614.624	39759.18
614.98	40038.95
615.337	40265.83
615.693	40184.03
616.05	40396.9
616.406	40576.11
616.762	40544.7
617.118	40641.42
617.475	40652.94
617.831	40853.39
618.187	41000.5
618.543	40939.04
618.899	41349.87
619.255	41320.95
619.611	41408.18
619.967	41560.26
620.323	41677.32
620.678	41610.21
621.034	41480.27
621.39	41730.2
621.746	41653.14
622.101	42266.69
622.457	41995.51
622.812	41942.63
623.168	42202.73
623.523	42148.72
623.879	42270.75
624.234	42124.09
624.589	42373.35
624.945	42326.8
625.3	42477.75
625.655	42463.74
626.01	42531.76
626.365	42570.41
626.72	42586
627.075	42480.46
627.43	42593
627.785	42492.44
628.14	42730.18
628.495	42844.3
628.85	42763.85
629.205	42615.6
629.559	42847.46
629.914	42636.85
630.269	42852.88
630.623	42673.23
630.978	42616.28
631.332	42749.84
631.687	42900.34
632.041	42880
632.396	42893.11
632.75	42681.14
633.104	42931.75
633.459	42645.88
633.813	42728.37
634.167	42793.23
634.521	42835.03
634.875	42795.71
635.229	42912.09
635.583	42688.82
635.937	42717.97
636.291	42783.73
636.645	42785.32
636.999	42701.25
637.352	42868.7
637.706	42488.15
638.06	42761.14
638.413	42558.43
638.767	42567.02
639.121	42632.78
639.474	42470.75
639.828	42551.2
640.181	42663.06
640.534	42513.01
640.888	42385.33
641.241	42343.52
641.594	42377.64
641.947	42458.09
642.301	42343.75
642.654	42451.99
643.007	42355.27
643.36	42432.33
643.713	42239.12
644.066	42397.76
644.419	42190.53
644.771	41947.15
645.124	41480.27
645.477	41559.59
645.83	41344.9
646.182	41142.87
646.535	41131.12
646.888	41262.87
647.24	41044.57
647.593	41186.94
647.945	41143.1
648.298	41005.02
648.65	40937.45
649.002	40885.48
649.355	41031.24
649.707	41007.96
650.059	41192.14
650.411	41623.31
650.763	41319.14
651.115	41991.44
651.467	41935.85
651.819	41795.29
652.171	41756.87
652.523	41718
652.875	41572.47
653.227	41505.12
653.578	41891.78
653.93	41685.23
654.282	41675.06
654.633	41434.84
654.985	41570.88
655.337	41537.89
655.688	41600.94
656.039	41569.08
656.391	41347.84
656.742	41465.8
657.094	41581.51
657.445	41635.29
657.796	41496.31
658.147	41414.28
658.498	41388.74
658.849	41502.19
659.2	41414.05
659.551	41341.29
659.902	41543.99
660.253	41431.45
660.604	41416.99
660.955	41235.75
661.306	41499.93
661.656	41297.45
662.007	41297.67
662.358	41299.93
662.708	41395.3
663.059	41277.56
663.409	41137
663.76	41398.46
664.11	41224.23
664.461	41235.3
664.811	41266.71
665.161	41196.43
665.511	41169.99
665.862	41285.92
666.212	41266.71
666.562	41125.02
666.912	41202.53
667.262	41039.15
667.612	41145.58
667.962	41133.83
668.312	41059.71
668.662	41271.01
669.011	41145.58
669.361	41110.78
669.711	41020.62
670.06	41054.29
670.41	40958.92
670.76	40995.98
671.109	40975.65
671.459	41115.08
671.808	41035.53
672.157	41175.41
672.507	40892.03
672.856	40878.47
673.205	40932.26
673.554	41103.1
673.904	40856.33
674.253	41254.51
674.602	41024.46
674.951	40573.4
675.3	40309.9
675.649	40899.94
675.998	40852.26
676.346	40952.6
676.695	40790.11
677.044	40511.7
677.393	40822.2
677.741	40788.31
678.09	40727.74
678.438	40653.39
678.787	40689.78
679.135	40631.25
679.484	40434.64
679.832	40695.2
680.181	40299.96
680.529	40431.03
680.877	40478.26
681.225	40312.39
681.573	40470.12
681.922	40242.78
682.27	40129.79
682.618	40291.14
682.966	39948.1
683.314	40087.99
683.661	39963.92
684.009	39902.45
684.357	39779.07
684.705	39843.92
685.053	39716.02
685.4	39811.61
685.748	39647.55
686.095	39590.82
686.443	39344.73
686.79	39386.08
687.138	39565.74
687.485	39445.97
687.832	39350.15
688.18	39245.75
688.527	39056.37
688.874	39096.83
689.221	39090.5
689.568	38829.04
689.915	38931.63
690.262	38857.06
690.609	38635.59
690.956	38620.91
691.303	38476.5
691.65	38364.87
691.997	38419.78
692.344	38249.39
692.69	38271.54
693.037	38200.8
693.383	37952
693.73	37990.19
694.077	37867.25
694.423	37861.6
694.769	37728.27
695.116	37690.08
695.462	37650.54
695.808	37503.87
696.155	37477.66
696.501	37118.12
696.847	37250.55
697.193	36858.01
697.539	37250.09
697.885	36898.46
698.231	36939.82
698.577	36859.6
698.923	36828.64
699.269	36504.12
699.614	36394.75
699.96	36341.19
700.306	36322.66
700.651	36154.08
700.997	36079.73
701.342	35946.63
701.688	35998.38
702.033	35882.67
702.379	35812.39
702.724	35813.07
703.069	35801.32
703.415	35425.51
703.76	35400.88
704.105	35502.12
704.45	35326.53
704.795	35238.62
705.14	34929.48
705.485	35036.59
705.83	34874.34
706.175	34915.47
706.52	34710.5
706.865	34627.11
707.209	34546.89
707.554	34508.47
707.899	34568.58
708.243	34530.17
708.588	34375.59
708.932	34142.61
709.277	34152.77
709.621	34255.6
709.966	34053.12
710.31	34054.47
710.654	33727.7
710.998	33847.47
711.342	33782.84
711.687	33835.72
712.031	33628.27
712.375	33451.1
712.719	33401.38
713.063	33494.71
713.407	33570.42
713.75	33338.11
714.094	33228.96
714.438	33080.49
714.782	33259.24
715.125	33037.55
715.469	33158.45
715.812	32938.57
716.156	32854.05
716.499	32825.8
716.843	32823.77
717.186	32732.7
717.53	32680.04
717.873	32755.3
718.216	32653.83
718.559	32412.48
718.902	32339.26
719.246	32461.75
719.589	32303.11
719.932	32165.71
720.275	32076.67
720.617	32170
720.96	32092.04
721.303	32101.08
721.646	32042.77
721.989	31784.25
722.331	31991.48
722.674	31899.73
723.016	31793.06
723.359	31865.83
723.701	31746.28
724.044	31600.75
724.386	31444.37
724.729	31701.77
725.071	31490.7
725.413	31404.82
725.755	31495.67
726.097	31358.95
726.439	31163.93
726.782	31157.82
727.124	31438.95
727.465	31105.4
727.807	31120.76
728.149	31102.01
728.491	30949.92
728.833	31024.49
729.175	30791.05
729.516	30857.72
729.858	30816.82
730.199	30852.52
730.541	30651.4
730.882	30748.34
731.224	30577.28
731.565	30483.27
731.906	30502.25
732.248	30454.34
732.589	30410.95
732.93	30337.28
733.271	30237.17
733.612	30467.9
733.953	30335.7
734.294	30220.67
734.635	30170.73
734.976	30252.76
735.317	30077.18
735.658	30031.3
735.999	30067.23
736.339	29931.64
736.68	30024.3
737.021	29810.52
737.361	29860.01
737.702	29846.22
738.042	29779.1
738.383	29794.47
738.723	29820.46
739.063	29632.44
739.404	29808.03
739.744	29599.9
740.084	29571.43
740.424	29463.86
740.764	29427.02
741.104	29607.58
741.444	29276.07
741.784	29347.48
742.124	29318.55
742.464	29265.67
742.804	29130.99
743.143	29127.37
743.483	29158.1
743.823	29017.77
744.162	28959.69
744.502	29060.25
744.841	28845.34
745.181	28965.34
745.52	28933.93
745.86	28932.35
746.199	28841.5
746.538	28782.07
746.877	28794.5
747.216	28690.55
747.556	28701.84
747.895	28679.92
748.234	28441.29
748.573	28519.25
748.911	28508.18
749.25	28559.48
749.589	28261.86
749.928	28315.87
750.267	28307.73
750.605	28274.28
750.944	28154.06
751.283	28164.23
751.621	28258.01
751.96	27993.39
752.298	28010.11
752.636	28109.54
752.975	27880.85
753.313	27865.48
753.651	27986.83
753.989	27767.18
754.327	27778.48
754.666	27564.7
755.004	27587.52
755.342	27492.16
755.679	27538.26
756.017	27425.04
756.355	27498.71
756.693	27267.53
757.031	27313.63
757.368	27216.01
757.706	27122.22
758.044	26963.36
758.381	26939.18
758.719	26976.47
759.056	26950.93
759.394	26824.61
759.731	26645.85
760.068	26697.6
760.405	26549.58
760.743	26453.77
761.08	26451.28
761.417	26396.59
761.754	26383.04
762.091	26239.54
762.428	26204.06
762.765	26073.89
763.102	26153.89
763.438	25880
763.775	25841.13
764.112	25774.01
764.449	25878.64
764.785	25766.55
765.122	25560.01
765.458	25423.29
765.795	25390.97
766.131	25386.45
766.467	25166.34
766.804	25123.86
767.14	25005.44
767.476	25009.96
767.812	24912.79
768.148	24900.36
768.485	24793.25
768.821	24635.74
769.157	24735.62
769.492	24550.31
769.828	24494.5
770.164	24124.34
770.5	24253.37
770.836	24178.57
771.171	24097.22
771.507	24110.55
771.842	23847.73
772.178	23930.44
772.513	23837.57
772.849	23776.1
773.184	23591.92
773.519	23607.29
773.855	23487.74
774.19	23336.11
774.525	23359.61
774.86	23295.43
775.195	23224.02
775.53	23084.14
775.865	22968.89
776.2	22834.88
776.535	22709.91
776.87	22732.96
777.205	22639.86
777.539	22639.4
777.874	22495.91
778.209	22460.65
778.543	22395.12
778.878	22298.4
779.212	22257.27
779.547	22093.66
779.881	22163.26
780.215	22043.71
780.55	22012.3
780.884	21841.69
781.218	21785.42
781.552	21789.03
781.886	21757.85
782.22	21556.04
782.554	21477.63
782.888	21250.97
783.222	21183.62
783.556	21094.81
783.889	21094.81
784.223	20863.86
784.557	20980.24
784.89	20904.08
785.224	20807.14
785.557	20715.84
785.891	20605.11
786.224	20529.86
786.558	20454.83
786.891	20383.87
787.224	20400.59
787.557	20310.43
787.891	20234.27
788.224	20166.25
788.557	20215.06
788.89	19996.08
789.223	20059.13
789.556	19825.02
789.888	19916.09
790.221	19707.05
790.554	19630.9
790.887	19616.89
791.219	19632.03
791.552	19467.06
791.884	19378.02
792.217	19284.24
792.549	19318.36
792.882	19166.73
793.214	19081.53
793.546	19099.61
793.879	18957.69
794.211	18857.81
794.543	18861.2
794.875	18836.57
795.207	18874.76
795.539	18672.96
795.871	18723.35
796.203	18525.39
796.535	18379.86
796.867	18427.76
797.198	18384.83
797.53	18359.52
797.862	18236.81
798.193	18201.33
798.525	18140.77
798.856	18144.61
799.188	17994.56
799.519	17901
799.85	17761.57
800.182	17900.55
800.513	17903.26
800.844	17679.31
801.175	17656.03
801.506	17676.6
801.837	17592.31
802.168	17603.83
802.499	17465.76
802.83	17377.17
803.161	17247
803.491	17324.52
803.822	17366.77
804.153	17229.6
804.483	17135.59
804.814	17076.39
805.145	16942.83
805.475	17026.67
805.805	16967.46
806.136	16917.3
806.466	16875.04
806.796	17018.31
807.126	16744.87
807.457	16829.16
807.787	16795.26
808.117	16619.9
808.447	16585.55
808.777	16683.86
809.107	16547.36
809.436	16463.3
809.766	16434.37
810.096	16402.05
810.426	16286.58
810.755	16444.31
811.085	16279.12
811.414	16186.69
811.744	16085.23
812.073	16078.67
812.403	16118.9
812.732	15936.98
813.061	16023.31
813.39	15846.36
813.719	15865.35
814.049	15896.53
814.378	15797.55
814.707	15683.2
815.036	15650.66
815.365	15720.26
815.693	15540.61
816.022	15530.44
816.351	15526.82
816.68	15422.42
817.008	15517.11
817.337	15248.86
817.665	15328.64
817.994	15305.13
818.322	15331.35
818.651	15174.06
818.979	15204.12
819.307	15177.45
819.636	15183.1
819.964	14995.99
820.292	15166.61
820.62	15068.76
820.948	15053.16
821.276	15073.05
821.604	15027.63
821.932	15041.19
822.259	15120.73
822.587	15040.73
822.915	15016.55
823.243	15060.17
823.57	14969.78
823.898	14986.72
824.225	14949.66
824.553	14913.73
824.88	14930.68
825.207	15006.84
825.535	14928.42
825.862	14898.82
826.189	14860.63
826.516	15007.97
826.843	15047.97
827.17	15068.08
827.497	14989.66
827.824	15000.06
828.151	15010.68
828.478	15042.54
828.805	15030.79
829.131	14919.83
829.458	14918.03
829.785	14808.42
830.111	14901.3
830.438	14894.75
830.764	14859.04
831.09	14899.72
831.417	14852.49
831.743	14868.54
832.069	14825.15
832.395	14806.84
832.722	14803.68
833.048	14784.24
833.374	14855.2
833.7	14676.45
834.026	14728.88
834.351	14868.08
834.677	14767.52
835.003	14817.92
835.329	14798.48
835.654	14702.21
835.98	14628.54
836.306	14748.31
836.631	14652.72
836.956	14706.28
837.282	14708.54
837.607	14599.84
837.932	14507.42
838.258	14546.51
838.583	14553.74
838.908	14442.33
839.233	14504.7
839.558	14448.21
839.883	14409.56
840.208	14357.59
840.533	14375.44
840.858	14349
841.182	14307.42
841.507	14324.6
841.832	14228.33
842.156	14300.41
842.481	14262.45
842.805	14165.5
843.13	14139.97
843.454	14099.74
843.778	14033.98
844.103	14019.29
844.427	14009.35
844.751	13915.34
845.075	13997.15
845.399	13883.02
845.723	13839.41
846.047	13840.77
846.371	13787.66
846.695	13686.87
847.019	13571.62
847.343	13523.26
847.666	13499.98
847.99	13449.36
848.313	13452.53
848.637	13425.64
848.96	13349.03
849.284	13258.41
849.607	13142.71
849.931	13154.23
850.254	13023.61
850.577	13003.73
850.9	12894.35
851.223	12869.94
851.546	12908.36
851.869	12744.07
852.192	12846.89
852.515	12694.81
852.838	12644.87
853.161	12675.6
853.483	12562.61
853.806	12565.55
854.129	12536.62
854.451	12465.89
854.774	12366.68
855.096	12366.23
855.419	12333.24
855.741	12329.62
856.063	12163.07
856.385	12301.6
856.708	12148.61
857.03	12135.95
857.352	12157.42
857.674	12079.23
857.996	12015.73
858.318	12019.8
858.64	11967.82
858.961	11929.63
859.283	11801.5
859.605	11883.53
859.926	11834.27
860.248	11815.96
860.57	11723.08
860.891	11782.74
861.212	11638.56
861.534	11693.48
861.855	11674.5
862.176	11609.86
862.498	11592.01
862.819	11589.07
863.14	11484.44
863.461	11574.16
863.782	11434.28
864.103	11544.78
864.424	11506.36
864.745	11436.08
865.065	11401.06
865.386	11379.14
865.707	11342.07
866.027	11427.04
866.348	11390.21
866.668	11377.78
866.989	11308.4
867.309	11204
867.63	11251.46
867.95	11256.88
868.27	11225.02
868.59	11190.67
868.91	11239.03
869.23	11207.84
869.55	11131.01
869.87	11161.51
870.19	11140.5
870.51	11171.68
870.83	11061.4
871.15	11074.96
871.469	10972.14
871.789	11047.62
872.109	11064.79
872.428	10891.47
872.748	10928.75
873.067	10859.38
873.386	10908.19
873.706	10898.92
874.025	10825.03
874.344	10803.56
874.663	10891.47
874.982	10876.78
875.301	10779.38
875.62	10728.76
875.939	10800.62
876.258	10718.59
876.577	10603.34
876.896	10641.53
877.214	10608.31
877.533	10656.67
877.852	10670.91
878.17	10616.44
878.489	10623.9
878.807	10572.38
879.125	10622.09
879.444	10601.3
879.762	10545.49
880.08	10580.51
880.398	10540.51
880.716	10517.46
881.034	10500.74
881.352	10453.51
881.67	10470.23
881.988	10483.34
882.306	10392.04
882.624	10330.8
882.941	10357.24
883.259	10268.66
883.577	10282.67
883.894	10230.92
884.212	10186.62
884.529	10230.01
884.846	10171.26
885.164	10194.76
885.481	10183.69
885.798	10225.49
886.115	10074.76
886.432	10118.83
886.75	10102.79
887.067	9987.31
887.383	10025.5
887.7	9962.9
888.017	9957.25
888.334	9982.11
888.651	9935.11
888.967	9926.52
889.284	9803.81
889.6	9864.15
889.917	9736.02
890.233	9797.93
890.55	9761.55
890.866	9765.17
891.182	9682.46
891.498	9702.34
891.815	9644.27
892.131	9637.03
892.447	9563.59
892.763	9549.81
893.079	9502.57
893.395	9423.48
893.71	9505.29
894.026	9451.95
894.342	9416.25
894.657	9372.41
894.973	9299.64
895.289	9314.33
895.604	9323.6
895.92	9223.94
896.235	9193.43
896.55	9149.82
896.865	9153.66
897.181	9111.85
897.496	9119.53
897.811	9114.79
898.126	9007.22
898.441	8989.82
898.756	8970.16
899.071	8910.05
899.386	8974.45
899.7	8850.16
900.015	8795.25
900.33	8770.16
900.644	8741.47
900.959	8774.68
901.273	8738.98
901.588	8746.66
901.902	8702.82
902.216	8638.42
902.531	8640.45
902.845	8550.28
903.159	8488.36
903.473	8529.95
903.787	8463.51
904.101	8456.27
904.415	8470.96
904.729	8400.46
905.042	8378.99
905.356	8357.07
905.67	8273.45
905.984	8255.38
906.297	8282.95
906.611	8217.19
906.924	8252.66
907.237	8210.18
907.551	8112.78
907.864	8062.61
908.177	8061.03
908.491	8037.3
908.804	7975.16
909.117	7952.79
909.43	7905.55
909.743	7867.36
910.056	7902.39
910.368	7767.93
910.681	7849.06
910.994	7718.89
911.307	7777.42
911.619	7620.14
911.932	7622.17
912.244	7609.07
912.557	7611.33
912.869	7624.21
913.181	7529.07
913.494	7574.49
913.806	7528.62
914.118	7499.69
914.43	7399.35
914.742	7379.24
915.054	7371.78
915.366	7368.62
915.678	7293.37
915.99	7267.61
916.302	7177.66
916.613	7152.81
916.925	7151.45
917.236	7151.45
917.548	7127.5
917.859	7122.3
918.171	7075.29
918.482	7005.01
918.794	6982.64
919.105	7033.04
919.416	6945.35
919.727	6953.04
920.038	6851.12
920.349	6880.72
920.66	6797.11
920.971	6880.5
921.282	6808.41
921.593	6721.63
921.903	6708.3
922.214	6628.75
922.525	6629.66
922.835	6627.62
923.146	6517.34
923.456	6579.49
923.767	6479.6
924.077	6508.98
924.387	6522.99
924.697	6501.07
925.008	6431.47
925.318	6396.44
925.628	6405.93
925.938	6338.36
926.248	6278.93
926.558	6266.05
926.867	6239.84
927.177	6260.85
927.487	6192.15
927.796	6132.95
928.106	6141.08
928.416	6097.69
928.725	6121.19
929.034	6076.68
929.344	6059.95
929.653	6018.37
929.962	6028.32
930.271	5978.37
930.581	5909.45
930.89	5928.88
931.199	5844.59
931.508	5833.07
931.817	5888.21
932.125	5827.42
932.434	5783.8
932.743	5736.57
933.051	5698.16
933.36	5748.1
933.669	5643.47
933.977	5665.61
934.286	5647.76
934.594	5576.35
934.902	5588.33
935.21	5561.21
935.519	5583.36
935.827	5504.94
936.135	5508.56
936.443	5448.9
936.751	5459.97
937.059	5413.19
937.367	5346.07
937.674	5407.54
937.982	5345.62
938.29	5370.93
938.597	5370.03
938.905	5315.34
939.213	5311.72
939.52	5245.96
939.827	5317.15
940.135	5165.74
940.442	5193.76
940.749	5158.51
941.056	5192.41
941.363	5112.18
941.67	5111.05
941.977	5052.07
942.284	5072.41
942.591	5014.56
942.898	5001
943.205	5023.14
943.511	4974.33
943.818	4954.22
944.125	4947.21
944.431	4939.31
944.738	4881.23
945.044	4877.84
945.35	4807.78
945.657	4844.84
945.963	4797.84
946.269	4759.2
946.575	4772.53
946.881	4707.9
947.187	4750.61
947.493	4649.6
947.799	4697.5
948.105	4668.35
948.41	4669.48
948.716	4695.02
949.022	4655.47
949.327	4601.01
949.633	4555.59
949.938	4555.59
950.244	4542.03
950.549	4473.55
950.854	4482.82
951.16	4521.91
951.465	4448.24
951.77	4431.07
952.075	4429.04
952.38	4423.84
952.685	4378.87
952.99	4359.21
953.294	4344.52
953.599	4315.59
953.904	4311.98
954.209	4229.72
954.513	4278.98
954.818	4214.35
955.122	4225.2
955.426	4217.29
955.731	4194.24
956.035	4148.14
956.339	4166.67
956.643	4156.05
956.948	4115.15
957.252	4074.47
957.556	4108.14
957.86	4069.5
958.163	4070.18
958.467	4040.12
958.771	4028.37
959.075	3976.62
959.378	3976.84
959.682	3965.09
959.985	3897.3
960.289	3921.48
960.592	3876.51
960.896	3906.11
961.199	3873.12
961.502	3830.63
961.805	3882.61
962.108	3839.9
962.411	3823.63
962.714	3781.6
963.017	3775.49
963.32	3767.58
963.623	3718.09
963.926	3755.16
964.228	3689.62
964.531	3699.56
964.833	3686.23
965.136	3617.08
965.438	3596.06
965.741	3606.01
966.043	3587.02
966.345	3645.78
966.648	3602.17
966.95	3580.02
967.252	3543.64
967.554	3509.51
967.856	3483.07
968.158	3470.19
968.46	3490.76
968.761	3454.37
969.063	3449.4
969.365	3422.28
969.666	3467.48
969.968	3366.92
970.269	3417.76
970.571	3371.89
970.872	3366.69
971.174	3320.82
971.475	3324.21
971.776	3308.39
972.077	3307.26
972.378	3358.1
972.679	3311.55
972.98	3272.91
973.281	3242.4
973.582	3275.85
973.883	3215.51
974.183	3172.12
974.484	3179.13
974.785	3176.41
975.085	3156.53
975.386	3149.3
975.686	3144.1
975.986	3161.5
976.287	3135.96
976.587	3092.8
976.887	3090.77
977.187	3062.07
977.487	3067.49
977.787	3053.48
978.087	3024.55
978.387	3020.71
978.687	3015.29
978.987	3005.8
979.286	2939.36
979.586	2931.22
979.885	2929.41
980.185	2935.74
980.484	2908.17
980.784	2903.88
981.083	2907.72
981.382	2904.78
981.682	2828.85
981.981	2848.06
982.28	2849.19
982.579	2837.21
982.878	2825.24
983.177	2830.21
983.475	2805.35
983.774	2801.73
984.073	2762.64
984.372	2771
984.67	2748.63
984.969	2720.38
985.267	2724.9
985.566	2702.3
985.864	2695.3
986.162	2672.7
986.461	2649.65
986.759	2677.22
987.057	2634.73
987.355	2645.81
987.653	2631.12
987.951	2602.87
988.249	2628.86
988.547	2599.93
988.844	2602.64
989.142	2568.07
989.44	2565.36
989.737	2540.72
990.035	2520.61
990.332	2537.56
990.63	2507.05
990.927	2490.56
991.224	2459.6
991.521	2445.59
991.819	2510.89
992.116	2418.47
992.413	2431.12
992.71	2422.54
993.006	2385.47
993.303	2403.33
993.6	2407.85
993.897	2377.79
994.193	2356.32
994.49	2371.92
994.787	2388.19
995.083	2321.97
995.379	2316.78
995.676	2337.57
995.972	2320.84
996.268	2315.19
996.565	2320.16
996.861	2253.95
997.157	2286.49
997.453	2253.5
997.749	2248.08
998.044	2236.1
998.34	2218.47
998.636	2213.05
998.932	2173.73
999.227	2175.31
999.523	2190.45
999.818	2174.41
1000.114	2147.29
1000.409	2148.87
1000.704	2137.12
1001	2130.11
1001.295	2089.21
1001.59	2068.87
1001.885	2073.39
1002.18	2069.78
1002.475	2055.99
1002.77	2021.64
1003.065	2044.69
1003.359	2037.23
1003.654	2013.96
1003.949	2006.73
1004.243	2001.08
1004.538	1983.68
1004.832	1955.2
1005.127	1957.01
1005.421	1928.31
1005.715	1941.19
1006.009	1932.38
1006.304	1924.02
1006.598	1903
1006.892	1905.71
1007.186	1881.98
1007.48	1884.02
1007.773	1883.11
1008.067	1861.87
1008.361	1817.81
1008.655	1858.71
1008.948	1801.53
1009.242	1812.38
1009.535	1813.29
1009.829	1846.28
1010.122	1778.71
1010.415	1777.35
1010.708	1783.68
1011.001	1740.29
1011.295	1740.29
1011.588	1718.82
1011.881	1707.98
1012.173	1717.24
1012.466	1705.72
1012.759	1697.13
1013.052	1673.18
1013.344	1678.83
1013.637	1668.88
1013.93	1640.41
1014.222	1658.94
1014.514	1652.84
1014.807	1632.5
1015.099	1631.82
1015.391	1602.22
1015.683	1619.17
1015.976	1595.44
1016.268	1568.09
1016.56	1568.32
1016.851	1572.84
1017.143	1547.53
1017.435	1531.49
1017.727	1512.5
1018.018	1529.9
1018.31	1531.71
1018.602	1521.09
1018.893	1480.87
1019.185	1479.51
1019.476	1463.01
1019.767	1484.71
1020.058	1452.17
1020.35	1450.81
1020.641	1426.18
1020.932	1423.24
1021.223	1401.55
1021.514	1421.66
1021.804	1363.35
1022.095	1378.49
1022.386	1404.71
1022.677	1377.59
1022.967	1360.87
1023.258	1347.08
1023.548	1339.63
1023.839	1361.77
1024.129	1320.19
1024.419	1343.02
1024.709	1318.38
1025	1333.98
1025.29	1301.66
1025.58	1298.95
1025.87	1257.82
1026.16	1281.32
1026.449	1266.41
1026.739	1242.23
1027.029	1256.01
1027.319	1244.49
1027.608	1245.84
1027.898	1212.85
1028.187	1205.84
1028.477	1210.14
1028.766	1188.22
1029.055	1185.05
1029.344	1167.2
1029.634	1203.58
1029.923	1174.88
1030.212	1148.22
1030.501	1157.03
1030.79	1124.04
1031.078	1140.99
1031.367	1142.57
1031.656	1121.33
1031.945	1104.38
1032.233	1110.03
1032.522	1105.73
1032.81	1099.86
1033.099	1091.5
1033.387	1060.99
1033.675	1092.4
1033.963	1045.62
1034.251	1058.96
1034.54	1064.38
1034.828	1071.84
1035.116	1011.95
1035.403	1046.07
1035.691	1038.84
1035.979	1019.86
1036.267	1033.65
1036.554	1007.21
1036.842	975.12
1037.129	980.31
1037.417	981.9
1037.704	1014.44
1037.992	984.15
1038.279	956.13
1038.566	943.48
1038.853	943.48
1039.14	943.48
