Data from hue_350_FLMS001491_18.txt Node
Date: Mon Feb 06 15:37:40 GMT 2017
User: dcchb
Spectrometer: FLMS00149
Trigger mode: 0
Integration Time (sec): 2.000000E-2
Scans to average: 10
Electric dark correction enabled: true
Nonlinearity correction enabled: false
Boxcar width: 0
XAxis mode: Wavelengths
Number of Pixels in Spectrum: 2048
>>>>>Begin Spectral Data<<<<<
341.393	-11.95
341.776	-11.95
342.16	-11.95
342.543	-70.48
342.927	-92.85
343.31	-71.16
343.693	-48.78
344.077	-72.96
344.46	-53.98
344.843	-42
345.226	-31.84
345.61	-28.45
345.993	-26.19
346.376	-4.49
346.759	13.36
347.142	17.2
347.525	30.76
347.908	40.03
348.291	65.34
348.674	81.83
349.057	131.32
349.44	140.82
349.823	160.7
350.206	161.61
350.588	188.95
350.971	197.31
351.354	227.37
351.737	225.56
352.119	233.69
352.502	250.42
352.884	249.51
353.267	256.74
353.65	284.77
354.032	303.07
354.414	303.75
354.797	312.11
355.179	324.31
355.562	306.46
355.944	323.64
356.326	323.64
356.709	340.58
357.091	331.32
357.473	304.2
357.855	355.73
358.238	338.32
358.62	310.53
359.002	345.56
359.384	348.95
359.766	343.3
360.148	329.96
360.53	330.64
360.912	333.58
361.294	326.8
361.676	336.74
362.057	321.38
362.439	327.03
362.821	339
363.203	321.6
363.584	323.64
363.966	330.87
364.348	314.37
364.729	316.63
365.111	314.37
365.493	331.77
365.874	319.57
366.256	324.31
366.637	310.75
367.019	316.4
367.4	320.25
367.781	307.14
368.163	327.48
368.544	313.92
368.925	302.62
369.306	293.13
369.688	341.71
370.069	299.46
370.45	310.53
370.831	314.37
371.212	312.34
371.593	312.56
371.974	324.77
372.355	303.75
372.736	318.21
373.117	289.06
373.498	317.99
373.879	326.57
374.26	318.89
374.641	296.97
375.021	317.99
375.402	314.14
375.783	321.83
376.163	315.05
376.544	313.47
376.925	322.28
377.305	318.66
377.686	321.83
378.066	322.51
378.447	337.65
378.827	327.48
379.208	317.99
379.588	320.7
379.968	313.92
380.349	328.16
380.729	344.43
381.109	335.16
381.489	335.39
381.87	341.49
382.25	341.04
382.63	338.1
383.01	350.53
383.39	345.33
383.77	367.25
384.15	343.52
384.53	363.63
384.91	344.65
385.29	335.84
385.67	331.77
386.049	336.06
386.429	317.53
386.809	348.04
387.189	347.36
387.568	353.47
387.948	337.87
388.328	339.45
388.707	340.13
389.087	357.31
389.466	343.52
389.846	359.34
390.225	368.61
390.605	355.27
390.984	364.76
391.363	367.48
391.743	362.28
392.122	369.06
392.501	372.22
392.881	369.51
393.26	376.97
393.639	372.9
394.018	358.66
394.397	369.74
394.776	362.28
395.155	370.64
395.534	368.83
395.913	366.35
396.292	394.82
396.671	369.06
397.05	367.25
397.429	392.33
397.808	365.67
398.186	401.15
398.565	394.59
398.944	378.32
399.323	419.45
399.701	371.32
400.08	396.63
400.458	391.66
400.837	395.27
401.215	389.62
401.594	394.82
401.972	384.42
402.351	409.96
402.729	377.42
403.107	392.56
403.486	397.98
403.864	401.37
404.242	393.24
404.62	411.54
404.999	409.73
405.377	416.74
405.755	418.32
406.133	407.02
406.511	431.66
406.889	440.69
407.267	412.67
407.645	421.49
408.023	404.76
408.401	422.39
408.779	431.43
409.156	448.38
409.534	431.88
409.912	437.08
410.29	438.89
410.667	472.78
411.045	470.75
411.422	462.39
411.8	463.97
412.178	472.33
412.555	460.36
412.933	473.24
413.31	463.52
413.687	482.28
414.065	487.25
414.442	491.77
414.819	481.82
415.197	495.16
415.574	477.08
415.951	499.68
416.328	513.69
416.705	491.09
417.082	517.53
417.46	515.04
417.837	502.61
418.214	503.74
418.591	524.31
418.967	510.07
419.344	524.08
419.721	502.61
420.098	509.62
420.475	524.53
420.852	541.26
421.228	543.52
421.605	561.6
421.982	542.16
422.358	566.34
422.735	577.41
423.111	532.9
423.488	577.87
423.864	546.23
424.241	553.91
424.617	588.49
424.994	560.47
425.37	587.81
425.746	576.74
426.123	584.19
426.499	604.98
426.875	610.86
427.251	596.85
427.627	608.83
428.003	588.94
428.379	619.22
428.756	617.41
429.132	630.75
429.507	634.14
429.883	632.78
430.259	645.89
430.635	632.1
431.011	631.88
431.387	645.66
431.763	673.23
432.138	661.25
432.514	661.03
432.89	673.23
433.265	705.77
433.641	712.78
434.016	706.45
434.392	720.24
434.767	714.13
435.143	703.96
435.518	696.96
435.894	722.04
436.269	731.99
436.644	759.56
437.02	759.78
437.395	759.1
437.77	743.51
438.145	754.81
438.52	765.88
438.895	752.32
439.271	748.48
439.646	785.32
440.021	808.59
440.395	790.97
440.77	789.61
441.145	761.14
441.52	785.32
441.895	778.54
442.27	805.66
442.645	826.67
443.019	820.35
443.394	811.08
443.769	821.02
444.143	814.7
444.518	836.16
444.892	832.77
445.267	824.64
445.641	849.72
446.016	858.54
446.39	844.75
446.764	829.84
447.139	835.49
447.513	862.38
447.887	850.18
448.262	872.55
448.636	878.65
449.01	878.88
449.384	868.25
449.758	888.82
450.132	901.47
450.506	910.96
450.88	900.12
451.254	887.91
451.628	916.61
452.002	917.74
452.376	942.6
452.75	919.1
453.123	921.59
453.497	963.17
453.871	962.26
454.244	968.14
454.618	968.82
454.992	976.73
455.365	987.57
455.739	1004.3
456.112	1012.43
456.486	1007.91
456.859	1030.51
457.232	1022.6
457.606	1036.61
457.979	1058.31
458.352	1042.26
458.725	1066.44
459.099	1064.86
459.472	1068.47
459.845	1109.38
460.218	1088.36
460.591	1107.8
460.964	1122.48
461.337	1135.59
461.71	1144.63
462.083	1181.69
462.456	1177.85
462.829	1186.66
463.201	1177.85
463.574	1187.79
463.947	1218.3
464.32	1226.66
464.692	1231.18
465.065	1232.99
465.438	1254.91
465.81	1282.93
466.183	1294.23
466.555	1300.56
466.928	1298.53
467.3	1314.12
467.672	1352.76
468.045	1351.86
468.417	1382.14
468.789	1389.82
469.161	1397.05
469.534	1423.95
469.906	1454.23
470.278	1452.19
470.65	1441.12
471.022	1459.88
471.394	1518.41
471.766	1505.53
472.138	1544.39
472.51	1576.48
472.882	1599.99
473.253	1616.48
473.625	1627.78
473.997	1649.93
474.369	1674.33
474.74	1670.49
475.112	1738.51
475.484	1736.93
475.855	1759.3
476.227	1806.08
476.598	1856.93
476.97	1864.39
477.341	1921.79
477.713	1929.24
478.084	1943.25
478.455	2010.37
478.827	2018.05
479.198	2041.78
479.569	2061.67
479.94	2117.26
480.311	2103.48
480.682	2190.93
481.053	2253.08
481.424	2274.54
481.795	2322.91
482.166	2313.41
482.537	2359.29
482.908	2395.22
483.279	2443.35
483.65	2462.11
484.021	2532.62
484.391	2575.55
484.762	2602.22
485.133	2630.24
485.503	2670.69
485.874	2694.65
486.244	2754.98
486.615	2790.92
486.985	2829.11
487.356	2881.31
487.726	2916.34
488.097	2957.92
488.467	2963.79
488.837	3025.94
489.207	3084.47
489.578	3107.07
489.948	3149.32
490.318	3198.36
490.688	3220.51
491.058	3241.07
491.428	3279.72
491.798	3324.46
492.168	3386.61
492.538	3433.38
492.908	3449.88
493.278	3530.33
493.648	3578.01
494.017	3560.84
494.387	3604.91
494.757	3611.23
495.126	3648.07
495.496	3678.35
495.866	3719.48
496.235	3757.22
496.605	3799.48
496.974	3804.9
497.344	3858.91
497.713	3841.74
498.082	3868.85
498.452	3963.77
498.821	3928.06
499.19	3980.04
499.559	3974.16
499.928	4041.05
500.298	4025.69
500.667	4099.81
501.036	4086.93
501.405	4135.96
501.774	4099.81
502.143	4166.47
502.512	4168.51
502.88	4245.11
503.249	4230.88
503.618	4262.74
503.987	4224.32
504.356	4302.51
504.724	4337.99
505.093	4352
505.462	4348.84
505.83	4350.42
506.199	4441.72
506.567	4486.69
506.936	4444.21
507.304	4478.1
507.672	4518.78
508.041	4532.34
508.409	4526.01
508.777	4592.45
509.145	4590.87
509.514	4584.77
509.882	4625.9
510.25	4635.39
510.618	4728.04
510.986	4658.66
511.354	4713.35
511.722	4749.51
512.09	4749.28
512.458	4730.53
512.826	4772.11
513.193	4790.18
513.561	4797.42
513.929	4824.53
514.297	4884.65
514.664	4905.21
515.032	4879.67
515.4	4954.25
515.767	4949.5
516.135	4982.95
516.502	4951.31
516.869	5049.84
517.237	5029.27
517.604	5018.65
517.972	5078.31
518.339	5090.74
518.706	5101.36
519.073	5125.54
519.44	5135.03
519.808	5176.16
520.175	5167.12
520.542	5218.42
520.909	5253.68
521.276	5253
521.643	5268.59
522.009	5276.27
522.376	5305.65
522.743	5345.2
523.11	5374.35
523.477	5363.05
523.843	5406.44
524.21	5468.13
524.577	5527.79
524.943	5487.79
525.31	5552.2
525.676	5608.02
526.043	5609.37
526.409	5596.27
526.776	5697.05
527.142	5671.52
527.508	5727.34
527.874	5776.37
528.241	5821.34
528.607	5848.24
528.973	5872.64
529.339	5832.19
529.705	5943.83
530.071	5955.58
530.437	5980.66
530.803	5994.22
531.169	6091.62
531.535	5990.38
531.901	6023.6
532.267	6064.73
532.632	6103.14
532.998	6120.55
533.364	6192.41
533.73	6181.33
534.095	6221.79
534.461	6210.71
534.826	6273.76
535.192	6302.46
535.557	6372.29
535.923	6387.43
536.288	6376.13
536.653	6366.19
537.019	6354.21
537.384	6421.55
537.749	6402.35
538.114	6520.76
538.479	6414.1
538.845	6519.4
539.21	6540.42
539.575	6521.66
539.94	6586.97
540.305	6652.73
540.67	6667.2
541.034	6686.63
541.399	6735.44
541.764	6709
542.129	6706.74
542.494	6766.18
542.858	6817.25
543.223	6819.06
543.587	6861.54
543.952	6896.8
544.316	6902.9
544.681	6912.61
545.045	6934.76
545.41	6984.03
545.774	7005.49
546.138	6997.13
546.503	7070.35
546.867	7074.64
547.231	7178.82
547.595	7177.24
547.959	7123.68
548.324	7200.06
548.688	7231.02
549.052	7252.49
549.416	7268.99
549.779	7242.1
550.143	7242.55
550.507	7317.8
550.871	7400.74
551.235	7388.08
551.599	7405.03
551.962	7514.86
552.326	7430.12
552.689	7527.97
553.053	7525.71
553.417	7504.69
553.78	7648.41
554.143	7599.83
554.507	7661.75
554.87	7592.15
555.234	7731.35
555.597	7614.07
555.96	7669.66
556.323	7701.07
556.686	7778.81
557.05	7808.18
557.413	7758.69
557.776	7838.24
558.139	7864.23
558.502	7857.45
558.865	7896.77
559.228	7945.13
559.59	7918.46
559.953	7959.82
560.316	8037.78
560.679	8117.33
561.041	8051.79
561.404	8091.57
561.767	8183.09
562.129	8186.03
562.492	8249.98
562.854	8231
563.217	8225.8
563.579	8266.7
563.941	8254.5
564.304	8336.53
564.666	8348.51
565.028	8382.41
565.39	8424.44
565.753	8418.56
566.115	8465.34
566.477	8531.1
566.839	8574.04
567.201	8572.91
567.563	8596.41
567.925	8702.85
568.287	8613.14
568.648	8673.7
569.01	8697.88
569.372	8841.83
569.734	8762.96
570.095	8835.5
570.457	8883.64
570.819	8834.15
571.18	8906.46
571.542	8987.81
571.903	8982.84
572.265	9095.83
572.626	9066
572.987	9106.68
573.349	9212.67
573.71	9238.2
574.071	9328.37
574.432	9379.22
574.794	9427.58
575.155	9367.47
575.516	9499.21
575.877	9573.56
576.238	9705.99
576.599	9719.55
576.96	9711.41
577.32	9857.4
577.681	9879.77
578.042	9995.02
578.403	10082.25
578.763	10140.1
579.124	10166.09
579.485	10370.6
579.845	10451.28
580.206	10557.04
580.566	10640.65
580.927	10662.8
581.287	10900.31
581.648	10931.72
582.008	11182.79
582.368	11255.55
582.728	11414.87
583.089	11496.45
583.449	11705.26
583.809	11837.01
584.169	11986.15
584.529	12122.87
584.889	12427.72
585.249	12500.49
585.609	12653.93
585.969	12871.78
586.329	13066.58
586.688	13250.75
587.048	13438.09
587.408	13665.66
587.768	13860.68
588.127	14113.56
588.487	14352.87
588.846	14704.73
589.206	14737.49
589.565	15036.92
589.925	15305.61
590.284	15603.69
590.643	15876.22
591.003	16130.68
591.362	16371.58
591.721	16612.47
592.08	16766.82
592.44	17270.99
592.799	17388.5
593.158	17650.64
593.517	17984.64
593.876	18255.59
594.235	18421.46
594.593	18823.71
594.952	19089.24
595.311	19369.24
595.67	19640.42
596.029	20002.44
596.387	20330.57
596.746	20677.68
597.104	20893.26
597.463	21033.83
597.822	21440.14
598.18	21709.97
598.538	21951.54
598.897	22321.02
599.255	22380.46
599.613	23079.2
599.972	23104.73
600.33	23518.96
600.688	23734.55
601.046	24007.76
601.404	24371.82
601.762	24617.46
602.12	25023.78
602.478	25214.51
602.836	25424.67
603.194	25648.17
603.552	25893.58
603.91	26100.36
604.268	26446.34
604.625	26637.52
604.983	27010.84
605.341	27173.1
605.698	27531.06
606.056	27831.16
606.413	28017.6
606.771	28406.96
607.128	28607.41
607.485	28701.65
607.843	29074.52
608.2	29280.16
608.557	29629.08
608.914	29606.03
609.272	30016.87
609.629	30195.62
609.986	30580.47
610.343	30591.09
610.7	31003.05
611.057	31212.54
611.414	31305.19
611.771	31634.9
612.127	31862.69
612.484	31911.96
612.841	32253.42
613.198	32187.2
613.554	32390.14
613.911	32791.03
614.267	32936.79
614.624	32993.51
614.98	33295.2
615.337	33640.05
615.693	33642.53
616.05	33652.25
616.406	34153.71
616.762	34198.9
617.118	34165.91
617.475	34257.88
617.831	34532.45
618.187	34714.37
618.543	35003.63
618.899	35090.41
619.255	35232.55
619.611	35339.66
619.967	35535.59
620.323	35676.15
620.678	35671.63
621.034	35703.5
621.39	35864.4
621.746	35904.39
622.101	36338.73
622.457	36241.34
622.812	36324.72
623.168	36455.57
623.523	36621.44
623.879	36769.23
624.234	36626.64
624.589	36989.79
624.945	36987.76
625.3	37070.01
625.655	37199.95
626.01	37277.47
626.365	37134.42
626.72	37228.2
627.075	37352.04
627.43	37504.8
627.785	37441.76
628.14	37520.62
628.495	37733.05
628.85	37630
629.205	37535.09
629.559	37845.36
629.914	37773.27
630.269	37850.33
630.623	37847.62
630.978	37898.47
631.332	37945.25
631.687	38007.39
632.041	37923.32
632.396	38112.47
632.75	37905.7
633.104	38151.34
633.459	37943.89
633.813	38025.24
634.167	37985.24
634.521	37975.3
634.875	38179.82
635.229	38025.02
635.583	37924.68
635.937	38085.81
636.291	38022.98
636.645	38145.24
636.999	38013.49
637.352	38125.81
637.706	37885.13
638.06	38202.64
638.413	37986.83
638.767	37946.6
639.121	38085.81
639.474	37959.93
639.828	37972.36
640.181	38000.84
640.534	38114.73
640.888	37922.42
641.241	37902.76
641.594	37956.77
641.947	37945.47
642.301	38009.65
642.654	38019.82
643.007	37983.66
643.36	37938.01
643.713	37914.51
644.066	38077.9
644.419	37880.61
644.771	37602.2
645.124	37337.13
645.477	37292.38
645.83	37186.62
646.182	36928.1
646.535	36712.28
646.888	36948.89
647.24	36759.51
647.593	36978.94
647.945	36812.17
648.298	36784.82
648.65	36638.39
649.002	36540.08
649.355	36793.86
649.707	36757.93
650.059	36880.64
650.411	37305.04
650.763	37344.81
651.115	37727.17
651.467	37500.51
651.819	37600.17
652.171	37396.56
652.523	37458.48
652.875	37480.62
653.227	37267.07
653.578	37554.52
653.93	37508.65
654.282	37273.85
654.633	37362.66
654.985	37472.04
655.337	37339.61
655.688	37353.4
656.039	37515.43
656.391	37130.58
656.742	37311.14
657.094	37138.49
657.445	37357.46
657.796	37230.91
658.147	37235.66
658.498	37258.94
658.849	37316.11
659.2	37267.07
659.551	37055.78
659.902	37209.22
660.253	37261.42
660.604	37345.71
660.955	37111.59
661.306	37248.99
661.656	37265.04
662.007	37190.91
662.358	37200.18
662.708	37115.44
663.059	37044.7
663.409	36880.64
663.76	37166.51
664.11	37149.56
664.461	37229.56
664.811	37133.52
665.161	37162.44
665.511	37086.28
665.862	37221.65
666.212	37129.45
666.562	37156.79
666.912	37077.7
667.262	37150.46
667.612	36991.82
667.962	37100.3
668.312	37015.33
668.662	37068.43
669.011	37067.75
669.361	36995.89
669.711	37091.26
670.06	36931.03
670.41	36851.94
670.76	36960.64
671.109	37113.18
671.459	36990.24
671.808	36897.14
672.157	36913.86
672.507	36767.88
672.856	36791.6
673.205	36813.07
673.554	36898.04
673.904	36752.06
674.253	37041.77
674.602	36779.85
674.951	36271.84
675.3	36188.91
675.649	36678.39
675.998	36684.26
676.346	36726.97
676.695	36900.3
677.044	36588.9
677.393	36695.79
677.741	36646.52
678.09	36523.14
678.438	36454.21
678.787	36574.43
679.135	36493.98
679.484	36349.58
679.832	36500.31
680.181	36215.57
680.529	36439.97
680.877	36260.32
681.225	36321.33
681.573	36435.45
681.922	36202.01
682.27	36048.57
682.618	36093.77
682.966	36007.67
683.314	36092.41
683.661	35884.06
684.009	35785.08
684.357	35719.32
684.705	35606.32
685.053	35691.29
685.4	35619.66
685.748	35495.82
686.095	35554.12
686.443	35295.15
686.79	35348.48
687.138	35402.71
687.485	35450.4
687.832	35182.38
688.18	35316.61
688.527	35146.22
688.874	35147.58
689.221	34997.98
689.568	34902.61
689.915	34717.53
690.262	34764.76
690.609	34812.22
690.956	34684.77
691.303	34638.21
691.65	34499.69
691.997	34482.51
692.344	34422.4
692.69	34112.35
693.037	34210.43
693.383	34017.89
693.73	34023.77
694.077	33914.16
694.423	34016.31
694.769	33773.15
695.116	33626.49
695.462	33697.9
695.808	33617
696.155	33714.4
696.501	33417.45
696.847	33318.02
697.193	33147.63
697.539	33312.82
697.885	33066.28
698.231	32958.26
698.577	32992.83
698.923	32917.13
699.269	32808.43
699.614	32534.99
699.96	32531.38
700.306	32424.94
700.651	32360.76
700.997	32290.25
701.342	32311.04
701.688	32264.72
702.033	32255.23
702.379	32145.85
702.724	32013.88
703.069	32099.3
703.415	31660.44
703.76	31749.48
704.105	31730.95
704.45	31555.58
704.795	31526.43
705.14	31400.56
705.485	31314.46
705.83	31134.58
706.175	31344.29
706.52	31146.78
706.865	30961.25
707.209	31110.62
707.554	30919.67
707.899	31023.17
708.243	30813
708.588	30794.47
708.932	30552.45
709.277	30551.77
709.621	30698.66
709.966	30346.57
710.31	30392.45
710.654	30112.68
710.998	30154.26
711.342	30225.67
711.687	30138.44
712.031	29983.87
712.375	29929.41
712.719	29966.7
713.063	29936.19
713.407	29963.53
713.75	29896.42
714.094	29700.94
714.438	29679.47
714.782	29738
715.125	29618.46
715.469	29598.35
715.812	29461.17
716.156	29273.83
716.499	29321.07
716.843	29376.43
717.186	29198.36
717.53	29360.84
717.873	29220.28
718.216	29218.47
718.559	29026.38
718.902	28944.35
719.246	28934.86
719.589	28816.45
719.932	28693.74
720.275	28825.49
720.617	28646.28
720.96	28634.98
721.303	28611.03
721.646	28620.97
721.989	28418.49
722.331	28542.78
722.674	28518.83
723.016	28483.12
723.359	28466.85
723.701	28427.53
724.044	28304.59
724.386	28103.47
724.729	28178.27
725.071	28137.14
725.413	28101.66
725.755	28047.88
726.097	27974.43
726.439	27839.52
726.782	27852.18
727.124	27937.6
727.465	27811.5
727.807	27795.46
728.149	27648.79
728.491	27747.55
728.833	27754.1
729.175	27560.89
729.516	27496.71
729.858	27506.2
730.199	27549.13
730.541	27433.43
730.882	27346.65
731.224	27432.53
731.565	27317.28
731.906	27396.37
732.248	27345.07
732.589	27188.69
732.93	27046.1
733.271	27115.47
733.612	27122.93
733.953	27173.1
734.294	27042.48
734.635	26948.7
734.976	27075.47
735.317	26908.93
735.658	26844.52
735.999	26823.05
736.339	26767.46
736.68	26940.11
737.021	26724.3
737.361	26625.99
737.702	26874.35
738.042	26656.05
738.383	26606.33
738.723	26574.7
739.063	26444.53
739.404	26522.27
739.744	26433.46
740.084	26323.63
740.424	26447.24
740.764	26347.36
741.104	26406.79
741.444	26209.06
741.784	26094.03
742.124	26279.79
742.464	26149.4
742.804	26146.01
743.143	25959.35
743.483	26104.88
743.823	25979.01
744.162	25918.67
744.502	25984.2
744.841	25853.81
745.181	25956.63
745.52	25822.17
745.86	25825.56
746.199	25694.27
746.538	25791.89
746.877	25727.26
747.216	25748.73
747.556	25558.9
747.895	25550.54
748.234	25595.97
748.573	25408.17
748.911	25474.61
749.25	25400.26
749.589	25242.75
749.928	25257.22
750.267	25418.12
750.605	25212.02
750.944	25191.91
751.283	25062.19
751.621	25171.34
751.96	25041.63
752.298	25013.16
752.636	25044.34
752.975	24908.53
753.313	24825.36
753.651	24913.5
753.989	24773.61
754.327	24723.22
754.666	24631.47
755.004	24652.71
755.342	24782.65
755.679	24618.14
756.017	24423.57
756.355	24492.04
756.693	24394.87
757.031	24450.01
757.368	24252.05
757.706	24323.23
758.044	24073.97
758.381	24192.16
758.719	24023.13
759.056	24065.84
759.394	23989.68
759.731	23887.54
760.068	23794.2
760.405	23740.65
760.743	23656.13
761.08	23719.4
761.417	23519.64
761.754	23530.71
762.091	23468.34
762.428	23447.32
762.765	23289.59
763.102	23337.95
763.438	23151.06
763.775	23137.05
764.112	23146.99
764.449	23111.06
764.785	23010.5
765.122	22817.73
765.458	22723.05
765.795	22819.09
766.131	22680.56
766.467	22624.07
766.804	22575.71
767.14	22504.3
767.476	22477.63
767.812	22166.23
768.148	22323.96
768.485	22181.82
768.821	22212.33
769.157	22027.7
769.492	22016.4
769.828	22050.52
770.164	21792.68
770.5	21656.63
770.836	21794.48
771.171	21527.82
771.507	21523.3
771.842	21398.56
772.178	21338.68
772.513	21224.1
772.849	21159.47
773.184	21157.66
773.519	21153.14
773.855	20958.57
774.19	20884.22
774.525	20845.58
774.86	20799.48
775.195	20737.11
775.53	20715.42
775.865	20575.98
776.2	20430.23
776.535	20289.44
776.87	20339.38
777.205	20080.86
777.539	20218.25
777.874	20273.85
778.209	19917.47
778.543	19975.1
778.878	19885.61
779.212	19876.57
779.547	19738.04
779.881	19778.94
780.215	19636.12
780.55	19619.17
780.884	19455.79
781.218	19519.29
781.552	19427.77
781.886	19246.75
782.22	19248.79
782.554	19130.6
782.888	18953.65
783.222	18914.56
783.556	18867.33
783.889	18891.06
784.223	18707.56
784.557	18673.89
784.89	18685.41
785.224	18557.73
785.557	18490.16
785.891	18422.14
786.224	18347.57
786.558	18314.8
786.891	18159.78
787.224	18132.88
787.557	18148.7
787.891	17988.71
788.224	17984.64
788.557	18029.61
788.89	17944.19
789.223	17936.51
789.556	17854.7
789.888	17786
790.221	17626.46
790.554	17595.72
790.887	17597.53
791.219	17506.23
791.552	17451.77
791.884	17375.39
792.217	17395.28
792.549	17256.3
792.882	17142.4
793.214	16960.71
793.546	17094.72
793.879	16981.73
794.211	16935.85
794.543	16925.23
794.875	16838.68
795.207	16864.44
795.539	16684.79
795.871	16740.61
796.203	16592.81
796.535	16467.62
796.867	16449.31
797.198	16414.51
797.53	16456.54
797.862	16245.93
798.193	16274.4
798.525	16202.99
798.856	16223.1
799.188	15999.83
799.519	16044.58
799.85	15875.54
800.182	15921.64
800.513	15922.1
800.844	15800.06
801.175	15875.09
801.506	15900.63
801.837	15742.44
802.168	15725.94
802.499	15546.29
802.83	15605.49
803.161	15427.87
803.491	15516.46
803.822	15493.63
804.153	15395.56
804.483	15297.93
804.814	15251.38
805.145	15225.84
805.475	15218.61
805.805	15142.68
806.136	15155.11
806.466	15045.73
806.796	15099.52
807.126	14955.12
807.457	14978.17
807.787	14948.79
808.117	14817.27
808.447	14825.85
808.777	14842.8
809.107	14809.36
809.436	14721
809.766	14726.87
810.096	14579.53
810.426	14596.03
810.755	14643.71
811.085	14480.33
811.414	14507.9
811.744	14465.41
812.073	14406.43
812.403	14442.81
812.732	14296.38
813.061	14276.94
813.39	14182.03
813.719	14183.84
814.049	14147.68
814.378	14170.28
814.707	14070.84
815.036	14049.15
815.365	14008.7
815.693	13812.55
816.022	13895.93
816.351	13871.08
816.68	13804.86
817.008	13864.3
817.337	13671.31
817.665	13636.05
817.994	13709.05
818.322	13691.19
818.651	13613.23
818.979	13497.75
819.307	13613.46
819.636	13633.57
819.964	13551.76
820.292	13567.36
820.62	13464.08
820.948	13509.28
821.276	13454.14
821.604	13424.76
821.932	13441.48
822.259	13440.58
822.587	13461.14
822.915	13475.15
823.243	13404.42
823.57	13423.63
823.898	13422.95
824.225	13362.84
824.553	13400.35
824.88	13350.41
825.207	13446.68
825.535	13360.58
825.862	13431.77
826.189	13382.05
826.516	13424.31
826.843	13441.48
827.17	13344.08
827.497	13425.66
827.824	13332.11
828.151	13342.95
828.478	13371.65
828.805	13469.05
829.131	13356.06
829.458	13303.18
829.785	13321.49
830.111	13258.66
830.438	13446.91
830.764	13367.36
831.09	13331.88
831.417	13204.2
831.743	13320.58
832.069	13216.63
832.395	13234.26
832.722	13311.32
833.048	13188.38
833.374	13261.6
833.7	13199.68
834.026	13154.26
834.351	13168.5
834.677	13154.94
835.003	13219.12
835.329	13119.46
835.654	13128.5
835.98	13028.39
836.306	13123.3
836.631	13048.95
836.956	13133.47
837.282	13128.5
837.607	13038.78
837.932	12944.09
838.258	12961.5
838.583	13012.57
838.908	12899.35
839.233	12920.82
839.558	12859.13
839.883	12856.41
840.208	12818.45
840.533	12854.15
840.858	12855.28
841.182	12851.89
841.507	12830.88
841.832	12716.53
842.156	12675.63
842.481	12756.98
842.805	12673.37
843.13	12557.44
843.454	12587.49
843.778	12557.89
844.103	12535.07
844.427	12478.57
844.751	12504.78
845.075	12403.77
845.399	12413.94
845.723	12382.53
846.047	12406.03
846.371	12292.59
846.695	12225.92
847.019	12164.23
847.343	12121.97
847.666	12061.63
847.99	11996.32
848.313	11985.7
848.637	11959.71
848.96	11920.17
849.284	11942.31
849.607	11855.76
849.931	11759.04
850.254	11647.41
850.577	11607.41
850.9	11522.21
851.223	11537.13
851.546	11532.83
851.869	11410.12
852.192	11481.53
852.515	11338.04
852.838	11332.39
853.161	11382.78
853.483	11230.69
853.806	11186.4
854.129	11153.18
854.451	11164.71
854.774	11068.44
855.096	11129
855.419	10969.91
855.741	11060.3
856.063	10908.89
856.385	10872.96
856.708	10835.9
857.03	10793.19
857.352	10847.43
857.674	10729.46
857.996	10731.05
858.318	10656.92
858.64	10673.19
858.961	10590.48
859.283	10625.74
859.605	10587.32
859.926	10555.68
860.248	10563.14
860.57	10581.67
860.891	10514.1
861.212	10530.37
861.534	10529.02
861.855	10475.23
862.176	10397.27
862.498	10431.84
862.819	10417.38
863.14	10356.37
863.461	10277.5
863.782	10231.4
864.103	10301.23
864.424	10257.16
864.745	10261.68
865.065	10140.55
865.386	10190.27
865.707	10203.83
866.027	10173.32
866.348	10100.55
866.668	10128.58
866.989	10081.57
867.309	10044.74
867.63	10048.35
867.95	10073.44
868.27	9969.71
868.59	10046.09
868.91	10000.67
869.23	9985.08
869.55	9956.38
869.87	9987.56
870.19	9956.15
870.51	9960.67
870.83	9889.26
871.15	9872.31
871.469	9858.75
871.789	9902.14
872.109	9846.32
872.428	9846.1
872.748	9865.53
873.067	9785.76
873.386	9835.48
873.706	9810.17
874.025	9727.23
874.344	9699.89
874.663	9739.66
874.982	9665.31
875.301	9647.68
875.62	9636.84
875.939	9556.84
876.258	9563.17
876.577	9578.31
876.896	9582.15
877.214	9564.07
877.533	9491.53
877.852	9560.68
878.17	9544.86
878.489	9459.89
878.807	9491.53
879.125	9521.81
879.444	9513.9
879.762	9469.61
880.08	9406.33
880.398	9378.99
880.716	9391.65
881.034	9378.09
881.352	9394.13
881.67	9350.29
881.988	9344.42
882.306	9308.94
882.624	9280.01
882.941	9218.32
883.259	9216.06
883.577	9208.15
883.894	9126.12
884.212	9171.76
884.529	9167.7
884.846	9133.57
885.164	9134.48
885.481	9084.99
885.798	9059.68
886.115	9021.71
886.432	9021.94
886.75	8997.53
887.067	8932.45
887.383	8963.63
887.7	8938.32
888.017	8869.17
888.334	8874.15
888.651	8848.38
888.967	8874.6
889.284	8812.23
889.6	8795.5
889.917	8732
890.233	8784.2
890.55	8685.9
890.866	8744.66
891.182	8724.32
891.498	8646.81
891.815	8671.21
892.131	8580.37
892.447	8609.07
892.763	8566.36
893.079	8523.42
893.395	8532.46
893.71	8393.25
894.026	8502.18
894.342	8409.75
894.657	8341.5
894.973	8407.94
895.289	8390.32
895.604	8429.19
895.92	8305.8
896.235	8192.36
896.55	8208.17
896.865	8178.12
897.181	8243.88
897.496	8209.3
897.811	8143.09
898.126	8103.09
898.441	8024.45
898.756	8066.03
899.071	8069.65
899.386	8014.96
899.7	7973.15
900.015	7898.13
900.33	7903.32
900.644	7863.78
900.959	7903.55
901.273	7848.18
901.588	7793.95
901.902	7762.76
902.216	7697.9
902.531	7693.39
902.845	7663.56
903.159	7579.04
903.473	7588.98
903.787	7537.68
904.101	7547.4
904.415	7557.12
904.729	7531.36
905.042	7426.95
905.356	7481.41
905.67	7358.25
905.984	7419.04
906.297	7387.4
906.611	7351.02
906.924	7332.94
907.237	7330.91
907.551	7298.82
907.864	7254.53
908.177	7238.71
908.491	7187.86
908.804	7144.47
909.117	7123.68
909.43	7068.54
909.743	7026.51
910.056	7054.31
910.368	7005.49
910.681	6970.47
910.994	6930.02
911.307	6937.47
911.619	6894.31
911.932	6910.81
912.244	6831.71
912.557	6859.06
912.869	6800.98
913.181	6729.79
913.494	6745.16
913.806	6664.03
914.118	6672.4
914.43	6663.58
914.742	6602.57
915.054	6567.09
915.366	6580.42
915.678	6499.52
915.99	6514.89
916.302	6445.51
916.613	6432.4
916.925	6473.76
917.236	6424.04
917.548	6349.69
917.859	6406.19
918.171	6283.03
918.482	6311.95
918.794	6259.07
919.105	6283.25
919.416	6220.88
919.727	6206.87
920.038	6181.79
920.349	6166.19
920.66	6085.74
920.971	6153.09
921.282	6040.77
921.593	6056.37
921.903	6026.54
922.214	6004.39
922.525	5943.37
922.835	5951.28
923.146	5841.91
923.456	5884.39
923.767	5878.29
924.077	5895.24
924.387	5841.68
924.697	5813.89
925.008	5797.39
925.318	5706.32
925.628	5740.22
925.938	5728.47
926.248	5610.95
926.558	5624.97
926.867	5580.22
927.177	5592.65
927.487	5589.03
927.796	5535.48
928.106	5527.34
928.416	5500.9
928.725	5479.21
929.034	5472.65
929.344	5433.56
929.653	5439.66
929.962	5391.3
930.271	5398.08
930.581	5324.41
930.89	5364.41
931.199	5268.82
931.508	5276.95
931.817	5260.23
932.125	5263.84
932.434	5226.56
932.743	5202.38
933.051	5130.29
933.36	5147.46
933.669	5086.45
933.977	5100.23
934.286	5105.66
934.594	5046.22
934.902	4991.76
935.21	4973.46
935.519	4984.53
935.827	4996.51
936.135	4977.07
936.443	4902.27
936.751	4894.81
937.059	4853.46
937.367	4880.35
937.674	4851.65
937.982	4831.99
938.29	4791.31
938.597	4820.01
938.905	4729.85
939.213	4731.43
939.52	4686.91
939.827	4765.78
940.135	4644.88
940.442	4667.25
940.749	4659.57
941.056	4596.74
941.363	4583.41
941.67	4612.79
941.977	4513.13
942.284	4532.11
942.591	4535.28
942.898	4504.77
943.205	4455.05
943.511	4460.48
943.818	4437.2
944.125	4424.09
944.431	4437.65
944.738	4402.4
945.044	4370.99
945.35	4399.46
945.657	4355.17
945.963	4320.14
946.269	4291.67
946.575	4289.86
946.881	4252.8
947.187	4234.27
947.493	4243.98
947.799	4228.39
948.105	4192.23
948.41	4172.8
948.716	4193.82
949.022	4147.04
949.327	4140.71
949.633	4070.2
949.938	4102.75
950.244	4076.08
950.549	3996.53
950.854	4025.91
951.16	4002.86
951.465	3997.66
951.77	3991.56
952.075	3924.67
952.38	3936.87
952.685	3939.13
952.99	3956.76
953.294	3900.72
953.599	3889.64
953.904	3843.09
954.209	3853.26
954.513	3844.45
954.818	3804.67
955.122	3786.37
955.426	3783.66
955.731	3744.56
956.035	3722.42
956.339	3723.55
956.643	3713.38
956.948	3706.15
957.252	3697.11
957.556	3693.94
957.86	3682.19
958.163	3650.33
958.467	3611.23
958.771	3647.84
959.075	3618.24
959.378	3576.43
959.682	3547.96
959.985	3549.77
960.289	3529.65
960.592	3507.05
960.896	3517.68
961.199	3471.12
961.502	3448.07
961.805	3452.14
962.108	3425.25
962.411	3422.31
962.714	3414.4
963.017	3376.66
963.32	3452.59
963.623	3337.34
963.926	3371.47
964.228	3355.87
964.531	3295.76
964.833	3306.83
965.136	3282.65
965.438	3279.94
965.741	3227.06
966.043	3268.64
966.345	3274.07
966.648	3206.05
966.95	3175.76
967.252	3211.92
967.554	3223.45
967.856	3157.23
968.158	3123.79
968.46	3135.31
968.761	3172.6
969.063	3126.73
969.365	3106.61
969.666	3108.87
969.968	3074.75
970.269	3045.6
970.571	3039.27
970.872	3003.34
971.174	3015.09
971.475	3007.86
971.776	2996.11
972.077	3007.41
972.378	2953.85
972.679	2973.06
972.98	2952.27
973.281	2957.92
973.582	2932.15
973.883	2905.04
974.183	2901.87
974.484	2866.85
974.785	2872.72
975.085	2873.17
975.386	2808.09
975.686	2825.04
975.986	2794.31
976.287	2840.18
976.587	2775.1
976.887	2760.63
977.187	2822.55
977.487	2782.78
977.787	2748.66
978.087	2717.92
978.387	2720.41
978.687	2714.08
978.987	2712.5
979.286	2702.78
979.586	2663.91
979.885	2676.57
980.185	2673.18
980.484	2647.87
980.784	2638.6
981.083	2622.11
981.382	2604.48
981.682	2567.42
981.981	2583.46
982.28	2601.77
982.579	2589.56
982.878	2567.19
983.177	2537.14
983.475	2557.93
983.774	2521.09
984.073	2476.8
984.372	2490.13
984.67	2485.61
984.969	2472.73
985.267	2474.31
985.566	2455.56
985.864	2459.62
986.162	2435.67
986.461	2409.68
986.759	2432.28
987.057	2389.8
987.355	2372.85
987.653	2372.85
987.951	2335.33
988.249	2357.25
988.547	2353.19
988.844	2322.68
989.142	2321.78
989.44	2312.74
989.737	2294.66
990.035	2306.41
990.332	2284.71
990.63	2269.57
990.927	2254.43
991.224	2232.51
991.521	2252.17
991.819	2211.5
992.116	2194.09
992.413	2224.15
992.71	2217.6
993.006	2195.45
993.303	2190.48
993.6	2168.78
993.897	2130.82
994.193	2167.43
994.49	2172.4
994.787	2132.63
995.083	2101.89
995.379	2136.47
995.676	2084.72
995.972	2095.57
996.268	2087.21
996.565	2093.98
996.861	2100.76
997.157	2040.88
997.453	2032.52
997.749	2040.43
998.044	2035.91
998.34	2018.05
998.636	2009.92
998.932	2031.16
999.227	1975.8
999.523	1977.83
999.818	1977.6
1000.114	1931.28
1000.409	1919.53
1000.704	1916.36
1001	1895.12
1001.295	1910.94
1001.59	1915.91
1001.885	1891.73
1002.18	1897.38
1002.475	1882.01
1002.77	1871.62
1003.065	1890.83
1003.359	1839.3
1003.654	1820.77
1003.949	1857.61
1004.243	1830.26
1004.538	1807.44
1004.832	1792.98
1005.127	1794.11
1005.421	1813.09
1005.715	1771.06
1006.009	1755.91
1006.304	1773.31
1006.598	1736.25
1006.892	1737.38
1007.186	1727.67
1007.48	1700.32
1007.773	1675.92
1008.067	1703.94
1008.361	1672.53
1008.655	1642.02
1008.948	1670.94
1009.242	1663.49
1009.535	1646.31
1009.829	1671.17
1010.122	1598.4
1010.415	1606.54
1010.708	1629.82
1011.001	1578.52
1011.295	1571.51
1011.588	1588.69
1011.881	1565.41
1012.173	1564.05
1012.466	1575.35
1012.759	1582.81
1013.052	1511.85
1013.344	1536.26
1013.637	1513.21
1013.93	1474.11
1014.222	1486.99
1014.514	1486.32
1014.807	1490.84
1015.099	1482.02
1015.391	1427.34
1015.683	1485.19
1015.976	1446.09
1016.268	1475.47
1016.56	1453.1
1016.851	1437.28
1017.143	1439.31
1017.435	1438.63
1017.727	1411.29
1018.018	1395.25
1018.31	1362.7
1018.602	1374.23
1018.893	1352.99
1019.185	1352.99
1019.476	1355.7
1019.767	1348.47
1020.058	1355.47
1020.35	1302.82
1020.641	1313.44
1020.932	1307.34
1021.223	1290.39
1021.514	1280.9
1021.804	1280.67
1022.095	1289.71
1022.386	1285.19
1022.677	1257.17
1022.967	1235.25
1023.258	1243.16
1023.548	1241.58
1023.839	1257.85
1024.129	1240
1024.419	1209.26
1024.709	1205.42
1025	1216.27
1025.29	1205.19
1025.58	1178.98
1025.87	1164.29
1026.16	1166.1
1026.449	1177.62
1026.739	1157.51
1027.029	1147.79
1027.319	1136.04
1027.608	1141.92
1027.898	1130.39
1028.187	1105.99
1028.477	1113.9
1028.766	1092.65
1029.055	1102.82
1029.344	1080.45
1029.634	1079.32
1029.923	1070.96
1030.212	1088.81
1030.501	1076.61
1030.79	1076.38
1031.078	1062.6
1031.367	1048.81
1031.656	1051.75
1031.945	1044.75
1032.233	1046.33
1032.522	1013.11
1032.81	1012.88
1033.099	990.28
1033.387	987.35
1033.675	1010.17
1033.963	968.36
1034.251	997.74
1034.54	976.5
1034.828	975.37
1035.116	956.16
1035.403	954.58
1035.691	939.66
1035.979	926.78
1036.267	956.16
1036.554	906.45
1036.842	923.85
1037.129	931.53
1037.417	935.6
1037.704	896.5
1037.992	921.81
1038.279	887.91
1038.566	888.82
1038.853	888.82
1039.14	888.82
