Data from hue_00_FLMS001491_18.txt Node
Date: Mon Feb 06 15:29:20 GMT 2017
User: dcchb
Spectrometer: FLMS00149
Trigger mode: 0
Integration Time (sec): 2.000000E-2
Scans to average: 10
Electric dark correction enabled: true
Nonlinearity correction enabled: false
Boxcar width: 0
XAxis mode: Wavelengths
Number of Pixels in Spectrum: 2048
>>>>>Begin Spectral Data<<<<<
341.393	-26.48
341.776	-26.48
342.16	-26.48
342.543	-73.49
342.927	-63.77
343.31	-68.52
343.693	-87.5
344.077	-66.03
344.46	-48.18
344.843	-58.57
345.226	-41.62
345.61	-23.77
345.993	-24.67
346.376	-5.24
346.759	0.64
347.142	22.33
347.525	70.46
347.908	57.58
348.291	72.72
348.674	91.48
349.057	108.88
349.44	112.95
349.823	128.32
350.206	171.93
350.588	199.95
350.971	195.88
351.354	226.62
351.737	233.4
352.119	268.65
352.502	261.42
352.884	266.39
353.267	281.31
353.65	286.73
354.032	301.64
354.414	275.43
354.797	300.51
355.179	297.58
355.562	317.92
355.944	331.7
356.326	322.44
356.709	305.94
357.091	328.99
357.473	335.77
357.855	354.98
358.238	323.56
358.62	329.44
359.002	346.16
359.384	333.06
359.766	331.47
360.148	326.05
360.53	321.08
360.912	315.2
361.294	343.68
361.676	355.88
362.057	322.44
362.439	352.72
362.821	318.37
363.203	324.02
363.584	335.54
363.966	312.94
364.348	293.06
364.729	308.88
365.111	289.22
365.493	303.9
365.874	321.31
366.256	284.7
366.637	328.76
367.019	325.15
367.4	314.07
367.781	326.05
368.163	315.88
368.544	305.94
368.925	315.88
369.306	338.25
369.688	310.68
370.069	317.92
370.45	315.2
370.831	319.72
371.212	321.08
371.593	319.95
371.974	295.77
372.355	310.68
372.736	299.61
373.117	322.89
373.498	312.72
373.879	303.45
374.26	311.36
374.641	319.27
375.021	307.52
375.402	309.1
375.783	316.56
376.163	327.41
376.544	327.63
376.925	326.5
377.305	317.24
377.686	318.14
378.066	328.08
378.447	315.43
378.827	337.35
379.208	332.38
379.588	343.23
379.968	311.81
380.349	326.5
380.729	329.67
381.109	328.76
381.489	328.31
381.87	341.19
382.25	345.71
382.63	331.25
383.01	353.39
383.39	332.38
383.77	341.87
384.15	356.33
384.53	333.28
384.91	322.44
385.29	338.71
385.67	327.18
386.049	348.2
386.429	358.37
386.809	354.98
387.189	361.08
387.568	348.42
387.948	344.81
388.328	352.49
388.707	348.2
389.087	353.17
389.466	356.11
389.846	358.14
390.225	371.47
390.605	351.59
390.984	356.56
391.363	364.92
391.743	344.81
392.122	366.05
392.501	356.56
392.881	358.14
393.26	351.36
393.639	364.92
394.018	363.79
394.397	363.11
394.776	377.35
395.155	371.47
395.534	349.78
395.913	364.92
396.292	387.74
396.671	377.57
397.05	373.28
397.429	378.7
397.808	363.56
398.186	387.07
398.565	360.63
398.944	375.31
399.323	385.48
399.701	381.42
400.08	392.04
400.458	388.42
400.837	410.79
401.215	396.33
401.594	384.58
401.972	383.22
402.351	380.96
402.729	391.59
403.107	396.78
403.486	397.01
403.864	381.42
404.242	415.31
404.62	404.69
404.999	407.18
405.377	393.62
405.755	403.34
406.133	406.5
406.511	411.7
406.889	448.53
407.267	418.7
407.645	422.09
408.023	396.11
408.401	419.16
408.779	428.42
409.156	436.33
409.534	442.88
409.912	452.38
410.29	436.78
410.667	435.88
411.045	424.35
411.422	453.51
411.8	439.72
412.178	455.09
412.555	464.8
412.933	434.52
413.31	467.97
413.687	444.01
414.065	467.06
414.442	463.67
414.819	448.99
415.197	477.46
415.574	469.78
415.951	489.21
416.328	487.85
416.705	484.24
417.082	486.5
417.46	489.21
417.837	488.53
418.214	503.22
418.591	489.66
418.967	498.93
419.344	501.41
419.721	507.74
420.098	509.32
420.475	527.18
420.852	519.49
421.228	535.99
421.605	513.39
421.982	517.23
422.358	530.79
422.735	512.03
423.111	533.95
423.488	551.13
423.864	547.74
424.241	536.21
424.617	562.43
424.994	531.24
425.37	557.01
425.746	551.58
426.123	553.62
426.499	562.88
426.875	548.42
427.251	557.01
427.627	567.85
428.003	592.71
428.379	582.77
428.756	590.9
429.132	589.55
429.507	579.15
429.883	609.66
430.259	591.35
430.635	625.93
431.011	621.18
431.387	615.31
431.763	640.17
432.138	621.18
432.514	634.29
432.89	622.54
433.265	636.78
433.641	651.01
434.016	668.64
434.392	666.61
434.767	688.98
435.143	655.08
435.518	672.03
435.894	668.64
436.269	674.52
436.644	702.54
437.02	681.75
437.395	690.79
437.77	697.11
438.145	720.84
438.52	718.81
438.895	703.67
439.271	713.16
439.646	708.87
440.021	719.94
440.395	736.44
440.77	730.11
441.145	738.7
441.52	765.14
441.895	750.45
442.27	746.38
442.645	749.99
443.019	756.77
443.394	770.33
443.769	771.24
444.143	762.65
444.518	783.44
444.892	764.23
445.267	775.76
445.641	801.07
446.016	786.6
446.39	804.91
446.764	813.72
447.139	780.05
447.513	809.65
447.887	826.38
448.262	830.9
448.636	841.07
449.01	804.68
449.384	833.83
449.758	819.82
450.132	826.38
450.506	835.42
450.88	846.04
451.254	834.06
451.628	875.64
452.002	886.04
452.376	890.1
452.75	879.71
453.123	862.31
453.497	891.46
453.871	897.34
454.244	898.47
454.618	881.74
454.992	912.25
455.365	932.36
455.739	932.81
456.112	935.75
456.486	928.75
456.859	947.73
457.232	968.75
457.606	946.83
457.979	980.95
458.352	967.84
458.725	1016.88
459.099	998.58
459.472	1013.04
459.845	1011.23
460.218	1038.12
460.591	1008.52
460.964	1040.16
461.337	1070.21
461.71	1087.16
462.083	1102.53
462.456	1091.23
462.829	1098.69
463.201	1088.06
463.574	1122.87
463.947	1129.65
464.32	1151.79
464.692	1154.05
465.065	1142.75
465.438	1181.17
465.81	1182.07
466.183	1211.68
466.555	1214.61
466.928	1241.73
467.3	1232.69
467.672	1243.54
468.045	1274.95
468.417	1267.72
468.789	1272.92
469.161	1299.58
469.534	1321.28
469.906	1316.76
470.278	1333.48
470.65	1370.32
471.022	1392.92
471.394	1399.47
471.766	1454.16
472.138	1439.47
472.51	1458.22
472.882	1468.17
473.253	1517.43
473.625	1514.72
473.997	1523.31
474.369	1578.67
474.74	1580.71
475.112	1624.55
475.484	1655.06
475.855	1653.93
476.227	1665.45
476.598	1721.95
476.97	1734.38
477.341	1795.16
477.713	1769.85
478.084	1827.93
478.455	1869.51
478.827	1903.64
479.198	1942.51
479.569	1949.96
479.94	1993.13
480.311	2021.37
480.682	2065.21
481.053	2067.02
481.424	2101.6
481.795	2156.96
482.166	2200.35
482.537	2159.45
482.908	2265.43
483.279	2293.91
483.65	2332.33
484.021	2382.49
484.391	2409.84
484.762	2444.87
485.133	2486.45
485.503	2490.51
485.874	2560.57
486.244	2601.7
486.615	2638.08
486.985	2650.51
487.356	2705.88
487.726	2684.86
488.097	2770.73
488.467	2789.94
488.837	2860.22
489.207	2914.68
489.578	2948.13
489.948	2970.05
490.318	3037.39
490.688	3035.58
491.058	3093.44
491.428	3141.8
491.798	3159.65
492.168	3225.86
492.538	3213.43
492.908	3261.57
493.278	3272.41
493.648	3327.33
494.017	3381.34
494.387	3383.15
494.757	3410.49
495.126	3483.03
495.496	3475.12
495.866	3530.26
496.235	3578.39
496.605	3610.03
496.974	3595.57
497.344	3641.44
497.713	3633.53
498.082	3684.61
498.452	3732.29
498.821	3733.19
499.19	3744.27
499.559	3822
499.928	3821.78
500.298	3809.8
500.667	3887.31
501.036	3871.95
501.405	3875.79
501.774	3947.65
502.143	3953.98
502.512	4003.24
502.88	4024.48
503.249	4005.05
503.618	4056.8
503.987	4071.49
504.356	4070.13
504.724	4115.56
505.093	4106.52
505.462	4122.79
505.83	4167.76
506.199	4182.67
506.567	4273.07
506.936	4256.57
507.304	4280.3
507.672	4311.71
508.041	4304.25
508.409	4307.87
508.777	4360.97
509.145	4409.11
509.514	4378.83
509.882	4440.97
510.25	4415.21
510.618	4476.9
510.986	4474.19
511.354	4487.3
511.722	4518.26
512.09	4563.23
512.458	4460.18
512.826	4544.24
513.193	4626.28
513.561	4565.26
513.929	4670.57
514.297	4683.68
514.664	4678.7
515.032	4726.61
515.4	4710.57
515.767	4759.15
516.135	4774.97
516.502	4720.06
516.869	4760.74
517.237	4772.04
517.604	4782.88
517.972	4817.23
518.339	4853.62
518.706	4866.04
519.073	4942.65
519.44	4958.47
519.808	4972.03
520.175	4941.97
520.542	5012.03
520.909	4997.34
521.276	4985.59
521.643	5058.36
522.009	5076.43
522.376	5065.81
522.743	5098.81
523.11	5104.23
523.477	5186.26
523.843	5187.84
524.21	5277.33
524.577	5272.36
524.943	5269.42
525.31	5298.35
525.676	5336.09
526.043	5366.37
526.409	5420.38
526.776	5455.41
527.142	5467.38
527.508	5476.65
527.874	5522.07
528.241	5505.35
528.607	5573.6
528.973	5625.35
529.339	5582.18
529.705	5642.3
530.071	5666.02
530.437	5750.31
530.803	5732.24
531.169	5740.37
531.535	5790.54
531.901	5806.13
532.267	5785.79
532.632	5826.25
532.998	5882.29
533.364	5913.02
533.73	5923.64
534.095	5968.61
534.461	5986.92
534.826	5999.12
535.192	6054.94
535.557	6110.98
535.923	6052.23
536.288	6095.84
536.653	6151.66
537.019	6162.51
537.384	6151.89
537.749	6191.66
538.114	6254.48
538.479	6221.94
538.845	6299.68
539.21	6250.19
539.575	6226.01
539.94	6327.47
540.305	6340.13
540.67	6376.06
541.034	6411.54
541.399	6445.44
541.764	6407.92
542.129	6503.06
542.494	6469.39
542.858	6525.66
543.223	6560.01
543.587	6586
543.952	6605.89
544.316	6636.17
544.681	6601.59
545.045	6637.3
545.41	6695.15
545.774	6662.83
546.138	6717.07
546.503	6752.55
546.867	6744.41
547.231	6824.64
547.595	6789.16
547.959	6872.55
548.324	6898.99
548.688	6929.27
549.052	6932.88
549.416	6984.86
549.779	6986.89
550.143	6983.28
550.507	7036.38
550.871	6990.06
551.235	7078.87
551.599	7115.02
551.962	7133.78
552.326	7126.55
552.689	7179.43
553.053	7154.57
553.417	7186.21
553.78	7225.08
554.143	7213.78
554.507	7248.81
554.87	7375.13
555.234	7357.28
555.597	7341.46
555.96	7351.18
556.323	7379.65
556.686	7323.83
557.05	7410.84
557.413	7475.69
557.776	7457.39
558.139	7552.75
558.502	7546.65
558.865	7548.91
559.228	7595.69
559.59	7660.55
559.953	7609.02
560.316	7717.27
560.679	7738.96
561.041	7718.4
561.404	7793.43
561.767	7810.6
562.129	7817.38
562.492	7889.92
562.854	7940.77
563.217	7856.47
563.579	7938.05
563.941	7952.52
564.304	8086.07
564.666	8025.74
565.028	8103.47
565.39	8080.2
565.753	8097.82
566.115	8121.55
566.477	8156.35
566.839	8165.17
567.201	8253.07
567.563	8305.95
567.925	8305.05
568.287	8275.67
568.648	8304.37
569.01	8395.9
569.372	8414.65
569.734	8371.71
570.095	8501.2
570.457	8456.23
570.819	8546.4
571.18	8541.65
571.542	8573.29
571.903	8679.28
572.265	8653.06
572.626	8770.12
572.987	8778.26
573.349	8799.95
573.71	8835.43
574.071	8912.04
574.432	8926.28
574.794	9046.27
575.155	9052.6
575.516	9047.18
575.877	9150.45
576.238	9250.11
576.599	9305.48
576.96	9364.01
577.32	9469.54
577.681	9536.2
578.042	9594.51
578.403	9645.58
578.763	9715.41
579.124	9858.23
579.485	9947.49
579.845	10057.77
580.206	10063.42
580.566	10100.48
580.927	10271.1
581.287	10374.6
581.648	10463.41
582.008	10655.27
582.368	10750.41
582.728	10862.5
583.089	10989.73
583.449	11106.11
583.809	11214.13
584.169	11471.97
584.529	11542.25
584.889	11766.43
585.249	11909.7
585.609	12036.7
585.969	12248.45
586.329	12405.06
586.688	12633.3
587.048	12814.99
587.408	13043
587.768	13263.34
588.127	13436.21
588.487	13600.5
588.846	13920.72
589.206	14053.83
589.565	14227.61
589.925	14532.23
590.284	14704.66
590.643	14919.57
591.003	15272.1
591.362	15563.16
591.721	15714.57
592.08	15949.59
592.44	16234.33
592.799	16469.36
593.158	16658.05
593.517	16976.46
593.876	17193.63
594.235	17420.29
594.593	17654.41
594.952	18069.09
595.311	18210.55
595.67	18521.28
596.029	18916.52
596.387	19168.27
596.746	19399.67
597.104	19631.53
597.463	19852.54
597.822	20202.59
598.18	20413.21
598.538	20652.3
598.897	21010.7
599.255	21057.94
599.613	21564.36
599.972	21711.25
600.33	22066.5
600.688	22273.04
601.046	22548.07
601.404	22846.59
601.762	23112.57
602.12	23413.58
602.478	23737.41
602.836	23917.29
603.194	23939.22
603.552	24349.37
603.91	24522.93
604.268	24806.76
604.625	24979.64
604.983	25298.5
605.341	25467.08
605.698	25687.42
606.056	26063
606.413	26295.76
606.771	26514.29
607.128	26716.54
607.485	26768.75
607.843	26985.69
608.2	27346.58
608.557	27450.31
608.914	27727.14
609.272	28015.27
609.629	28153.34
609.986	28507
610.343	28417.52
610.7	28912.19
611.057	28884.4
611.414	29161.45
611.771	29339.53
612.127	29576.13
612.484	29785.84
612.841	29887.76
613.198	30025.16
613.554	30010.69
613.911	30479.61
614.267	30531.58
614.624	30777
614.98	30958.01
615.337	31202.75
615.693	31262.19
616.05	31245.92
616.406	31509.86
616.762	31608.62
617.118	31694.04
617.475	31832.34
617.831	31995.5
618.187	32233.46
618.543	32322.05
618.899	32604.98
619.255	32636.16
619.611	32685.2
619.967	32985.31
620.323	33162.02
620.678	33094.91
621.034	33068.47
621.39	33230.72
621.746	33222.13
622.101	33642.91
622.457	33463.94
622.812	33719.3
623.168	33896.24
623.523	33884.72
623.879	34133.98
624.234	33985.96
624.589	34137.82
624.945	34161.77
625.3	34334.87
625.655	34481.08
626.01	34406.28
626.365	34563.12
626.72	34628.65
627.075	34513.63
627.43	34780.96
627.785	34815.77
628.14	34616.9
628.495	34760.17
628.85	34809.66
629.205	34843.11
629.559	34961.75
629.914	34831.81
630.269	34993.16
630.623	34972.37
630.978	34932.82
631.332	35294.17
631.687	35258.69
632.041	34965.37
632.396	35124.23
632.75	35035.87
633.104	35287.39
633.459	35058.02
633.813	35037.91
634.167	35181.18
634.521	35149.77
634.875	35254.62
635.229	35121.97
635.583	35177.11
635.937	35120.84
636.291	35079.04
636.645	35190.9
636.999	35148.41
637.352	35293.27
637.706	35097.11
638.06	35350.67
638.413	35121.29
638.767	35185.93
639.121	35124.68
639.474	35019.15
639.828	35012.14
640.181	35255.75
640.534	35202.42
640.888	35060.73
641.241	35100.05
641.594	35026.83
641.947	35209.2
642.301	34980.51
642.654	35032.26
643.007	35178.47
643.36	35094.63
643.713	34963.33
644.066	35156.32
644.419	34925.14
644.771	34747.74
645.124	34390.69
645.477	34522.89
645.83	34316.34
646.182	34069.57
646.535	34043.81
646.888	34158.83
647.24	33884.94
647.593	34164.94
647.945	34037.71
648.298	33878.84
648.65	33914.55
649.002	33750.48
649.355	33995.9
649.707	33860.76
650.059	34071.83
650.411	34340.98
650.763	34491.93
651.115	34723.11
651.467	34656.67
651.819	34748.65
652.171	34698.03
652.523	34566.51
652.875	34734.64
653.227	34585.49
653.578	34780.06
653.93	34484.93
654.282	34485.15
654.633	34359.73
654.985	34417.13
655.337	34457.13
655.688	34544.36
656.039	34658.93
656.391	34283.12
656.742	34445.15
657.094	34444.48
657.445	34470.24
657.796	34480.18
658.147	34360.18
658.498	34304.14
658.849	34367.19
659.2	34365.61
659.551	34303.01
659.902	34372.84
660.253	34432.95
660.604	34434.98
660.955	34224.37
661.306	34453.74
661.656	34301.43
662.007	34322.9
662.358	34218.49
662.708	34269.57
663.059	34274.99
663.409	34084.94
663.76	34385.27
664.11	34235.67
664.461	34250.36
664.811	34354.76
665.161	34251.49
665.511	34278.83
665.862	34249.45
666.212	34453.74
666.562	34429.56
666.912	34315.21
667.262	34281.09
667.612	34269.34
667.962	34289.9
668.312	34200.41
668.662	34409
669.011	34216.23
669.361	34244.48
669.711	34305.72
670.06	34119.74
670.41	34081.32
670.76	33990.25
671.109	34145.5
671.459	34133.07
671.808	34091.04
672.157	34146.18
672.507	33922.68
672.856	33930.59
673.205	34064.82
673.554	34162.9
673.904	33896.02
674.253	34019.4
674.602	33976.92
674.951	33568.57
675.3	33399.76
675.649	33915.22
675.998	33802.01
676.346	33815.34
676.695	33946.41
677.044	33736.92
677.393	33984.15
677.741	33843.59
678.09	33765.17
678.438	33714.1
678.787	33870.03
679.135	33838.16
679.484	33519.3
679.832	33718.39
680.181	33478.85
680.529	33657.6
680.877	33573.54
681.225	33475.69
681.573	33658.73
681.922	33400.66
682.27	33355.92
682.618	33327.44
682.966	33315.47
683.314	33326.09
683.661	33149.82
684.009	33134
684.357	32955.7
684.705	33042.03
685.053	32984.4
685.4	32982.59
685.748	32782.82
686.095	32735.82
686.443	32603.85
686.79	32753.45
687.138	32840.9
687.485	32645.43
687.832	32699.89
688.18	32649.72
688.527	32468.71
688.874	32483.85
689.221	32336.73
689.568	32220.58
689.915	32193.69
690.262	32248.83
690.609	32094.48
690.956	31978.1
691.303	32059
691.65	31838.22
691.997	31834.15
692.344	31696.75
692.69	31618.34
693.037	31600.93
693.383	31416.08
693.73	31573.59
694.077	31317.78
694.423	31319.59
694.769	31308.06
695.116	31203.88
695.462	31157.1
695.808	31001.4
696.155	31036.66
696.501	30761.41
696.847	30840.28
697.193	30650.23
697.539	30807.96
697.885	30586.72
698.231	30452.26
698.577	30282.33
698.923	30366.39
699.269	30265.15
699.614	30195.32
699.96	29952.16
700.306	30019.96
700.651	29846.18
700.997	29755.33
701.342	29782.45
701.688	29806.18
702.033	29677.37
702.379	29619.52
702.724	29569.12
703.069	29707.65
703.415	29331.62
703.76	29274.89
704.105	29327.55
704.45	29211.84
704.795	29154.67
705.14	29023.15
705.485	29096.37
705.83	28759.2
706.175	28846.88
706.52	28792.87
706.865	28719.43
707.209	28564.63
707.554	28448.93
707.899	28618.41
708.243	28359.44
708.588	28329.61
708.932	28144.3
709.277	28135.26
709.621	28151.08
709.966	28042.16
710.31	28066.56
710.654	27925.33
710.998	27895.04
711.342	27960.13
711.687	27774.82
712.031	27803.75
712.375	27641.94
712.719	27727.14
713.063	27546.8
713.407	27636.07
713.75	27553.81
714.094	27438.78
714.438	27287.15
714.782	27409.86
715.125	27278.11
715.469	27334.83
715.812	27122.18
716.156	27086.48
716.499	27198.11
716.843	27142.52
717.186	26935.52
717.53	27013.71
717.873	27000.6
718.216	26945.24
718.559	26775.75
718.902	26690.33
719.246	26667.05
719.589	26521.07
719.932	26525.14
720.275	26472.93
720.617	26533.95
720.96	26476.32
721.303	26453.5
721.646	26434.74
721.989	26263
722.331	26430.45
722.674	26200.85
723.016	26408.75
723.359	26214.86
723.701	26064.58
724.044	25960.86
724.386	25820.07
724.729	26054.64
725.071	25975.55
725.413	25856.23
725.755	25953.63
726.097	25804.93
726.439	25658.04
726.782	25650.81
727.124	25863.23
727.465	25541.88
727.807	25538.72
728.149	25489
728.491	25543.47
728.833	25580.98
729.175	25445.62
729.516	25428.22
729.858	25350.93
730.199	25437.93
730.541	25389.12
730.882	25296.24
731.224	25333.53
731.565	25194.55
731.906	25242.23
732.248	25175.11
732.589	25033.42
732.93	25025.51
733.271	24992.29
733.612	25136.92
733.953	25057.83
734.294	24861.9
734.635	24775.13
734.976	24913.43
735.317	24713.66
735.658	24737.61
735.999	24879.76
736.339	24661.46
736.68	24766.09
737.021	24667.11
737.361	24611.06
737.702	24750.27
738.042	24571.06
738.383	24490.39
738.723	24607.9
739.063	24450.39
739.404	24397.51
739.744	24488.81
740.084	24343.72
740.424	24341.01
740.764	24324.29
741.104	24267.12
741.444	24259.66
741.784	24148.02
742.124	24168.36
742.464	24184.63
742.804	24209.26
743.143	24133.33
743.483	24132.66
743.823	24070.74
744.162	24068.7
744.502	24021.92
744.841	23823.51
745.181	24046.56
745.52	23900.8
745.86	23990.97
746.199	23884.3
746.538	23812.44
746.877	23772.44
747.216	23892.66
747.556	23667.81
747.895	23795.26
748.234	23610.86
748.573	23587.13
748.911	23570.19
749.25	23567.02
749.589	23402.73
749.928	23484.31
750.267	23428.95
750.605	23414.94
750.944	23336.97
751.283	23294.71
751.621	23251.1
751.96	23217.65
752.298	23112.8
752.636	23110.99
752.975	23019.69
753.313	22882.52
753.651	23046.81
753.989	22855.85
754.327	22843.65
754.666	22825.12
755.004	22729.53
755.342	22862.18
755.679	22832.35
756.017	22591
756.355	22736.31
756.693	22509.42
757.031	22638.68
757.368	22456.99
757.706	22482.98
758.044	22473.27
758.381	22412.7
758.719	22260.39
759.056	22378.58
759.394	22260.39
759.731	22127.29
760.068	21987.85
760.405	22072.37
760.743	21922.09
761.08	22006.84
761.417	21878.25
761.754	21865.82
762.091	21755.32
762.428	21717.35
762.765	21610.01
763.102	21578.37
763.438	21487.75
763.775	21378.83
764.112	21310.13
764.449	21408.21
764.785	21258.83
765.122	21193.52
765.458	21197.82
765.795	21114.2
766.131	21039.4
766.467	21005.96
766.804	20968.67
767.14	20761.45
767.476	20793.08
767.812	20593.54
768.148	20747.66
768.485	20643.26
768.821	20504.73
769.157	20474.9
769.492	20479.42
769.828	20379.76
770.164	20242.82
770.5	20233.55
770.836	20124.85
771.171	20022.03
771.507	20020.67
771.842	19915.14
772.178	19881.47
772.513	19798.53
772.849	19692.55
773.184	19579.33
773.519	19594.7
773.855	19529.39
774.19	19473.57
774.525	19320.81
774.86	19368.26
775.195	19360.58
775.53	19224.76
775.865	19159.23
776.2	19038.1
776.535	18973.47
776.87	18977.99
777.205	18775.06
777.539	18723.99
777.874	18717.43
778.209	18567.83
778.543	18554.95
778.878	18453.94
779.212	18491
779.547	18320.15
779.881	18307.27
780.215	18272.02
780.55	18283.32
780.884	18087.84
781.218	18132.14
781.552	18057.56
781.886	17968.52
782.22	17897.34
782.554	17935.08
782.888	17652.83
783.222	17709.32
783.556	17449.89
783.889	17479.05
784.223	17378.71
784.557	17385.04
784.89	17398.6
785.224	17152.95
785.557	17118.15
785.891	17068.21
786.224	17040.19
786.558	17068.66
786.891	16931.94
787.224	16890.36
787.557	16804.04
787.891	16785.96
788.224	16822.11
788.557	16821.66
788.89	16605.17
789.223	16659.18
789.556	16476.81
789.888	16461.22
790.221	16418.96
790.554	16232.98
790.887	16353.43
791.219	16223.71
791.552	16236.37
791.884	16126.54
792.217	16142.13
792.549	16051.51
792.882	15889.26
793.214	15875.92
793.546	15886.09
793.879	15765.42
794.211	15632.54
794.543	15755.02
794.875	15657.85
795.207	15606.55
795.539	15563.62
795.871	15513.9
796.203	15467.8
796.535	15360.91
796.867	15328.59
797.198	15272.32
797.53	15226.22
797.862	15078.88
798.193	15222.61
798.525	15044.31
798.856	15016.96
799.188	14990.52
799.519	14946.01
799.85	14787.59
800.182	14840.47
800.513	14853.58
800.844	14680.02
801.175	14771.32
801.506	14787.37
801.837	14634.38
802.168	14572.91
802.499	14484.1
802.83	14439.35
803.161	14458.79
803.491	14420.14
803.822	14366.13
804.153	14269.64
804.483	14216.08
804.814	14167.95
805.145	14180.38
805.475	14115.97
805.805	14056.54
806.136	14071.23
806.466	14108.06
806.796	14025.35
807.126	13871.23
807.457	13874.62
807.787	13981.96
808.117	13829.42
808.447	13744
808.777	13740.16
809.107	13764.34
809.436	13682.08
809.766	13682.54
810.096	13640.73
810.426	13573.39
810.755	13663.33
811.085	13507.17
811.414	13482.99
811.744	13452.71
812.073	13332.94
812.403	13376.33
812.732	13294.07
813.061	13360.96
813.39	13165.71
813.719	13218.14
814.049	13236.9
814.378	13167.52
814.707	13076.68
815.036	13075.55
815.365	13017.92
815.693	12868.55
816.022	12968.43
816.351	12838.26
816.68	12803.91
817.008	12869.68
817.337	12763.46
817.665	12686.63
817.994	12811.82
818.322	12730.02
818.651	12646.18
818.979	12575.67
819.307	12670.36
819.636	12577.93
819.964	12600.08
820.292	12596.01
820.62	12624.48
820.948	12517.37
821.276	12596.24
821.604	12541.32
821.932	12599.17
822.259	12520.08
822.587	12546.29
822.915	12496.35
823.243	12446.86
823.57	12518.05
823.898	12540.87
824.225	12489.57
824.553	12520.76
824.88	12471.04
825.207	12485.28
825.535	12390.82
825.862	12482.79
826.189	12468.78
826.516	12476.24
826.843	12601.89
827.17	12525.05
827.497	12524.37
827.824	12487.09
828.151	12515.56
828.478	12484.15
828.805	12395.79
829.131	12389.46
829.458	12438.5
829.785	12365.96
830.111	12442.57
830.438	12435.11
830.764	12436.24
831.09	12429.46
831.417	12333.19
831.743	12394.43
832.069	12426.75
832.395	12332.29
832.722	12395.11
833.048	12318.5
833.374	12371.61
833.7	12243.93
834.026	12304.27
834.351	12271.27
834.677	12278.05
835.003	12289.13
835.329	12251.16
835.654	12195.57
835.98	12248.9
836.306	12165.29
836.631	12136.36
836.956	12187.43
837.282	12164.16
837.607	12087.32
837.932	12105.85
838.258	12100.2
838.583	12095.91
838.908	11969.36
839.233	12026.08
839.558	11952.86
839.883	11948.12
840.208	11872.64
840.533	11912.64
840.858	11910.6
841.182	11965.74
841.507	11905.86
841.832	11864.05
842.156	11789.93
842.481	11862.24
842.805	11753.32
843.13	11767.11
843.454	11802.81
843.778	11731.85
844.103	11602.59
844.427	11652.53
844.751	11611.4
845.075	11540.9
845.399	11459.54
845.723	11467.9
846.047	11476.04
846.371	11411.41
846.695	11384.97
847.019	11358.53
847.343	11234.01
847.666	11256.84
847.99	11181.81
848.313	11189.95
848.637	11058.88
848.96	11075.15
849.284	11059.78
849.607	10964.19
849.931	10993.79
850.254	10931.65
850.577	10797.87
850.9	10683.52
851.223	10701.82
851.546	10678.55
851.869	10635.16
852.192	10611.66
852.515	10531.88
852.838	10541.6
853.161	10585.89
853.483	10425.45
853.806	10483.75
854.129	10424.32
854.451	10388.84
854.774	10325.11
855.096	10263.42
855.419	10246.47
855.741	10243.53
856.063	10180.25
856.385	10180.71
856.708	10117.21
857.03	10127.83
857.352	10059.81
857.674	10051.44
857.996	10032.69
858.318	9899.81
858.64	10032.01
858.961	9940.71
859.283	9866.36
859.605	9823.43
859.926	9835.41
860.248	9793.37
860.57	9802.64
860.891	9788.4
861.212	9798.12
861.534	9668.63
861.855	9666.37
862.176	9716.99
862.498	9716.54
862.819	9653.04
863.14	9655.07
863.461	9597.9
863.782	9629.53
864.103	9620.72
864.424	9599.71
864.745	9526.49
865.065	9494.85
865.386	9501.85
865.707	9486.94
866.027	9524.23
866.348	9469.77
866.668	9400.39
866.989	9373.5
867.309	9323.1
867.63	9337.79
867.95	9365.81
868.27	9382.76
868.59	9329.88
868.91	9306.61
869.23	9332.14
869.55	9275.42
869.87	9285.59
870.19	9240.62
870.51	9290.56
870.83	9237.45
871.15	9161.07
871.469	9241.52
871.789	9238.81
872.109	9182.54
872.428	9138.25
872.748	9139.15
873.067	9185.48
873.386	9139.38
873.706	9159.49
874.025	9040.17
874.344	9042.88
874.663	9061.87
874.982	9037.23
875.301	8989.78
875.62	9021.64
875.939	8970.8
876.258	8960.4
876.577	8963.79
876.896	8852.15
877.214	8928.08
877.533	8887.41
877.852	8936.22
878.17	8935.54
878.489	8844.02
878.807	8809.44
879.125	8851.25
879.444	8850.35
879.762	8795.66
880.08	8840.86
880.398	8741.87
880.716	8787.3
881.034	8737.81
881.352	8725.15
881.67	8708.2
881.988	8684.48
882.306	8704.81
882.624	8691.93
882.941	8618.71
883.259	8577.59
883.577	8484.48
883.894	8558.38
884.212	8571.48
884.529	8515.21
884.846	8552.73
885.164	8488.32
885.481	8467.31
885.798	8402.9
886.115	8437.7
886.432	8379.62
886.75	8357.7
887.067	8375.1
887.383	8378.27
887.7	8328.78
888.017	8310.93
888.334	8312.73
888.651	8221.89
888.967	8277.93
889.284	8212.85
889.6	8184.38
889.917	8095.56
890.233	8155.22
890.55	8129.24
890.866	8158.39
891.182	8065.28
891.498	8073.64
891.815	8152.96
892.131	7985.96
892.447	7987.32
892.763	7956.36
893.079	7993.19
893.395	7896.93
893.71	7933.99
894.026	7863.25
894.342	7862.58
894.657	7844.95
894.973	7789.81
895.289	7830.03
895.604	7806.76
895.92	7710.26
896.235	7721.56
896.55	7731.51
896.865	7673.43
897.181	7553.21
897.496	7610.83
897.811	7541.23
898.126	7542.58
898.441	7493.32
898.756	7513.21
899.071	7437.05
899.386	7447.67
899.7	7415.58
900.015	7436.82
900.33	7328.35
900.644	7298.75
900.959	7317.28
901.273	7269.6
901.588	7255.13
901.902	7221.46
902.216	7182.37
902.531	7197.96
902.845	7144.4
903.159	7067.57
903.473	7106.21
903.787	7060.11
904.101	7056.5
904.415	7035.48
904.729	6957.51
905.042	6944.41
905.356	6877.74
905.67	6965.42
905.984	6904.18
906.297	6896.27
906.611	6890.85
906.924	6821.02
907.237	6824.41
907.551	6797.07
907.864	6831.42
908.177	6771.08
908.491	6735.6
908.804	6719.55
909.117	6614.25
909.43	6613.57
909.743	6591.42
910.056	6593
910.368	6556.85
910.681	6549.84
910.994	6516.4
911.307	6438.66
911.619	6411.31
911.932	6447.92
912.244	6327.25
912.557	6367.7
912.869	6314.59
913.181	6319.57
913.494	6324.99
913.806	6213.35
914.118	6276.63
914.43	6231.21
914.742	6209.74
915.054	6136.07
915.366	6170.42
915.678	6143.98
915.99	6080.93
916.302	6067.37
916.613	6029.18
916.925	6006.81
917.236	6000.7
917.548	5954.83
917.859	5957.77
918.171	5880.48
918.482	5876.87
918.794	5875.06
919.105	5832.57
919.416	5771.11
919.727	5788.51
920.038	5734.72
920.349	5770.65
920.66	5718.45
920.971	5699.47
921.282	5641.84
921.593	5594.61
921.903	5608.62
922.214	5649.07
922.525	5621.5
922.835	5545.8
923.146	5507.38
923.456	5498.34
923.767	5452.24
924.077	5449.31
924.387	5467.38
924.697	5426.71
925.008	5449.98
925.318	5398.23
925.628	5376.77
925.938	5313.49
926.248	5248.86
926.558	5300.61
926.867	5213.38
927.177	5265.13
927.487	5167.51
927.796	5160.27
928.106	5134.51
928.416	5173.38
928.725	5176.09
929.034	5144.91
929.344	5108.52
929.653	5072.14
929.962	5061.07
930.271	5028.07
930.581	4972.71
930.89	4977
931.199	4925.48
931.508	4922.31
931.817	4941.3
932.125	4923.44
932.434	4955.31
932.743	4870.56
933.051	4806.16
933.36	4808.42
933.669	4796.67
933.977	4756.22
934.286	4762.32
934.594	4726.16
934.902	4722.77
935.21	4654.98
935.519	4693.85
935.827	4679.83
936.135	4624.02
936.443	4546.05
936.751	4621.31
937.059	4589.89
937.367	4502.66
937.674	4546.5
937.982	4502.66
938.29	4471.25
938.597	4520.74
938.905	4428.32
939.213	4462.44
939.52	4404.81
939.827	4469.9
940.135	4358.94
940.442	4381.76
940.749	4340.18
941.056	4362.1
941.363	4319.17
941.67	4334.53
941.977	4254.76
942.284	4235.33
942.591	4251.82
942.898	4271.94
943.205	4218.83
943.511	4120.53
943.818	4134.09
944.125	4200.3
944.431	4129.57
944.738	4150.13
945.044	4108.32
945.35	4068.33
945.657	4070.36
945.963	4031.04
946.269	4092.05
946.575	4040.76
946.881	4056.57
947.187	3998.27
947.493	3966.18
947.799	3977.03
948.105	3916.69
948.41	3878.27
948.716	3892.28
949.022	3918.05
949.327	3885.73
949.633	3869.01
949.938	3841.21
950.244	3884.15
950.549	3798.95
950.854	3798.05
951.16	3747.88
951.465	3753.98
951.77	3735.45
952.075	3678.5
952.38	3753.53
952.685	3731.61
952.99	3652.29
953.294	3691.16
953.599	3704.27
953.904	3588.56
954.209	3605.96
954.513	3627.21
954.818	3608.45
955.122	3572.75
955.426	3598.06
955.731	3525.51
956.035	3516.7
956.339	3479.19
956.643	3498.85
956.948	3465.18
957.252	3471.28
957.556	3473.31
957.86	3445.74
958.163	3390.6
958.467	3420.43
958.771	3369.81
959.075	3405.74
959.378	3378.85
959.682	3369.59
959.985	3327.1
960.289	3298.85
960.592	3321.68
960.896	3281.68
961.199	3309.7
961.502	3290.94
961.805	3257.27
962.108	3236.03
962.411	3208.46
962.714	3202.36
963.017	3200.1
963.32	3189.25
963.623	3141.8
963.926	3174.11
964.228	3124.85
964.531	3098.41
964.833	3117.16
965.136	3089.82
965.438	3050.95
965.741	3026.32
966.043	3040.1
966.345	3027.67
966.648	3044.62
966.95	3031.97
967.252	3050.05
967.554	3037.17
967.856	2989.03
968.158	2965.98
968.46	2950.61
968.761	2948.81
969.063	2936.83
969.365	2902.03
969.666	2914.68
969.968	2897.96
970.269	2902.25
970.571	2892.54
970.872	2869.49
971.174	2868.36
971.475	2834.01
971.776	2799.43
972.077	2772.09
972.378	2801.47
972.679	2787
972.98	2763.27
973.281	2751.98
973.582	2770.28
973.883	2721.69
974.183	2694.12
974.484	2693.9
974.785	2705.2
975.085	2668.81
975.386	2686.67
975.686	2680.11
975.986	2685.99
976.287	2646.22
976.587	2589.49
976.887	2624.52
977.187	2610.74
977.487	2572.32
977.787	2581.36
978.087	2570.29
978.387	2561.92
978.687	2519.44
978.987	2539.78
979.286	2530.51
979.586	2510.17
979.885	2526.9
980.185	2515.37
980.484	2471.98
980.784	2504.98
981.083	2462.49
981.382	2466.79
981.682	2482.38
981.981	2468.37
982.28	2427.01
982.579	2394.7
982.878	2436.96
983.177	2385.43
983.475	2373
983.774	2358.31
984.073	2353.12
984.372	2321.7
984.67	2335.72
984.969	2343.62
985.267	2324.19
985.566	2295.94
985.864	2315.83
986.162	2304.98
986.461	2300.46
986.759	2300.01
987.057	2255.27
987.355	2256.62
987.653	2225.66
987.951	2234.93
988.249	2219.79
988.547	2195.38
988.844	2205.32
989.142	2189.5
989.44	2193.8
989.737	2187.7
990.035	2181.82
990.332	2159.22
990.63	2149.51
990.927	2147.25
991.224	2140.24
991.521	2127.59
991.819	2090.75
992.116	2076.97
992.413	2084.87
992.71	2064.08
993.006	2067.93
993.303	2036.74
993.6	2039.9
993.897	2062.05
994.193	2057.3
994.49	2036.29
994.787	1984.99
995.083	2009.62
995.379	2017.98
995.676	1995.16
995.972	1970.53
996.268	1965.33
996.565	1944.09
996.861	1951.54
997.157	1941.6
997.453	1948.83
997.749	1902.51
998.044	1913.13
998.34	1916.97
998.636	1903.86
998.932	1900.47
999.227	1852.34
999.523	1863.64
999.818	1875.16
1000.114	1881.04
1000.409	1835.16
1000.704	1814.6
1001	1821.6
1001.295	1795.16
1001.59	1803.75
1001.885	1810.53
1002.18	1756.3
1002.475	1787.48
1002.77	1777.54
1003.065	1740.7
1003.359	1734.83
1003.654	1781.15
1003.949	1718.33
1004.243	1749.97
1004.538	1703.19
1004.832	1714.71
1005.127	1695.05
1005.421	1696.41
1005.715	1668.84
1006.009	1676.52
1006.304	1658.45
1006.598	1669.97
1006.892	1634.49
1007.186	1642.63
1007.48	1613.93
1007.773	1609.41
1008.067	1594.27
1008.361	1577.77
1008.655	1553.14
1008.948	1583.42
1009.242	1529.18
1009.535	1556.98
1009.829	1544.32
1010.122	1552.69
1010.415	1537.54
1010.708	1510.43
1011.001	1498.68
1011.295	1485.79
1011.588	1505
1011.881	1480.37
1012.173	1477.43
1012.466	1482.18
1012.759	1442.86
1013.052	1481.5
1013.344	1460.48
1013.637	1455.51
1013.93	1447.83
1014.222	1425.91
1014.514	1442.86
1014.807	1428.39
1015.099	1403.31
1015.391	1403.99
1015.683	1390.2
1015.976	1381.16
1016.268	1380.71
1016.56	1353.82
1016.851	1361.5
1017.143	1356.53
1017.435	1339.13
1017.727	1333.26
1018.018	1336.19
1018.31	1342.75
1018.602	1297.1
1018.893	1312.47
1019.185	1293.71
1019.476	1281.51
1019.767	1306.36
1020.058	1258.91
1020.35	1279.47
1020.641	1253.26
1020.932	1248.51
1021.223	1237.67
1021.514	1199.7
1021.804	1207.84
1022.095	1236.54
1022.386	1218.68
1022.677	1198.12
1022.967	1200.83
1023.258	1179.59
1023.548	1191.79
1023.839	1152.02
1024.129	1195.86
1024.419	1164.9
1024.709	1138.23
1025	1136.42
1025.29	1128.06
1025.58	1130.78
1025.87	1106.82
1026.16	1120.38
1026.449	1113.37
1026.739	1089.65
1027.029	1114.96
1027.319	1111.57
1027.608	1085.58
1027.898	1100.04
1028.187	1071.79
1028.477	1047.61
1028.766	1061.4
1029.055	1058.01
1029.344	1051.46
1029.634	1034.51
1029.923	1038.8
1030.212	1032.47
1030.501	1007.61
1030.79	1021.4
1031.078	1012.36
1031.367	996.54
1031.656	1005.13
1031.945	992.47
1032.233	981.17
1032.522	982.3
1032.81	980.72
1033.099	970.1
1033.387	953.83
1033.675	942.98
1033.963	957.45
1034.251	932.59
1034.54	952.02
1034.828	957.45
1035.116	911.57
1035.403	925.13
1035.691	930.55
1035.979	930.55
1036.267	900.27
1036.554	889.65
1036.842	903.44
1037.129	878.58
1037.417	900.72
1037.704	886.26
1037.992	849.43
1038.279	866.15
1038.566	853.04
1038.853	853.04
1039.14	853.04
