Data from hue_30_FLMS001491_80.txt Node
Date: Mon Feb 06 15:05:57 GMT 2017
User: dcchb
Spectrometer: FLMS00149
Trigger mode: 0
Integration Time (sec): 2.000000E-2
Scans to average: 10
Electric dark correction enabled: true
Nonlinearity correction enabled: false
Boxcar width: 0
XAxis mode: Wavelengths
Number of Pixels in Spectrum: 2048
>>>>>Begin Spectral Data<<<<<
341.393	-3.52
341.776	-3.52
342.16	-3.52
342.543	-55.72
342.927	-60.46
343.31	-88.49
343.693	-61.82
344.077	-63.18
344.46	-53.23
344.843	-53.01
345.226	-29.5
345.61	-11.88
345.993	-17.75
346.376	0.78
346.759	-5.55
347.142	2.58
347.525	44.84
347.908	66.31
348.291	68.12
348.674	87.78
349.057	113.99
349.44	130.94
349.823	142.24
350.206	178.63
350.588	224.27
350.971	217.95
351.354	232.41
351.737	228.79
352.119	268.11
352.502	285.97
352.884	262.01
353.267	291.62
353.65	281.67
354.032	305.18
354.414	332.07
354.797	313.54
355.179	350.15
355.562	341.11
355.944	330.49
356.326	320.32
356.709	353.76
357.091	332.52
357.473	335.91
357.855	344.27
358.238	368.9
358.62	341.11
359.002	326.42
359.384	352.63
359.766	322.58
360.148	337.49
360.53	367.77
360.912	366.64
361.294	347.21
361.676	346.53
362.057	338.17
362.439	337.72
362.821	346.76
363.203	332.29
363.584	331.84
363.966	327.55
364.348	329.58
364.729	328
365.111	324.84
365.493	353.99
365.874	338.62
366.256	338.85
366.637	326.42
367.019	309.7
367.4	321.45
367.781	314.89
368.163	300.88
368.544	334.1
368.925	327.77
369.306	338.17
369.688	324.16
370.069	326.64
370.45	320.77
370.831	311.28
371.212	316.93
371.593	319.41
371.974	325.29
372.355	326.42
372.736	330.71
373.117	335.91
373.498	348.34
373.879	333.88
374.26	323.25
374.641	330.26
375.021	318.51
375.402	328
375.783	339.07
376.163	333.2
376.544	330.03
376.925	346.98
377.305	342.24
377.686	340.88
378.066	336.59
378.447	343.59
378.827	345.4
379.208	337.72
379.588	341.33
379.968	350.6
380.349	338.85
380.729	340.2
381.109	339.75
381.489	346.76
381.87	335.46
382.25	346.08
382.63	352.86
383.01	372.29
383.39	367.32
383.77	342.69
384.15	334.1
384.53	335.46
384.91	354.89
385.29	343.14
385.67	376.36
386.049	367.32
386.429	358.28
386.809	363.25
387.189	365.51
387.568	363.48
387.948	360.54
388.328	356.25
388.707	358.96
389.087	351.28
389.466	358.28
389.846	363.93
390.225	370.71
390.605	377.26
390.984	385.63
391.363	368
391.743	403.93
392.122	374.33
392.501	361.22
392.881	370.26
393.26	393.08
393.639	372.29
394.018	398.73
394.397	398.73
394.776	384.72
395.155	396.25
395.534	393.99
395.913	377.49
396.292	398.05
396.671	396.92
397.05	411.16
397.429	391.5
397.808	390.6
398.186	393.08
398.565	394.89
398.944	418.84
399.323	412.52
399.701	407.55
400.08	397.6
400.458	406.19
400.837	396.25
401.215	403.25
401.594	391.5
401.972	409.58
402.351	400.77
402.729	402.35
403.107	418.62
403.486	419.07
403.864	437.6
404.242	409.35
404.62	417.49
404.999	410.48
405.377	441.22
405.755	454.78
406.133	449.13
406.511	421.1
406.889	428.56
407.267	453.42
407.645	445.06
408.023	469.92
408.401	440.09
408.779	436.47
409.156	451.84
409.534	471.95
409.912	463.36
410.29	457.94
410.667	447.09
411.045	447.32
411.422	457.71
411.8	442.57
412.178	481.67
412.555	484.15
412.933	465.62
413.31	466.3
413.687	465.62
414.065	486.87
414.442	462.01
414.819	490.48
415.197	507.43
415.574	497.71
415.951	497.49
416.328	507.2
416.705	517.6
417.082	508.33
417.46	512.85
417.837	514.44
418.214	517.6
418.591	514.44
418.967	503.81
419.344	524.83
419.721	491.84
420.098	535.45
420.475	525.96
420.852	546.07
421.228	548.56
421.605	545.4
421.982	519.63
422.358	525.96
422.735	578.16
423.111	533.19
423.488	559.18
423.864	562.12
424.241	569.58
424.617	575
424.994	558.05
425.37	563.93
425.746	588.11
426.123	578.84
426.499	578.16
426.875	560.54
427.251	582.68
427.627	596.92
428.003	619.52
428.379	610.48
428.756	619.74
429.132	616.81
429.507	600.99
429.883	607.77
430.259	629.23
430.635	658.84
431.011	655
431.387	639.4
431.763	666.3
432.138	668.1
432.514	667.2
432.89	657.48
433.265	657.48
433.641	683.47
434.016	690.48
434.392	706.29
434.767	696.58
435.143	680.98
435.518	719.63
435.894	709.68
436.269	725.96
436.644	724.15
437.02	725.96
437.395	755.56
437.77	746.52
438.145	754.88
438.52	744.49
438.895	761.43
439.271	765.28
439.646	744.49
440.021	793.3
440.395	772.73
440.77	770.7
441.145	777.03
441.52	797.37
441.895	806.18
442.27	793.52
442.645	791.26
443.019	802.11
443.394	793.98
443.769	810.02
444.143	807.08
444.518	824.48
444.892	815.22
445.267	832.39
445.641	835.78
446.016	831.26
446.39	847.76
446.764	837.59
447.139	843.69
447.513	858.61
447.887	834.65
448.262	838.49
448.636	851.6
449.01	866.74
449.384	895.22
449.758	890.47
450.132	906.74
450.506	918.04
450.88	897.25
451.254	891.6
451.628	921.43
452.002	921.66
452.376	938.61
452.75	942.9
453.123	939.74
453.497	947.64
453.871	954.42
454.244	959.62
454.618	990.13
454.992	996
455.365	961.88
455.739	1014.99
456.112	1033.74
456.486	1024.7
456.859	1053.63
457.232	1020.86
457.606	1035.1
457.979	1053.4
458.352	1078.49
458.725	1135.44
459.099	1093.63
459.472	1092.05
459.845	1119.62
460.218	1138.83
460.591	1134.31
460.964	1122.33
461.337	1171.82
461.71	1179.05
462.083	1181.99
462.456	1199.84
462.829	1184.02
463.201	1234.64
463.574	1217.92
463.947	1241.87
464.32	1259.27
464.692	1280.74
465.065	1286.39
465.438	1296.79
465.81	1315.09
466.183	1355.09
466.555	1388.99
466.928	1374.75
467.3	1391.02
467.672	1384.24
468.045	1404.13
468.417	1419.95
468.789	1431.02
469.161	1457.46
469.534	1504.01
469.906	1514.41
470.278	1508.08
470.65	1542.43
471.022	1580.4
471.394	1594.18
471.766	1593.05
472.138	1657.23
472.51	1679.6
472.882	1669.43
473.253	1712.14
473.625	1720.51
473.997	1796.44
474.369	1761.18
474.74	1804.12
475.112	1861.07
475.484	1882.54
475.855	1919.6
476.227	1929.31
476.598	2031.01
476.97	2052.47
477.341	2081.63
477.713	2102.42
478.084	2110.78
478.455	2189.19
478.827	2214.96
479.198	2267.38
479.569	2274.84
479.94	2389.41
480.311	2399.36
480.682	2503.76
481.053	2548.96
481.424	2556.42
481.795	2627.83
482.166	2679.12
482.537	2762.06
482.908	2811.1
483.279	2846.8
483.65	2879.12
484.021	2944.65
484.391	3004.54
484.762	3043.18
485.133	3087.7
485.503	3147.36
485.874	3237.3
486.244	3244.53
486.615	3342.16
486.985	3399.11
487.356	3483.85
487.726	3529.95
488.097	3602.04
488.467	3662.15
488.837	3728.81
489.207	3817.17
489.578	3876.61
489.948	3916.38
490.318	4006.1
490.688	4027.79
491.058	4108.01
491.428	4220.78
491.798	4261
492.168	4291.96
492.538	4381.23
492.908	4397.5
493.278	4552.75
493.648	4531.28
494.017	4613.76
494.387	4675
494.757	4735.57
495.126	4772.63
495.496	4790.48
495.866	4864.6
496.235	4987.76
496.605	5003.36
496.974	5103.92
497.344	5130.13
497.713	5183.69
498.082	5212.84
498.452	5290.58
498.821	5325.16
499.19	5341.65
499.559	5411.71
499.928	5458.71
500.298	5460.97
500.667	5537.81
501.036	5582.55
501.405	5664.36
501.774	5665.26
502.143	5726.05
502.512	5792.49
502.88	5853.73
503.249	5804.69
503.618	5904.12
503.987	5905.03
504.356	5987.06
504.724	6018.7
505.093	6043.33
505.462	6056.21
505.83	6118.13
506.199	6193.16
506.567	6252.36
506.936	6289.88
507.304	6295.3
507.672	6361.29
508.041	6368.29
508.409	6412.81
508.777	6392.93
509.145	6507.72
509.514	6519.02
509.882	6536.65
510.25	6589.76
510.618	6611.45
510.986	6684.44
511.354	6689.87
511.722	6789.3
512.09	6803.08
512.458	6766.02
512.826	6893.93
513.193	6944.32
513.561	6921.27
513.929	6960.14
514.297	6929.18
514.664	7057.31
515.032	7049.18
515.4	7138.67
515.767	7142.74
516.135	7168.72
516.502	7103.41
516.869	7237.65
517.237	7258.21
517.604	7247.59
517.972	7362.84
518.339	7358.1
518.706	7353.13
519.073	7434.25
519.44	7410.98
519.808	7561.03
520.175	7581.82
520.542	7580.92
520.909	7604.87
521.276	7547.47
521.643	7626.11
522.009	7730.97
522.376	7803.28
522.743	7825.66
523.11	7889.83
523.477	7955.6
523.843	7932.77
524.21	8057.74
524.577	8105.42
524.943	8137.96
525.31	8123.95
525.676	8179.54
526.043	8263.61
526.409	8247.79
526.776	8447.79
527.142	8398.75
527.508	8379.77
527.874	8466.09
528.241	8581.57
528.607	8581.34
528.973	8697.95
529.339	8611.62
529.705	8750.83
530.071	8746.76
530.437	8871.05
530.803	8845.06
531.169	8902.46
531.535	8961.9
531.901	8890.49
532.267	8982.01
532.632	8989.69
532.998	9044.15
533.364	9103.14
533.73	9155.34
534.095	9260.65
534.461	9260.65
534.826	9278.95
535.192	9346.52
535.557	9351.04
535.923	9404.15
536.288	9414.99
536.653	9510.58
537.019	9490.24
537.384	9589.9
537.749	9604.59
538.114	9531.83
538.479	9644.82
538.845	9703.8
539.21	9699.73
539.575	9705.38
539.94	9804.59
540.305	9784.02
540.67	9814.53
541.034	9817.92
541.399	9941.31
541.764	9973.17
542.129	9973.4
542.494	10021.08
542.858	10043.22
543.223	10057.46
543.587	10164.13
543.952	10127.52
544.316	10269.21
544.681	10269.43
545.045	10299.49
545.41	10427.17
545.774	10460.61
546.138	10399.15
546.503	10430.11
546.867	10487.96
547.231	10595.98
547.595	10558.24
547.959	10617.45
548.324	10671.91
548.688	10715.3
549.052	10747.84
549.416	10728.63
549.779	10808.63
550.143	10761.17
550.507	10890.66
550.871	10884.11
551.235	10949.64
551.599	11056.08
551.962	11013.14
552.326	11095.4
552.689	11170.65
553.053	11058.34
553.417	11098.11
553.78	11270.09
554.143	11205.68
554.507	11242.29
554.87	11349.4
555.234	11413.58
555.597	11318.67
555.96	11409.52
556.323	11498.78
556.686	11518.89
557.05	11507.59
557.413	11572.22
557.776	11611.54
558.139	11684.76
558.502	11615.16
558.865	11729.73
559.228	11713.92
559.59	11821.93
559.953	11872.78
560.316	11919.79
560.679	11954.59
561.041	12010.4
561.404	12023.51
561.767	12063.28
562.129	12109.84
562.492	12127.46
562.854	12189.61
563.217	12206.11
563.579	12254.92
563.941	12323.16
564.304	12321.13
564.666	12407.23
565.028	12413.56
565.39	12496.95
565.753	12526.1
566.115	12565.42
566.477	12714.57
566.839	12698.52
567.201	12748.24
567.563	12761.35
567.925	12781.68
568.287	12813.77
568.648	12925.86
569.01	12973.32
569.372	13057.83
569.734	13088.12
570.095	13197.27
570.457	13218.51
570.819	13162.69
571.18	13226.64
571.542	13303.93
571.903	13317.71
572.265	13415.34
572.626	13436.36
572.987	13533.98
573.349	13600.87
573.71	13725.61
574.071	13805.16
574.432	13835.22
574.794	13979.39
575.155	13962.67
575.516	14006.06
575.877	14103.91
576.238	14219.61
576.599	14275.2
576.96	14301.87
577.32	14506.16
577.681	14539.15
578.042	14712.03
578.403	14846.26
578.763	14852.82
579.124	14941.4
579.485	15120.83
579.845	15352.69
580.206	15402.63
580.566	15550.65
580.927	15652.57
581.287	15886.23
581.648	16001.26
582.008	16221.82
582.368	16269.5
582.728	16476.95
583.089	16659.1
583.449	16930.95
583.809	17155.81
584.169	17248.01
584.529	17509.69
584.889	17846.18
585.249	17899.52
585.609	18047.76
585.969	18421.76
586.329	18579.05
586.688	18879.83
587.048	19052.25
587.408	19237.56
587.768	19505.8
588.127	19766.81
588.487	19950.53
588.846	20296.06
589.206	20449.05
589.565	20648.37
589.925	21039.09
590.284	21336.71
590.643	21578.29
591.003	21900.54
591.362	22160.42
591.721	22400.19
592.08	22763.12
592.44	23020.06
592.799	23252.37
593.158	23487.39
593.517	23870.66
593.876	24261.16
594.235	24335.28
594.593	24594.48
594.952	25107.91
595.311	25151.3
595.67	25496.15
596.029	26001.45
596.387	26194.66
596.746	26524.15
597.104	26713.52
597.463	27017.92
597.822	27325.71
598.18	27503.78
598.538	27832.59
598.897	28139.7
599.255	28233.93
599.613	28826.01
599.972	29032.1
600.33	29303.96
600.688	29435.71
601.046	29835.7
601.404	30218.29
601.762	30272.98
602.12	30684.26
602.478	31025.27
602.836	31341.65
603.194	31273.85
603.552	31624.8
603.91	31838.58
604.268	32134.85
604.625	32390.21
604.983	32743.64
605.341	32685.34
605.698	32979.12
606.056	33383.63
606.413	33477.18
606.771	33790.17
607.128	33971.18
607.485	34031.52
607.843	34322.81
608.2	34677.15
608.557	35018.16
608.914	35031.27
609.272	35421.77
609.629	35533.18
609.986	35784.02
610.343	35778.14
610.7	36262.65
611.057	36296.09
611.414	36578.12
611.771	36739.02
612.127	36903.31
612.484	37055.4
612.841	37234.37
613.198	37221.95
613.554	37377.42
613.911	37809.05
614.267	37880.91
614.624	38004.98
614.98	38156.61
615.337	38525.19
615.693	38393.21
616.05	38552.08
616.406	38792.07
616.762	38888.57
617.118	39047.66
617.475	38954.1
617.831	39310.25
618.187	39449.91
618.543	39537.82
618.899	39906.17
619.255	39916.56
619.611	39942.78
619.967	40065.94
620.323	40310.68
620.678	40376.21
621.034	40260.51
621.39	40388.19
621.746	40338.02
622.101	41000.38
622.457	40716.77
622.812	40930.32
623.168	41068.4
623.523	41032.47
623.879	41225
624.234	41009.64
624.589	41316.3
624.945	41297.09
625.3	41529.4
625.655	41539.12
626.01	41479.01
626.365	41621.6
626.72	41624.32
627.075	41607.59
627.43	41648.04
627.785	41595.39
628.14	41751.54
628.495	41791.77
628.85	41915.38
629.205	41748.15
629.559	42140.01
629.914	41886.68
630.269	41955.83
630.623	41972.33
630.978	41876.06
631.332	42055.94
631.687	42205.77
632.041	41959
632.396	42291.19
632.75	42029.28
633.104	42072.44
633.459	42006
633.813	41978.66
634.167	41948.15
634.521	41962.39
634.875	42190.18
635.229	42086.22
635.583	41984.31
635.937	41932.1
636.291	41963.97
636.645	41977.53
636.999	41886.91
637.352	42077.18
637.706	41719.68
638.06	41916.28
638.413	41833.35
638.767	41828.6
639.121	42059.11
639.474	41682.17
639.828	41804.65
640.181	41960.13
640.534	41916.74
640.888	41622.28
641.241	41535.05
641.594	41798.1
641.947	41819.34
642.301	41777.08
642.654	41820.24
643.007	41719.68
643.36	41740.02
643.713	41748.83
644.066	41663.64
644.419	41502.06
644.771	41332.12
645.124	40941.85
645.477	40835.64
645.83	40731.46
646.182	40642.19
646.535	40430.45
646.888	40478.81
647.24	40308.19
647.593	40532.14
647.945	40513.16
648.298	40218.93
648.65	40327.17
649.002	40103.45
649.355	40403.1
649.707	40252.83
650.059	40399.04
650.411	40832.7
650.763	41067.49
651.115	41354.72
651.467	41216.87
651.819	41178.45
652.171	40999.25
652.523	41005.35
652.875	41137.32
653.227	40916.99
653.578	41009.42
653.93	41073.14
654.282	40989.76
654.633	40766.71
654.985	40848.52
655.337	40845.8
655.688	40801.51
656.039	40948.17
656.391	40673.83
656.742	40753.38
657.094	40776.43
657.445	40787.73
657.796	40645.13
658.147	40728.97
658.498	40658.01
658.849	40737.11
659.2	40628.41
659.551	40467.28
659.902	40679.71
660.253	40668.18
660.604	40722.42
660.955	40597.22
661.306	40655.53
661.656	40636.09
662.007	40673.61
662.358	40709.76
662.708	40553.38
663.059	40582.99
663.409	40398.36
663.76	40758.8
664.11	40590.22
664.461	40699.14
664.811	40655.53
665.161	40497.79
665.511	40457.79
665.862	40592.7
666.212	40706.6
666.562	40661.63
666.912	40515.19
667.262	40514.51
667.612	40510.45
667.962	40549.77
668.312	40512.93
668.662	40559.03
669.011	40486.94
669.361	40387.96
669.711	40381.64
670.06	40325.59
670.41	40318.81
670.76	40258.48
671.109	40417.34
671.459	40391.81
671.808	40252.83
672.157	40397.68
672.507	40182.09
672.856	40121.53
673.205	40166.95
673.554	40248.31
673.904	40152.49
674.253	40345.93
674.602	40201.53
674.951	39693.74
675.3	39529.91
675.649	40078.59
675.998	40108.87
676.346	40201.98
676.695	40233.84
677.044	39881.08
677.393	40119.72
677.741	40074.3
678.09	39945.49
678.438	39939.84
678.787	40090.57
679.135	39905.04
679.484	39739.62
679.832	39792.95
680.181	39593.86
680.529	39837.7
680.877	39539.85
681.225	39620.75
681.573	39752.73
681.922	39438.38
682.27	39318.39
682.618	39304.6
682.966	39282.68
683.314	39341.21
683.661	39290.82
684.009	39039.75
684.357	38936.48
684.705	38905.52
685.053	39040.2
685.4	39022.12
685.748	38817.16
686.095	38683.15
686.443	38593.66
686.79	38514.34
687.138	38606.77
687.485	38602.47
687.832	38494.91
688.18	38580.1
688.527	38400.67
688.874	38265.31
689.221	38271.86
689.568	38099.89
689.915	38040
690.262	38133.79
690.609	37904.64
690.956	37908.71
691.303	37706.68
691.65	37565.21
691.997	37597.3
692.344	37386.23
692.69	37306.91
693.037	37389.85
693.383	37087.03
693.73	37387.36
694.077	36882.52
694.423	37092.68
694.769	36896.53
695.116	36888.17
695.462	36717.1
695.808	36509.65
696.155	36781.05
696.501	36372.25
696.847	36516.43
697.193	36220.16
697.539	36345.81
697.885	36097.23
698.231	35993.5
698.577	35898.82
698.923	35924.35
699.269	35730.01
699.614	35511.26
699.96	35590.8
700.306	35502.44
700.651	35264.03
700.997	35193.07
701.342	35276.69
701.688	35158.04
702.033	34960.08
702.379	34992.4
702.724	34989.91
703.069	34944.94
703.415	34591.51
703.76	34661.11
704.105	34604.61
704.45	34501.56
704.795	34320.33
705.14	34239.65
705.485	34174.57
705.83	34077.85
706.175	34234.45
706.52	33971.64
706.865	33879.21
707.209	33780.91
707.554	33710.62
707.899	33766.89
708.243	33718.76
708.588	33585.43
708.932	33352.89
709.277	33386.79
709.621	33285.1
709.966	33194.48
710.31	33183.63
710.654	32940.7
710.998	32864.55
711.342	33031.55
711.687	32907.93
712.031	32802.17
712.375	32597.43
712.719	32709.75
713.063	32597.66
713.407	32774.38
713.75	32554.72
714.094	32518.79
714.438	32323.77
714.782	32317.89
715.125	32114.51
715.469	32178.24
715.812	32078.35
716.156	31894.63
716.499	32013.49
716.843	32006.49
717.186	31702.77
717.53	31882.65
717.873	31851.46
718.216	31715.2
718.559	31687.63
718.902	31436.56
719.246	31600.17
719.589	31397.92
719.932	31347.07
720.275	31290.58
720.617	31288.77
720.96	31196.57
721.303	31210.35
721.646	31114.76
721.989	31112.28
722.331	30989.34
722.674	31002.67
723.016	30959.51
723.359	30892.17
723.701	30970.13
724.044	30640.2
724.386	30584.38
724.729	30716.13
725.071	30664.15
725.413	30542.35
725.755	30550.71
726.097	30552.52
726.439	30372.41
726.782	30370.37
727.124	30409.47
727.465	30212.86
727.807	30285.18
728.149	30214.9
728.491	30207.89
728.833	30132.19
729.175	30025.75
729.516	30016.03
729.858	30014.45
730.199	29968.8
730.541	29707.57
730.882	29890.61
731.224	30055.13
731.565	29752.54
731.906	29724.29
732.248	29755.93
732.589	29569.72
732.93	29427.8
733.271	29563.39
733.612	29595.93
733.953	29530.85
734.294	29238.43
734.635	29416.27
734.976	29422.38
735.317	29106.68
735.658	29170.86
735.999	29154.36
736.339	29108.03
736.68	29221.03
737.021	29066
737.361	28897.42
737.702	29003.4
738.042	28902.39
738.383	28959.56
738.723	29030.97
739.063	28793.47
739.404	28913.01
739.744	28782.84
740.084	28518.22
740.424	28801.38
740.764	28662.62
741.104	28762.96
741.444	28465.57
741.784	28535.62
742.124	28520.48
742.464	28392.8
742.804	28383.53
743.143	28377.88
743.483	28405
743.823	28020.83
744.162	28170.43
744.502	28290.88
744.841	28021.28
745.181	28217.66
745.52	28052.47
745.86	28204.1
746.199	28069.64
746.538	27962.08
746.877	27991.45
747.216	27981.51
747.556	27876.2
747.895	27894.28
748.234	27838.69
748.573	27678.02
748.911	27710.33
749.25	27742.42
749.589	27455.65
749.928	27650.67
750.267	27550.56
750.605	27520.73
750.944	27402.99
751.283	27469.66
751.621	27548.98
751.96	27301.53
752.298	27201.87
752.636	27266.27
752.975	27031.7
753.313	26992.38
753.651	27159.16
753.989	27023.8
754.327	26908.77
754.666	26835.78
755.004	26802.78
755.342	26933.4
755.679	26941.54
756.017	26721.66
756.355	26777.93
756.693	26526.18
757.031	26649.12
757.368	26449.35
757.706	26458.16
758.044	26422.68
758.381	26309.24
758.719	26312.4
759.056	26283.7
759.394	26089.81
759.731	25972.3
760.068	26020.66
760.405	25991.51
760.743	25779.76
761.08	25777.27
761.417	25692.08
761.754	25631.74
762.091	25572.31
762.428	25577.96
762.765	25350.39
763.102	25455.47
763.438	25314.24
763.775	25208.25
764.112	25257.97
764.449	25231.98
764.785	25075.82
765.122	24955.83
765.458	24820.01
765.795	24766.23
766.131	24692.33
766.467	24610.98
766.804	24495.27
767.14	24360.59
767.476	24371.66
767.812	24333.47
768.148	24418.67
768.485	24185.23
768.821	24078.56
769.157	24093.48
769.492	24014.38
769.828	23975.51
770.164	23768.06
770.5	23727.84
770.836	23646.03
771.171	23587.73
771.507	23498.92
771.842	23268.87
772.178	23367.39
772.513	23224.35
772.849	23185.03
773.184	23103.45
773.519	23140.51
773.855	22984.81
774.19	22903.9
774.525	22841.31
774.86	22751.14
775.195	22830.46
775.53	22543.69
775.865	22521.99
776.2	22399.28
776.535	22147.31
776.87	22294.88
777.205	22149.35
777.539	21965.85
777.874	22066.64
778.209	21912.07
778.543	21835.68
778.878	21640.21
779.212	21732.41
779.547	21648.8
779.881	21580.1
780.215	21388.46
780.55	21467.78
780.884	21292.19
781.218	21220.56
781.552	21244.74
781.886	21155.02
782.22	20991.86
782.554	20983.95
782.888	20802.26
783.222	20629.39
783.556	20641.14
783.889	20532.67
784.223	20466
784.557	20389.39
784.89	20451.99
785.224	20344.2
785.557	20141.72
785.891	20177.87
786.224	20113.92
786.558	20044.77
786.891	19930.42
787.224	19781.95
787.557	19720.94
787.891	19715.74
788.224	19733.14
788.557	19607.27
788.89	19523.2
789.223	19577.44
789.556	19402.3
789.888	19305.58
790.221	19228.07
790.554	19019.94
790.887	19102.42
791.219	19089.31
791.552	19094.29
791.884	18906.95
792.217	18872.37
792.549	18739.49
792.882	18710.79
793.214	18612.49
793.546	18577.24
793.879	18489.1
794.211	18418.15
794.543	18476.45
794.875	18392.38
795.207	18445.04
795.539	18299.05
795.871	18240.07
796.203	18181.54
796.535	17945.39
796.867	17987.42
797.198	17974.77
797.53	17956.01
797.862	17739.97
798.193	17824.26
798.525	17738.16
798.856	17732.97
799.188	17568.45
799.519	17608.9
799.85	17460.66
800.182	17482.35
800.513	17379.3
800.844	17230.15
801.175	17317.16
801.506	17324.16
801.837	17175.92
802.168	17220.21
802.499	17097.95
802.83	17006.21
803.161	16962.59
803.491	16978.41
803.822	16961.46
804.153	16841.92
804.483	16718.76
804.814	16612.09
805.145	16611.19
805.475	16604.63
805.805	16568.02
806.136	16583.17
806.466	16549.04
806.796	16472.66
807.126	16319.22
807.457	16312.44
807.787	16245.32
808.117	16232.67
808.447	16143.4
808.777	16149.96
809.107	16054.59
809.436	16101.82
809.766	16063.41
810.096	16001.49
810.426	15958.32
810.755	15972.56
811.085	15875.61
811.414	15841.26
811.744	15712.23
812.073	15749.52
812.403	15709.06
812.732	15551.33
813.061	15639.01
813.39	15518.56
813.719	15522.63
814.049	15545.23
814.378	15429.07
814.707	15361.95
815.036	15294.39
815.365	15332.13
815.693	15144.33
816.022	15140.72
816.351	15054.84
816.68	15042.64
817.008	15181.17
817.337	15014.85
817.665	14912.7
817.994	14930.55
818.322	14954.28
818.651	14886.26
818.979	14773.72
819.307	14865.92
819.636	14930.78
819.964	14680.62
820.292	14783.89
820.62	14692.59
820.948	14700.28
821.276	14784.79
821.604	14705.93
821.932	14633.39
822.259	14678.36
822.587	14648.3
822.915	14594.52
823.243	14648.53
823.57	14579.15
823.898	14652.59
824.225	14533.05
824.553	14574.18
824.88	14598.13
825.207	14725.14
825.535	14531.47
825.862	14597.23
826.189	14565.82
826.516	14651.01
826.843	14679.03
827.17	14684.23
827.497	14603.1
827.824	14606.49
828.151	14649.21
828.478	14592.03
828.805	14649.66
829.131	14572.15
829.458	14540.73
829.785	14534.41
830.111	14466.39
830.438	14559.49
830.764	14533.73
831.09	14556.1
831.417	14462.54
831.743	14592.94
832.069	14489.66
832.395	14423.9
832.722	14497.34
833.048	14452.83
833.374	14469.32
833.7	14329.67
834.026	14314.52
834.351	14454.18
834.677	14467.74
835.003	14432.71
835.329	14380.74
835.654	14303
835.98	14342.77
836.306	14317.01
836.631	14235.2
836.956	14276.56
837.282	14333.96
837.607	14238.37
837.932	14251.48
838.258	14187.75
838.583	14233.4
838.908	14093.51
839.233	14180.74
839.558	14138.94
839.883	14034.98
840.208	13932.39
840.533	14116.34
840.858	13990.92
841.182	14016.23
841.507	13951.82
841.832	13879.06
842.156	13901.2
842.481	13843.35
842.805	13839.28
843.13	13781.21
843.454	13727.87
843.778	13693.52
844.103	13669.34
844.427	13686.52
844.751	13666.86
845.075	13638.61
845.399	13478.61
845.723	13510.48
846.047	13578.05
846.371	13412.63
846.695	13427.77
847.019	13353.42
847.343	13272.97
847.666	13174.67
847.99	13075.01
848.313	13130.6
848.637	13018.29
848.96	12999.08
849.284	12953.43
849.607	12968.57
849.931	12824.85
850.254	12745.53
850.577	12653.78
850.9	12579.2
851.223	12524.52
851.546	12535.36
851.869	12431.64
852.192	12559.09
852.515	12279.32
852.838	12358.87
853.161	12291.08
853.483	12217.4
853.806	12218.31
854.129	12147.8
854.451	12115.26
854.774	12139.21
855.096	12060.57
855.419	12032.55
855.741	11948.03
856.063	11868.49
856.385	11842.73
856.708	11831.43
857.03	11859.22
857.352	11853.57
857.674	11768.83
857.996	11762.5
858.318	11634.82
858.64	11663.75
858.961	11579
859.283	11604.77
859.605	11526.58
859.926	11533.58
860.248	11448.16
860.57	11440.93
860.891	11416.07
861.212	11410.65
861.534	11340.14
861.855	11388.5
862.176	11296.3
862.498	11341.5
862.819	11297.2
863.14	11290.88
863.461	11183.31
863.782	11183.76
864.103	11194.38
864.424	11174.72
864.745	11256.3
865.065	11106.47
865.386	11057.21
865.707	11111.22
866.027	11064.89
866.348	11068.73
866.668	11052.46
866.989	10954.84
867.309	10957.55
867.63	10963.43
867.95	10977.21
868.27	10909.42
868.59	10960.94
868.91	10834.84
869.23	10957.78
869.55	10859.7
869.87	10900.38
870.19	10824.9
870.51	10828.06
870.83	10853.82
871.15	10747.39
871.469	10717.78
871.789	10838.68
872.109	10737.9
872.428	10674.85
872.748	10683.43
873.067	10659.93
873.386	10677.33
873.706	10675.75
874.025	10643.89
874.344	10572.25
874.663	10560.5
874.982	10637.56
875.301	10567.5
875.62	10539.03
875.939	10511.23
876.258	10443.89
876.577	10391.92
876.896	10490.9
877.214	10390.56
877.533	10431.69
877.852	10379.71
878.17	10375.42
878.489	10381.97
878.807	10357.79
879.125	10255.87
879.444	10323.67
879.762	10313.5
880.08	10238.93
880.398	10224.46
880.716	10254.07
881.034	10193.28
881.352	10183.79
881.67	10129.32
881.988	10140.62
882.306	10120.51
882.624	10075.77
882.941	10080.29
883.259	10067.63
883.577	10060.4
883.894	10016.78
884.212	10011.36
884.529	9944.47
884.846	9992.38
885.164	9970.46
885.481	9845.04
885.798	9870.12
886.115	9805.49
886.432	9840.52
886.75	9768.2
887.067	9778.82
887.383	9714.19
887.7	9751.71
888.017	9719.84
888.334	9754.19
888.651	9680.07
888.967	9612.05
889.284	9623.12
889.6	9536.12
889.917	9529.34
890.233	9525.5
890.55	9496.12
890.866	9530.24
891.182	9444.37
891.498	9389.23
891.815	9376.35
892.131	9359.4
892.447	9338.38
892.763	9259.06
893.079	9271.95
893.395	9219.07
893.71	9188.11
894.026	9168.45
894.342	9203.02
894.657	9109.92
894.973	9120.31
895.289	9104.04
895.604	9061.1
895.92	8964.38
896.235	9044.61
896.55	8984.72
896.865	8914.44
897.181	8949.24
897.496	8970.26
897.811	8843.93
898.126	8877.61
898.441	8730.72
898.756	8741.11
899.071	8733.65
899.386	8767.33
899.7	8620.44
900.015	8640.78
900.33	8520.78
900.644	8500.44
900.959	8587.67
901.273	8516.94
901.588	8487.79
901.902	8453.21
902.216	8414.11
902.531	8392.42
902.845	8409.6
903.159	8299.09
903.473	8298.41
903.787	8237.62
904.101	8205.76
904.415	8202.6
904.729	8140.68
905.042	8143.16
905.356	8132.54
905.67	8127.79
905.984	8074.46
906.297	8102.71
906.611	7997.4
906.924	8009.83
907.237	7919.44
907.551	7941.13
907.864	7929.83
908.177	7881.47
908.491	7824.3
908.804	7907.69
909.117	7776.17
909.43	7754.25
909.743	7708.82
910.056	7690.74
910.368	7659.33
910.681	7588.6
910.994	7574.14
911.307	7553.12
911.619	7485.55
911.932	7472.9
912.244	7379.11
912.557	7484.65
912.869	7388.61
913.181	7352.9
913.494	7340.47
913.806	7302.73
914.118	7264.09
914.43	7200.81
914.742	7218.21
915.054	7226.35
915.366	7095.96
915.678	7111.1
915.99	7064.55
916.302	7003.08
916.613	6993.14
916.925	6988.62
917.236	6944.32
917.548	6960.14
917.859	6955.62
918.171	6864.78
918.482	6867.94
918.794	6792.01
919.105	6789.3
919.416	6803.31
919.727	6699.13
920.038	6760.83
920.349	6685.35
920.66	6610.77
920.971	6638.57
921.282	6678.57
921.593	6552.02
921.903	6525.58
922.214	6559.25
922.525	6546.59
922.835	6441.74
923.146	6452.36
923.456	6390.21
923.767	6342.76
924.077	6375.3
924.387	6289.43
924.697	6301.18
925.008	6284.91
925.318	6239.26
925.628	6286.26
925.938	6235.19
926.248	6166.94
926.558	6136.89
926.867	6143.89
927.177	6103.67
927.487	6106.15
927.796	6048.75
928.106	6003.78
928.416	6011.01
928.725	6013.73
929.034	5973.95
929.344	5948.19
929.653	5894.18
929.962	5895.54
930.271	5845.14
930.581	5832.49
930.89	5751.36
931.199	5742.09
931.508	5742.55
931.817	5740.29
932.125	5697.8
932.434	5643.57
932.743	5618.26
933.051	5585.26
933.36	5626.17
933.669	5593.4
933.977	5546.85
934.286	5537.81
934.594	5508.2
934.902	5501.2
935.21	5452.61
935.519	5444.02
935.827	5424.81
936.135	5389.11
936.443	5379.84
936.751	5319.73
937.059	5297.36
937.367	5271.37
937.674	5252.16
937.982	5248.1
938.29	5263.01
938.597	5224.82
938.905	5161.32
939.213	5162.67
939.52	5107.99
939.827	5096.24
940.135	5049.91
940.442	5029.35
940.749	5043.36
941.056	5025.96
941.363	4984.83
941.67	4985.5
941.977	4953.64
942.284	4892.85
942.591	4967.88
942.898	4878.61
943.205	4871.16
943.511	4846.07
943.818	4780.31
944.125	4781.22
944.431	4807.2
944.738	4788
945.044	4791.39
945.35	4712.74
945.657	4714.33
945.963	4742.35
946.269	4633.2
946.575	4675
946.881	4630.03
947.187	4633.42
947.493	4546.65
947.799	4585.06
948.105	4545.52
948.41	4536.25
948.716	4534.89
949.022	4510.71
949.327	4467.1
949.633	4392.98
949.938	4418.29
950.244	4428.91
950.549	4358.4
950.854	4362.7
951.16	4378.51
951.465	4319.76
951.77	4295.13
952.075	4288.57
952.38	4287.67
952.685	4246.31
952.99	4207.22
953.294	4220.78
953.599	4186.66
953.904	4168.58
954.209	4167.9
954.513	4201.12
954.818	4117.5
955.122	4101.91
955.426	4084.74
955.731	4067.11
956.035	4041.35
956.339	4070.27
956.643	4075.92
956.948	3984.17
957.252	3985.08
957.556	3987.56
957.86	3963.38
958.163	3929.94
958.467	3894.23
958.771	3924.29
959.075	3915.25
959.378	3893.56
959.682	3856.49
959.985	3821.69
960.289	3809.49
960.592	3789.83
960.896	3807.23
961.199	3783.73
961.502	3784.63
961.805	3708.25
962.108	3746.89
962.411	3728.81
962.714	3699.66
963.017	3684.75
963.32	3680.45
963.623	3658.31
963.926	3670.51
964.228	3651.08
964.531	3613.79
964.833	3565.43
965.136	3554.81
965.438	3529.5
965.741	3540.8
966.043	3528.59
966.345	3501.25
966.648	3475.04
966.95	3441.14
967.252	3425.55
967.554	3453.79
967.856	3453.79
968.158	3401.14
968.46	3357.07
968.761	3402.04
969.063	3395.72
969.365	3376.96
969.666	3310.75
969.968	3315.04
970.269	3286.34
970.571	3290.41
970.872	3283.85
971.174	3321.14
971.475	3275.49
971.776	3230.52
972.077	3231.2
972.378	3269.62
972.679	3210.18
972.98	3230.3
973.281	3162.5
973.582	3176.06
973.883	3130.41
974.183	3146
974.484	3111.2
974.785	3133.35
975.085	3076.85
975.386	3104.2
975.686	3051.09
975.986	3000.47
976.287	3038.89
976.587	2979.91
976.887	3058.55
977.187	3001.83
977.487	2994.6
977.787	2976.07
978.087	2957.99
978.387	2945.78
978.687	2937.2
978.987	2933.13
979.286	2926.8
979.586	2909.17
979.885	2905.56
980.185	2819.91
980.484	2850.42
980.784	2839.8
981.083	2855.62
981.382	2809.97
981.682	2781.27
981.981	2755.73
982.28	2786.69
982.579	2760.93
982.878	2768.84
983.177	2730.87
983.475	2736.75
983.774	2707.6
984.073	2696.98
984.372	2675.73
984.67	2685
984.969	2693.14
985.267	2673.7
985.566	2661.95
985.864	2637.54
986.162	2613.59
986.461	2596.87
986.759	2589.41
987.057	2573.82
987.355	2567.26
987.653	2550.31
987.951	2541.5
988.249	2556.42
988.547	2565.23
988.844	2517.55
989.142	2537.21
989.44	2481.16
989.737	2485.01
990.035	2472.35
990.332	2475.51
990.63	2485.68
990.927	2416.98
991.224	2435.52
991.521	2412.24
991.819	2387.83
992.116	2381.28
992.413	2421.5
992.71	2361.39
993.006	2357.33
993.303	2326.37
993.6	2326.59
993.897	2343.09
994.193	2338.12
994.49	2293.82
994.787	2292.69
995.083	2271
995.379	2283.2
995.676	2264.45
995.972	2276.88
996.268	2238.46
996.565	2238.68
996.861	2217.44
997.157	2186.71
997.453	2174.5
997.749	2189.42
998.044	2149.19
998.34	2178.12
998.636	2175.63
998.932	2146.03
999.227	2112.13
999.523	2127.73
999.818	2097.22
1000.114	2081.17
1000.409	2107.16
1000.704	2064.9
1001	2080.04
1001.295	2054.73
1001.59	2050.67
1001.885	2046.6
1002.18	2030.78
1002.475	2001.18
1002.77	1990.33
1003.065	1974.96
1003.359	1994.17
1003.654	1953.04
1003.949	1948.75
1004.243	1944.23
1004.538	1937
1004.832	1942.87
1005.127	1903.78
1005.421	1902.65
1005.715	1906.72
1006.009	1902.65
1006.304	1903.55
1006.598	1884.34
1006.892	1863.55
1007.186	1863.55
1007.48	1827.4
1007.773	1854.74
1008.067	1803.44
1008.361	1808.64
1008.655	1773.39
1008.948	1788.53
1009.242	1760.05
1009.535	1761.86
1009.829	1774.06
1010.122	1760.5
1010.415	1722.77
1010.708	1711.69
1011.001	1720.28
1011.295	1696.55
1011.588	1690.45
1011.881	1646.84
1012.173	1682.09
1012.466	1673.73
1012.759	1645.93
1013.052	1660.17
1013.344	1660.62
1013.637	1634.41
1013.93	1635.08
1014.222	1595.54
1014.514	1611.13
1014.807	1577.46
1015.099	1588.08
1015.391	1575.88
1015.683	1567.97
1015.976	1595.09
1016.268	1563.67
1016.56	1521.64
1016.851	1568.87
1017.143	1525.71
1017.435	1508.99
1017.727	1504.47
1018.018	1517.12
1018.31	1519.15
1018.602	1480.96
1018.893	1480.96
1019.185	1459.27
1019.476	1459.04
1019.767	1435.77
1020.058	1426.05
1020.35	1453.17
1020.641	1391.93
1020.932	1384.02
1021.223	1395.77
1021.514	1407.52
1021.804	1347.18
1022.095	1370.68
1022.386	1339.27
1022.677	1345.37
1022.967	1331.59
1023.258	1342.66
1023.548	1311.93
1023.839	1314.64
1024.129	1311.7
1024.419	1299.73
1024.709	1296.79
1025	1304.25
1025.29	1291.59
1025.58	1267.86
1025.87	1254.76
1026.16	1272.16
1026.449	1249.33
1026.739	1254.08
1027.029	1241.87
1027.319	1210.69
1027.608	1231.48
1027.898	1213.17
1028.187	1182.44
1028.477	1196
1028.766	1168.2
1029.055	1180.41
1029.344	1184.7
1029.634	1158.03
1029.923	1137.02
1030.212	1135.89
1030.501	1116.91
1030.79	1146.96
1031.078	1109.67
1031.367	1109.22
1031.656	1090.01
1031.945	1090.92
1032.233	1087.98
1032.522	1062.44
1032.81	1093.18
1033.099	1062.22
1033.387	1070.58
1033.675	1074.87
1033.963	1061.09
1034.251	1044.59
1034.54	1040.07
1034.828	1021.54
1035.116	1017.02
1035.403	1003.91
1035.691	996
1035.979	985.84
1036.267	967.08
1036.554	1000.52
1036.842	981.99
1037.129	941.32
1037.417	991.49
1037.704	983.8
1037.992	939.51
1038.279	948.32
1038.566	972.5
1038.853	972.5
1039.14	972.5
