Data from hue_70_FLMS001491_85.txt Node
Date: Mon Feb 06 15:21:33 GMT 2017
User: dcchb
Spectrometer: FLMS00149
Trigger mode: 0
Integration Time (sec): 2.000000E-2
Scans to average: 10
Electric dark correction enabled: true
Nonlinearity correction enabled: false
Boxcar width: 0
XAxis mode: Wavelengths
Number of Pixels in Spectrum: 2048
>>>>>Begin Spectral Data<<<<<
341.393	-17.82
341.776	-17.82
342.16	-17.82
342.543	-61.67
342.927	-78.84
343.31	-81.33
343.693	-59.86
344.077	-71.16
344.46	-66.18
344.843	-49.69
345.226	-47.88
345.61	-33.87
345.993	-20.31
346.376	11.55
346.759	16.98
347.142	7.03
347.525	45.9
347.908	68.5
348.291	65.34
348.674	100.59
349.057	114.38
349.44	135.17
349.823	146.69
350.206	146.24
350.588	169.06
350.971	209.29
351.354	233.92
351.737	238.67
352.119	246.35
352.502	249.51
352.884	259.68
353.267	286.35
353.65	297.2
354.032	281.38
354.414	287.48
354.797	309.4
355.179	324.31
355.562	326.12
355.944	311.88
356.326	322.73
356.709	321.83
357.091	337.65
357.473	349.62
357.855	345.56
358.238	315.05
358.62	341.94
359.002	308.72
359.384	332.9
359.766	318.21
360.148	339.91
360.53	328.16
360.912	338.32
361.294	341.94
361.676	331.54
362.057	348.27
362.439	324.54
362.821	334.71
363.203	317.76
363.584	321.83
363.966	330.19
364.348	321.15
364.729	331.54
365.111	303.98
365.493	342.62
365.874	332
366.256	305.78
366.637	309.62
367.019	313.69
367.4	337.87
367.781	318.89
368.163	317.99
368.544	310.98
368.925	308.95
369.306	321.6
369.688	315.27
370.069	330.64
370.45	304.65
370.831	323.86
371.212	292.9
371.593	305.78
371.974	326.35
372.355	316.4
372.736	319.79
373.117	317.08
373.498	302.39
373.879	307.59
374.26	305.56
374.641	305.1
375.021	333.13
375.402	314.37
375.783	323.18
376.163	318.44
376.544	317.53
376.925	315.27
377.305	313.24
377.686	330.42
378.066	313.92
378.447	306.91
378.827	326.12
379.208	321.83
379.588	330.19
379.968	335.61
380.349	338.78
380.729	353.92
381.109	346.23
381.489	331.09
381.87	314.6
382.25	316.4
382.63	328.38
383.01	329.06
383.39	339.68
383.77	318.44
384.15	337.65
384.53	327.48
384.91	314.6
385.29	335.16
385.67	352.34
386.049	336.06
386.429	323.18
386.809	362.96
387.189	346.46
387.568	331.54
387.948	362.28
388.328	340.81
388.707	331.09
389.087	356.4
389.466	349.62
389.846	357.98
390.225	351.66
390.605	351.66
390.984	352.56
391.363	370.64
391.743	368.15
392.122	362.96
392.501	353.47
392.881	365.22
393.26	377.19
393.639	357.76
394.018	360.7
394.397	351.43
394.776	366.8
395.155	379.91
395.534	378.78
395.913	354.6
396.292	375.84
396.671	388.04
397.05	388.27
397.429	358.89
397.808	354.6
398.186	374.93
398.565	357.31
398.944	391.66
399.323	383.3
399.701	376.06
400.08	390.75
400.458	385.1
400.837	388.27
401.215	385.33
401.594	374.03
401.972	367.25
402.351	409.96
402.729	403.18
403.107	406.8
403.486	401.6
403.864	405.67
404.242	392.33
404.62	387.36
404.999	403.86
405.377	417.87
405.755	416.06
406.133	406.35
406.511	415.61
406.889	403.86
407.267	412.67
407.645	424.65
408.023	421.94
408.401	421.71
408.779	408.61
409.156	419.45
409.534	432.11
409.912	422.84
410.29	444.08
410.667	431.43
411.045	429.17
411.422	441.82
411.8	443.18
412.178	425.55
412.555	442.5
412.933	438.66
413.31	455.16
413.687	465.78
414.065	456.74
414.442	466.68
414.819	466.91
415.197	454.25
415.574	465.1
415.951	472.78
416.328	476.4
416.705	471.43
417.082	489.73
417.46	465.33
417.837	478.21
418.214	487.47
418.591	484.76
418.967	487.02
419.344	507.59
419.721	504.42
420.098	506.23
420.475	512.56
420.852	489.28
421.228	519.34
421.605	515.95
421.982	511.43
422.358	513.46
422.735	526.79
423.111	539.45
423.488	524.53
423.864	532.67
424.241	516.17
424.617	530.18
424.994	515.72
425.37	526.34
425.746	534.48
426.123	549.62
426.499	558.21
426.875	550.97
427.251	547.13
427.627	542.61
428.003	575.61
428.379	574.7
428.756	569.96
429.132	577.41
429.507	585.32
429.883	608.6
430.259	590.3
430.635	597.98
431.011	602.95
431.387	583.52
431.763	615.83
432.138	601.59
432.514	631.65
432.89	646.56
433.265	621.71
433.641	614.02
434.016	636.62
434.392	664.87
434.767	652.44
435.143	653.34
435.518	653.34
435.894	669.62
436.269	657.86
436.644	665.32
437.02	666.9
437.395	691.08
437.77	674.13
438.145	696.28
438.52	698.99
438.895	687.47
439.271	707.13
439.646	701.93
440.021	726.56
440.395	701.93
440.77	716.62
441.145	698.31
441.52	725.66
441.895	743.96
442.27	735.83
442.645	746.45
443.019	746.22
443.394	758.88
443.769	746
444.143	726.34
444.518	770.63
444.892	748.71
445.267	755.71
445.641	756.84
446.016	760.01
446.39	773.34
446.764	783.06
447.139	791.65
447.513	799.56
447.887	785.32
448.262	824.64
448.636	791.65
449.01	836.39
449.384	795.71
449.758	791.65
450.132	814.7
450.506	849.72
450.88	839.33
451.254	835.71
451.628	861.02
452.002	853.34
452.376	853.34
452.75	854.24
453.123	866.9
453.497	871.87
453.871	915.03
454.244	904.41
454.618	889.95
454.992	902.6
455.365	908.93
455.739	936.5
456.112	942.83
456.486	927.91
456.859	959.33
457.232	971.3
457.606	998.87
457.979	981.7
458.352	1001.58
458.725	1006.33
459.099	1014.01
459.472	1037.06
459.845	1038.65
460.218	1074.35
460.591	1080.23
460.964	1093.78
461.337	1084.75
461.71	1110.96
462.083	1128.36
462.456	1130.39
462.829	1144.86
463.201	1147.34
463.574	1178.3
463.947	1160.22
464.32	1184.63
464.692	1212.2
465.065	1226.44
465.438	1259.66
465.81	1260.56
466.183	1282.93
466.555	1294.46
466.928	1319.99
467.3	1311.86
467.672	1351.63
468.045	1392.76
468.417	1366.09
468.789	1394.12
469.161	1434.11
469.534	1466.66
469.906	1481.12
470.278	1502.14
470.65	1523.6
471.022	1559.31
471.394	1583.72
471.766	1618.97
472.138	1628.46
472.51	1686.54
472.882	1733.77
473.253	1747.55
473.625	1799.75
473.997	1831.84
474.369	1839.08
474.74	1892.41
475.112	1941.9
475.484	1969.24
475.855	2051.73
476.227	2092.18
476.598	2164.49
476.97	2198.84
477.341	2262.79
477.713	2294.43
478.084	2330.14
478.455	2445.84
478.827	2471.38
479.198	2580.3
479.569	2609
479.94	2716.34
480.311	2728.09
480.682	2856.22
481.053	2906.62
481.424	3053.73
481.795	3090.34
482.166	3184.13
482.537	3278.36
482.908	3405.59
483.279	3481.74
483.65	3575.98
484.021	3709.99
484.391	3758.8
484.762	3909.53
485.133	3996.53
485.503	4078.34
485.874	4193.59
486.244	4340.93
486.615	4488.95
486.985	4573.69
487.356	4719.68
487.726	4804.87
488.097	5023.17
488.467	5051.65
488.837	5165.54
489.207	5352.2
489.578	5557.17
489.948	5618.41
490.318	5788.35
490.688	5892.3
491.058	6093.2
491.428	6217.04
491.798	6348.11
492.168	6558.73
492.538	6634.43
492.908	6770.02
493.278	6936.8
493.648	7068.77
494.017	7231.25
494.387	7379.72
494.757	7531.81
495.126	7644.12
495.496	7808.64
495.866	7952.81
496.235	8122.98
496.605	8353.48
496.974	8433.7
497.344	8558
497.713	8691.55
498.082	8886.12
498.452	9043.86
498.821	9138.09
499.19	9240.69
499.559	9415.6
499.928	9501.47
500.298	9710.06
500.667	9874.8
501.036	9910.5
501.405	10094
501.774	10239.76
502.143	10295.58
502.512	10498.74
502.88	10638.62
503.249	10704.15
503.618	10828.22
503.987	11003.81
504.356	11108.66
504.724	11204.48
505.093	11294.65
505.462	11416.45
505.83	11558.59
506.199	11706.39
506.567	11922.88
506.936	11925.59
507.304	12149.99
507.672	12245.36
508.041	12277.67
508.409	12471.34
508.777	12653.71
509.145	12700.71
509.514	12825.23
509.882	12940.93
510.25	13059.57
510.618	13177.76
510.986	13246.46
511.354	13439.67
511.722	13528.26
512.09	13695.04
512.458	13649.39
512.826	13842.15
513.193	13866.56
513.561	14067
513.929	14137.74
514.297	14244.63
514.664	14425.64
515.032	14475.13
515.4	14602.36
515.767	14671.51
516.135	14767.55
516.502	14706.08
516.869	15064.72
517.237	15020.65
517.604	15049.58
517.972	15218.84
518.339	15346.07
518.706	15419.28
519.073	15525.5
519.44	15546.29
519.808	15760.29
520.175	15677.58
520.542	15907.86
520.909	16061.3
521.276	16099.27
521.643	16203.44
522.009	16306.49
522.376	16438.69
522.743	16386.26
523.11	16613.15
523.477	16781.73
523.843	16867.83
524.21	17054.04
524.577	17119.8
524.943	17213.13
525.31	17288.16
525.676	17431.89
526.043	17498.78
526.409	17579.23
526.776	17718.88
527.142	17762.05
527.508	17853.57
527.874	17978.54
528.241	18069.84
528.607	18134.69
528.973	18216.5
529.339	18245.88
529.705	18444.29
530.071	18456.27
530.437	18582.59
530.803	18660.1
531.169	18755.47
531.535	18636.83
531.901	18697.62
532.267	18863.49
532.632	18813.09
532.998	19007.89
533.364	19023.71
533.73	18995.01
534.095	19142.12
534.461	19204.95
534.826	19224.83
535.192	19288.79
535.557	19486.07
535.923	19388.22
536.288	19484.26
536.653	19521.32
537.019	19360.65
537.384	19507.99
537.749	19489.23
538.114	19540.08
538.479	19573.75
538.845	19644.48
539.21	19609
539.575	19677.7
539.94	19669.12
540.305	19878.83
540.67	19722
541.034	19815.33
541.399	19934.65
541.764	19879.05
542.129	19925.83
542.494	19961.54
542.858	20033.63
543.223	19951.37
543.587	20059.61
543.952	20035.43
544.316	20091.48
544.681	20067.75
545.045	20102.1
545.41	20090.57
545.774	20167.63
546.138	20162.21
546.503	20233.39
546.867	20208.08
547.231	20396.55
547.595	20169.44
547.959	20316.56
548.324	20318.14
548.688	20302.32
549.052	20404.24
549.416	20339.61
549.779	20413.28
550.143	20370.34
550.507	20454.86
550.871	20511.58
551.235	20527.62
551.599	20663.44
551.962	20535.08
552.326	20609.66
552.689	20637.68
553.053	20532.6
553.417	20590.22
553.78	20774.17
554.143	20793.61
554.507	20751.12
554.87	20887.84
555.234	20987.72
555.597	20931.23
555.96	20919.25
556.323	21055.07
556.686	20943.21
557.05	21081.06
557.413	21079.93
557.776	21145.46
558.139	21314.27
558.502	21161.05
558.865	21282.41
559.228	21453.48
559.59	21395.85
559.953	21429.07
560.316	21541.83
560.679	21581.83
561.041	21770.98
561.404	21664.09
561.767	21882.39
562.129	21718.1
562.492	21960.58
562.854	21955.84
563.217	21944.08
563.579	22062.5
563.941	22157.86
564.304	22083.06
564.666	22258.65
565.028	22366.45
565.39	22302.27
565.753	22345.43
566.115	22426.11
566.477	22509.04
566.839	22513.33
567.201	22607.8
567.563	22707.45
567.925	22805.08
568.287	22774.8
568.648	22909.48
569.01	23038.29
569.372	23137.72
569.734	22948.13
570.095	23128.46
570.457	23299.75
570.819	23207.33
571.18	23154.67
571.542	23282.35
571.903	23334.1
572.265	23543.59
572.626	23476.93
572.987	23436.02
573.349	23666.3
573.71	23542.91
574.071	23678.05
574.432	23808.89
574.794	23879.4
575.155	23876.91
575.516	23780.19
575.877	23930.47
576.238	23867.65
576.599	23947.87
576.96	23936.12
577.32	24106.97
577.681	24033.52
578.042	24089.11
578.403	24172.73
578.763	24080.98
579.124	24194.65
579.485	24110.81
579.845	24207.08
580.206	24167.3
580.566	24239.62
580.927	24334.98
581.287	24290.24
581.648	24196
582.008	24339.5
582.368	24351.25
582.728	24254.53
583.089	24267.86
583.449	24312.84
583.809	24293.63
584.169	24278.03
584.529	24176.57
584.889	24377.47
585.249	24287.07
585.609	24158.72
585.969	24381.08
586.329	24382.89
586.688	24320.29
587.048	24347.18
587.408	24401.65
587.768	24287.75
588.127	24287.07
588.487	24251.14
588.846	24369.56
589.206	24281.88
589.565	24213.4
589.925	24476.22
590.284	24347.86
590.643	24306.96
591.003	24374.75
591.362	24445.49
591.721	24389.67
592.08	24487.29
592.44	24363
592.799	24478.25
593.158	24255.21
593.517	24356.68
593.876	24373.62
594.235	24358.71
594.593	24344.92
594.952	24439.61
595.311	24295.66
595.67	24461.76
596.029	24542.21
596.387	24538.14
596.746	24531.81
597.104	24432.61
597.463	24314.64
597.822	24474.86
598.18	24414.75
598.538	24409.33
598.897	24462.44
599.255	24269.67
599.613	24630.79
599.972	24488.88
600.33	24619.27
600.688	24468.54
601.046	24490.91
601.404	24646.61
601.762	24569.1
602.12	24809.32
602.478	24692.71
602.836	24804.35
603.194	24614.75
603.552	24724.58
603.91	24597.8
604.268	24781.07
604.625	24718.47
604.983	24793.27
605.341	24704.24
605.698	24796.66
606.056	24788.75
606.413	24820.84
606.771	24858.81
607.128	24947.17
607.485	24745.59
607.843	24832.6
608.2	24998.02
608.557	25071.01
608.914	24905.81
609.272	25059.03
609.629	25073.04
609.986	25164.79
610.343	25076.88
610.7	25269.19
611.057	25183.77
611.414	25175.19
611.771	25105.81
612.127	25350.32
612.484	25359.59
612.841	25463.09
613.198	25362.53
613.554	25314.62
613.911	25504.89
614.267	25571.33
614.624	25455.86
614.98	25509.19
615.337	25566.59
615.693	25546.93
616.05	25499.7
616.406	25711.44
616.762	25559.58
617.118	25675.74
617.475	25725.68
617.831	25788.28
618.187	25708.05
618.543	25889.07
618.899	25889.52
619.255	25971.55
619.611	25922.28
619.967	25897.88
620.323	25983.98
620.678	25887.03
621.034	25931.1
621.39	25865.79
621.746	25836.86
622.101	26242.95
622.457	25941.27
622.812	25992.79
623.168	26077.76
623.523	26103.97
623.879	26046.8
624.234	25941.72
624.589	26007.93
624.945	26159.11
625.3	26292.44
625.655	26059.46
626.01	26115.73
626.365	26125.22
626.72	26128.61
627.075	26178.32
627.43	26160.02
627.785	26094.03
628.14	26137.42
628.495	26200.02
628.85	26125.67
629.205	26043.86
629.559	26172.9
629.914	26102.39
630.269	26136.29
630.623	26041.38
630.978	26047.03
631.332	26139.45
631.687	26249.96
632.041	26099.68
632.396	26082.73
632.75	26092.22
633.104	26077.53
633.459	25864.66
633.813	25927.48
634.167	26003.86
634.521	25826.24
634.875	26019.91
635.229	25836.19
635.583	25710.31
635.937	25821.04
636.291	25774.49
636.645	25827.15
636.999	25750.76
637.352	25783.31
637.706	25612.24
638.06	25727.94
638.413	25711.44
638.767	25652.91
639.121	25584.89
639.474	25497.89
639.828	25499.24
640.181	25559.81
640.534	25577.21
640.888	25452.92
641.241	25322.07
641.594	25390.77
641.947	25422.18
642.301	25354.39
642.654	25377.67
643.007	25399.59
643.36	25330.66
643.713	25291.57
644.066	25399.81
644.419	25173.83
644.771	25102.87
645.124	24882.76
645.477	24847.51
645.83	24662.66
646.182	24547.63
646.535	24500.63
646.888	24528.42
647.24	24538.82
647.593	24586.05
647.945	24596.22
648.298	24420.86
648.65	24377.47
649.002	24324.36
649.355	24422.66
649.707	24391.25
650.059	24601.64
650.411	24850
650.763	24901.97
651.115	25131.8
651.467	25023.78
651.819	25071.69
652.171	24904.23
652.523	24894.06
652.875	24946.26
653.227	24787.63
653.578	25071.01
653.93	24951.91
654.282	24789.66
654.633	24694.97
654.985	24857.91
655.337	24882.54
655.688	24925.93
656.039	25027.62
656.391	24776.1
656.742	24854.29
657.094	24850.9
657.445	24978.58
657.796	24862.43
658.147	24790.11
658.498	24816.1
658.849	24754.63
659.2	24930.67
659.551	24774.29
659.902	24903.55
660.253	24823.78
660.604	24860.62
660.955	24681.87
661.306	24900.84
661.656	24841.18
662.007	24832.6
662.358	24987.85
662.708	24929.09
663.059	24843.44
663.409	24723.45
663.76	24952.82
664.11	24845.7
664.461	24871.01
664.811	24900.62
665.161	24934.06
665.511	24718.93
665.862	24806.38
666.212	24948.75
666.562	24850.22
666.912	24948.98
667.262	24978.58
667.612	24708.76
667.962	24894.51
668.312	24818.81
668.662	24897.68
669.011	24818.58
669.361	24831.01
669.711	24767.96
670.06	24776.1
670.41	24642.32
670.76	24737
671.109	24812.94
671.459	24806.38
671.808	24607.29
672.157	24747.17
672.507	24628.31
672.856	24600.29
673.205	24588.53
673.554	24593.05
673.904	24620.17
674.253	24744.91
674.602	24622.88
674.951	24263.8
675.3	24097.93
675.649	24561.42
675.998	24549.67
676.346	24587.86
676.695	24626.73
677.044	24402.55
677.393	24452.72
677.741	24581.98
678.09	24376.11
678.438	24326.39
678.787	24402.78
679.135	24412.49
679.484	24236.23
679.832	24252.72
680.181	24229.9
680.529	24250.01
680.877	24173.4
681.225	24097.93
681.573	24168.43
681.922	24110.13
682.27	24087.98
682.618	23948.1
682.966	23926.86
683.314	24007.98
683.661	24005.05
684.009	23789.23
684.357	23793.07
684.705	23700.42
685.053	23694.32
685.4	23720.08
685.748	23634.89
686.095	23668.33
686.443	23506.53
686.79	23402.12
687.138	23533.65
687.485	23521.22
687.832	23419.53
688.18	23431.95
688.527	23300.43
688.874	23301.56
689.221	23096.14
689.568	23153.32
689.915	23017.73
690.262	23064.96
690.609	23039.2
690.956	22918.75
691.303	22854.57
691.65	22719.2
691.997	22839.43
692.344	22667.91
692.69	22574.35
693.037	22444.86
693.383	22384.98
693.73	22414.58
694.077	22329.16
694.423	22234.02
694.769	22197.86
695.116	22147.02
695.462	22100.01
695.808	22050.97
696.155	22106.34
696.501	21911.32
696.847	21896.4
697.193	21793.13
697.539	21841.26
697.885	21558.33
698.231	21517.43
698.577	21481.05
698.923	21374.16
699.269	21450.76
699.614	21320.37
699.96	21335.06
700.306	21295.97
700.651	21176.87
700.997	21113.15
701.342	20949.76
701.688	20974.39
702.033	20942.3
702.379	20928.97
702.724	20812.14
703.069	20827.73
703.415	20589.77
703.76	20617.34
704.105	20567.4
704.45	20492.14
704.795	20313.17
705.14	20277.91
705.485	20362.43
705.83	20168.99
706.175	20167.18
706.52	20125.37
706.865	20101.42
707.209	19912.95
707.554	19989.33
707.899	20069.78
708.243	19851.48
708.588	19840.41
708.932	19776.68
709.277	19803.35
709.621	19720.19
709.966	19566.97
710.31	19740.53
710.654	19375.11
710.998	19545.05
711.342	19553.86
711.687	19441.32
712.031	19279.52
712.375	19283.14
712.719	19222.8
713.063	19260.09
713.407	19280.43
713.75	19211.27
714.094	19085.4
714.438	19090.37
714.782	19028.91
715.125	18974.44
715.469	18972.18
715.812	18880.89
716.156	18845.41
716.499	18799.31
716.843	18824.17
717.186	18647.67
717.53	18851.06
717.873	18739.42
718.216	18700.33
718.559	18604.06
718.902	18569.94
719.246	18592.76
719.589	18441.8
719.932	18484.51
720.275	18413.78
720.617	18443.84
720.96	18359.32
721.303	18352.31
721.646	18423.27
721.989	18209.04
722.331	18372.2
722.674	18287.68
723.016	18320.68
723.359	18231.19
723.701	18241.13
724.044	18088.37
724.386	18059.89
724.729	18088.37
725.071	17999.33
725.413	18087.01
725.755	18080.23
726.097	17947.8
726.439	17901.03
726.782	17927.24
727.124	17966.56
727.465	17933.12
727.807	17944.87
728.149	17861.93
728.491	17937.18
728.833	17909.16
729.175	17810.41
729.516	17869.61
729.858	17751.43
730.199	17815.15
730.541	17763.63
730.882	17759.11
731.224	17819.67
731.565	17675.04
731.906	17688.6
732.248	17704.42
732.589	17588.72
732.93	17569.28
733.271	17608.6
733.612	17606.8
733.953	17646.8
734.294	17525.67
734.635	17549.17
734.976	17560.24
735.317	17559.79
735.658	17640.92
735.999	17538.55
736.339	17494.71
736.68	17615.38
737.021	17446.58
737.361	17395.73
737.702	17626.46
738.042	17533.35
738.383	17430.53
738.723	17439.12
739.063	17411.1
739.404	17543.52
739.744	17462.62
740.084	17467.14
740.424	17453.58
740.764	17399.34
741.104	17551.66
741.444	17453.81
741.784	17376.07
742.124	17531.09
742.464	17444.32
742.804	17505.78
743.143	17452.68
743.483	17376.29
743.823	17451.77
744.162	17433.47
744.502	17526.57
744.841	17459
745.181	17515.73
745.52	17619.9
745.86	17562.5
746.199	17540.58
746.538	17569.06
746.877	17659.68
747.216	17581.94
747.556	17720.24
747.895	17750.97
748.234	17711.65
748.573	17682.73
748.911	17739.9
749.25	17843.85
749.589	17853.8
749.928	17869.39
750.267	17948.48
750.605	18007.01
750.944	18029.16
751.283	17975.83
751.621	18120
751.96	18082.04
752.298	18212.43
752.636	18190.74
752.975	18157.97
753.313	18257.18
753.651	18445.19
753.989	18477.06
754.327	18414.91
754.666	18488.36
755.004	18533.1
755.342	18636.83
755.679	18795.47
756.017	18711.85
756.355	18791.17
756.693	18879.76
757.031	18943.48
757.368	18939.42
757.706	19001.79
758.044	19100.54
758.381	19268
758.719	19142.8
759.056	19328.79
759.394	19358.62
759.731	19428.9
760.068	19361.1
760.405	19340.99
760.743	19505.05
761.08	19600.87
761.417	19589.12
761.754	19714.31
762.091	19791.37
762.428	19711.6
762.765	19808.32
763.102	19846.06
763.438	19911.14
763.775	19935.55
764.112	20004.25
764.449	19951.37
764.785	19983.23
765.122	20067.75
765.458	19998.37
765.795	20012.61
766.131	20121.53
766.467	20119.27
766.804	20087.86
767.14	20063.23
767.476	20252.38
767.812	20069.11
768.148	20358.59
768.485	20168.76
768.821	20090.8
769.157	20228.2
769.492	20218.48
769.828	20288.76
770.164	20054.19
770.5	20184.81
770.836	20164.7
771.171	20065.72
771.507	19993.17
771.842	19989.11
772.178	19955.44
772.513	20020.07
772.849	19998.6
773.184	19953.4
773.519	19957.47
773.855	19904.36
774.19	19929.67
774.525	19743.69
774.86	19774.2
775.195	19746.63
775.53	19775.1
775.865	19725.61
776.2	19581.89
776.535	19432.51
776.87	19517.71
777.205	19492.85
777.539	19334.21
777.874	19366.52
778.209	19303.25
778.543	19249.01
778.878	19215.79
779.212	19325.4
779.547	19097.38
779.881	19159.07
780.215	19026.87
780.55	19082.69
780.884	19061
781.218	18975.12
781.552	18960.66
781.886	18968.57
782.22	18749.82
782.554	18718.18
782.888	18503.27
783.222	18585.98
783.556	18507.34
783.889	18359.77
784.223	18357.96
784.557	18216.5
784.89	18349.6
785.224	18208.14
785.557	18233.9
785.891	18133.56
786.224	18172.43
786.558	18134.24
786.891	17959.1
787.224	17911.65
787.557	17881.82
787.891	17842.95
788.224	17807.92
788.557	17786.45
788.89	17775.83
789.223	17686.12
789.556	17611.99
789.888	17582.62
790.221	17626.01
790.554	17345.79
790.887	17471.43
791.219	17356.63
791.552	17285.68
791.884	17236.86
792.217	17236.41
792.549	17157.77
792.882	17041.61
793.214	16918.91
793.546	16923.88
793.879	16883.43
794.211	16801.85
794.543	16894.5
794.875	16775.86
795.207	16813.6
795.539	16646.6
795.871	16671.68
796.203	16577.9
796.535	16449.09
796.867	16457.45
797.198	16440.5
797.53	16355.3
797.862	16227.4
798.193	16289.32
798.525	16171.35
798.856	16176.78
799.188	16028.99
799.519	16061.98
799.85	15988.76
800.182	15953.06
800.513	16002.09
800.844	15716.45
801.175	15959.83
801.506	15815.66
801.837	15764.59
802.168	15706.73
802.499	15653.4
802.83	15596.68
803.161	15513.07
803.491	15616.11
803.822	15483.91
804.153	15399.85
804.483	15271.49
804.814	15343.58
805.145	15244.37
805.475	15248.21
805.805	15086.64
806.136	15245.73
806.466	15212.74
806.796	15017.49
807.126	15055.45
807.457	14981.78
807.787	15011.38
808.117	14907.43
808.447	14923.48
808.777	14917.83
809.107	14818.4
809.436	14702.92
809.766	14728.23
810.096	14643.94
810.426	14679.64
810.755	14703.6
811.085	14615.46
811.414	14574.33
811.744	14498.4
812.073	14415.69
812.403	14422.7
812.732	14367.33
813.061	14268.81
813.39	14299.31
813.719	14162.59
814.049	14294.34
814.378	14269.48
814.707	14195.81
815.036	14163.95
815.365	14090.73
815.693	13927.35
816.022	13940
816.351	13891.64
816.68	13855.03
817.008	13856.61
817.337	13879.44
817.665	13742.72
817.994	13808.25
818.322	13739.33
818.651	13723.06
818.979	13729.84
819.307	13792.66
819.636	13656.39
819.964	13581.14
820.292	13599.22
820.62	13659.78
820.948	13565.32
821.276	13553.34
821.604	13536.85
821.932	13598.99
822.259	13565.1
822.587	13506.34
822.915	13547.24
823.243	13538.88
823.57	13516.28
823.898	13554.93
824.225	13511.76
824.553	13482.16
824.88	13441.71
825.207	13539.11
825.535	13437.42
825.862	13495.94
826.189	13546.11
826.516	13544.08
826.843	13582.27
827.17	13522.84
827.497	13462.73
827.824	13565.1
828.151	13533.68
828.478	13488.26
828.805	13558.99
829.131	13481.48
829.458	13445.55
829.785	13399.22
830.111	13437.19
830.438	13549.05
830.764	13428.83
831.09	13505.21
831.417	13292.33
831.743	13503.18
832.069	13468.83
832.395	13368.49
832.722	13453.23
833.048	13323.97
833.374	13322.84
833.7	13293.24
834.026	13348.38
834.351	13295.27
834.677	13349.73
835.003	13313.58
835.329	13302.28
835.654	13247.36
835.98	13200.36
836.306	13255.05
836.631	13189.96
836.956	13261.37
837.282	13265.67
837.607	13104.77
837.932	13178.21
838.258	13178.66
838.583	13124.65
838.908	13070.19
839.233	13081.49
839.558	13095.5
839.883	13029.06
840.208	12890.76
840.533	12942.51
840.858	12954.26
841.182	12916.75
841.507	12912.68
841.832	12905.9
842.156	12806.92
842.481	12874.94
842.805	12836.98
843.13	12732.57
843.454	12773.25
843.778	12652.8
844.103	12620.71
844.427	12657.55
844.751	12595.18
845.075	12507.27
845.399	12551.79
845.723	12472.47
846.047	12533.48
846.371	12365.35
846.695	12412.58
847.019	12265.92
847.343	12280.38
847.666	12123.33
847.99	12139.6
848.313	12144.57
848.637	12052.59
848.96	12028.64
849.284	11954.52
849.607	11876.1
849.931	11897.34
850.254	11811.92
850.577	11684.24
850.9	11659.61
851.223	11653.73
851.546	11614.19
851.869	11510.01
852.192	11537.35
852.515	11491.25
852.838	11493.74
853.161	11401.31
853.483	11336
853.806	11299.39
854.129	11260.75
854.451	11256.68
854.774	11188.43
855.096	11171.03
855.419	11225.72
855.741	11165.16
856.063	11036.8
856.385	11020.98
856.708	10950.93
857.03	10962.23
857.352	10961.77
857.674	10925.62
857.996	10891.95
858.318	10816.92
858.64	10873.87
858.961	10784.83
859.283	10781.44
859.605	10613.99
859.926	10736.47
860.248	10685.85
860.57	10575.8
860.891	10571.05
861.212	10590.48
861.534	10553.2
861.855	10572.18
862.176	10589.35
862.498	10491.28
862.819	10555.46
863.14	10386.65
863.461	10468
863.782	10408.34
864.103	10405.18
864.424	10397.49
864.745	10403.82
865.065	10310.94
865.386	10282.02
865.707	10291.06
866.027	10217.61
866.348	10258.52
866.668	10229.36
866.989	10191.85
867.309	10117.5
867.63	10143.26
867.95	10152.08
868.27	10139.42
868.59	10140.33
868.91	10138.29
869.23	10061.91
869.55	10084.73
869.87	10064.4
870.19	10060.55
870.51	10126.09
870.83	10029.82
871.15	9983.95
871.469	9961.8
871.789	9998.86
872.109	9940.33
872.428	9920.45
872.748	9995.92
873.067	9914.12
873.386	9947.79
873.706	9859.43
874.025	9860.56
874.344	9799.09
874.663	9837.74
874.982	9794.57
875.301	9765.42
875.62	9738.76
875.939	9699.89
876.258	9746.44
876.577	9721.35
876.896	9766.33
877.214	9633.67
877.533	9732.88
877.852	9656.5
878.17	9634.35
878.489	9670.51
878.807	9539.89
879.125	9595.03
879.444	9563.84
879.762	9541.25
880.08	9572.66
880.398	9487.01
880.716	9418.09
881.034	9440.01
881.352	9452.89
881.67	9422.61
881.988	9485.43
882.306	9401.59
882.624	9370.63
882.941	9328.82
883.259	9305.09
883.577	9228.49
883.894	9325.43
884.212	9295.83
884.529	9289.95
884.846	9214.25
885.164	9234.81
885.481	9194.81
885.798	9181.26
886.115	9165.89
886.432	9097.64
886.75	9053.8
887.067	9072.56
887.383	9066.46
887.7	9053.58
888.017	9033.69
888.334	9019.23
888.651	8992.79
888.967	8930.19
889.284	8861.04
889.6	8906.01
889.917	8869.63
890.233	8815.39
890.55	8833.47
890.866	8785.11
891.182	8805.9
891.498	8725.67
891.815	8729.29
892.131	8731.1
892.447	8611.1
892.763	8607.71
893.079	8589.86
893.395	8580.14
893.71	8609.52
894.026	8515.28
894.342	8551.67
894.657	8483.65
894.973	8435.51
895.289	8437.09
895.604	8386.02
895.92	8405.68
896.235	8293.6
896.55	8360.94
896.865	8314.84
897.181	8293.6
897.496	8274.39
897.811	8209.08
898.126	8188.74
898.441	8188.06
898.756	8202.98
899.071	8101.74
899.386	8130.66
899.7	7976.32
900.015	8012.7
900.33	7919.59
900.644	7924.79
900.959	8005.69
901.273	7890.44
901.588	7862.65
901.902	7796.66
902.216	7797.11
902.531	7765.25
902.845	7699.71
903.159	7700.39
903.473	7648.87
903.787	7630.56
904.101	7594.86
904.415	7616.78
904.729	7588.98
905.042	7530.68
905.356	7512.15
905.67	7549.89
905.984	7430.12
906.297	7464.24
906.611	7398.48
906.924	7452.94
907.237	7386.5
907.551	7359.83
907.864	7266.96
908.177	7248.88
908.491	7266.96
908.804	7194.64
909.117	7163
909.43	7176.11
909.743	7153.51
910.056	7117.58
910.368	7062.22
910.681	7027.19
910.994	6985.38
911.307	6944.48
911.619	6999.62
911.932	6919.17
912.244	6888.21
912.557	6833.07
912.869	6843.46
913.181	6818.83
913.494	6805.73
913.806	6743.58
914.118	6720.3
914.43	6702.45
914.742	6707.87
915.054	6638.72
915.366	6627.88
915.678	6630.36
915.99	6552.17
916.302	6546.3
916.613	6497.94
916.925	6487.32
917.236	6437.83
917.548	6405.96
917.859	6442.57
918.171	6373.87
918.482	6376.81
918.794	6351.27
919.105	6327.32
919.416	6232.86
919.727	6291.61
920.038	6235.57
920.349	6191.28
920.66	6130.04
920.971	6167.55
921.282	6179.98
921.593	6083.94
921.903	6107.21
922.214	6071.73
922.525	6015.92
922.835	5944.96
923.146	5928.23
923.456	5955.13
923.767	5943.15
924.077	5935.24
924.387	5884.39
924.697	5843.49
925.008	5864.05
925.318	5771.85
925.628	5786.99
925.938	5760.78
926.248	5732.53
926.558	5677.17
926.867	5691.18
927.177	5645.53
927.487	5659.31
927.796	5621.35
928.106	5569.15
928.416	5584.51
928.725	5548.13
929.034	5497.96
929.344	5500.22
929.653	5470.62
929.962	5485.76
930.271	5408.47
930.581	5368.93
930.89	5394.01
931.199	5365.99
931.508	5377.74
931.817	5303.62
932.125	5262.71
932.434	5281.25
932.743	5216.84
933.051	5190.85
933.36	5196.28
933.669	5103.62
933.977	5167.12
934.286	5115.6
934.594	5101.14
934.902	5076.5
935.21	5046.9
935.519	5030.4
935.827	5113.79
936.135	4994.47
936.443	4951.99
936.751	4942.72
937.059	4947.69
937.367	4889.39
937.674	4908.83
937.982	4843.29
938.29	4876.96
938.597	4847.81
938.905	4787.92
939.213	4801.03
939.52	4748.83
939.827	4766.46
940.135	4788.15
940.442	4695.72
940.749	4672.67
941.056	4695.72
941.363	4683.52
941.67	4618.44
941.977	4597.42
942.284	4578.21
942.591	4531.66
942.898	4542.28
943.205	4538.89
943.511	4468.39
943.818	4509.97
944.125	4453.92
944.431	4430.65
944.738	4463.19
945.044	4413.7
945.35	4411.66
945.657	4396.97
945.963	4356.98
946.269	4345.22
946.575	4359.91
946.881	4298.9
947.187	4361.72
947.493	4234.27
947.799	4254.61
948.105	4247.6
948.41	4253.48
948.716	4193.14
949.022	4193.36
949.327	4152.69
949.633	4136.42
949.938	4126.93
950.244	4111.56
950.549	4041.73
950.854	4075.85
951.16	4098.68
951.465	4052.58
951.77	4022.07
952.075	4013.48
952.38	3958.57
952.685	3977.1
952.99	3939.36
953.294	3958.79
953.599	3893.49
953.904	3909.76
954.209	3907.72
954.513	3878.34
954.818	3844.67
955.122	3820.27
955.426	3845.35
955.731	3801.06
956.035	3772.58
956.339	3818.01
956.643	3756.77
956.948	3723.32
957.252	3736.2
957.556	3716.99
957.86	3681.06
958.163	3674.51
958.467	3669.54
958.771	3686.03
959.075	3644.68
959.378	3578.01
959.682	3620.72
959.985	3584.34
960.289	3569.2
960.592	3530.1
960.896	3505.92
961.199	3505.7
961.502	3528.52
961.805	3483.1
962.108	3473.84
962.411	3462.76
962.714	3456.43
963.017	3427.51
963.32	3425.93
963.623	3387.51
963.926	3409.66
964.228	3364.01
964.531	3335.76
964.833	3363.78
965.136	3302.99
965.438	3339.15
965.741	3268.19
966.043	3269.32
966.345	3281.07
966.648	3302.77
966.95	3232.71
967.252	3245.82
967.554	3211.92
967.856	3211.02
968.158	3160.4
968.46	3173.05
968.761	3131.92
969.063	3151.81
969.365	3118.59
969.666	3111.13
969.968	3107.97
970.269	3101.19
970.571	3069.55
970.872	3069.33
971.174	3013.96
971.475	3079.04
971.776	3013.73
972.077	3023.9
972.378	3032.49
972.679	3043.34
972.98	2975.54
973.281	2966.5
973.582	2945.94
973.883	2928.31
974.183	2908.43
974.484	2910.23
974.785	2888.54
975.085	2902.55
975.386	2889.44
975.686	2842.89
975.986	2848.09
976.287	2860.52
976.587	2847.41
976.887	2813.29
977.187	2810.8
977.487	2770.8
977.787	2738.04
978.087	2756.11
978.387	2746.62
978.687	2760.18
978.987	2730.8
979.286	2695.78
979.586	2728.09
979.885	2674.31
980.185	2665.95
980.484	2665.04
980.784	2669.11
981.083	2649.9
981.382	2634.54
981.682	2653.52
981.981	2596.12
982.28	2601.09
982.579	2577.81
982.878	2556.8
983.177	2558.61
983.475	2586.63
983.774	2521.54
984.073	2512.28
984.372	2490.13
984.67	2501.66
984.969	2507.31
985.267	2487.19
985.566	2506.63
985.864	2471.6
986.162	2447.42
986.461	2461.88
986.759	2448.33
987.057	2390.25
987.355	2397.93
987.653	2409.68
987.951	2415.11
988.249	2393.41
988.547	2385.95
988.844	2355.22
989.142	2353.19
989.44	2305.5
989.737	2313.19
990.035	2315.67
990.332	2315.9
990.63	2336.92
990.927	2273.19
991.224	2259.86
991.521	2315.45
991.819	2247.43
992.116	2224.15
992.413	2232.29
992.71	2220.08
993.006	2222.34
993.303	2203.59
993.6	2214.89
993.897	2185.96
994.193	2154.77
994.49	2169.46
994.787	2151.38
995.083	2135.79
995.379	2134.44
995.676	2114.77
995.972	2131.05
996.268	2093.98
996.565	2078.62
996.861	2103.48
997.157	2061.22
997.453	2047.43
997.749	2066.87
998.044	2020.09
998.34	2046.08
998.636	2012.18
998.932	1999.98
999.227	1983.48
999.523	1984.16
999.818	1970.37
1000.114	1929.24
1000.409	1952.29
1000.704	1927.21
1001	1946.42
1001.295	1901.22
1001.59	1917.72
1001.885	1955.91
1002.18	1906.87
1002.475	1883.14
1002.77	1874.1
1003.065	1853.99
1003.359	1847.66
1003.654	1849.25
1003.949	1822.35
1004.243	1870.26
1004.538	1791.17
1004.832	1836.36
1005.127	1808.34
1005.421	1821.22
1005.715	1797.72
1006.009	1769.93
1006.304	1742.58
1006.598	1750.94
1006.892	1738.97
1007.186	1730.83
1007.48	1717.5
1007.773	1742.36
1008.067	1731.96
1008.361	1671.85
1008.655	1667.56
1008.948	1698.29
1009.242	1689.02
1009.535	1656.48
1009.829	1676.14
1010.122	1645.63
1010.415	1639.31
1010.708	1611.29
1011.001	1590.27
1011.295	1614.45
1011.588	1583.26
1011.881	1564.96
1012.173	1571.74
1012.466	1577.39
1012.759	1540.33
1013.052	1546.43
1013.344	1540.1
1013.637	1525.41
1013.93	1520.44
1014.222	1527.9
1014.514	1505.75
1014.807	1481.57
1015.099	1495.81
1015.391	1484.96
1015.683	1486.09
1015.976	1479.09
1016.268	1451.74
1016.56	1432.31
1016.851	1386.66
1017.143	1399.99
1017.435	1459.2
1017.727	1408.35
1018.018	1404.29
1018.31	1393.44
1018.602	1370.16
1018.893	1379.88
1019.185	1364.74
1019.476	1349.15
1019.767	1376.49
1020.058	1359.54
1020.35	1341.24
1020.641	1330.16
1020.932	1326.32
1021.223	1327
1021.514	1306.21
1021.804	1292.2
1022.095	1251.97
1022.386	1284.51
1022.677	1282.03
1022.967	1275.93
1023.258	1259.43
1023.548	1218.3
1023.839	1249.49
1024.129	1235.7
1024.419	1218.75
1024.709	1246.78
1025	1221.47
1025.29	1200
1025.58	1199.32
1025.87	1184.4
1026.16	1202.03
1026.449	1167.23
1026.739	1169.04
1027.029	1177.17
1027.319	1155.48
1027.608	1176.72
1027.898	1141.69
1028.187	1109.83
1028.477	1109.6
1028.766	1149.38
1029.055	1084.52
1029.344	1097.85
1029.634	1069.6
1029.923	1083.39
1030.212	1079.55
1030.501	1069.6
1030.79	1082.94
1031.078	1071.64
1031.367	1055.14
1031.656	1045.2
1031.945	1024.63
1032.233	1026.89
1032.522	1039.32
1032.81	1033.67
1033.099	1011.08
1033.387	972.21
1033.675	993
1033.963	989.38
1034.251	988.7
1034.54	971.75
1034.828	969.72
1035.116	955.48
1035.403	962.26
1035.691	958.65
1035.979	938.99
1036.267	955.26
1036.554	932.66
1036.842	926.11
1037.129	929.27
1037.417	917.29
1037.704	904.86
1037.992	915.48
1038.279	920.68
1038.566	900.12
1038.853	900.12
1039.14	900.12
