Data from hue_22_FLMS001491_00090.txt Node
Date: Tue Feb 07 17:10:47 GMT 2017
User: dcchb
Spectrometer: FLMS00149
Trigger mode: 0
Integration Time (sec): 2.000000E-2
Scans to average: 10
Electric dark correction enabled: true
Nonlinearity correction enabled: false
Boxcar width: 0
XAxis mode: Wavelengths
Number of Pixels in Spectrum: 2048
>>>>>Begin Spectral Data<<<<<
341.393	-5.11
341.776	-5.11
342.16	-5.11
342.543	-51.89
342.927	-63.87
343.31	-66.81
343.693	-79.24
344.077	-74.94
344.46	-64.55
344.843	-61.83
345.226	-40.14
345.61	-15.06
345.993	-19.12
346.376	-7.15
346.759	20.2
347.142	11.84
347.525	54.55
347.908	69.91
348.291	74.21
348.674	85.51
349.057	112.62
349.44	123.92
349.823	159.85
350.206	171.15
350.588	198.5
350.971	225.16
351.354	226.97
351.737	227.88
352.119	254.54
352.502	256.8
352.884	294.09
353.267	280.76
353.65	312.17
354.032	318.72
354.414	304.71
354.797	313.07
355.179	307.2
355.562	338.15
355.944	344.93
356.326	332.51
356.709	329.79
357.091	334.99
357.473	344.03
357.855	336.12
358.238	346.74
358.62	350.81
359.002	363.69
359.384	340.41
359.766	354.43
360.148	345.61
360.53	321.66
360.912	347.87
361.294	355.78
361.676	341.09
362.057	327.31
362.439	333.64
362.821	332.96
363.203	321.66
363.584	339.51
363.966	342
364.348	307.87
364.729	333.86
365.111	330.47
365.493	339.74
365.874	301.55
366.256	304.94
366.637	315.78
367.019	332.96
367.4	344.71
367.781	332.96
368.163	318.49
368.544	323.47
368.925	318.27
369.306	338.15
369.688	340.87
370.069	329.79
370.45	328.66
370.831	331.15
371.212	313.97
371.593	329.12
371.974	332.51
372.355	313.52
372.736	334.09
373.117	318.27
373.498	327.31
373.879	310.13
374.26	313.3
374.641	321.88
375.021	332.96
375.402	322.79
375.783	347.42
376.163	345.16
376.544	340.64
376.925	346.97
377.305	323.69
377.686	339.06
378.066	345.39
378.447	343.58
378.827	341.54
379.208	349.91
379.588	337.03
379.968	337.48
380.349	330.25
380.729	328.89
381.109	339.28
381.489	353.52
381.87	327.31
382.25	331.6
382.63	351.04
383.01	345.16
383.39	348.1
383.77	343.35
384.15	374.31
384.53	342.45
384.91	363.92
385.29	350.58
385.67	379.28
386.049	372.05
386.429	360.75
386.809	348.32
387.189	366.63
387.568	352.39
387.948	358.95
388.328	380.41
388.707	371.6
389.087	388.1
389.466	381.32
389.846	369.34
390.225	382.9
390.605	405.27
390.984	380.19
391.363	390.13
391.743	375.22
392.122	399.4
392.501	364.82
392.881	389.23
393.26	383.35
393.639	377.93
394.018	403.24
394.397	393.07
394.776	407.31
395.155	396.91
395.534	394.88
395.913	392.84
396.292	387.42
396.671	393.75
397.05	426.74
397.429	399.62
397.808	417.02
398.186	393.52
398.565	407.31
398.944	379.51
399.323	428.32
399.701	394.42
400.08	415.89
400.458	400.98
400.837	432.39
401.215	408.89
401.594	414.99
401.972	431.94
402.351	435.55
402.729	434.88
403.107	416.12
403.486	458.15
403.864	437.81
404.242	440.07
404.62	439.62
404.999	410.47
405.377	438.27
405.755	449.56
406.133	449.34
406.511	433.07
406.889	454.99
407.267	478.49
407.645	459.06
408.023	450.69
408.401	458.83
408.779	462.45
409.156	470.81
409.534	456.57
409.912	487.98
410.29	488.43
410.667	469.45
411.045	460.41
411.422	493.41
411.8	480.3
412.178	483.24
412.555	502.9
412.933	499.28
413.31	494.99
413.687	504.7
414.065	508.32
414.442	533.63
414.819	499.05
415.197	506.51
415.574	524.82
415.951	516.68
416.328	514.87
416.705	548.77
417.082	522.56
417.46	519.39
417.837	523.69
418.214	539.28
418.591	536.34
418.967	554.65
419.344	565.72
419.721	546.74
420.098	564.36
420.475	526.62
420.852	563.46
421.228	555.78
421.605	575.21
421.982	583.8
422.358	599.62
422.735	575.89
423.111	557.36
423.488	590.13
423.864	592.61
424.241	601.42
424.617	595.32
424.994	615.89
425.37	629.45
425.746	613.18
426.123	600.29
426.499	636.23
426.875	643.23
427.251	635.1
427.627	638.26
428.003	643.46
428.379	638.26
428.756	652.72
429.132	658.82
429.507	655.66
429.883	692.04
430.259	677.81
430.635	689.11
431.011	683.91
431.387	671.25
431.763	703.57
432.138	678.71
432.514	703.8
432.89	702.44
433.265	707.41
433.641	719.39
434.016	708.77
434.392	714.19
434.767	731.59
435.143	736.79
435.518	749.67
435.894	740.86
436.269	784.24
436.644	780.86
437.02	787.18
437.395	784.02
437.77	785.15
438.145	793.06
438.52	805.26
438.895	816.56
439.271	810.23
439.646	829.44
440.021	849.1
440.395	843
440.77	823.34
441.145	831.7
441.52	844.81
441.895	850.68
442.27	883
442.645	841.87
443.019	881.19
443.394	874.86
443.769	871.47
444.143	875.09
444.518	897.91
444.892	892.94
445.267	875.09
445.641	885.03
446.016	898.59
446.39	904.69
446.764	889.33
447.139	925.26
447.513	915.54
447.887	927.07
448.262	924.58
448.636	928.87
449.01	940.62
449.384	940.17
449.758	963.45
450.132	961.87
450.506	976.33
450.88	977.69
451.254	973.17
451.628	980.62
452.002	996.67
452.376	978.14
452.75	996.89
453.123	1013.39
453.497	1022.66
453.871	1045.03
454.244	1047.29
454.618	1059.94
454.992	1107.4
455.365	1068.76
455.739	1100.85
456.112	1101.07
456.486	1092.49
456.859	1126.38
457.232	1138.36
457.606	1133.16
457.979	1152.6
458.352	1145.14
458.725	1178.58
459.099	1202.76
459.472	1200.73
459.845	1204.57
460.218	1232.82
460.591	1218.36
460.964	1249.54
461.337	1273.05
461.71	1285.02
462.083	1304.01
462.456	1320.05
462.829	1317.11
463.201	1306.04
463.574	1341.52
463.947	1341.52
464.32	1361.18
464.692	1368.64
465.065	1428.3
465.438	1420.16
465.81	1442.08
466.183	1441.63
466.555	1476.88
466.928	1469.42
467.3	1493.6
467.672	1511.23
468.045	1532.25
468.417	1551.68
468.789	1558.69
469.161	1604.56
469.534	1609.31
469.906	1640.72
470.278	1637.56
470.65	1671.23
471.022	1704.22
471.394	1740.15
471.766	1731.56
472.138	1759.36
472.51	1819.47
472.882	1841.62
473.253	1820.83
473.625	1868.96
473.997	1920.03
474.369	1954.84
474.74	1973.82
475.112	1997.77
475.484	2032.8
475.855	2078
476.227	2098.79
476.598	2144.21
476.97	2173.36
477.341	2202.74
477.713	2239.12
478.084	2279.8
478.455	2332.9
478.827	2335.16
479.198	2419
479.569	2435.5
479.94	2500.36
480.311	2548.94
480.682	2600.69
481.053	2632.78
481.424	2713.91
481.795	2666.68
482.166	2756.17
482.537	2788.26
482.908	2868.94
483.279	2887.01
483.65	2986.22
484.021	3038.2
484.391	3075.26
484.762	3113.68
485.133	3149.61
485.503	3159.55
485.874	3265.76
486.244	3319.77
486.615	3362.93
486.985	3422.37
487.356	3501.24
487.726	3509.82
488.097	3599.54
488.467	3638.41
488.837	3692.64
489.207	3770.16
489.578	3860.55
489.948	3889.47
490.318	3899.42
490.688	3980.55
491.058	4007.66
491.428	4074.1
491.798	4085.63
492.168	4198.39
492.538	4232.74
492.908	4248.33
493.278	4336.69
493.648	4388.22
494.017	4413.53
494.387	4446.97
494.757	4504.15
495.126	4550.93
495.496	4587.08
495.866	4665.5
496.235	4681.32
496.605	4715.89
496.974	4800.41
497.344	4837.92
497.713	4804.03
498.082	4873.18
498.452	4946.62
498.821	4974.42
499.19	4994.76
499.559	5054.87
499.928	5086.96
500.298	5136.9
500.667	5145.03
501.036	5159.05
501.405	5210.12
501.774	5229.55
502.143	5324.24
502.512	5291.47
502.88	5329.66
503.249	5352.94
503.618	5372.37
503.987	5467.74
504.356	5495.53
504.724	5525.59
505.093	5454.4
505.462	5524.46
505.83	5569.88
506.199	5662.53
506.567	5681.29
506.936	5640.39
507.304	5732.14
507.672	5761.29
508.041	5785.92
508.409	5812.81
508.777	5906.82
509.145	5949.76
509.514	5942.75
509.882	5929.19
510.25	6004.9
510.618	5986.14
510.986	5994.5
511.354	6082.64
511.722	6121.73
512.09	6192.92
512.458	6107.04
512.826	6211.67
513.193	6188.4
513.561	6227.49
513.929	6253.71
514.297	6354.72
514.664	6334.16
515.032	6360.37
515.4	6438.11
515.767	6467.94
516.135	6469.29
516.502	6433.36
516.869	6498.67
517.237	6552.68
517.604	6527.37
517.972	6586.13
518.339	6666.35
518.706	6648.72
519.073	6663.41
519.44	6732.34
519.808	6726.91
520.175	6792
520.542	6871.09
520.909	6903.63
521.276	6866.12
521.643	6942.73
522.009	6961.48
522.376	6991.77
522.743	6971.88
523.11	7102.5
523.477	7169.16
523.843	7141.82
524.21	7232.21
524.577	7305.2
524.943	7331.19
525.31	7291.64
525.676	7347.46
526.043	7406.9
526.409	7475.59
526.776	7534.35
527.142	7551.3
527.508	7623.61
527.874	7637.17
528.241	7655.02
528.607	7722.14
528.973	7792.2
529.339	7773.21
529.705	7821.35
530.071	7933.21
530.437	7927.33
530.803	7989.03
531.169	8045.3
531.535	8034.22
531.901	8063.38
532.267	8095.92
532.632	8154.22
532.998	8185.86
533.364	8271.51
533.73	8288.68
534.095	8276.93
534.461	8377.49
534.826	8461.78
535.192	8457.72
535.557	8514.66
535.923	8457.72
536.288	8495.23
536.653	8569.12
537.019	8543.36
537.384	8633.98
537.749	8707.65
538.114	8687.99
538.479	8684.83
538.845	8711.49
539.21	8747.2
539.575	8782.23
539.94	8809.8
540.305	8868.78
540.67	8836.91
541.034	8975.89
541.399	8973.86
541.764	8988.77
542.129	9034.88
542.494	8979.28
542.858	9144.03
543.223	9142.67
543.587	9256.34
543.952	9172.05
544.316	9238.49
544.681	9305.6
545.045	9358.93
545.41	9379.05
545.774	9379.27
546.138	9431.02
546.503	9449.33
546.867	9456.11
547.231	9571.13
547.595	9585.82
547.959	9587.63
548.324	9655.2
548.688	9583.79
549.052	9664.46
549.416	9709.21
549.779	9817.91
550.143	9743.56
550.507	9731.13
550.871	9833.95
551.235	9855.19
551.599	9958.92
551.962	9920.05
552.326	9981.97
552.689	10056.54
553.053	9981.74
553.417	9957.11
553.78	10177.67
554.143	10148.07
554.507	10148.97
554.87	10175.86
555.234	10335.86
555.597	10312.36
555.96	10276.2
556.323	10273.49
556.686	10388.06
557.05	10416.76
557.413	10431
557.776	10452.47
558.139	10576.3
558.502	10585.57
558.865	10579.69
559.228	10648.62
559.59	10679.35
559.953	10717.54
560.316	10761.38
560.679	10823.98
561.041	10883.87
561.404	10861.04
561.767	10937.42
562.129	10982.62
562.492	11052
562.854	10996.18
563.217	11056.97
563.579	11046.12
563.941	11132.67
564.304	11147.14
564.666	11273.46
565.028	11249.28
565.39	11299.67
565.753	11400.91
566.115	11350.07
566.477	11426.45
566.839	11470.07
567.201	11617.18
567.563	11592.55
567.925	11581.48
568.287	11672.09
568.648	11670.96
569.01	11746.44
569.372	11802.26
569.734	11785.31
570.095	11890.39
570.457	11983.5
570.819	11989.6
571.18	11927.45
571.542	12058.75
571.903	12146.43
572.265	12174.23
572.626	12251.29
572.987	12243.6
573.349	12313.89
573.71	12352.53
574.071	12458.74
574.432	12490.6
574.794	12581.67
575.155	12583.48
575.516	12685.85
575.877	12763.59
576.238	12872.51
576.599	12898.73
576.96	12976.69
577.32	13018.73
577.681	13175.56
578.042	13176.24
578.403	13325.16
578.763	13373.52
579.124	13486.06
579.485	13678.82
579.845	13816.44
580.206	13821.42
580.566	13877.46
580.927	14079.04
581.287	14308.18
581.648	14272.93
582.008	14521.06
582.368	14582.98
582.728	14711.34
583.089	14839.24
583.449	15024.55
583.809	15189.29
584.169	15419.79
584.529	15537.08
584.889	15944.52
585.249	15898.42
585.609	16006.9
585.969	16368.02
586.329	16499.31
586.688	16723.03
587.048	16941.56
587.408	17193.3
587.768	17401.44
588.127	17574.99
588.487	17796.68
588.846	18196.44
589.206	18308.98
589.565	18469.43
589.925	18873.03
590.284	19205.68
590.643	19395.96
591.003	19783.75
591.362	20115.04
591.721	20265.77
592.08	20540.11
592.44	20968.35
592.799	21196.59
593.158	21475
593.517	21704.82
593.876	22084.7
594.235	22310.46
594.593	22743.44
594.952	23046.94
595.311	23279.02
595.67	23731.66
596.029	24040.58
596.387	24364.42
596.746	24784.29
597.104	24954.23
597.463	25172.76
597.822	25664.27
598.18	25763.25
598.538	26292.5
598.897	26634.19
599.255	26691.59
599.613	27396.43
599.972	27530.21
600.33	27820.14
600.688	28072.11
601.046	28473.46
601.404	28916.84
601.762	28979.44
602.12	29569.02
602.478	29819.19
602.836	30226.41
603.194	30189.35
603.552	30577.36
603.91	30838.6
604.268	31150.9
604.625	31401.52
604.983	31881.28
605.341	31978
605.698	32406.69
606.056	32786.79
606.413	32994.47
606.771	33191.75
607.128	33552.87
607.485	33555.36
607.843	33905.63
608.2	34336.58
608.557	34795.78
608.914	34768.66
609.272	35216.33
609.629	35521.86
609.986	35648.64
610.343	35964.79
610.7	36228.96
611.057	36412.23
611.414	36531.1
611.771	36828.04
612.127	37148.49
612.484	37250.63
612.841	37589.83
613.198	37658.98
613.554	37931.52
613.911	38236.37
614.267	38403.82
614.624	38505.96
614.98	38727.43
615.337	39108.89
615.693	39130.81
616.05	39350.24
616.406	39682.66
616.762	39710.23
617.118	39863.9
617.475	39951.12
617.831	40258.24
618.187	40435.86
618.543	40627.27
618.899	40878.56
619.255	41040.59
619.611	41000.59
619.967	41241.71
620.323	41450.52
620.678	41507.24
621.034	41602.15
621.39	41541.59
621.746	41716.95
622.101	42325.07
622.457	41985.65
622.812	42303.61
623.168	42368.91
623.523	42588.8
623.879	42629.25
624.234	42479.42
624.589	42847.55
624.945	42902.46
625.3	42923.02
625.655	42982.01
626.01	43022.23
626.365	43262.45
626.72	43316.91
627.075	43206.86
627.43	43360.53
627.785	43259.06
628.14	43471.26
628.495	43493.86
628.85	43734.53
629.205	43542.89
629.559	43822.44
629.914	43689.78
630.269	43693.85
630.623	43798.93
630.978	43785.83
631.332	43976.78
631.687	44003.45
632.041	43853.85
632.396	44059.49
632.75	43839.38
633.104	44147.17
633.459	43795.54
633.813	43951.7
634.167	43911.47
634.521	44068.3
634.875	44079.83
635.229	44141.97
635.583	43881.19
635.937	44073.28
636.291	44015.88
636.645	44057.91
636.999	44080.73
637.352	44016.78
637.706	43866.28
638.06	44093.16
638.413	44099.04
638.767	44004.8
639.121	43995.09
639.474	43694.76
639.828	43766.62
640.181	44062.88
640.534	44061.07
640.888	43898.37
641.241	43808.88
641.594	43863.34
641.947	43928.87
642.301	43855.2
642.654	43860.63
643.007	43991.92
643.36	43927.29
643.713	43847.97
644.066	44081.41
644.419	43863.56
644.771	43549.67
645.124	43228.55
645.477	43214.09
645.83	42963.47
646.182	42733.65
646.535	42631.28
646.888	42861.1
647.24	42622.24
647.593	42867.88
647.945	42744.95
648.298	42629.02
648.65	42553.09
649.002	42446.2
649.355	42629.02
649.707	42533.66
650.059	42809.81
650.411	43212.28
650.763	43406.4
651.115	43624.25
651.467	43406.18
651.819	43424.71
652.171	43384.93
652.523	43456.34
652.875	43314.43
653.227	43120.98
653.578	43398.94
653.93	43435.55
654.282	43171.38
654.633	43161.89
654.985	43229.23
655.337	43406.4
655.688	43276.46
656.039	43473.52
656.391	43123.02
656.742	43209.12
657.094	43238.95
657.445	43415.67
657.796	43215.67
658.147	43209.34
658.498	43126.86
658.849	43150.36
659.2	43163.92
659.551	42981.55
659.902	43122.11
660.253	42850.26
660.604	43220.42
660.955	42919.86
661.306	43083.47
661.656	43029.24
662.007	43058.39
662.358	43122.11
662.708	43057.94
663.059	43170.25
663.409	42854.1
663.76	43109.91
664.11	43172.06
664.461	43159.85
664.811	43034.66
665.161	43092.74
665.511	42957.15
665.862	43060.2
666.212	42989.01
666.562	43108.1
666.912	42983.81
667.262	42914.21
667.612	42876.25
667.962	43043.7
668.312	43131.15
668.662	43160.53
669.011	43063.13
669.361	42963.25
669.711	42877.15
670.06	42940.88
670.41	42765.51
670.76	42750.15
671.109	42935.68
671.459	42843.93
671.808	42719.19
672.157	42898.84
672.507	42628.12
672.856	42652.97
673.205	42779.98
673.554	42843.7
673.904	42593.77
674.253	42802.35
674.602	42714.22
674.951	42221.8
675.3	41996.49
675.649	42610.49
675.998	42549.7
676.346	42510.83
676.695	42642.35
677.044	42359.2
677.393	42476.03
677.741	42631.28
678.09	42542.24
678.438	42400.1
678.787	42413.88
679.135	42447.33
679.484	42219.99
679.832	42389.93
680.181	42172.54
680.529	42206.43
680.877	42077.4
681.225	42095.93
681.573	42213.44
681.922	41935.25
682.27	41811.87
682.618	41867.68
682.966	41679.21
683.314	41946.1
683.661	41755.37
684.009	41512.44
684.357	41363.06
684.705	41522.61
685.053	41466.34
685.4	41518.09
685.748	41204.65
686.095	41326.68
686.443	41232.22
686.79	41112.9
687.138	41169.17
687.485	41139.57
687.832	40992.23
688.18	41192.9
688.527	40869.97
688.874	40810.31
689.221	40817.54
689.568	40672.46
689.915	40577.55
690.262	40508.62
690.609	40390.89
690.956	40258.24
691.303	40226.82
691.65	40080.61
691.997	40036.77
692.344	39849.66
692.69	39738.93
693.037	39910.67
693.383	39504.58
693.73	39515.2
694.077	39493.28
694.423	39525.6
694.769	39336
695.116	39247.19
695.462	39250.8
695.808	39061.66
696.155	39178.72
696.501	38854.66
696.847	38850.14
697.193	38585.51
697.539	38712.97
697.885	38413.54
698.231	38437.27
698.577	38413.54
698.923	38380.54
699.269	38087.22
699.614	37872.76
699.96	38012.19
700.306	37939.65
700.651	37748.47
700.997	37713.9
701.342	37707.34
701.688	37600.9
702.033	37452.21
702.379	37486.56
702.724	37225.77
703.069	37466.44
703.415	36931.32
703.76	37010.64
704.105	37159.79
704.45	36850.42
704.795	36762.96
705.14	36640.48
705.485	36688.61
705.83	36393.48
706.175	36556.41
706.52	36347.38
706.865	36267.61
707.209	36329.07
707.554	36073.03
707.899	36185.8
708.243	35813.61
708.588	35883.66
708.932	35663.1
709.277	35606.38
709.621	35720.05
709.966	35454.07
710.31	35505.82
710.654	35267.86
710.998	35232.6
711.342	35268.08
711.687	35136.79
712.031	35019.05
712.375	34918.26
712.719	34968.88
713.063	34907.42
713.407	35046.39
713.75	34806.18
714.094	34782.67
714.438	34643.24
714.782	34746.97
715.125	34617.71
715.469	34503.81
715.812	34331.39
716.156	34271.5
716.499	34344.04
716.843	34323.25
717.186	34077.61
717.53	34177.27
717.873	34144.72
718.216	34090.94
718.559	33909.48
718.902	33732.31
719.246	33804.17
719.589	33684.17
719.932	33617.51
720.275	33620.44
720.617	33580.44
720.96	33489.83
721.303	33588.13
721.646	33396.49
721.989	33257.74
722.331	33349.04
722.674	33216.61
723.016	33268.81
723.359	33154.92
723.701	33301.58
724.044	32966.9
724.386	32797.64
724.729	33152.43
725.071	32958.99
725.413	32894.81
725.755	32896.85
726.097	32688.04
726.439	32580.92
726.782	32634.25
727.124	32644.65
727.465	32606.91
727.807	32448.05
728.149	32381.15
728.491	32231.55
728.833	32497.31
729.175	32287.37
729.516	32257.32
729.858	32177.54
730.199	32097.09
730.541	32041.73
730.882	32076.98
731.224	32160.82
731.565	31928.06
731.906	31967.61
732.248	31961.05
732.589	31832.92
732.93	31616.65
733.271	31602.42
733.612	31642.64
733.953	31602.87
734.294	31546.6
734.635	31416.89
734.976	31585.69
735.317	31300.28
735.658	31425.93
735.999	31441.52
736.339	31238.81
736.68	31413.95
737.021	31330.11
737.361	31184.35
737.702	31430.9
738.042	31203.56
738.383	31139.6
738.723	31280.39
739.063	30971.93
739.404	31032.72
739.744	31161.53
740.084	30880.63
740.424	30870.69
740.764	30719.73
741.104	30992.94
741.444	30697.58
741.784	30617.13
742.124	30735.1
742.464	30656.23
742.804	30544.14
743.143	30535.55
743.483	30545.95
743.823	30456.46
744.162	30421.43
744.502	30395.22
744.841	30208.1
745.181	30431.83
745.52	30183.02
745.86	30387.76
746.199	30167.2
746.538	30108.67
746.877	30168.78
747.216	30131.95
747.556	30176.69
747.895	30156.13
748.234	29794.56
748.573	29879.98
748.911	29788.91
749.25	29889.69
749.589	29667.1
749.928	29831.16
750.267	29747.1
750.605	29675.24
750.944	29673.2
751.283	29377.62
751.621	29658.51
751.96	29452.87
752.298	29334
752.636	29385.75
752.975	29123.84
753.313	29182.59
753.651	29202.93
753.989	29142.37
754.327	29082.71
754.666	28925.65
755.004	28965.2
755.342	28955.03
755.679	28792.1
756.017	28650.63
756.355	28771.76
756.693	28503.74
757.031	28731.31
757.368	28479.79
757.706	28569.73
758.044	28411.77
758.381	28373.58
758.719	28175.62
759.056	28292.9
759.394	28189.63
759.731	28060.82
760.068	27910.31
760.405	27916.86
760.743	27880.26
761.08	27857.43
761.417	27793.03
761.754	27771.78
762.091	27699.24
762.428	27496.54
762.765	27379.25
763.102	27364.79
763.438	27328.86
763.775	27260.84
764.112	27336.54
764.449	27231.01
764.785	26996.66
765.122	26987.17
765.458	26855.2
765.795	26827.18
766.131	26770.68
766.467	26720.51
766.804	26577.69
767.14	26351.71
767.476	26520.07
767.812	26364.14
768.148	26279.17
768.485	26136.12
768.821	26044.37
769.157	25989.68
769.492	25927.31
769.828	25950.81
770.164	25712.85
770.5	25561.22
770.836	25530.49
771.171	25428.34
771.507	25371.62
771.842	25154.68
772.178	25124.85
772.513	25060.89
772.849	25006.43
773.184	24909.03
773.519	24817.29
773.855	24739.1
774.19	24589.49
774.525	24655.03
774.86	24585.65
775.195	24487.58
775.53	24333.46
775.865	24017.53
776.2	24099.79
776.535	23891.89
776.87	23977.53
777.205	23838.78
777.539	23861.6
777.874	23788.16
778.209	23620.03
778.543	23575.06
778.878	23428.17
779.212	23387.04
779.547	23259.59
779.881	23312.92
780.215	23072.25
780.55	23207.16
780.884	23045.58
781.218	22860.5
781.552	22920.39
781.886	22928.52
782.22	22673.84
782.554	22573.05
782.888	22559.94
783.222	22336.9
783.556	22293.51
783.889	22240.18
784.223	22046.96
784.557	22049.22
784.89	22017.36
785.224	21889.45
785.557	21902.56
785.891	21827.08
786.224	21700.31
786.558	21643.81
786.891	21534.66
787.224	21346.64
787.557	21349.13
787.891	21301.9
788.224	21291.28
788.557	21304.38
788.89	21194.56
789.223	21147.33
789.556	21021.68
789.888	20983.94
790.221	20842.47
790.554	20846.09
790.887	20729.03
791.219	20570.84
791.552	20548.7
791.884	20394.12
792.217	20455.37
792.549	20367.01
792.882	20231.87
793.214	20123.17
793.546	20211.53
793.879	20063.74
794.211	19978.99
794.543	19973.8
794.875	19818.55
795.207	19939.67
795.539	19739.23
795.871	19782.39
796.203	19626.69
796.535	19511.89
796.867	19480.7
797.198	19416.75
797.53	19368.16
797.862	19187.83
798.193	19202.97
798.525	19138.79
798.856	19141.5
799.188	19019.92
799.519	18893.6
799.85	18863.09
800.182	18858.12
800.513	18805.69
800.844	18622.65
801.175	18689.08
801.506	18588.75
801.837	18606.83
802.168	18513.5
802.499	18540.39
802.83	18369.55
803.161	18293.16
803.491	18190.34
803.822	18236.67
804.153	18187.18
804.483	18082.32
804.814	18035.99
805.145	17939.73
805.475	17880.97
805.805	17903.79
806.136	17942.21
806.466	17922.55
806.796	17812.95
807.126	17665.38
807.457	17707.87
807.787	17707.19
808.117	17447.08
808.447	17560.53
808.777	17537.02
809.107	17444.82
809.436	17300.87
809.766	17394.66
810.096	17381.55
810.426	17228.11
810.755	17215.9
811.085	17256.81
811.414	17131.84
811.744	16957.6
812.073	16961.22
812.403	17011.16
812.732	16863.37
813.061	16846.65
813.39	16809.13
813.719	16712.64
814.049	16764.16
814.378	16634.68
814.707	16590.16
815.036	16576.15
815.365	16519.2
815.693	16466.32
816.022	16483.72
816.351	16314.01
816.68	16359.43
817.008	16322.14
817.337	16177.96
817.665	16068.14
817.994	16144.74
818.322	16183.39
818.651	16069.94
818.979	16028.14
819.307	16110.17
819.636	16079.44
819.964	15887.12
820.292	16009.61
820.62	16022.04
820.948	15982.04
821.276	15909.72
821.604	15840.35
821.932	15901.36
822.259	15851.65
822.587	15806.67
822.915	15864.75
823.243	15949.5
823.57	15843.06
823.898	15829.73
824.225	15733.91
824.553	15735.04
824.88	15823.85
825.207	15832.89
825.535	15878.31
825.862	15756.73
826.189	15749.5
826.516	15789.73
826.843	15998.99
827.17	15867.92
827.497	15840.12
827.824	15864.3
828.151	15836.73
828.478	15814.58
828.805	15869.72
829.131	15726.22
829.458	15683.29
829.785	15750.18
830.111	15715.6
830.438	15779.1
830.764	15718.09
831.09	15754.7
831.417	15657.3
831.743	15816.39
832.069	15702.5
832.395	15641.93
832.722	15659.11
833.048	15642.61
833.374	15710.41
833.7	15599.45
834.026	15698.43
834.351	15585.89
834.677	15589.73
835.003	15599
835.329	15517.19
835.654	15540.02
835.98	15476.06
836.306	15535.95
836.631	15461.37
836.956	15479.45
837.282	15484.42
837.607	15360.36
837.932	15352.22
838.258	15315.39
838.583	15335.73
838.908	15210.98
839.233	15259.34
839.558	15274.49
839.883	15219.8
840.208	15100.25
840.533	15223.64
840.858	15104.09
841.182	15033.36
841.507	15176.63
841.832	15104.32
842.156	15038.56
842.481	14986.58
842.805	14971.22
843.13	14910.65
843.454	14881.05
843.778	14831.56
844.103	14833.14
844.427	14774.16
844.751	14770.77
845.075	14778
845.399	14691.45
845.723	14573.26
846.047	14634.28
846.371	14428.86
846.695	14528.52
847.019	14442.64
847.343	14270.67
847.666	14243.78
847.99	14259.82
848.313	14199.71
848.637	14091.24
848.96	14048.08
849.284	14058.47
849.607	14001.07
849.931	13852.83
850.254	13806.05
850.577	13727.63
850.9	13653.29
851.223	13599.73
851.546	13556.34
851.869	13405.38
852.192	13509.56
852.515	13416.91
852.838	13384.82
853.161	13353.63
853.483	13338.72
853.806	13193.64
854.129	13179.17
854.451	13115.9
854.774	13100.08
855.096	13008.1
855.419	12947.77
855.741	12932.17
856.063	12957.48
856.385	12877.49
856.708	12864.38
857.03	12786.87
857.352	12810.6
857.674	12727.21
857.996	12627.1
858.318	12660.09
858.64	12676.14
858.961	12543.48
859.283	12515.46
859.605	12507.78
859.926	12458.51
860.248	12470.04
860.57	12431.17
860.891	12368.35
861.212	12298.74
861.534	12361.57
861.855	12277.5
862.176	12352.3
862.498	12305.52
862.819	12302.13
863.14	12185.3
863.461	12147.11
863.782	12128.35
864.103	12144.4
864.424	12105.76
864.745	12134.91
865.065	11974.91
865.386	11977.4
865.707	12041.12
866.027	11991.86
866.348	11940.34
866.668	11970.84
866.989	11913.67
867.309	11756.61
867.63	11868.25
867.95	11850.62
868.27	11793.45
868.59	11785.31
868.91	11838.19
869.23	11754.35
869.55	11658.31
869.87	11810.4
870.19	11730.85
870.51	11722.71
870.83	11790.06
871.15	11649.95
871.469	11665.77
871.789	11643.62
872.109	11622.6
872.428	11562.04
872.748	11587.58
873.067	11578.99
873.386	11511.42
873.706	11558.2
874.025	11448.6
874.344	11456.51
874.663	11416.96
874.982	11463.29
875.301	11451.99
875.62	11395.94
875.939	11438.43
876.258	11396.85
876.577	11340.13
876.896	11254.03
877.214	11249.28
877.533	11274.36
877.852	11268.26
878.17	11177.42
878.489	11178.32
878.807	11200.47
879.125	11182.62
879.444	11160.47
879.762	11106.46
880.08	11167.7
880.398	11093.8
880.716	11127.7
881.034	11023.98
881.352	11072.34
881.67	10990.08
881.988	11022.17
882.306	10984.43
882.624	10944.88
882.941	10865.56
883.259	10840.25
883.577	10797.99
883.894	10826.69
884.212	10800.7
884.529	10781.27
884.846	10755.51
885.164	10782.85
885.481	10728.84
885.798	10691.1
886.115	10645.23
886.432	10631.67
886.75	10612.01
887.067	10591.22
887.383	10501.5
887.7	10577.21
888.017	10473.71
888.334	10503.31
888.651	10512.8
888.967	10440.71
889.284	10358.68
889.6	10376.08
889.917	10335.63
890.233	10323.2
890.55	10299.25
890.866	10276.65
891.182	10192.36
891.498	10205.69
891.815	10111.01
892.131	10158.01
892.447	10098.58
892.763	10109.65
893.079	10028.75
893.395	10093.15
893.71	9972.03
894.026	9953.27
894.342	9873.95
894.657	9875.31
894.973	9855.42
895.289	9847.28
895.604	9850.22
895.92	9732.48
896.235	9700.39
896.55	9714.18
896.865	9627.85
897.181	9620.17
897.496	9628.98
897.811	9544.69
898.126	9589.89
898.441	9468.54
898.756	9519.38
899.071	9398.03
899.386	9429.67
899.7	9362.32
900.015	9314.42
900.33	9276.9
900.644	9261.31
900.959	9276
901.273	9205.49
901.588	9194.19
901.902	9158.26
902.216	9115.55
902.531	9036.23
902.845	9089.34
903.159	9017.47
903.473	8984.48
903.787	8860.87
904.101	8923.24
904.415	8917.36
904.729	8891.38
905.042	8796.92
905.356	8739.97
905.67	8756.24
905.984	8773.64
906.297	8736.8
906.611	8690.03
906.924	8679.86
907.237	8630.14
907.551	8629.46
907.864	8553.76
908.177	8504.04
908.491	8569.35
908.804	8434.21
909.117	8386.08
909.43	8351.96
909.743	8365.51
910.056	8323.71
910.368	8277.38
910.681	8279.19
910.994	8176.59
911.307	8219.53
911.619	8075.35
911.932	8112.87
912.244	8085.3
912.557	7982.93
912.869	7962.81
913.181	8000.55
913.494	7955.13
913.806	7871.97
914.118	7880.78
914.43	7792.65
914.742	7876.71
915.054	7792.2
915.366	7782.25
915.678	7683.05
915.99	7633.1
916.302	7622.71
916.613	7513.33
916.925	7562.15
917.236	7572.54
917.548	7478.98
917.859	7508.14
918.171	7439.21
918.482	7368.7
918.794	7339.78
919.105	7345.2
919.416	7262.72
919.727	7310.85
920.038	7219.33
920.349	7270.85
920.66	7194.7
920.971	7209.16
921.282	7144.76
921.593	7087.36
921.903	7076.28
922.214	7033.8
922.525	7039
922.835	6998.54
923.146	6919.9
923.456	6938.21
923.767	6891.88
924.077	6856.63
924.387	6865.21
924.697	6777.76
925.008	6778.44
925.318	6731.43
925.628	6767.36
925.938	6705.22
926.248	6587.48
926.558	6654.15
926.867	6633.58
927.177	6615.28
927.487	6632.9
927.796	6507.94
928.106	6470.2
928.416	6474.49
928.725	6437.2
929.034	6392.23
929.344	6432.23
929.653	6392.01
929.962	6306.59
930.271	6299.81
930.581	6259.58
930.89	6246.93
931.199	6162.18
931.508	6210.99
931.817	6168.74
932.125	6194.5
932.434	6155.63
932.743	6106.36
933.051	6046.48
933.36	6062.75
933.669	6079.92
933.977	5954.28
934.286	5973.49
934.594	5919.7
934.902	5867.28
935.21	5905.01
935.519	5842.19
935.827	5836.77
936.135	5783.89
936.443	5812.14
936.751	5758.58
937.059	5777.79
937.367	5725.81
937.674	5759.26
937.982	5655.98
938.29	5621.63
938.597	5609.65
938.905	5550.22
939.213	5576.89
939.52	5550.45
939.827	5482.88
940.135	5486.49
940.442	5415.08
940.749	5446.95
941.056	5455.31
941.363	5380.73
941.67	5386.16
941.977	5300.28
942.284	5299.83
942.591	5289.89
942.898	5267.97
943.205	5316.1
943.511	5240.85
943.818	5232.94
944.125	5212.83
944.431	5204.02
944.738	5166.5
945.044	5081.99
945.35	5137.8
945.657	5054.64
945.963	5045.6
946.269	4991.37
946.575	4987.3
946.881	4964.25
947.187	4982.1
947.493	4942.33
947.799	4910.46
948.105	4888.32
948.41	4848.77
948.716	4855.32
949.022	4829.11
949.327	4862.1
949.633	4802.67
949.938	4772.16
950.244	4742.11
950.549	4701.88
950.854	4748.89
951.16	4729.45
951.465	4694.42
951.77	4664.37
952.075	4658.95
952.38	4622.79
952.685	4646.29
952.99	4573.3
953.294	4539.85
953.599	4513.64
953.904	4457.82
954.209	4486.29
954.513	4531.72
954.818	4466.41
955.122	4416.47
955.426	4438.16
955.731	4412.4
956.035	4338.95
956.339	4381.89
956.643	4407.88
956.948	4359.29
957.252	4266.41
957.556	4278.39
957.86	4237.49
958.163	4234.1
958.467	4235.68
958.771	4224.83
959.075	4204.27
959.378	4174.21
959.682	4180.31
959.985	4117.49
960.289	4147.77
960.592	4118.85
960.896	4095.8
961.199	4092.41
961.502	4073.88
961.805	3992.75
962.108	4004.27
962.411	3991.39
962.714	3985.06
963.017	3968.34
963.32	3961.34
963.623	3908.46
963.926	3926.76
964.228	3884.28
964.531	3868.46
964.833	3857.16
965.136	3830.49
965.438	3819.42
965.741	3785.97
966.043	3795.47
966.345	3772.64
966.648	3741.23
966.95	3781.23
967.252	3721.79
967.554	3650.84
967.856	3698.07
968.158	3651.97
968.46	3673.43
968.761	3623.27
969.063	3613.1
969.365	3616.94
969.666	3614.45
969.968	3603.15
970.269	3592.31
970.571	3552.31
970.872	3555.25
971.174	3506.43
971.475	3531.97
971.776	3537.84
972.077	3489.26
972.378	3468.02
972.679	3414.23
972.98	3408.36
973.281	3389.6
973.582	3445.87
973.883	3374.46
974.183	3376.04
974.484	3352.99
974.785	3313.9
975.085	3340.79
975.386	3336.95
975.686	3338.08
975.986	3273.45
976.287	3301.69
976.587	3266.67
976.887	3211.3
977.187	3226.67
977.487	3215.14
977.787	3233.22
978.087	3150.51
978.387	3190.51
978.687	3132.43
978.987	3140.34
979.286	3142.6
979.586	3111.19
979.885	3105.99
980.185	3058.31
980.484	3061.93
980.784	3079.1
981.083	3043.17
981.382	3029.84
981.682	3032.55
981.981	2985.32
982.28	3034.13
982.579	2961.14
982.878	2982.83
983.177	2958.43
983.475	2909.84
983.774	2906.9
984.073	2913.23
984.372	2886.79
984.67	2882.72
984.969	2879.11
985.267	2840.91
985.566	2830.74
985.864	2812.89
986.162	2794.81
986.461	2813.8
986.759	2786.9
987.057	2741.48
987.355	2757.53
987.653	2755.27
987.951	2739.67
988.249	2720.69
988.547	2724.76
988.844	2691.99
989.142	2657.87
989.44	2675.72
989.737	2689.28
990.035	2663.07
990.332	2664.65
990.63	2615.84
990.927	2640.24
991.224	2577.64
991.521	2588.04
991.819	2589.85
992.116	2581.49
992.413	2563.63
992.71	2541.26
993.006	2523.41
993.303	2521.15
993.6	2514.14
993.897	2476.86
994.193	2493.8
994.49	2477.53
994.787	2476.86
995.083	2448.38
995.379	2430.3
995.676	2412.45
995.972	2443.41
996.268	2397.08
996.565	2401.38
996.861	2397.31
997.157	2377.88
997.453	2371.1
997.749	2367.93
998.044	2331.77
998.34	2339.91
998.636	2328.61
998.932	2311.66
999.227	2312.34
999.523	2268.5
999.818	2243.42
1000.114	2240.25
1000.409	2262.4
1000.704	2230.99
1001	2220.37
1001.295	2186.47
1001.59	2219.69
1001.885	2181.72
1002.18	2163.64
1002.475	2175.17
1002.77	2141.05
1003.065	2105.79
1003.359	2129.07
1003.654	2111.22
1003.949	2129.07
1004.243	2120.48
1004.538	2074.38
1004.832	2088.84
1005.127	2082.52
1005.421	2033.03
1005.715	2022.86
1006.009	2030.54
1006.304	2042.29
1006.598	2032.12
1006.892	1984.21
1007.186	1996.42
1007.48	1967.72
1007.773	1927.04
1008.067	1926.14
1008.361	1954.38
1008.655	1916.42
1008.948	1922.75
1009.242	1913.03
1009.535	1875.06
1009.829	1884.55
1010.122	1862.41
1010.415	1844.1
1010.708	1845.23
1011.001	1831.45
1011.295	1834.84
1011.588	1818.12
1011.881	1812.01
1012.173	1770.21
1012.466	1796.42
1012.759	1760.94
1013.052	1764.56
1013.344	1760.04
1013.637	1737.89
1013.93	1745.12
1014.222	1697.67
1014.514	1711.68
1014.807	1686.37
1015.099	1703.99
1015.391	1697.22
1015.683	1667.39
1015.976	1680.94
1016.268	1667.84
1016.56	1623.32
1016.851	1643.88
1017.143	1615.64
1017.435	1612.25
1017.727	1626.26
1018.018	1568.63
1018.31	1612.92
1018.602	1590.33
1018.893	1588.52
1019.185	1536.99
1019.476	1537.22
1019.767	1519.14
1020.058	1539.25
1020.35	1523.89
1020.641	1493.6
1020.932	1490.44
1021.223	1461.06
1021.514	1490.44
1021.804	1457
1022.095	1461.97
1022.386	1456.54
1022.677	1435.75
1022.967	1431.01
1023.258	1426.26
1023.548	1398.47
1023.839	1385.81
1024.129	1388.3
1024.419	1364.79
1024.709	1355.98
1025	1389.43
1025.29	1358.02
1025.58	1346.72
1025.87	1334.29
1026.16	1325.25
1026.449	1332.71
1026.739	1288.64
1027.029	1298.13
1027.319	1289.77
1027.608	1285.25
1027.898	1279.83
1028.187	1277.11
1028.477	1253.16
1028.766	1236.89
1029.055	1257.23
1029.344	1258.81
1029.634	1235.53
1029.923	1228.08
1030.212	1176.78
1030.501	1211.13
1030.79	1217.23
1031.078	1157.79
1031.367	1186.04
1031.656	1152.37
1031.945	1149.89
1032.233	1152.82
1032.522	1125.03
1032.81	1139.72
1033.099	1138.36
1033.387	1135.65
1033.675	1098.13
1033.963	1119.15
1034.251	1100.62
1034.54	1097.68
1034.828	1091.81
1035.116	1079.15
1035.403	1100.39
1035.691	1063.11
1035.979	1062.43
1036.267	1058.14
1036.554	1052.26
1036.842	1060.62
1037.129	1032.6
1037.417	1034.41
1037.704	1030.11
1037.992	1012.04
1038.279	1016.1
1038.566	997.57
1038.853	997.57
1039.14	997.57
