Data from hue_150_FLMS001491_00098.txt Node
Date: Tue Feb 07 16:54:48 GMT 2017
User: dcchb
Spectrometer: FLMS00149
Trigger mode: 0
Integration Time (sec): 2.000000E-2
Scans to average: 10
Electric dark correction enabled: true
Nonlinearity correction enabled: false
Boxcar width: 0
XAxis mode: Wavelengths
Number of Pixels in Spectrum: 2048
>>>>>Begin Spectral Data<<<<<
341.393	-14.39
341.776	-14.39
342.16	-14.39
342.543	-46.26
342.927	-79.48
343.31	-69.98
343.693	-70.21
344.077	-58.91
344.46	-59.14
344.843	-42.41
345.226	-56.2
345.61	-48.74
345.993	-9.42
346.376	-12.13
346.759	-1.06
347.142	31.26
347.525	39.62
347.908	74.64
348.291	74.42
348.674	85.04
349.057	123.23
349.44	132.5
349.823	132.04
350.206	165.94
350.588	181.99
350.971	200.07
351.354	223.34
351.737	225.15
352.119	238.71
352.502	251.14
352.884	264.02
353.267	280.97
353.65	290.68
354.032	290.68
354.414	314.19
354.797	287.29
355.179	317.12
355.562	320.06
355.944	314.86
356.326	298.14
356.709	337.01
357.091	343.34
357.473	348.76
357.855	338.82
358.238	348.99
358.62	324.81
359.002	323
359.384	345.6
359.766	353.06
360.148	335.66
360.53	337.01
360.912	319.38
361.294	341.76
361.676	319.38
362.057	302.66
362.439	346.73
362.821	320.74
363.203	320.74
363.584	312.15
363.966	325.03
364.348	317.35
364.729	320.51
365.111	297.69
365.493	312.83
365.874	306.96
366.256	313.28
366.637	292.27
367.019	304.24
367.4	315.54
367.781	308.54
368.163	310.8
368.544	321.87
368.925	310.12
369.306	302.21
369.688	308.99
370.069	292.94
370.45	299.27
370.831	289.33
371.212	291.14
371.593	304.24
371.974	313.96
372.355	317.12
372.736	304.47
373.117	306.73
373.498	309.89
373.879	305.6
374.26	319.61
374.641	291.36
375.021	299.5
375.402	308.76
375.783	295.2
376.163	310.12
376.544	323.9
376.925	324.58
377.305	316.67
377.686	301.53
378.066	309.44
378.447	326.39
378.827	316.67
379.208	313.51
379.588	333.62
379.968	339.04
380.349	329.78
380.729	330.23
381.109	313.96
381.489	313.28
381.87	324.13
382.25	327.97
382.63	318.93
383.01	335.43
383.39	347.86
383.77	321.42
384.15	329.78
384.53	337.01
384.91	342.89
385.29	319.61
385.67	330.23
386.049	353.28
386.429	373.17
386.809	343.34
387.189	342.89
387.568	316.9
387.948	331.36
388.328	342.89
388.707	352.6
389.087	340.17
389.466	356.45
389.846	335.2
390.225	362.32
390.605	367.97
390.984	367.29
391.363	339.95
391.743	342.66
392.122	358.25
392.501	361.42
392.881	349.44
393.26	342.43
393.639	345.15
394.018	361.64
394.397	353.06
394.776	385.37
395.155	388.31
395.534	367.97
395.913	355.54
396.292	364.58
396.671	344.47
397.05	392.83
397.429	351.02
397.808	356.67
398.186	404.35
398.565	376.56
398.944	361.87
399.323	360.74
399.701	370.91
400.08	371.59
400.458	383.34
400.837	366.84
401.215	363.45
401.594	379.72
401.972	374.3
402.351	390.12
402.729	426.5
403.107	378.37
403.486	403.68
403.864	382.89
404.242	383.34
404.62	400.29
404.999	405.48
405.377	392.15
405.755	399.61
406.133	400.96
406.511	402.09
406.889	404.81
407.267	419.27
407.645	410.23
408.023	411.13
408.401	414.3
408.779	410.46
409.156	410.46
409.534	432.15
409.912	420.4
410.29	426.95
410.667	447.97
411.045	445.03
411.422	447.52
411.8	452.04
412.178	422.88
412.555	443
412.933	435.99
413.31	457.91
413.687	459.95
414.065	466.73
414.442	441.19
414.819	467.85
415.197	454.97
415.574	467.63
415.951	458.36
416.328	475.09
416.705	474.63
417.082	481.64
417.46	499.72
417.837	480.74
418.214	458.82
418.591	495.2
418.967	474.18
419.344	472.15
419.721	483.9
420.098	481.41
420.475	491.81
420.852	506.27
421.228	479.83
421.605	500.17
421.982	515.09
422.358	489.1
422.735	513.96
423.111	517.35
423.488	545.59
423.864	521.41
424.241	552.37
424.617	535.42
424.994	512.83
425.37	540.4
425.746	537.68
426.123	530
426.499	544.46
426.875	544.24
427.251	549.43
427.627	551.24
428.003	556.44
428.379	559.6
428.756	579.72
429.132	560.28
429.507	578.36
429.883	562.09
430.259	568.87
430.635	595.54
431.011	596.89
431.387	608.87
431.763	615.2
432.138	610.45
432.514	620.39
432.89	629.88
433.265	636.89
433.641	633.5
434.016	615.2
434.392	642.77
434.767	623.78
435.143	646.16
435.518	651.8
435.894	656.32
436.269	649.55
436.644	652.03
437.02	681.63
437.395	671.01
437.77	691.8
438.145	706.04
438.52	688.87
438.895	717.79
439.271	706.04
439.646	705.36
440.021	717.57
440.395	701.97
440.77	712.14
441.145	723.44
441.52	742.42
441.895	725.93
442.27	766.38
442.645	760.73
443.019	753.72
443.394	757.34
443.769	756.66
444.143	761.63
444.518	773.16
444.892	767.73
445.267	789.2
445.641	791.69
446.016	786.04
446.39	800.05
446.764	787.17
447.139	798.92
447.513	791.46
447.887	813.38
448.262	828.75
448.636	815.42
449.01	854.29
449.384	819.48
449.758	862.19
450.132	866.71
450.506	867.84
450.88	853.16
451.254	865.36
451.628	874.17
452.002	883.66
452.376	904.23
452.75	883.21
453.123	897
453.497	918.92
453.871	923.44
454.244	933.15
454.618	927.05
454.992	954.17
455.365	954.4
455.739	958.69
456.112	951.46
456.486	994.39
456.859	1024.22
457.232	1017.22
457.606	1007.73
457.979	1020.83
458.352	1026.71
458.725	1027.39
459.099	1054.51
459.472	1072.13
459.845	1085.24
460.218	1102.64
460.591	1096.54
460.964	1115.52
461.337	1141.06
461.71	1137.89
462.083	1166.59
462.456	1175.63
462.829	1202.75
463.201	1203.2
463.574	1209.08
463.947	1226.71
464.32	1238.91
464.692	1264.44
465.065	1254.73
465.438	1279.36
465.81	1284.78
466.183	1317.32
466.555	1358.68
466.928	1364.78
467.3	1363.88
467.672	1390.09
468.045	1425.12
468.417	1437.09
468.789	1471.67
469.161	1491.1
469.534	1503.31
469.906	1522.97
470.278	1558
470.65	1598.45
471.022	1649.52
471.394	1673.25
471.766	1707.6
472.138	1713.02
472.51	1748.27
472.882	1780.14
473.253	1813.81
473.625	1855.16
473.997	1906.01
474.369	1908.95
474.74	1968.61
475.112	2035.72
475.484	2066.91
475.855	2090.64
476.227	2178.32
476.598	2207.92
476.97	2233.91
477.341	2327.69
477.713	2421.93
478.084	2438.65
478.455	2505.32
478.827	2567.46
479.198	2634.58
479.569	2701.02
479.94	2798.42
480.311	2821.01
480.682	2943.27
481.053	3032.53
481.424	3108.69
481.795	3145.52
482.166	3245.41
482.537	3345.29
482.908	3435.91
483.279	3485.18
483.65	3612.86
484.021	3715.68
484.391	3799.52
484.762	3871.61
485.133	3965.16
485.503	4117.25
485.874	4206.29
486.244	4311.37
486.615	4432.04
486.985	4551.36
487.356	4627.97
487.726	4757.46
488.097	4921.98
488.467	4991.35
488.837	5138.92
489.207	5264.11
489.578	5386.82
489.948	5418.91
490.318	5557.44
490.688	5672.92
491.058	5868.16
491.428	5895.73
491.798	6116.52
492.168	6279.68
492.538	6336.4
492.908	6488.26
493.278	6602.83
493.648	6710.85
494.017	6821.36
494.387	6892.09
494.757	6992.66
495.126	7177.06
495.496	7324.85
495.866	7383.38
496.235	7494.56
496.605	7605.75
496.974	7680.32
497.344	7857.49
497.713	7902.24
498.082	8026.3
498.452	8203.24
498.821	8255.67
499.19	8282.34
499.559	8506.29
499.928	8498.6
500.298	8648.66
500.667	8759.16
501.036	8833.96
501.405	8921.42
501.774	9002.55
502.143	9086.39
502.512	9103.56
502.88	9288.19
503.249	9268.08
503.618	9355.53
503.987	9422.42
504.356	9453.61
504.724	9603.21
505.093	9639.59
505.462	9714.62
505.83	9783.32
506.199	9912.8
506.567	9994.84
506.936	9951.9
507.304	10094.04
507.672	10203.42
508.041	10212.91
508.409	10396.41
508.777	10396.86
509.145	10473.02
509.514	10421.27
509.882	10464.65
510.25	10540.13
510.618	10602.28
510.986	10627.14
511.354	10830.07
511.722	10810.41
512.09	10837.3
512.458	10835.72
512.826	10929.05
513.193	10947.35
513.561	10972.21
513.929	11055.37
514.297	11124.52
514.664	11128.82
515.032	11247.23
515.4	11341.69
515.767	11354.57
516.135	11327.91
516.502	11230.96
516.869	11356.61
517.237	11457.17
517.604	11386.44
517.972	11449.26
518.339	11515.47
518.706	11475.7
519.073	11529.48
519.44	11504.63
519.808	11568.35
520.175	11574.46
520.542	11677.73
520.909	11689.48
521.276	11655.13
521.643	11745.75
522.009	11797.05
522.376	11755.69
522.743	11810.61
523.11	11816.94
523.477	11933.54
523.843	11966.54
524.21	11999.08
524.577	11973.99
524.943	12084.5
525.31	12082.92
525.676	12105.97
526.043	12135.8
526.409	12115.01
526.776	12245.85
527.142	12208.34
527.508	12144.38
527.874	12204.5
528.241	12237.26
528.607	12136.25
528.973	12225.29
529.339	12159.98
529.705	12263.03
530.071	12335.57
530.437	12244.49
530.803	12206.53
531.169	12322.46
531.535	12119.3
531.901	12170.6
532.267	12163.82
532.632	12256.7
532.998	12209.47
533.364	12246.3
533.73	12163.37
534.095	12276.58
534.461	12247.43
534.826	12223.25
535.192	12111.16
535.557	12203.14
535.923	12049.7
536.288	12071.17
536.653	12140.32
537.019	11996.59
537.384	12011.05
537.749	12009.92
538.114	11942.36
538.479	11895.35
538.845	11939.19
539.21	11813.55
539.575	11818.06
539.94	11818.74
540.305	11810.83
540.67	11735.36
541.034	11789.14
541.399	11671.4
541.764	11660.55
542.129	11669.59
542.494	11579.65
542.858	11562.03
543.223	11538.75
543.587	11533.78
543.952	11497.62
544.316	11474.8
544.681	11414.01
545.045	11454.46
545.41	11414.01
545.774	11333.33
546.138	11267.57
546.503	11276.16
546.867	11228.02
547.231	11227.8
547.595	11235.03
547.959	11200
548.324	11193.45
548.688	11056.5
549.052	11106.45
549.416	11050.4
549.779	11047.69
550.143	10987.58
550.507	10980.57
550.871	10994.58
551.235	10932.44
551.599	10908.03
551.962	10934.7
552.326	10782.39
552.689	10871.2
553.053	10719.56
553.417	10776.06
553.78	10846.57
554.143	10747.13
554.507	10790.3
554.87	10733.8
555.234	10759.11
555.597	10609.51
555.96	10661.03
556.323	10675.5
556.686	10585.55
557.05	10646.12
557.413	10613.8
557.776	10601.6
558.139	10643.86
558.502	10548.27
558.865	10607.02
559.228	10615.84
559.59	10550.53
559.953	10550.53
560.316	10629.4
560.679	10533.35
561.041	10640.69
561.404	10575.16
561.767	10590.75
562.129	10590.98
562.492	10558.66
562.854	10602.5
563.217	10563.63
563.579	10494.26
563.941	10591.88
564.304	10684.08
564.666	10643.41
565.028	10688.6
565.39	10671.2
565.753	10629.62
566.115	10598.21
566.477	10684.99
566.839	10651.09
567.201	10683.18
567.563	10649.73
567.925	10710.75
568.287	10676.4
568.648	10769.05
569.01	10720.92
569.372	10703.97
569.734	10680.47
570.095	10780.35
570.457	10743.06
570.819	10715.27
571.18	10718.21
571.542	10783.74
571.903	10741.71
572.265	10779.22
572.626	10767.7
572.987	10812.44
573.349	10788.71
573.71	10855.6
574.071	10746.91
574.432	10809.05
574.794	10854.7
575.155	10830.52
575.516	10821.48
575.877	10873.46
576.238	10858.54
576.599	10934.02
576.96	10878.65
577.32	10847.69
577.681	10867.13
578.042	10865.1
578.403	10901.7
578.763	10860.8
579.124	10887.69
579.485	10854.93
579.845	10931.08
580.206	10885.66
580.566	10864.64
580.927	10856.51
581.287	10879.78
581.648	10819.9
582.008	10903.29
582.368	10835.04
582.728	10909.61
583.089	10853.57
583.449	10785.55
583.809	10763.86
584.169	10838.2
584.529	10718.43
584.889	10858.77
585.249	10793.01
585.609	10724.31
585.969	10832.33
586.329	10828.94
586.688	10809.28
587.048	10755.04
587.408	10644.54
587.768	10710.52
588.127	10725.44
588.487	10735.83
588.846	10788.94
589.206	10706.68
589.565	10731.54
589.925	10764.31
590.284	10649.73
590.643	10738.55
591.003	10796.17
591.362	10725.89
591.721	10724.08
592.08	10680.47
592.44	10689.73
592.799	10619
593.158	10656.97
593.517	10708.04
593.876	10683.41
594.235	10627.36
594.593	10580.13
594.952	10681.37
595.311	10593.24
595.67	10626.46
596.029	10705.1
596.387	10674.14
596.746	10692.44
597.104	10548.27
597.463	10577.19
597.822	10571.32
598.18	10580.58
598.538	10534.26
598.897	10725.44
599.255	10543.3
599.613	10718.43
599.972	10629.4
600.33	10647.47
600.688	10590.3
601.046	10587.36
601.404	10628.72
601.762	10590.75
602.12	10615.16
602.478	10662.84
602.836	10645.89
603.194	10572.67
603.552	10551.88
603.91	10543.75
604.268	10611.77
604.625	10526.35
604.983	10619.9
605.341	10546.91
605.698	10569.74
606.056	10601.15
606.413	10614.03
606.771	10609.06
607.128	10635.5
607.485	10558.21
607.843	10569.51
608.2	10624.65
608.557	10630.98
608.914	10660.58
609.272	10644.99
609.629	10662.84
609.986	10703.74
610.343	10652.22
610.7	10704.42
611.057	10736.06
611.414	10629.17
611.771	10673.69
612.127	10690.19
612.484	10732.22
612.841	10737.64
613.198	10691.09
613.554	10741.48
613.911	10763.4
614.267	10715.5
614.624	10729.73
614.98	10783.97
615.337	10780.13
615.693	10740.35
616.05	10800.24
616.406	10861.25
616.762	10810.86
617.118	10732.9
617.475	10843.85
617.831	10807.24
618.187	10869.84
618.543	10818.32
618.899	10848.82
619.255	10915.94
619.611	10888.37
619.967	10827.13
620.323	10853.57
620.678	10864.19
621.034	10828.71
621.39	10828.49
621.746	10809.73
622.101	10919.11
622.457	10852.21
622.812	10890.86
623.168	10913.68
623.523	10875.04
623.879	10960.69
624.234	10904.87
624.589	10823.74
624.945	10891.08
625.3	10836.17
625.655	10876.62
626.01	10877.98
626.365	10911.2
626.72	10911.42
627.075	10896.96
627.43	10854.47
627.785	10831.42
628.14	10887.02
628.495	10842.5
628.85	10859.22
629.205	10818.09
629.559	10812.67
629.914	10773.12
630.269	10798.66
630.623	10791.43
630.978	10789.84
631.332	10837.07
631.687	10788.71
632.041	10792.33
632.396	10775.61
632.75	10764.53
633.104	10804.76
633.459	10714.37
633.813	10724.31
634.167	10691.31
634.521	10754.59
634.875	10692.22
635.229	10679.34
635.583	10592.79
635.937	10674.59
636.291	10611.54
636.645	10618.77
636.999	10607.93
637.352	10621.26
637.706	10563.63
638.06	10574.71
638.413	10571.54
638.767	10555.73
639.121	10571.54
639.474	10538.1
639.828	10564.09
640.181	10529.96
640.534	10431.21
640.888	10504.88
641.241	10411.77
641.594	10435.5
641.947	10520.92
642.301	10460.81
642.654	10397.99
643.007	10449.74
643.36	10488.83
643.713	10470.3
644.066	10454.48
644.419	10342.17
644.771	10380.14
645.124	10192.57
645.477	10202.29
645.83	10180.37
646.182	10163.42
646.535	10149.63
646.888	10088.84
647.24	10070.31
647.593	10084.1
647.945	10059.02
648.298	10062.86
648.65	10061.73
649.002	10020.37
649.355	10084.55
649.707	10070.99
650.059	10118.45
650.411	10188.28
650.763	10207.94
651.115	10317.09
651.467	10290.42
651.819	10340.36
652.171	10287.48
652.523	10299.23
652.875	10235.06
653.227	10240.93
653.578	10261.95
653.93	10285.68
654.282	10248.16
654.633	10216.53
654.985	10264.66
655.337	10340.14
655.688	10242.51
656.039	10373.81
656.391	10270.31
656.742	10234.6
657.094	10260.14
657.445	10264.43
657.796	10322.96
658.147	10321.38
658.498	10228.5
658.849	10310.53
659.2	10311.66
659.551	10353.24
659.902	10362.51
660.253	10320.03
660.604	10347.37
660.955	10250.65
661.306	10275.73
661.656	10275.96
662.007	10301.72
662.358	10300.14
662.708	10307.37
663.059	10320.48
663.409	10272.12
663.76	10377.88
664.11	10355.28
664.461	10328.61
664.811	10347.6
665.161	10339.69
665.511	10296.52
665.862	10329.52
666.212	10382.85
666.562	10357.09
666.912	10364.77
667.262	10362.74
667.612	10376.29
667.962	10347.14
668.312	10363.64
668.662	10360.25
669.011	10365.45
669.361	10358.22
669.711	10333.36
670.06	10349.63
670.41	10302.85
670.76	10339.01
671.109	10356.41
671.459	10343.75
671.808	10271.44
672.157	10303.98
672.507	10232.12
672.856	10249.07
673.205	10273.7
673.554	10251.1
673.904	10267.6
674.253	10263.3
674.602	10250.65
674.951	10128.84
675.3	10050.2
675.649	10227.6
675.998	10255.17
676.346	10211.55
676.695	10298.78
677.044	10176.53
677.393	10165
677.741	10181.5
678.09	10112.57
678.438	10112.57
678.787	10116.87
679.135	10134.72
679.484	10088.17
679.832	10139.01
680.181	10063.53
680.529	10000.49
680.877	10024.21
681.225	9963.65
681.573	10064.44
681.922	9942.86
682.27	9945.12
682.618	9998.9
682.966	9995.97
683.314	9969.98
683.661	9940.37
684.009	9852.92
684.357	9862.18
684.705	9846.14
685.053	9807.27
685.4	9852.69
685.748	9810.21
686.095	9817.67
686.443	9750.32
686.79	9696.54
687.138	9744
687.485	9690.21
687.832	9699.93
688.18	9654.05
688.527	9588.97
688.874	9653.6
689.221	9500.16
689.568	9541.06
689.915	9505.36
690.262	9476.88
690.609	9425.13
690.956	9415.42
691.303	9434.17
691.65	9325.25
691.997	9364.12
692.344	9278.24
692.69	9310.11
693.037	9278.02
693.383	9211.81
693.73	9300.62
694.077	9174.29
694.423	9079.83
694.769	9123.9
695.116	9046.16
695.462	9068.53
695.808	9058.82
696.155	8988.76
696.501	8913.06
696.847	8978.14
697.193	8937.69
697.539	8942.21
697.885	8824.47
698.231	8774.3
698.577	8836.45
698.923	8794.19
699.269	8705.83
699.614	8670.8
699.96	8665.61
700.306	8582.22
700.651	8625.61
700.997	8594.65
701.342	8596.45
701.688	8504.48
702.033	8482.11
702.379	8491.6
702.724	8447.53
703.069	8429.23
703.415	8391.26
703.76	8405.27
704.105	8349.23
704.45	8203.92
704.795	8262.45
705.14	8266.75
705.485	8199.18
705.83	8183.13
706.175	8230.81
706.52	8144.94
706.865	8076.02
707.209	8148.33
707.554	8070.59
707.899	8080.08
708.243	8048.67
708.588	8062.68
708.932	7978.39
709.277	7988.11
709.621	7978.62
709.966	7901.78
710.31	7936.59
710.654	7861.56
710.998	7885.96
711.342	7860.43
711.687	7848.45
712.031	7812.97
712.375	7752.64
712.719	7836.93
713.063	7785.85
713.407	7785.4
713.75	7718.51
714.094	7714.22
714.438	7690.72
714.782	7634.9
715.125	7671.06
715.469	7653.2
715.812	7572.53
716.156	7551.74
716.499	7546.54
716.843	7598.51
717.186	7542.02
717.53	7578.85
717.873	7545.18
718.216	7509.93
718.559	7518.07
718.902	7447.78
719.246	7514
719.589	7486.65
719.932	7411.63
720.275	7432.42
720.617	7473.32
720.96	7465.86
721.303	7445.3
721.646	7404.85
721.989	7417.95
722.331	7446.2
722.674	7387.67
723.016	7413.66
723.359	7386.54
723.701	7382.93
724.044	7391.51
724.386	7291.4
724.729	7335.24
725.071	7290.5
725.413	7342.7
725.755	7405.53
726.097	7285.53
726.439	7241.69
726.782	7249.15
727.124	7355.58
727.465	7235.59
727.807	7302.7
728.149	7285.98
728.491	7306.09
728.833	7337.05
729.175	7257.51
729.516	7303.38
729.858	7218.86
730.199	7351.29
730.541	7247.56
730.882	7269.03
731.224	7281.01
731.565	7255.02
731.906	7212.76
732.248	7289.6
732.589	7249.82
732.93	7256.6
733.271	7210.95
733.612	7256.38
733.953	7262.93
734.294	7231.52
734.635	7265.87
734.976	7261.12
735.317	7225.42
735.658	7328.24
735.999	7278.98
736.339	7204.85
736.68	7287.11
737.021	7242.82
737.361	7235.81
737.702	7314
738.042	7322.14
738.383	7338.63
738.723	7243.5
739.063	7287.34
739.404	7302.25
739.744	7389.25
740.084	7291.4
740.424	7329.6
740.764	7376.15
741.104	7390.38
741.444	7394.68
741.784	7439.65
742.124	7394.68
742.464	7415.47
742.804	7388.12
743.143	7448.91
743.483	7487.11
743.823	7422.93
744.162	7431.74
744.502	7504.05
744.841	7519.65
745.181	7601.9
745.52	7598.29
745.86	7698.63
746.199	7694.78
746.538	7651.39
746.877	7777.72
747.216	7838.73
747.556	7832.18
747.895	7903.82
748.234	7961.9
748.573	7971.84
748.911	7969.58
749.25	8071.95
749.589	8075.56
749.928	8169.35
750.267	8266.07
750.605	8304.03
750.944	8316.91
751.283	8463.58
751.621	8559.85
751.96	8606.62
752.298	8661.54
752.636	8751.25
752.975	8844.36
753.313	8973.39
753.651	9064.01
753.989	9065.37
754.327	9204.8
754.666	9312.14
755.004	9450.22
755.342	9571.8
755.679	9652.47
756.017	9698.35
756.355	9943.09
756.693	10042.52
757.031	10143.31
757.368	10243.87
757.706	10422.62
758.044	10564.09
758.381	10717.75
758.719	10779.45
759.056	11052.89
759.394	11103.96
759.731	11229.15
760.068	11346.89
760.405	11502.59
760.743	11674.79
761.08	11880.89
761.417	11957.72
761.754	12186.87
762.091	12327.88
762.428	12471.83
762.765	12612.62
763.102	12843.12
763.438	12864.37
763.775	13025.04
764.112	13187.07
764.449	13385.26
764.785	13528.08
765.122	13625.48
765.458	13869.99
765.795	13913.6
766.131	14115.18
766.467	14163.09
766.804	14360.15
767.14	14444.89
767.476	14623.19
767.812	14684.43
768.148	14835.84
768.485	14965.33
768.821	15055.49
769.157	15130.52
769.492	15343.4
769.828	15445.31
770.164	15455.03
770.5	15648.92
770.836	15737.74
771.171	15786.1
771.507	15893.89
771.842	15878.75
772.178	16104.96
772.513	16186.76
772.849	16138.63
773.184	16241.9
773.519	16348.79
773.855	16363.26
774.19	16443.03
774.525	16484.38
774.86	16601.67
775.195	16716.69
775.53	16732.29
775.865	16706.07
776.2	16675.34
776.535	16764.38
776.87	16811.61
777.205	16862.23
777.539	16868.78
777.874	16875.11
778.209	16888.21
778.543	16917.37
778.878	16942.45
779.212	17002.11
779.547	16908.33
779.881	17087.98
780.215	16965.05
780.55	17158.49
780.884	17072.84
781.218	17054.54
781.552	17090.24
781.886	17121.88
782.22	17073.29
782.554	16986.52
782.888	16983.35
783.222	16949.23
783.556	17052.5
783.889	16956.01
784.223	16908.33
784.557	17017.25
784.89	17013.41
785.224	16913.3
785.557	16921.43
785.891	16876.24
786.224	16904.03
786.558	16917.59
786.891	16816.35
787.224	16811.38
787.557	16776.58
787.891	16875.33
788.224	16859.51
788.557	16820.42
788.89	16791.04
789.223	16873.53
789.556	16726.18
789.888	16738.39
790.221	16588.79
790.554	16532.29
790.887	16640.99
791.219	16543.14
791.552	16520.54
791.884	16469.69
792.217	16413.65
792.549	16443.48
792.882	16385.18
793.214	16422.01
793.546	16374.56
793.879	16309.02
794.211	16275.57
794.543	16298.4
794.875	16193.09
795.207	16207.33
795.539	16224.5
795.871	16159.19
796.203	16102.92
796.535	15996.94
796.867	15961.46
797.198	15938.86
797.53	16058.86
797.862	15930.05
798.193	15910.84
798.525	15862.7
798.856	15869.48
799.188	15650.73
799.519	15693.9
799.85	15598.98
800.182	15643.05
800.513	15615.71
800.844	15518.98
801.175	15570.06
801.506	15554.46
801.837	15525.76
802.168	15373
802.499	15353.79
802.83	15286.67
803.161	15385.88
803.491	15264.3
803.822	15248.26
804.153	15297.07
804.483	15157.64
804.814	15115.61
805.145	15128.49
805.475	15020.24
805.805	15047.36
806.136	15086.23
806.466	15021.37
806.796	15043.06
807.126	14865.89
807.457	14824.99
807.787	14904.54
808.117	14834.93
808.447	14664.32
808.777	14803.98
809.107	14617.99
809.436	14769.85
809.766	14668.16
810.096	14634.26
810.426	14540.93
810.755	14631.1
811.085	14589.07
811.414	14559.46
811.744	14375.74
812.073	14495.28
812.403	14401.95
812.732	14368.51
813.061	14363.53
813.39	14324.89
813.719	14272.92
814.049	14336.19
814.378	14317.66
814.707	14189.3
815.036	14185.69
815.365	14132.35
815.693	14024.79
816.022	14016.2
816.351	14011
816.68	13916.31
817.008	14036.54
817.337	13793.61
817.665	13865.69
817.994	13934.62
818.322	13829.76
818.651	13815.3
818.979	13738.01
819.307	13863.43
819.636	13746.38
819.964	13673.38
820.292	13745.92
820.62	13721.52
820.948	13733.72
821.276	13732.36
821.604	13728.52
821.932	13692.82
822.259	13647.62
822.587	13677
822.915	13601.52
823.243	13732.14
823.57	13547.51
823.898	13703.67
824.225	13627.28
824.553	13636.77
824.88	13687.39
825.207	13678.58
825.535	13757
825.862	13737.79
826.189	13668.86
826.516	13743.66
826.843	13810.55
827.17	13795.87
827.497	13707.73
827.824	13740.73
828.151	13817.33
828.478	13745.25
828.805	13823.66
829.131	13691.24
829.458	13730.11
829.785	13647.17
830.111	13706.83
830.438	13743.89
830.764	13677.23
831.09	13714.06
831.417	13749.31
831.743	13749.09
832.069	13699.6
832.395	13601.75
832.722	13683.78
833.048	13653.27
833.374	13648.75
833.7	13634.74
834.026	13604.68
834.351	13645.36
834.677	13572.82
835.003	13580.96
835.329	13610.79
835.654	13518.81
835.98	13501.41
836.306	13510.68
836.631	13470.22
836.956	13514.97
837.282	13583.22
837.607	13485.14
837.932	13413.28
838.258	13422.09
838.583	13422.09
838.908	13288.31
839.233	13355.2
839.558	13284.02
839.883	13210.8
840.208	13249.67
840.533	13250.34
840.858	13233.39
841.182	13197.24
841.507	13301.19
841.832	13101.2
842.156	13101.42
842.481	13076.56
842.805	13067.98
843.13	13034.76
843.454	13018.26
843.778	12971.25
844.103	12981.88
844.427	12921.54
844.751	12921.31
845.075	12900.97
845.399	12870.01
845.723	12832.5
846.047	12729.45
846.371	12628.44
846.695	12627.76
847.019	12564.49
847.343	12540.98
847.666	12520.65
847.99	12437.26
848.313	12423.7
848.637	12406.75
848.96	12354.77
849.284	12332.4
849.607	12209.02
849.931	12168.56
850.254	12104.84
850.577	12033.2
850.9	11986.2
851.223	12006.99
851.546	11906.2
851.869	11853.54
852.192	11847.44
852.515	11770.61
852.838	11778.07
853.161	11729.25
853.483	11747.33
853.806	11701.01
854.129	11559.54
854.451	11525.42
854.774	11491.75
855.096	11460.79
855.419	11445.42
855.741	11404.06
856.063	11355.48
856.385	11316.84
856.708	11295.37
857.03	11265.76
857.352	11265.99
857.674	11204.3
857.996	11131.3
858.318	11130.85
858.64	11112.09
858.961	11001.14
859.283	11026.22
859.605	11014.02
859.926	11029.84
860.248	10928.37
860.57	10932.44
860.891	10898.54
861.212	10828.49
861.534	10823.74
861.855	10830.97
862.176	10811.76
862.498	10815.15
862.819	10777.64
863.14	10677.76
863.461	10762.95
863.782	10682.95
864.103	10720.47
864.424	10677.53
864.745	10617.42
865.065	10630.53
865.386	10559.34
865.707	10581.04
866.027	10550.3
866.348	10493.58
866.668	10556.63
866.989	10509.85
867.309	10369.74
867.63	10429.4
867.95	10443.41
868.27	10387.59
868.59	10408.61
868.91	10357.99
869.23	10362.28
869.55	10346.01
869.87	10325.67
870.19	10319.12
870.51	10252.68
870.83	10268.05
871.15	10277.09
871.469	10259.24
871.789	10245.68
872.109	10197.77
872.428	10224.66
872.748	10223.3
873.067	10222.4
873.386	10175.4
873.706	10136.3
874.025	10150.54
874.344	10023.76
874.663	10112.12
874.982	10131.33
875.301	10138.34
875.62	9988.96
875.939	10019.24
876.258	10014.72
876.577	9964.33
876.896	9978.34
877.214	9951.67
877.533	9945.8
877.852	9876.65
878.17	9921.17
878.489	9871.68
878.807	9936.76
879.125	9901.05
879.444	9855.86
879.762	9843.2
880.08	9807.5
880.398	9734.05
880.716	9796.2
881.034	9727.27
881.352	9722.53
881.67	9732.47
881.988	9711.23
882.306	9721.62
882.624	9628.97
882.941	9542.87
883.259	9569.31
883.577	9525.92
883.894	9575.19
884.212	9560.27
884.529	9520.72
884.846	9499.48
885.164	9523.21
885.481	9473.72
885.798	9445.7
886.115	9332.03
886.432	9473.27
886.75	9336.32
887.067	9376.55
887.383	9355.98
887.7	9329.09
888.017	9301.75
888.334	9286.38
888.651	9273.5
888.967	9228.08
889.284	9238.25
889.6	9188.08
889.917	9135.88
890.233	9135.65
890.55	9099.04
890.866	9076.22
891.182	9019.95
891.498	8992.6
891.815	9040.96
892.131	8873.96
892.447	8845.49
892.763	8906.05
893.079	8861.31
893.395	8859.5
893.71	8785.83
894.026	8791.48
894.342	8680.75
894.657	8762.33
894.973	8683.01
895.289	8652.05
895.604	8685.94
895.92	8617.7
896.235	8565.95
896.55	8600.07
896.865	8548.55
897.181	8542.22
897.496	8500.19
897.811	8453.18
898.126	8440.98
898.441	8389.23
898.756	8423.35
899.071	8298.61
899.386	8307.87
899.7	8237.82
900.015	8184.71
900.33	8183.36
900.644	8163.92
900.959	8149.23
901.273	8122.12
901.588	8002.12
901.902	8028.33
902.216	8065.62
902.531	7999.86
902.845	7958.96
903.159	7920.54
903.473	7942.91
903.787	7806.87
904.101	7786.31
904.415	7833.54
904.729	7751.73
905.042	7777.49
905.356	7723.94
905.67	7663.6
905.984	7696.14
906.297	7595.8
906.611	7571.62
906.924	7582.7
907.237	7526.43
907.551	7536.37
907.864	7475.81
908.177	7472.64
908.491	7512.64
908.804	7417.05
909.117	7360.33
909.43	7307.45
909.743	7240.33
910.056	7297.96
910.368	7218.86
910.681	7263.38
910.994	7196.27
911.307	7119.88
911.619	7022.71
911.932	7111.97
912.244	7049.15
912.557	7025.87
912.869	7036.72
913.181	6964.63
913.494	6954.69
913.806	6940.91
914.118	6936.16
914.43	6887.57
914.742	6866.1
915.054	6806.22
915.366	6803.28
915.678	6742.94
915.99	6704.75
916.302	6732.55
916.613	6706.79
916.925	6647.13
917.236	6606.9
917.548	6585.66
917.859	6556.28
918.171	6492.56
918.482	6529.84
918.794	6479.67
919.105	6495.49
919.416	6438.77
919.727	6413.69
920.038	6388.15
920.349	6321.49
920.66	6304.09
920.971	6314.48
921.282	6285.33
921.593	6237.42
921.903	6228.83
922.214	6243.3
922.525	6188.61
922.835	6118.1
923.146	6115.84
923.456	6090.76
923.767	6094.15
924.077	6072.23
924.387	6061.83
924.697	5980.48
925.008	6004.43
925.318	5932.8
925.628	5865.45
925.938	5932.8
926.248	5900.71
926.558	5859.8
926.867	5858.22
927.177	5827.94
927.487	5814.38
927.796	5707.04
928.106	5818.67
928.416	5731.67
928.725	5748.39
929.034	5669.53
929.344	5677.66
929.653	5662.75
929.962	5595.86
930.271	5546.37
930.581	5564.67
930.89	5500.72
931.199	5462.53
931.508	5469.53
931.817	5495.97
932.125	5444.22
932.434	5447.39
932.743	5430.21
933.051	5335.98
933.36	5394.05
933.669	5299.37
933.977	5290.33
934.286	5288.75
934.594	5278.35
934.902	5201.06
935.21	5191.8
935.519	5209.65
935.827	5143.89
936.135	5138.69
936.443	5117.9
936.751	5092.82
937.059	5081.74
937.367	5083.78
937.674	5040.16
937.982	5015.76
938.29	5032.48
938.597	5021.18
938.905	4945.7
939.213	4957.68
939.52	4928.98
939.827	4927.62
940.135	4855.08
940.442	4888.3
940.749	4855.08
941.056	4827.97
941.363	4782.54
941.67	4749.55
941.977	4728.31
942.284	4705.03
942.591	4683.56
942.898	4659.61
943.205	4701.87
943.511	4662.09
943.818	4660.29
944.125	4573.28
944.431	4627.52
944.738	4579.39
945.044	4612.15
945.35	4527.86
945.657	4504.81
945.963	4516.34
946.269	4470.01
946.575	4446.51
946.881	4414.87
947.187	4451.93
947.493	4369.45
947.799	4412.61
948.105	4367.41
948.41	4361.76
948.716	4317.92
949.022	4315.66
949.327	4296.91
949.633	4246.74
949.938	4246.29
950.244	4294.42
950.549	4226.63
950.854	4204.03
951.16	4154.31
951.465	4187.53
951.77	4160.41
952.075	4140.3
952.38	4118.83
952.685	4117.02
952.99	4045.61
953.294	4105.27
953.599	4073.86
953.904	4055.56
954.209	3981.21
954.513	4014.43
954.818	3927.65
955.122	3985.05
955.426	3957.25
955.731	3899.86
956.035	3910.7
956.339	3888.56
956.643	3871.38
956.948	3883.58
957.252	3828.44
957.556	3842
957.86	3808.78
958.163	3835.68
958.467	3766.53
958.771	3758.16
959.075	3773.98
959.378	3762.23
959.682	3741.67
959.985	3705.74
960.289	3667.54
960.592	3663.25
960.896	3700.09
961.199	3638.17
961.502	3611.28
961.805	3590.26
962.108	3552.29
962.411	3618.28
962.714	3579.41
963.017	3548.9
963.32	3538.51
963.623	3516.81
963.926	3543.93
964.228	3481.11
964.531	3479.08
964.833	3449.47
965.136	3404.73
965.438	3416.48
965.741	3412.18
966.043	3398.63
966.345	3381.9
966.648	3373.54
966.95	3338.97
967.252	3314.11
967.554	3321.79
967.856	3301.23
968.158	3334.67
968.46	3265.07
968.761	3237.5
969.063	3235.92
969.365	3266.43
969.666	3216.94
969.968	3200.21
970.269	3199.31
970.571	3219.42
970.872	3159.31
971.174	3120.67
971.475	3154.34
971.776	3135.36
972.077	3118.86
972.378	3107.11
972.679	3095.81
972.98	3075.02
973.281	3090.84
973.582	3063.04
973.883	3032.31
974.183	3032.99
974.484	2958.41
974.785	3009.48
975.085	2963.38
975.386	3004.29
975.686	3009.03
975.986	2941.01
976.287	2937.62
976.587	2897.17
976.887	2898.3
977.187	2912.31
977.487	2894.23
977.787	2843.84
978.087	2802.26
978.387	2838.41
978.687	2832.99
978.987	2818.75
979.286	2806.55
979.586	2798.64
979.885	2800.9
980.185	2773.56
980.484	2741.02
980.784	2747.12
981.083	2732.88
981.382	2710.73
981.682	2702.37
981.981	2727.46
982.28	2691.98
982.579	2667.8
982.878	2668.7
983.177	2633.45
983.475	2685.42
983.774	2606.56
984.073	2618.08
984.372	2595.93
984.67	2559.33
984.969	2594.13
985.267	2549.16
985.566	2564.75
985.864	2548.93
986.162	2526.11
986.461	2526.33
986.759	2506.67
987.057	2473.45
987.355	2468.71
987.653	2480.01
987.951	2494.02
988.249	2452.89
988.547	2416.28
988.844	2436.84
989.142	2440.91
989.44	2375.6
989.737	2407.92
990.035	2398.2
990.332	2354.13
990.63	2360.23
990.927	2337.64
991.224	2369.95
991.521	2353
991.819	2294.02
992.116	2315.04
992.413	2301.03
992.71	2320.01
993.006	2273.01
993.303	2270.97
993.6	2289.5
993.897	2261.48
994.193	2244.53
994.49	2223.51
994.787	2183.06
995.083	2192.56
995.379	2223.97
995.676	2189.17
995.972	2175.38
996.268	2165.89
996.565	2155.27
996.861	2128.6
997.157	2126.79
997.453	2103.97
997.749	2142.39
998.044	2092.67
998.34	2119.56
998.636	2068.94
998.932	2058.77
999.227	2072.56
999.523	2066.46
999.818	2057.64
1000.114	2028.72
1000.409	2041.82
1000.704	2006.12
1001	1994.59
1001.295	1953.69
1001.59	1970.19
1001.885	1988.27
1002.18	1930.19
1002.475	1949.85
1002.77	1923.41
1003.065	1911.43
1003.359	1902.62
1003.654	1908.95
1003.949	1891.32
1004.243	1875.95
1004.538	1859.68
1004.832	1872.79
1005.127	1846.58
1005.421	1863.52
1005.715	1825.56
1006.009	1814.49
1006.304	1820.36
1006.598	1818.78
1006.892	1782.85
1007.186	1777.65
1007.48	1799.12
1007.773	1750.99
1008.067	1769.29
1008.361	1742.4
1008.655	1733.81
1008.948	1711.21
1009.242	1701.49
1009.535	1676.64
1009.829	1684.77
1010.122	1697.2
1010.415	1657.2
1010.708	1660.59
1011.001	1636.64
1011.295	1642.97
1011.588	1656.07
1011.881	1623.76
1012.173	1602.97
1012.466	1610.42
1012.759	1613.36
1013.052	1598.67
1013.344	1602.74
1013.637	1561.84
1013.93	1543.76
1014.222	1541.05
1014.514	1544.66
1014.807	1541.05
1015.099	1530.88
1015.391	1518.45
1015.683	1518
1015.976	1534.72
1016.268	1491.33
1016.56	1526.13
1016.851	1487.04
1017.143	1456.08
1017.435	1420.15
1017.727	1460.15
1018.018	1449.52
1018.31	1422.63
1018.602	1395.06
1018.893	1416.08
1019.185	1410.2
1019.476	1392.35
1019.767	1373.59
1020.058	1355.97
1020.35	1358.9
1020.641	1353.03
1020.932	1355.52
1021.223	1335.63
1021.514	1347.15
1021.804	1329.75
1022.095	1299.92
1022.386	1312.8
1022.677	1302.18
1022.967	1298.57
1023.258	1280.26
1023.548	1275.52
1023.839	1277.1
1024.129	1227.83
1024.419	1235.07
1024.709	1244.56
1025	1214.95
1025.29	1235.29
1025.58	1221.96
1025.87	1217.67
1026.16	1230.77
1026.449	1212.69
1026.739	1194.62
1027.029	1191.68
1027.319	1182.41
1027.608	1166.82
1027.898	1158.46
1028.187	1149.87
1028.477	1118.23
1028.766	1138.12
1029.055	1128.63
1029.344	1123.2
1029.634	1128.18
1029.923	1111
1030.212	1127.95
1030.501	1080.72
1030.79	1070.55
1031.078	1094.28
1031.367	1058.8
1031.656	1088.63
1031.945	1057.67
1032.233	1046.82
1032.522	1070.78
1032.81	1056.99
1033.099	1046.37
1033.387	1026.71
1033.675	1020.61
1033.963	1019.48
1034.251	1037.11
1034.54	998.01
1034.828	987.39
1035.116	969.54
1035.403	969.08
1035.691	969.08
1035.979	975.86
1036.267	946.94
1036.554	947.62
1036.842	960.05
1037.129	968.41
1037.417	937.22
1037.704	934.06
1037.992	947.39
1038.279	922.08
1038.566	909.65
1038.853	909.65
1039.14	909.65
