Data from hue_330_FLMS001491_60.txt Node
Date: Mon Feb 06 15:45:36 GMT 2017
User: dcchb
Spectrometer: FLMS00149
Trigger mode: 0
Integration Time (sec): 2.000000E-2
Scans to average: 10
Electric dark correction enabled: true
Nonlinearity correction enabled: false
Boxcar width: 0
XAxis mode: Wavelengths
Number of Pixels in Spectrum: 2048
>>>>>Begin Spectral Data<<<<<
341.393	5.11
341.776	5.11
342.16	5.11
342.543	-71.5
342.927	-55.45
343.31	-62.68
343.693	-79.63
344.077	-62
344.46	-71.04
344.843	-48.9
345.226	-33.3
345.61	-42.12
345.993	-5.73
346.376	-17.03
346.759	-2.34
347.142	37.2
347.525	19.8
347.908	64.55
348.291	84.88
348.674	97.09
349.057	121.27
349.44	144.77
349.823	127.82
350.206	173.7
350.588	193.81
350.971	193.81
351.354	221.38
351.737	245.56
352.119	263.64
352.502	264.32
352.884	273.35
353.267	278.1
353.65	296.4
354.032	306.57
354.414	302.28
354.797	323.3
355.179	304.31
355.562	319.23
355.944	320.36
356.326	312.9
356.709	325.33
357.091	337.31
357.473	336.18
357.855	339.34
358.238	347.7
358.62	308.38
359.002	325.33
359.384	353.58
359.766	329.85
360.148	321.71
360.53	335.27
360.912	335.05
361.294	339.34
361.676	326.91
362.057	335.05
362.439	348.83
362.821	341.6
363.203	315.84
363.584	340.02
363.966	327.14
364.348	321.26
364.729	318.78
365.111	309.96
365.493	323.07
365.874	313.13
366.256	315.16
366.637	308.38
367.019	313.58
367.4	326.91
367.781	337.76
368.163	313.13
368.544	326.01
368.925	296.4
369.306	302.73
369.688	319.23
370.069	307.7
370.45	313.81
370.831	298.89
371.212	299.12
371.593	319.91
371.974	321.26
372.355	311.55
372.736	330.98
373.117	321.04
373.498	286.24
373.879	310.19
374.26	310.42
374.641	319
375.021	322.17
375.402	324.65
375.783	304.77
376.163	330.53
376.544	327.82
376.925	311.09
377.305	312.68
377.686	343.64
378.066	349.96
378.447	306.57
378.827	334.82
379.208	335.95
379.588	335.05
379.968	341.15
380.349	335.27
380.729	361.49
381.109	334.82
381.489	325.78
381.87	330.08
382.25	349.06
382.63	356.06
383.01	342.96
383.39	338.44
383.77	336.63
384.15	317.65
384.53	339.79
384.91	333.24
385.29	343.64
385.67	328.04
386.049	342.73
386.429	345.44
386.809	343.41
387.189	359.68
387.568	357.19
387.948	359.45
388.328	333.69
388.707	356.06
389.087	362.39
389.466	364.43
389.846	384.76
390.225	360.58
390.605	372.33
390.984	364.88
391.363	363.75
391.743	366.91
392.122	368.95
392.501	390.64
392.881	358.55
393.26	373.24
393.639	362.84
394.018	374.82
394.397	379.34
394.776	377.08
395.155	383.41
395.534	381.83
395.913	374.82
396.292	400.81
396.671	378.21
397.05	399.9
397.429	387.25
397.808	387.93
398.186	394.03
398.565	396.06
398.944	399
399.323	376.63
399.701	389.28
400.08	403.75
400.458	399.68
400.837	408.94
401.215	428.83
401.594	408.04
401.972	389.96
402.351	420.92
402.729	423.86
403.107	419.79
403.486	435.38
403.864	414.37
404.242	406.01
404.62	422.5
404.999	418.21
405.377	445.1
405.755	444.42
406.133	441.94
406.511	448.49
406.889	468.6
407.267	440.58
407.645	461.82
408.023	454.37
408.401	462.73
408.779	455.27
409.156	461.37
409.534	474.03
409.912	466.34
410.29	477.87
410.667	480.81
411.045	491.88
411.422	464.76
411.8	500.47
412.178	513.12
412.555	510.64
412.933	501.15
413.31	511.54
413.687	528.71
414.065	522.84
414.442	533.23
414.819	525.55
415.197	542.27
415.574	542.5
415.951	561.71
416.328	570.75
416.705	575.49
417.082	586.11
417.46	576.17
417.837	580.01
418.214	598.32
418.591	587.02
418.967	604.87
419.344	595.61
419.721	616.62
420.098	587.92
420.475	623.4
420.852	633.12
421.228	605.55
421.605	640.35
421.982	648.71
422.358	639.22
422.735	648.26
423.111	643.29
423.488	658.65
423.864	694.13
424.241	681.25
424.617	685.32
424.994	691.65
425.37	695.26
425.746	697.07
426.123	706.56
426.499	709.73
426.875	698.43
427.251	707.47
427.627	749.95
428.003	733.91
428.379	748.82
428.756	754.25
429.132	760.12
429.507	764.87
429.883	767.35
430.259	805.32
430.635	800.35
431.011	801.7
431.387	801.48
431.763	803.28
432.138	837.41
432.514	867.01
432.89	820.01
433.265	880.8
433.641	889.61
434.016	861.59
434.392	890.51
434.767	894.58
435.143	907.24
435.518	923.51
435.894	918.99
436.269	931.42
436.644	932.77
437.02	944.07
437.395	923.51
437.77	943.62
438.145	973.22
438.52	962.83
438.895	1004.18
439.271	1014.35
439.646	982.49
440.021	1004.18
440.395	974.58
440.77	1006.22
441.145	1007.57
441.52	1017.52
441.895	1044.63
442.27	1008.48
442.645	1034.01
443.019	1053.22
443.394	1045.09
443.769	1049.15
444.143	1048.7
444.518	1062.94
444.892	1074.69
445.267	1077.85
445.641	1090.06
446.016	1105.65
446.39	1083.73
446.764	1089.83
447.139	1092.54
447.513	1084.41
447.887	1119.43
448.262	1095.71
448.636	1097.06
449.01	1104.07
449.384	1143.39
449.758	1140.9
450.132	1162.14
450.506	1172.09
450.88	1167.79
451.254	1128.7
451.628	1173.9
452.002	1209.37
452.376	1163.5
452.75	1196.72
453.123	1181.81
453.497	1219.32
453.871	1225.42
454.244	1245.98
454.618	1259.77
454.992	1256.38
455.365	1254.8
455.739	1278.53
456.112	1290.73
456.486	1309.94
456.859	1285.98
457.232	1326.21
457.606	1326.89
457.979	1328.02
458.352	1340.9
458.725	1346.32
459.099	1379.31
459.472	1396.71
459.845	1398.52
460.218	1402.59
460.591	1400.78
460.964	1400.56
461.337	1430.61
461.71	1443.49
462.083	1444.4
462.456	1455.47
462.829	1490.05
463.201	1494.57
463.574	1487.79
463.947	1520.78
464.32	1555.81
464.692	1573.43
465.065	1546.54
465.438	1563.26
465.81	1575.02
466.183	1601
466.555	1625.64
466.928	1637.16
467.3	1633.77
467.672	1652.75
468.045	1683.49
468.417	1704.28
468.789	1706.31
469.161	1720.55
469.534	1744.73
469.906	1799.19
470.278	1811.17
470.65	1791.28
471.022	1808.91
471.394	1855.46
471.766	1857.95
472.138	1879.41
472.51	1905.85
472.882	1947.43
473.253	1924.61
473.625	1964.16
473.997	2000.77
474.369	1986.76
474.74	2022.23
475.112	2057.71
475.484	2086.19
475.855	2099.07
476.227	2101.55
476.598	2146.07
476.97	2194.66
477.341	2219.74
477.713	2288.22
478.084	2260.65
478.455	2301.78
478.827	2320.98
479.198	2403.02
479.569	2350.81
479.94	2437.82
480.311	2454.77
480.682	2471.26
481.053	2550.58
481.424	2569.11
481.795	2596.68
482.166	2616.12
482.537	2633.07
482.908	2675.55
483.279	2712.39
483.65	2791.48
484.021	2813.17
484.391	2792.38
484.762	2852.72
485.133	2886.62
485.503	2896.11
485.874	2914.64
486.244	2942.44
486.615	3005.03
486.985	3057.46
487.356	3084.35
487.726	3105.37
488.097	3199.83
488.467	3201.19
488.837	3250
489.207	3253.16
489.578	3300.85
489.948	3341.3
490.318	3372.71
490.688	3395.53
491.058	3464.23
491.428	3465.36
491.798	3475.08
492.168	3548.75
492.538	3539.94
492.908	3564.12
493.278	3634.62
493.648	3612.93
494.017	3678.69
494.387	3730.89
494.757	3725.69
495.126	3785.8
495.496	3795.75
495.866	3790.32
496.235	3826.93
496.605	3846.14
496.974	3896.54
497.344	3904.22
497.713	3913.94
498.082	3955.74
498.452	3977.66
498.821	4062.63
499.19	4004.1
499.559	4021.28
499.928	4086.81
500.298	4046.14
500.667	4136.08
501.036	4112.12
501.405	4185.34
501.774	4151.22
502.143	4165.23
502.512	4189.41
502.88	4216.3
503.249	4253.59
503.618	4255.62
503.987	4268.05
504.356	4297.88
504.724	4287.26
505.093	4376.07
505.462	4338.56
505.83	4330.42
506.199	4377.43
506.567	4416.07
506.936	4418.56
507.304	4472.34
507.672	4466.24
508.041	4487.48
508.409	4512.11
508.777	4515.73
509.145	4546.91
509.514	4489.51
509.882	4566.57
510.25	4544.88
510.618	4607.48
510.986	4586.24
511.354	4624.43
511.722	4608.61
512.09	4671.43
512.458	4706.46
512.826	4684.76
513.193	4715.05
513.561	4697.87
513.929	4716.18
514.297	4797.3
514.664	4815.61
515.032	4753.01
515.4	4825.33
515.767	4787.36
516.135	4862.61
516.502	4822.61
516.869	4868.04
517.237	4955.27
517.604	4861.03
517.972	4924.08
518.339	5008.6
518.706	4984.87
519.073	4940.35
519.44	4978.54
519.808	5042.04
520.175	4998.2
520.542	5084.98
520.909	5067.35
521.276	5047.47
521.643	5091.53
522.009	5166.33
522.376	5176.05
522.743	5179.89
523.11	5248.14
523.477	5270.51
523.843	5301.47
524.21	5313.67
524.577	5331.98
524.943	5366.1
525.31	5419.21
525.676	5388.02
526.043	5421.47
526.409	5475.25
526.776	5468.02
527.142	5541.69
527.508	5517.06
527.874	5589.37
528.241	5571.97
528.607	5616.49
528.973	5630.28
529.339	5651.97
529.705	5737.62
530.071	5741.91
530.437	5748.92
530.803	5780.55
531.169	5831.4
531.535	5799.76
531.901	5799.31
532.267	5812.42
532.632	5888.35
532.998	5915.47
533.364	5978.52
533.73	5962.92
534.095	6015.58
534.461	6027.1
534.826	6067.33
535.192	6128.34
535.557	6081.11
535.923	6126.31
536.288	6117.95
536.653	6186.19
537.019	6154.78
537.384	6159.53
537.749	6230.94
538.114	6210.6
538.479	6298.96
538.845	6279.75
539.21	6253.54
539.575	6331.05
539.94	6277.72
540.305	6416.7
540.67	6404.04
541.034	6392.29
541.399	6426.41
541.764	6525.17
542.129	6486.98
542.494	6486.98
542.858	6564.94
543.223	6595.45
543.587	6574.66
543.952	6609.91
544.316	6664.82
544.681	6695.78
545.045	6719.06
545.41	6818.94
545.774	6735.33
546.138	6702.56
546.503	6828.21
546.867	6798.61
547.231	6905.72
547.595	6853.29
547.959	6956.57
548.324	6940.52
548.688	6962.9
549.052	6972.84
549.416	7004.93
549.779	6981.65
550.143	7032.5
550.507	7023.69
550.871	7073.85
551.235	7076.11
551.599	7126.28
551.962	7114.3
552.326	7167.18
552.689	7260.97
553.053	7259.39
553.417	7255.54
553.78	7341.64
554.143	7263.45
554.507	7361.08
554.87	7308.42
555.234	7460.06
555.597	7377.8
555.96	7392.72
556.323	7402.43
556.686	7439.72
557.05	7521.75
557.413	7486.72
557.776	7470.45
558.139	7573.73
558.502	7592.94
558.865	7602.2
559.228	7653.95
559.59	7668.64
559.953	7646.27
560.316	7765.13
560.679	7740.95
561.041	7797.45
561.404	7724.46
561.767	7823.89
562.129	7773.95
562.492	7871.35
562.854	7825.7
563.217	7872.48
563.579	7961.51
563.941	7955.86
564.304	8012.81
564.666	8019.37
565.028	8089.65
565.39	8073.83
565.753	8131.45
566.115	8114.73
566.477	8158.12
566.839	8206.25
567.201	8196.31
567.563	8253.26
567.925	8287.61
568.287	8251.22
568.648	8336.65
569.01	8420.03
569.372	8427.04
569.734	8415.06
570.095	8465.46
570.457	8529.63
570.819	8498.45
571.18	8550.88
571.542	8599.46
571.903	8617.32
572.265	8676.75
572.626	8775.5
572.987	8745.67
573.349	8826.58
573.71	8840.59
574.071	8990.41
574.432	8975.5
574.794	9021.15
575.155	9106.12
575.516	9135.04
575.877	9217.98
576.238	9328.48
576.599	9370.97
576.96	9373.91
577.32	9425.43
577.681	9530.51
578.042	9646.22
578.403	9725.99
578.763	9781.8
579.124	9838.98
579.485	9989.71
579.845	10060.89
580.206	10172.76
580.566	10233.77
580.927	10370.94
581.287	10544.72
581.648	10686.87
582.008	10781.1
582.368	10948.78
582.728	11085.27
583.089	11237.36
583.449	11372.05
583.809	11563.9
584.169	11772.04
584.529	11824.01
584.889	12129.54
585.249	12283.43
585.609	12447.27
585.969	12651.79
586.329	12833.7
586.688	13062.4
587.048	13231.21
587.408	13434.59
587.768	13703.51
588.127	13848.14
588.487	14150.28
588.846	14541.23
589.206	14552.98
589.565	14879.98
589.925	15209.01
590.284	15433.41
590.643	15633.85
591.003	15972.38
591.362	16318.13
591.721	16542.98
592.08	16756.31
592.44	17176.64
592.799	17435.84
593.158	17633.8
593.517	17913.79
593.876	18260.68
594.235	18475.81
594.593	18804.62
594.952	19130.94
595.311	19438.5
595.67	19654.09
596.029	20014.53
596.387	20355.54
596.746	20765.47
597.104	20877.11
597.463	21067.38
597.822	21545.11
598.18	21638.89
598.538	22030.75
598.897	22518.87
599.255	22520
599.613	23078.63
599.972	23130.61
600.33	23569.01
600.688	23710.48
601.046	24175.1
601.404	24527.41
601.762	24695.09
602.12	25069.31
602.478	25396.08
602.836	25655.74
603.194	25841.27
603.552	26086.01
603.91	26294.14
604.268	26658.88
604.625	26883.95
604.983	27125.98
605.341	27249.14
605.698	27659.98
606.056	27878.96
606.413	28047.99
606.771	28433.52
607.128	28663.12
607.485	28863.34
607.843	29019.72
608.2	29453.38
608.557	29644.11
608.914	29864.67
609.272	30118.9
609.629	30269.85
609.986	30743.51
610.343	30685.44
610.7	31162.03
611.057	31261.24
611.414	31541.23
611.771	31528.58
612.127	32047.21
612.484	32159.07
612.841	32367.43
613.198	32503.69
613.554	32555.67
613.911	33028.43
614.267	33135.32
614.624	33219.83
614.98	33428.41
615.337	33857.78
615.693	33866.82
616.05	33903.2
616.406	34174.84
616.762	34167.6
617.118	34352.46
617.475	34479.46
617.831	34815.27
618.187	34976.17
618.543	35130.06
618.899	35410.06
619.255	35363.51
619.611	35477.17
619.967	35810.73
620.323	35789.03
620.678	35865.41
621.034	35869.03
621.39	35913.1
621.746	36073.99
622.101	36682.79
622.457	36429.24
622.812	36473.76
623.168	36628.1
623.523	36816.57
623.879	36930.47
624.234	36816.57
624.589	37132.05
624.945	37102.44
625.3	37347.86
625.655	37356
626.01	37504.69
626.365	37464.24
626.72	37468.53
627.075	37560.74
627.43	37713.95
627.785	37728.19
628.14	37866.04
628.495	37868.07
628.85	37868.98
629.205	37885.47
629.559	38141.74
629.914	38063.55
630.269	38166.82
630.623	38059.93
630.978	38101.74
631.332	38265.8
631.687	38482.07
632.041	38219.7
632.396	38421.73
632.75	38207.72
633.104	38365.91
633.459	38315.74
633.813	38225.58
634.167	38311.68
634.521	38427.61
634.875	38474.16
635.229	38332.92
635.583	38296.31
635.937	38383.99
636.291	38291.56
636.645	38336.08
636.999	38353.48
637.352	38395.74
637.706	38406.59
638.06	38536.3
638.413	38363.43
638.767	38146.26
639.121	38283.43
639.474	38193.04
639.828	38259.93
640.181	38312.35
640.534	38396.87
640.888	38150.78
641.241	37987.17
641.594	38178.8
641.947	38381.05
642.301	38150.78
642.654	38288.4
643.007	38193.94
643.36	38452.69
643.713	38222.19
644.066	38309.42
644.419	38154.62
644.771	37942.87
645.124	37672.15
645.477	37648.87
645.83	37364.36
646.182	37124.36
646.535	37102.89
646.888	37236
647.24	37082.56
647.593	37310.57
647.945	37202.78
648.298	36966.85
648.65	37096.79
649.002	36994.65
649.355	37148.77
649.707	36989.68
650.059	37253.85
650.411	37609.32
650.763	37649.77
651.115	38016.77
651.467	37939.71
651.819	37765.7
652.171	37862.42
652.523	37827.4
652.875	37791.69
653.227	37599.6
653.578	37845.47
653.93	37648.42
654.282	37597.34
654.633	37449.1
654.985	37647.74
655.337	37666.72
655.688	37593.05
656.039	37873.95
656.391	37286.39
656.742	37659.49
657.094	37580.85
657.445	37718.47
657.796	37586.27
658.147	37475.31
658.498	37407.29
658.849	37537.23
659.2	37497.01
659.551	37429.44
659.902	37504.01
660.253	37546.05
660.604	37515.31
660.955	37420.4
661.306	37556.22
661.656	37404.36
662.007	37423.79
662.358	37376.79
662.708	37312.83
663.059	37635.08
663.409	37245.94
663.76	37551.47
664.11	37482.32
664.461	37528.65
664.811	37541.08
665.161	37414.3
665.511	37323
665.862	37431.25
666.212	37556.44
666.562	37553.73
666.912	37516.89
667.262	37483.45
667.612	37425.37
667.962	37416.33
668.312	37268.31
668.662	37535.43
669.011	37440.29
669.361	37400.06
669.711	37289.33
670.06	37244.81
670.41	37291.14
670.76	37159.16
671.109	37249.56
671.459	37225.38
671.808	37341.98
672.157	37237.81
672.507	37029.68
672.856	37022.22
673.205	37074.42
673.554	37280.97
673.904	37081.88
674.253	37354.41
674.602	37096.79
674.951	36582.91
675.3	36556.47
675.649	36921.88
675.998	37015.67
676.346	37036.68
676.695	37067.64
677.044	36897.93
677.393	36976.57
677.741	37024.03
678.09	36881.88
678.438	36833.52
678.787	36874.88
679.135	36904.71
679.484	36710.81
679.832	36781.1
680.181	36535.23
680.529	36569.35
680.877	36562.57
681.225	36590.82
681.573	36767.08
681.922	36421.1
682.27	36404.38
682.618	36391.5
682.966	36267.89
683.314	36447.09
683.661	36328
684.009	36216.82
684.357	36099.76
684.705	36067.67
685.053	35921.91
685.4	35990.38
685.748	35937.95
686.095	35844.4
686.443	35795.36
686.79	35693.44
687.138	35782.48
687.485	35659.99
687.832	35565.08
688.18	35592.43
688.527	35541.58
688.874	35521.02
689.221	35358.08
689.568	35411.64
689.915	35181.36
690.262	35238.08
690.609	35087.13
690.956	35009.16
691.303	34952.67
691.65	34861.6
691.997	34747.93
692.344	34607.59
692.69	34581.15
693.037	34644.2
693.383	34190.88
693.73	34596.52
694.077	34267.94
694.423	34180.49
694.769	34171.45
695.116	34123.31
695.462	33982.98
695.808	33970.1
696.155	33940.94
696.501	33749.99
696.847	33754.06
697.193	33337.34
697.539	33613.49
697.885	33356.78
698.231	33207.86
698.577	33225.93
698.923	33257.8
699.269	33071.81
699.614	32915.43
699.96	32825.27
700.306	32820.75
700.651	32778.26
700.997	32685.84
701.342	32608.1
701.688	32439.74
702.033	32377.14
702.379	32467.76
702.724	32239.75
703.069	32260.08
703.415	32122.46
703.76	32063.7
704.105	32116.58
704.45	32148.45
704.795	31728.35
705.14	31782.36
705.485	31677.05
705.83	31628.91
706.175	31625.3
706.52	31588.92
706.865	31346.66
707.209	31341.24
707.554	31185.76
707.899	31341.01
708.243	31146.67
708.588	31180.11
708.932	30821.7
709.277	30837.75
709.621	30991.87
709.966	30726.79
710.31	30857.41
710.654	30541.26
710.998	30573.35
711.342	30561.37
711.687	30469.62
712.031	30389.17
712.375	30277.31
712.719	30268.05
713.063	30306.24
713.407	30289.97
713.75	30137.88
714.094	30164.32
714.438	29948.05
714.782	29999.13
715.125	29869.19
715.469	29994.61
715.812	29646.59
716.156	29486.6
716.499	29662.64
716.843	29552.58
717.186	29391.23
717.53	29533.38
717.873	29554.39
718.216	29475.52
718.559	29441.4
718.902	29170.9
719.246	29242.54
719.589	29197.34
719.932	29090.68
720.275	28995.99
720.617	29125.93
720.96	29100.39
721.303	28934.52
721.646	28826.95
721.989	28826.28
722.331	28891.13
722.674	28792.15
723.016	28785.83
723.359	28700.86
723.701	28745.37
724.044	28480.07
724.386	28361.88
724.729	28539.05
725.071	28500.63
725.413	28469
725.755	28466.96
726.097	28197.59
726.439	28170.93
726.782	28245.5
727.124	28222.68
727.465	28071.49
727.807	28095
728.149	27961.44
728.491	27930.93
728.833	27993.08
729.175	27896.13
729.516	27745.63
729.858	27768.9
730.199	27703.82
730.541	27736.14
730.882	27693.42
731.224	27796.25
731.565	27611.39
731.906	27634.22
732.248	27586.53
732.589	27497.05
732.93	27359.42
733.271	27400.78
733.612	27436.93
733.953	27473.09
734.294	27246.43
734.635	27191.06
734.976	27241.46
735.317	27115.36
735.658	27130.73
735.999	27055.25
736.339	27038.75
736.68	27045.08
737.021	27016.38
737.361	26862.26
737.702	26974.12
738.042	26838.76
738.383	26736.16
738.723	26814.13
739.063	26652.55
739.404	26762.38
739.744	26690.51
740.084	26643.06
740.424	26580.69
740.764	26609.61
741.104	26623.62
741.444	26422.27
741.784	26433.57
742.124	26356.51
742.464	26347.25
742.804	26260.69
743.143	26446.23
743.483	26394.02
743.823	26213.46
744.162	26195.38
744.502	26185.67
744.841	26088.72
745.181	26127.36
745.52	26036.52
745.86	25914.94
746.199	26046.46
746.538	26050.98
746.877	26036.07
747.216	25958.55
747.556	25810.99
747.895	25913.58
748.234	25738.22
748.573	25747.71
748.911	25753.81
749.25	25695.96
749.589	25557.44
749.928	25552.46
750.267	25598.34
750.605	25437.89
750.944	25396.31
751.283	25408.51
751.621	25384.78
751.96	25297.56
752.298	25387.5
752.636	25247.61
752.975	25160.16
753.313	25055.53
753.651	25087.84
753.989	25041.29
754.327	24968.98
754.666	24859.37
755.004	24848.75
755.342	24791.81
755.679	24848.53
756.017	24668.42
756.355	24726.95
756.693	24708.87
757.031	24619.15
757.368	24378.48
757.706	24384.13
758.044	24355.89
758.381	24419.61
758.719	24197.02
759.056	24119.96
759.394	24224.82
759.731	23992.96
760.068	24037.25
760.405	23910.47
760.743	23882.23
761.08	23844.71
761.417	23705.28
761.754	23686.07
762.091	23706.41
762.428	23521.78
762.765	23421.45
763.102	23466.19
763.438	23323.82
763.775	23277.04
764.112	23327.89
764.449	23310.26
764.785	23100.55
765.122	23026.2
765.458	22865.75
765.795	22967.22
766.131	22845.19
766.467	22748.02
766.804	22671.18
767.14	22545.76
767.476	22563.62
767.812	22459.44
768.148	22436.61
768.485	22269.39
768.821	22212.44
769.157	22128.82
769.492	22169.05
769.828	22085.44
770.164	21903.52
770.5	21768.38
770.836	21812
771.171	21631.89
771.507	21597.77
771.842	21447.26
772.178	21461.05
772.513	21384.66
772.849	21319.13
773.184	21252.46
773.519	21186.7
773.855	21254.5
774.19	21015.18
774.525	20982.41
774.86	20956.88
775.195	20882.08
775.53	20753.72
775.865	20746.26
776.2	20527.74
776.535	20375.65
776.87	20394.18
777.205	20295.2
777.539	20267.86
777.874	20302.21
778.209	20110.8
778.543	20138.82
778.878	19965.04
779.212	19980.63
779.547	19880.3
779.881	19819.06
780.215	19731.37
780.55	19781.09
780.884	19595.11
781.218	19559.85
781.552	19594.2
781.886	19505.17
782.22	19376.13
782.554	19222.46
782.888	19145.4
783.222	18982.69
783.556	19011.17
783.889	18879.87
784.223	18750.38
784.557	18680.1
784.89	18754.22
785.224	18596.49
785.557	18654.11
785.891	18582.03
786.224	18575.92
786.558	18507.23
786.891	18334.57
787.224	18295.25
787.557	18200.11
787.891	18263.84
788.224	18188.82
788.557	18170.74
788.89	18037.86
789.223	18074.69
789.556	17947.92
789.888	17830.41
790.221	17756.06
790.554	17681.71
790.887	17660.02
791.219	17566.91
791.552	17516.52
791.884	17461.15
792.217	17404.43
792.549	17326.92
792.882	17161.95
793.214	17157.66
793.546	17172.8
793.879	17021.61
794.211	16987.49
794.543	17076.75
794.875	16983.42
795.207	16912.46
795.539	16842.41
795.871	16819.13
796.203	16643.77
796.535	16601.06
796.867	16561.51
797.198	16557.45
797.53	16483.32
797.862	16356.77
798.193	16478.8
798.525	16331.24
798.856	16345.7
799.188	16173.73
799.519	16161.75
799.85	16025.26
800.182	15941.42
800.513	16056.22
800.844	15804.02
801.175	15962.89
801.506	15945.71
801.837	15842.21
802.168	15737.81
802.499	15683.34
802.83	15671.37
803.161	15515.44
803.491	15559.28
803.822	15581.65
804.153	15464.14
804.483	15445.61
804.814	15394.76
805.145	15293.3
805.475	15257.14
805.805	15278.61
806.136	15284.03
806.466	15183.92
806.796	15212.85
807.126	15025.73
807.457	15031.61
807.787	14958.17
808.117	14978.5
808.447	14884.95
808.777	14823.48
809.107	14791.84
809.436	14808.79
809.766	14780.54
810.096	14711.62
810.426	14613.54
810.755	14668.91
811.085	14653.54
811.414	14610.6
811.744	14512.08
812.073	14518.4
812.403	14392.53
812.732	14280.44
813.061	14372.19
813.39	14349.37
813.719	14314.79
814.049	14232.76
814.378	14235.47
814.707	14138.53
815.036	14190.28
815.365	14036.61
815.693	13948.48
816.022	13952.32
816.351	13830.29
816.68	13774.92
817.008	13918.42
817.337	13760.91
817.665	13759.78
817.994	13738.09
818.322	13723.85
818.651	13689.95
818.979	13591.2
819.307	13684.3
819.636	13701.7
819.964	13546.23
820.292	13592.78
820.62	13565.21
820.948	13462.39
821.276	13497.41
821.604	13505.32
821.932	13541.48
822.259	13503.97
822.587	13445.66
822.915	13490.18
823.243	13557.98
823.57	13518.2
823.898	13572.21
824.225	13343.97
824.553	13405.66
824.88	13458.54
825.207	13501.71
825.535	13469.17
825.862	13491.09
826.189	13379.22
826.516	13470.75
826.843	13515.27
827.17	13461.71
827.497	13483.85
827.824	13571.76
828.151	13461.71
828.478	13371.54
828.805	13525.89
829.131	13404.99
829.458	13386.23
829.785	13363.41
830.111	13506
830.438	13444.99
830.764	13448.15
831.09	13411.54
831.417	13359.11
831.743	13474.59
832.069	13348.72
832.395	13338.55
832.722	13384.87
833.048	13371.99
833.374	13324.08
833.7	13188.72
834.026	13363.63
834.351	13298.55
834.677	13265.78
835.003	13272.11
835.329	13242.28
835.654	13267.36
835.98	13060.81
836.306	13200.92
836.631	13178.78
836.956	13143.07
837.282	13188.72
837.607	13096.29
837.932	13032.34
838.258	13065.56
838.583	13031.21
838.908	12995.73
839.233	13087.25
839.558	12960.03
839.883	12950.99
840.208	12934.26
840.533	12800.71
840.858	12927.71
841.182	12978.56
841.507	12856.53
841.832	12754.38
842.156	12783.31
842.481	12796.87
842.805	12759.81
843.13	12687.94
843.454	12652.69
843.778	12571.56
844.103	12575.18
844.427	12603.65
844.751	12583.99
845.075	12519.59
845.399	12424
845.723	12463.99
846.047	12449.08
846.371	12276.43
846.695	12306.48
847.019	12257.45
847.343	12188.07
847.666	12107.62
847.99	12042.08
848.313	12006.15
848.637	11989.2
848.96	11998.24
849.284	11924.35
849.607	11862.43
849.931	11811.81
850.254	11715.09
850.577	11712.83
850.9	11540.85
851.223	11633.06
851.546	11563.9
851.869	11441.87
852.192	11506.73
852.515	11389.9
852.838	11338.83
853.161	11372.5
853.483	11283.69
853.806	11218.6
854.129	11284.36
854.451	11207.76
854.774	11102.67
855.096	11042.34
855.419	11104.26
855.741	11033.98
856.063	10995.11
856.385	10978.38
856.708	10971.38
857.03	10889.57
857.352	10855.9
857.674	10863.58
857.996	10807.31
858.318	10730.93
858.64	10837.14
858.961	10831.95
859.283	10642.8
859.605	10606.87
859.926	10700.88
860.248	10656.58
860.57	10555.8
860.891	10639.86
861.212	10554.89
861.534	10492.52
861.855	10509.92
862.176	10464.72
862.498	10524.61
862.819	10383.6
863.14	10460.21
863.461	10356.25
863.782	10355.8
864.103	10294.79
864.424	10281.9
864.745	10382.02
865.065	10251.62
865.386	10241.91
865.707	10159.65
866.027	10228.8
866.348	10271.06
866.668	10187.67
866.989	10167.11
867.309	10065.64
867.63	10196.94
867.95	10134.56
868.27	10025.19
868.59	10031.97
868.91	10103.15
869.23	10082.81
869.55	10017.05
869.87	10133.89
870.19	10015.25
870.51	10030.84
870.83	10038.07
871.15	9922.59
871.469	9918.75
871.789	10002.59
872.109	9889.37
872.428	9845.53
872.748	9880.11
873.067	9883.5
873.386	9890.73
873.706	9821.35
874.025	9751.98
874.344	9757.4
874.663	9807.12
874.982	9727.8
875.301	9764.63
875.62	9680.79
875.939	9648.93
876.258	9624.07
876.577	9651.86
876.896	9636.5
877.214	9649.83
877.533	9633.56
877.852	9603.5
878.17	9510.85
878.489	9609.38
878.807	9579.32
879.125	9522.83
879.444	9530.74
879.762	9481.02
880.08	9512.21
880.398	9490.06
880.716	9465.2
881.034	9415.94
881.352	9399.67
881.67	9353.79
881.988	9414.81
882.306	9436.73
882.624	9318.09
882.941	9294.13
883.259	9331.87
883.577	9276.73
883.894	9226.34
884.212	9230.18
884.529	9211.42
884.846	9126.23
885.164	9165.78
885.481	9116.96
885.798	9168.94
886.115	9046.46
886.432	9096.85
886.75	9072.22
887.067	9050.07
887.383	9015.05
887.7	8956.29
888.017	8939.57
888.334	8929.62
888.651	8911.77
888.967	8925.33
889.284	8837.42
889.6	8890.3
889.917	8723.08
890.233	8796.29
890.55	8766.24
890.866	8761.49
891.182	8752
891.498	8705.22
891.815	8656.41
892.131	8666.35
892.447	8565.34
892.763	8637.43
893.079	8563.98
893.395	8607.6
893.71	8505.23
894.026	8475.4
894.342	8441.5
894.657	8408.73
894.973	8426.36
895.289	8425.23
895.604	8353.59
895.92	8329.64
896.235	8272.92
896.55	8259.59
896.865	8240.6
897.181	8233.15
897.496	8234.28
897.811	8237.66
898.126	8107.05
898.441	8162.64
898.756	8066.6
899.071	8077.44
899.386	8025.47
899.7	7984.56
900.015	7984.34
900.33	7931.01
900.644	7926.03
900.959	7927.16
901.273	7813.5
901.588	7902.53
901.902	7791.35
902.216	7754.51
902.531	7799.26
902.845	7750.45
903.159	7663.22
903.473	7637.45
903.787	7625.7
904.101	7570.11
904.415	7586.38
904.729	7553.16
905.042	7482.88
905.356	7447.4
905.67	7503.9
905.984	7439.72
906.297	7418.48
906.611	7348.42
906.924	7375.31
907.237	7358.59
907.551	7279.27
907.864	7289.67
908.177	7251.93
908.491	7258.26
908.804	7215.54
909.117	7207.41
909.43	7147.3
909.743	7101.65
910.056	7084.7
910.368	7047.64
910.681	7072.05
910.994	6965.83
911.307	6983.91
911.619	6905.95
911.932	6950.01
912.244	6862.11
912.557	6854.65
912.869	6875.21
913.181	6839.74
913.494	6771.94
913.806	6742.34
914.118	6699.85
914.43	6635.9
914.742	6673.19
915.054	6650.81
915.366	6582.79
915.678	6572.62
915.99	6538.95
916.302	6491.5
916.613	6461.89
916.925	6508.22
917.236	6435
917.548	6363.14
917.859	6427.54
918.171	6398.62
918.482	6283.59
918.794	6337.15
919.105	6289.92
919.416	6264.16
919.727	6255.57
920.038	6209.02
920.349	6161.34
920.66	6119.3
920.971	6153.88
921.282	6065.52
921.593	6058.29
921.903	6061.22
922.214	6016.48
922.525	5993.88
922.835	5952.75
923.146	5963.83
923.456	5950.72
923.767	5886.54
924.077	5933.09
924.387	5909.36
924.697	5827.11
925.008	5821.23
925.318	5744.62
925.628	5742.36
925.938	5717.73
926.248	5723.38
926.558	5715.92
926.867	5646.55
927.177	5681.57
927.487	5544.18
927.796	5618.07
928.106	5576.04
928.416	5544.85
928.725	5522.26
929.034	5509.37
929.344	5487.68
929.653	5515.48
929.962	5406.33
930.271	5363.84
930.581	5385.08
930.89	5347.35
931.199	5356.16
931.508	5294.24
931.817	5319.1
932.125	5283.39
932.434	5243.62
932.743	5225.31
933.051	5222.15
933.36	5159.55
933.669	5165.88
933.977	5113.45
934.286	5128.59
934.594	5101.02
934.902	5010.4
935.21	5036.62
935.519	4993.46
935.827	5005.43
936.135	4962.5
936.443	4948.71
936.751	4934.7
937.059	4945.1
937.367	4877.08
937.674	4876.62
937.982	4870.52
938.29	4851.54
938.597	4830.97
938.905	4814.93
939.213	4781.94
939.52	4768.6
939.827	4771.32
940.135	4718.21
940.442	4698.55
940.749	4686.35
941.056	4684.09
941.363	4637.99
941.67	4616.07
941.977	4635.73
942.284	4554.15
942.591	4567.25
942.898	4466.46
943.205	4558.21
943.511	4532.68
943.818	4524.54
944.125	4463.53
944.431	4439.57
944.738	4474.6
945.044	4385.34
945.35	4373.36
945.657	4339.46
945.963	4384.66
946.269	4313.7
946.575	4317.99
946.881	4273.02
947.187	4272.12
947.493	4238.67
947.799	4276.86
948.105	4213.82
948.41	4190.54
948.716	4209.3
949.022	4128.62
949.327	4161.39
949.633	4123.65
949.938	4154.61
950.244	4127.26
950.549	4048.17
950.854	4092.91
951.16	4043.88
951.465	3979.02
951.77	4012.69
952.075	3981.73
952.38	3951.22
952.685	3966.36
952.99	3903.32
953.294	3972.69
953.599	3909.64
953.904	3892.92
954.209	3862.86
954.513	3857.89
954.818	3849.08
955.122	3837.1
955.426	3850.66
955.731	3786.93
956.035	3805.01
956.339	3767.95
956.643	3749.42
956.948	3706.94
957.252	3708.52
957.556	3713.26
957.86	3681.63
958.163	3668.29
958.467	3662.64
958.771	3652.7
959.075	3641.4
959.378	3598.92
959.682	3607.5
959.985	3532.48
960.289	3560.5
960.592	3525.02
960.896	3511.91
961.199	3527.05
961.502	3532.7
961.805	3491.12
962.108	3438.69
962.411	3427.62
962.714	3449.09
963.017	3423.33
963.32	3458.58
963.623	3367.74
963.926	3380.62
964.228	3359.6
964.531	3318.92
964.833	3367.74
965.136	3312.6
965.438	3275.99
965.741	3306.95
966.043	3275.08
966.345	3252.03
966.648	3235.31
966.95	3242.99
967.252	3249.1
967.554	3188.53
967.856	3186.05
968.158	3152.6
968.46	3128.65
968.761	3148.76
969.063	3100.4
969.365	3100.62
969.666	3133.17
969.968	3094.07
970.269	3040.51
970.571	3060.63
970.872	3092.04
971.174	3030.12
971.475	3054.3
971.776	2993.06
972.077	3037.35
972.378	2952.15
972.679	2950.57
972.98	2964.13
973.281	2956.67
973.582	2940.63
973.883	2936.34
974.183	2945.37
974.484	2916.22
974.785	2869.9
975.085	2876.68
975.386	2863.12
975.686	2863.57
975.986	2826.28
976.287	2809.78
976.587	2772.5
976.887	2773.4
977.187	2791.71
977.487	2755.1
977.787	2731.37
978.087	2742.67
978.387	2738.6
978.687	2729.56
978.987	2725.95
979.286	2651.37
979.586	2686.62
979.885	2662.67
980.185	2670.81
980.484	2666.51
980.784	2613.41
981.083	2666.29
981.382	2620.64
981.682	2550.58
981.981	2607.76
982.28	2579.51
982.579	2552.16
982.878	2562.79
983.177	2550.36
983.475	2547.42
983.774	2560.07
984.073	2489.34
984.372	2475.1
984.67	2518.27
984.969	2521.88
985.267	2487.31
985.566	2481.88
985.864	2463.81
986.162	2446.63
986.461	2411.83
986.759	2425.84
987.057	2412.96
987.355	2385.62
987.653	2397.82
987.951	2358.27
988.249	2384.71
988.547	2393.98
988.844	2372.06
989.142	2341.55
989.44	2334.77
989.737	2293.64
990.035	2327.99
990.332	2300.19
990.63	2260.42
990.927	2262.23
991.224	2278.27
991.521	2256.35
991.819	2234.66
992.116	2265.62
992.413	2234.43
992.71	2240.53
993.006	2195.79
993.303	2191.27
993.6	2191.04
993.897	2170.03
994.193	2176.36
994.49	2151.5
994.787	2117.15
995.083	2122.8
995.379	2120.54
995.676	2107.43
995.972	2084.61
996.268	2080.76
996.565	2104.49
996.861	2102.91
997.157	2094.78
997.453	2065.85
997.749	2046.42
998.044	2038.05
998.34	2029.01
998.636	2001.9
998.932	2015.68
999.227	1989.69
999.523	2003.03
999.818	1981.78
1000.114	1954.21
1000.409	1936.36
1000.704	1935.91
1001	1960.54
1001.295	1905.18
1001.59	1918.06
1001.885	1905.85
1002.18	1869.24
1002.475	1925.29
1002.77	1888
1003.065	1871.96
1003.359	1857.95
1003.654	1860.88
1003.949	1830.38
1004.243	1831.96
1004.538	1825.4
1004.832	1815.46
1005.127	1802.35
1005.421	1799.64
1005.715	1755.58
1006.009	1772.07
1006.304	1781.79
1006.598	1739.53
1006.892	1756.71
1007.186	1722.81
1007.48	1707.67
1007.773	1712.64
1008.067	1727.33
1008.361	1695.01
1008.655	1679.87
1008.948	1681
1009.242	1662.24
1009.535	1648.01
1009.829	1641.68
1010.122	1626.31
1010.415	1617.73
1010.708	1627.44
1011.001	1593.09
1011.295	1584.28
1011.588	1574.56
1011.881	1570.27
1012.173	1584.05
1012.466	1572.98
1012.759	1555.13
1013.052	1557.84
1013.344	1530.5
1013.637	1537.5
1013.93	1507.67
1014.222	1511.29
1014.514	1514.23
1014.807	1508.8
1015.099	1488.69
1015.391	1488.69
1015.683	1517.62
1015.976	1502.25
1016.268	1464.06
1016.56	1462.48
1016.851	1437.39
1017.143	1418.18
1017.435	1411.86
1017.727	1428.35
1018.018	1424.28
1018.31	1404.17
1018.602	1391.52
1018.893	1369.82
1019.185	1372.99
1019.476	1345.64
1019.767	1346.09
1020.058	1349.26
1020.35	1336.15
1020.641	1318.75
1020.932	1301.12
1021.223	1324.63
1021.514	1336.6
1021.804	1293.44
1022.095	1263.61
1022.386	1280.11
1022.677	1263.16
1022.967	1291.41
1023.258	1263.61
1023.548	1241.01
1023.839	1249.83
1024.129	1218.19
1024.419	1193.1
1024.709	1213.22
1025	1199.88
1025.29	1190.39
1025.58	1182.48
1025.87	1194.01
1026.16	1156.95
1026.449	1166.89
1026.739	1164.86
1027.029	1131.64
1027.319	1152.88
1027.608	1150.17
1027.898	1156.95
1028.187	1137.74
1028.477	1114.69
1028.766	1130.06
1029.055	1105.65
1029.344	1100.9
1029.634	1106.33
1029.923	1083.95
1030.212	1100.23
1030.501	1050.74
1030.79	1073.11
1031.078	1069.04
1031.367	1022.71
1031.656	1054.58
1031.945	1044.18
1032.233	1041.02
1032.522	1046.89
1032.81	1017.29
1033.099	1013.67
1033.387	1019.32
1033.675	1008.02
1033.963	1012.77
1034.251	969.61
1034.54	988.82
1034.828	1001.92
1035.116	963.96
1035.403	970.06
1035.691	980.23
1035.979	929.61
1036.267	915.82
1036.554	974.35
1036.842	945.65
1037.129	945.65
1037.417	923.96
1037.704	906.78
1037.992	896.39
1038.279	919.89
1038.566	913.34
1038.853	913.34
1039.14	913.34
