Data from hue_32_FLMS001491_00055.txt Node
Date: Tue Feb 07 17:23:36 GMT 2017
User: dcchb
Spectrometer: FLMS00149
Trigger mode: 0
Integration Time (sec): 2.000000E-2
Scans to average: 10
Electric dark correction enabled: true
Nonlinearity correction enabled: false
Boxcar width: 0
XAxis mode: Wavelengths
Number of Pixels in Spectrum: 2048
>>>>>Begin Spectral Data<<<<<
341.393	6.05
341.776	6.05
342.16	6.05
342.543	-61.3
342.927	-70.34
343.31	-65.37
343.693	-77.34
344.077	-54.74
344.46	-64.24
344.843	-48.64
345.226	-41.41
345.61	-39.6
345.993	-2.77
346.376	-6.38
346.759	4.24
347.142	4.24
347.525	47.85
347.908	54.86
348.291	81.3
348.674	103.67
349.057	104.35
349.44	148.19
349.823	142.54
350.206	154.74
350.588	191.35
350.971	197.45
351.354	206.72
351.737	245.36
352.119	269.09
352.502	274.51
352.884	266.38
353.267	269.09
353.65	302.53
354.032	316.55
354.414	279.94
354.797	315.19
355.179	321.29
355.562	326.94
355.944	327.17
356.326	328.97
356.709	342.31
357.091	358.13
357.473	349.99
357.855	348.86
358.238	334.4
358.62	334.62
359.002	354.51
359.384	341.86
359.766	340.27
360.148	338.69
360.53	333.72
360.912	332.14
361.294	324.68
361.676	327.17
362.057	329.43
362.439	344.34
362.821	310.44
363.203	337.56
363.584	334.17
363.966	327.62
364.348	326.49
364.729	312.7
365.111	289.65
365.493	321.97
365.874	304.79
366.256	313.83
366.637	322.42
367.019	318.58
367.4	323.78
367.781	298.92
368.163	311.12
368.544	294.17
368.925	319.94
369.306	349.31
369.688	304.57
370.069	304.34
370.45	310.44
370.831	309.31
371.212	313.61
371.593	318.58
371.974	314.74
372.355	334.85
372.736	315.19
373.117	321.97
373.498	332.59
373.879	324
374.26	305.25
374.641	308.86
375.021	335.75
375.402	312.93
375.783	309.99
376.163	326.26
376.544	310.67
376.925	307.05
377.305	330.56
377.686	327.39
378.066	325.81
378.447	312.93
378.827	333.49
379.208	331.91
379.588	338.24
379.968	314.96
380.349	333.04
380.729	355.19
381.109	332.36
381.489	332.59
381.87	346.6
382.25	340.5
382.63	316.32
383.01	340.5
383.39	353.83
383.77	333.95
384.15	344.57
384.53	340.27
384.91	357.9
385.29	323.78
385.67	353.61
386.049	356.09
386.429	350.44
386.809	342.53
387.189	350.44
387.568	386.6
387.948	361.97
388.328	368.75
388.707	365.81
389.087	343.66
389.466	366.71
389.846	364.23
390.225	374.17
390.605	378.69
390.984	364.23
391.363	386.6
391.743	384.34
392.122	382.31
392.501	380.05
392.881	381.4
393.26	373.27
393.639	375.98
394.018	385.7
394.397	377.33
394.776	367.39
395.155	383.89
395.534	379.82
395.913	366.94
396.292	385.02
396.671	394.74
397.05	385.92
397.429	392.93
397.808	401.97
398.186	390.67
398.565	403.32
398.944	392.48
399.323	396.32
399.701	395.64
400.08	404.23
400.458	383.21
400.837	409.65
401.215	391.57
401.594	400.38
401.972	392.7
402.351	403.77
402.729	403.55
403.107	418.46
403.486	425.7
403.864	416.43
404.242	423.44
404.62	424.11
404.999	414.85
405.377	433.38
405.755	425.02
406.133	430.21
406.511	423.66
406.889	433.38
407.267	435.64
407.645	435.41
408.023	448.29
408.401	438.35
408.779	479.48
409.156	431.57
409.534	452.36
409.912	419.37
410.29	458.91
410.667	447.39
411.045	461.85
411.422	468.18
411.8	461.17
412.178	482.87
412.555	470.44
412.933	456.2
413.31	495.98
413.687	488.52
414.065	488.52
414.442	479.48
414.819	500.5
415.197	483.77
415.574	489.87
415.951	507.5
416.328	498.01
416.705	489.42
417.082	502.3
417.46	505.24
417.837	535.97
418.214	502.53
418.591	514.96
418.967	516.54
419.344	530.1
419.721	525.35
420.098	500.04
420.475	522.19
420.852	536.88
421.228	545.01
421.605	546.82
421.982	532.36
422.358	527.16
422.735	534.84
423.111	539.82
423.488	547.5
423.864	551.79
424.241	552.92
424.617	546.6
424.994	593.37
425.37	565.58
425.746	567.61
426.123	579.82
426.499	571
426.875	596.31
427.251	584.79
427.627	608.74
428.003	599.7
428.379	605.8
428.756	601.28
429.132	608.52
429.507	623.43
429.883	614.84
430.259	637.21
430.635	632.47
431.011	617.55
431.387	633.83
431.763	634.5
432.138	658.23
432.514	634.5
432.89	658.46
433.265	677.89
433.641	662.98
434.016	688.51
434.392	680.6
434.767	705.91
435.143	696.2
435.518	682.86
435.894	686.25
436.269	719.7
436.644	731
437.02	721.05
437.395	721.05
437.77	716.76
438.145	731.22
438.52	733.26
438.895	758.79
439.271	742.07
439.646	739.13
440.021	741.39
440.395	738.46
440.77	771.22
441.145	767.83
441.52	773.48
441.895	768.74
442.27	809.19
442.645	806.7
443.019	803.54
443.394	773.26
443.769	799.92
444.143	776.19
444.518	817.55
444.892	814.16
445.267	826.59
445.641	837.44
446.016	807.38
446.39	839.02
446.764	815.29
447.139	835.63
447.513	816.19
447.887	821.62
448.262	848.06
448.636	856.42
449.01	878.11
449.384	865.23
449.758	874.72
450.132	867.49
450.506	916.3
450.88	889.19
451.254	872.24
451.628	897.77
452.002	902.07
452.376	915.4
452.75	899.81
453.123	930.77
453.497	930.31
453.871	930.54
454.244	968.05
454.618	975.51
454.992	962.18
455.365	963.31
455.739	978.22
456.112	997.43
456.486	1006.24
456.859	1000.14
457.232	1043.53
457.606	1021.84
457.979	1051.44
458.352	1048.28
458.725	1074.72
459.099	1064.77
459.472	1091.21
459.845	1100.48
460.218	1130.08
460.591	1107.94
460.964	1142.74
461.337	1145.9
461.71	1159.69
462.083	1179.12
462.456	1186.58
462.829	1185
463.201	1181.83
463.574	1220.02
463.947	1224.32
464.32	1241.49
464.692	1268.16
465.065	1283.75
465.438	1290.31
465.81	1301.38
466.183	1337.08
466.555	1338.89
466.928	1373.47
467.3	1366.46
467.672	1401.94
468.045	1392
468.417	1413.47
468.789	1416.4
469.161	1464.54
469.534	1444.88
469.906	1535.5
470.278	1493.92
470.65	1514.48
471.022	1558.32
471.394	1570.98
471.766	1622.5
472.138	1612.56
472.51	1678.09
472.882	1665.66
473.253	1705.44
473.625	1737.75
473.997	1789.95
474.369	1802.38
474.74	1825.21
475.112	1856.84
475.484	1881.93
475.855	1935.03
476.227	1987.24
476.598	2031.53
476.97	2063.17
477.341	2107.68
477.713	2135.25
478.084	2159.21
478.455	2224.07
478.827	2297.74
479.198	2348.58
479.569	2386.1
479.94	2432.87
480.311	2464.96
480.682	2541.35
481.053	2608.01
481.424	2675.81
481.795	2706.76
482.166	2761.9
482.537	2829.02
482.908	2924.39
483.279	2986.98
483.65	3043.48
484.021	3099.07
484.391	3182.46
484.762	3226.53
485.133	3279.63
485.503	3320.76
485.874	3463.58
486.244	3500.64
486.615	3583.8
486.985	3685.95
487.356	3777.47
487.726	3852.72
488.097	3872.84
488.467	3968.43
488.837	4074.19
489.207	4094.53
489.578	4265.82
489.948	4269.21
490.318	4395.53
490.688	4446.83
491.058	4558.24
491.428	4618.13
491.798	4684.34
492.168	4828.07
492.538	4895.41
492.908	4984.22
493.278	5056.31
493.648	5087.72
494.017	5171.56
494.387	5254.49
494.757	5338.11
495.126	5431.21
495.496	5412.91
495.866	5589.85
496.235	5593.24
496.605	5697.19
496.974	5783.29
497.344	5851.32
497.713	5941.48
498.082	5942.16
498.452	6073.46
498.821	6092.21
499.19	6179.44
499.559	6262.15
499.928	6280.68
500.298	6363.62
500.667	6427.57
501.036	6462.82
501.405	6556.61
501.774	6591.63
502.143	6654.01
502.512	6740.33
502.88	6764.51
503.249	6842.48
503.618	6929.7
503.987	6952.98
504.356	7036.82
504.724	7039.76
505.093	7065.97
505.462	7121.56
505.83	7228
506.199	7215.35
506.567	7380.31
506.936	7382.57
507.304	7449.69
507.672	7495.57
508.041	7574.43
508.409	7562
508.777	7757.03
509.145	7782.79
509.514	7774.65
509.882	7838.83
510.25	7819.85
510.618	7914.99
510.986	7952.5
511.354	8061.2
511.722	8112.72
512.09	8167.86
512.458	8191.82
512.826	8252.61
513.193	8280.86
513.561	8339.39
513.929	8364.24
514.297	8525.6
514.664	8475.43
515.032	8512.26
515.4	8585.71
515.767	8559.72
516.135	8701.86
516.502	8651.24
516.869	8845.59
517.237	8838.13
517.604	8801.29
517.972	8862.08
518.339	8910.44
518.706	8972.59
519.073	9030.44
519.44	9067.73
519.808	9153.38
520.175	9133.94
520.542	9184.79
520.909	9244.67
521.276	9311.34
521.643	9370.32
522.009	9365.57
522.376	9479.69
522.743	9557.66
523.11	9590.88
523.477	9730.76
523.843	9770.76
524.21	9876.52
524.577	9902.96
524.943	9933.02
525.31	9925.78
525.676	10113.58
526.043	10091.2
526.409	10166
526.776	10216.17
527.142	10278.77
527.508	10285.77
527.874	10341.82
528.241	10418.2
528.607	10460.69
528.973	10621.13
529.339	10528.25
529.705	10649.38
530.071	10737.51
530.437	10739.32
530.803	10827
531.169	10911.97
531.535	10880.79
531.901	10980.22
532.267	11015.25
532.632	11084.4
532.998	11186.99
533.364	11190.16
533.73	11266.54
534.095	11287.33
534.461	11360.32
534.826	11412.07
535.192	11455.46
535.557	11477.16
535.923	11556.25
536.288	11573.2
536.653	11666.53
537.019	11646.19
537.384	11696.59
537.749	11796.47
538.114	11773.87
538.479	11822.91
538.845	11868.56
539.21	11892.06
539.575	11947.2
539.94	12020.42
540.305	12034.66
540.67	12113.75
541.034	12140.42
541.399	12210.7
541.764	12230.13
542.129	12297.93
542.494	12342.44
542.858	12404.59
543.223	12470.58
543.587	12505.15
543.952	12417.7
544.316	12546.28
544.681	12589.89
545.045	12664.92
545.41	12833.5
545.774	12759.61
546.138	12758.7
546.503	12840.51
546.867	12815.2
547.231	13002.77
547.595	13060.84
547.959	13037.79
548.324	13057.91
548.688	13156.43
549.052	13101.29
549.416	13268.52
549.779	13293.83
550.143	13301.06
550.507	13393.72
550.871	13411.12
551.235	13377.22
551.599	13508.29
551.962	13495.18
552.326	13489.08
552.689	13581.28
553.053	13665.12
553.417	13748.06
553.78	13776.53
554.143	13771.11
554.507	13841.16
554.87	13922.29
555.234	13956.64
555.597	13944.66
555.96	13950.99
556.323	14018.56
556.686	14007.03
557.05	14144.88
557.413	14270.3
557.776	14242.28
558.139	14421.26
558.502	14378.32
558.865	14397.98
559.228	14436.4
559.59	14498.32
559.953	14549.62
560.316	14632.55
560.679	14657.86
561.041	14772.44
561.404	14837.07
561.767	14848.82
562.129	14878.87
562.492	15015.14
562.854	15044.75
563.217	15042.03
563.579	15061.24
563.941	15211.07
564.304	15219.43
564.666	15299.88
565.028	15313.89
565.39	15376.71
565.753	15423.94
566.115	15485.86
566.477	15485.64
566.839	15582.13
567.201	15758.4
567.563	15742.13
567.925	15814.89
568.287	15949.35
568.648	15886.53
569.01	15835.01
569.372	16038.62
569.734	16078.39
570.095	16240.65
570.457	16242.23
570.819	16371.72
571.18	16268.44
571.542	16435.67
571.903	16561.32
572.265	16566.06
572.626	16591.15
572.987	16663.69
573.349	16782.33
573.71	16833.17
574.071	17004.92
574.432	17047.63
574.794	17210.79
575.155	17176.89
575.516	17203.78
575.877	17393.84
576.238	17403.55
576.599	17551.35
576.96	17655.75
577.32	17648.07
577.681	17801.74
578.042	17949.08
578.403	18068.39
578.763	18165.34
579.124	18416.86
579.485	18474.94
579.845	18687.59
580.206	18807.81
580.566	18930.97
580.927	19212.77
581.287	19335.25
581.648	19373.67
582.008	19565.08
582.368	19604.4
582.728	20003.26
583.089	20040.32
583.449	20160.09
583.809	20360.54
584.169	20529.8
584.529	20703.13
584.889	21149.44
585.249	21032.61
585.609	21391.02
585.969	21529.77
586.329	21781.97
586.688	22095.41
587.048	22322.07
587.408	22430.77
587.768	22623.76
588.127	22936.74
588.487	23183.97
588.846	23489.5
589.206	23601.13
589.565	23780.34
589.925	24109.82
590.284	24432.97
590.643	24713.42
591.003	24910.25
591.362	25354.53
591.721	25430.91
592.08	25718.14
592.44	25985.02
592.799	26219.14
593.158	26446.03
593.517	26724.66
593.876	27051.21
594.235	27279.23
594.593	27484.64
594.952	27855.03
595.311	27946.1
595.67	28322.36
596.029	28669.02
596.387	28867.21
596.746	29264.94
597.104	29340.64
597.463	29544.25
597.822	29846.62
598.18	30048.64
598.538	30262.42
598.897	30696.09
599.255	30609.76
599.613	31223.3
599.972	31411.77
600.33	31680.47
600.688	31803.85
601.046	31979.89
601.404	32340.11
601.762	32611.97
602.12	32951.62
602.478	33143.25
602.836	33188.9
603.194	33391.38
603.552	33600.64
603.91	33623.47
604.268	34074.98
604.625	34110.46
604.983	34465.93
605.341	34499.38
605.698	34934.17
606.056	35121.96
606.413	35250.09
606.771	35524.21
607.128	35633.13
607.485	35592.23
607.843	35915.16
608.2	36263.85
608.557	36526.21
608.914	36598.76
609.272	36831.74
609.629	37002.36
609.986	37265.4
610.343	37216.59
610.7	37658.84
611.057	37814.99
611.414	37808.21
611.771	37859.51
612.127	38200.75
612.484	38382.21
612.841	38550.79
613.198	38571.58
613.554	38630.11
613.911	38913.95
614.267	39006.83
614.624	39181.51
614.98	39281.62
615.337	39648.62
615.693	39659.01
616.05	39695.85
616.406	40017.2
616.762	39952.57
617.118	40071.88
617.475	40211.99
617.831	40478.88
618.187	40466.45
618.543	40677.97
618.899	40790.28
619.255	40930.39
619.611	40853.56
619.967	41151.63
620.323	41255.36
620.678	41199.99
621.034	41287.22
621.39	41209.93
621.746	41376.26
622.101	41897.15
622.457	41551.85
622.812	41779.41
623.168	41907.09
623.523	41868.9
623.879	41906.86
624.234	41874.77
624.589	42144.15
624.945	42306.63
625.3	42312.5
625.655	42263.01
626.01	42303.46
626.365	42423.23
626.72	42473.85
627.075	42465.04
627.43	42409
627.785	42419.39
628.14	42580.97
628.495	42631.36
628.85	42629.78
629.205	42464.59
629.559	42789.78
629.914	42587.07
630.269	42650.35
630.623	42763.11
630.978	42657.8
631.332	42804.92
631.687	42913.17
632.041	42886.73
632.396	43034.74
632.75	42807.63
633.104	42710.91
633.459	42866.16
633.813	42587.75
634.167	42789.33
634.521	42807.18
634.875	42840.62
635.229	42867.29
635.583	42587.52
635.937	42720.85
636.291	42705.26
636.645	42672.49
636.999	42737.12
637.352	42894.41
637.706	42543.68
638.06	42675.43
638.413	42741.42
638.767	42600.63
639.121	42662.32
639.474	42556.11
639.828	42529.67
640.181	42669.78
640.534	42642.66
640.888	42434.08
641.241	42355.44
641.594	42574.87
641.947	42573.97
642.301	42409.45
642.654	42484.48
643.007	42531.48
643.36	42574.19
643.713	42386.63
644.066	42538.26
644.419	42282.22
644.771	42151.6
645.124	41751.84
645.477	41816.7
645.83	41518.17
646.182	41358.63
646.535	41252.19
646.888	41329.48
647.24	41131.52
647.593	41188.92
647.945	41330.16
648.298	41169.71
648.65	41138.07
649.002	40922.48
649.355	41311.85
649.707	41270.5
650.059	41281.34
650.411	41854.21
650.763	41684.27
651.115	42153.64
651.467	41990.93
651.819	42032.74
652.171	41912.51
652.523	41832.97
652.875	41907.99
653.227	41729.92
653.578	41960.65
653.93	41955.45
654.282	41831.16
654.633	41612.18
654.985	41846.3
655.337	41837.94
655.688	41867.54
656.039	41901.44
656.391	41689.47
656.742	41830.26
657.094	41763.59
657.445	41978.05
657.796	41774.66
658.147	41777.83
658.498	41745.51
658.849	41798.17
659.2	41703.03
659.551	41498.97
659.902	41611.28
660.253	41513.2
660.604	41666.19
660.955	41500.32
661.306	41626.65
661.656	41609.24
662.007	41447.89
662.358	41467.33
662.708	41525.86
663.059	41554.11
663.409	41314.56
663.76	41518.4
664.11	41626.19
664.461	41722.01
664.811	41531.05
665.161	41498.29
665.511	41432.53
665.862	41463.94
666.212	41564.73
666.562	41612.41
666.912	41347.33
667.262	41322.47
667.612	41409.25
667.962	41415.8
668.312	41386.88
668.662	41537.61
669.011	41451.96
669.361	41362.02
669.711	41311.4
670.06	41436.82
670.41	41224.85
670.76	41167.22
671.109	41421.23
671.459	41313.89
671.808	41343.72
672.157	41376.26
672.507	41034.34
672.856	41137.84
673.205	41208.13
673.554	41145.75
673.904	41109.82
674.253	41438.4
674.602	41163.15
674.951	40782.6
675.3	40421.25
675.649	41199.99
675.998	41017.4
676.346	40999.09
676.695	41185.3
677.044	40894.24
677.393	41084.29
677.741	41157.05
678.09	41071.63
678.438	40870.73
678.787	40917.51
679.135	40924.52
679.484	40568.59
679.832	40732.21
680.181	40632.32
680.529	40654.02
680.877	40716.16
681.225	40490.4
681.573	40676.39
681.922	40403.17
682.27	40310.97
682.618	40375.83
682.966	40235.04
683.314	40310.97
683.661	40250.41
684.009	40216.51
684.357	40127.48
684.705	40146.91
685.053	40009.06
685.4	40022.62
685.748	39741.5
686.095	39725.23
686.443	39543.31
686.79	39681.84
687.138	39663.76
687.485	39796.86
687.832	39515.06
688.18	39571.78
688.527	39286.37
688.874	39264.45
689.221	39316.2
689.568	39158.01
689.915	39236.88
690.262	39212.47
690.609	38897
690.956	38815.19
691.303	38815.42
691.65	38685.48
691.997	38552.15
692.344	38338.82
692.69	38368.2
693.037	38453.17
693.383	38101.54
693.73	38112.39
694.077	37972.5
694.423	37994.88
694.769	37866.07
695.116	37879.17
695.462	37726.41
695.808	37647.54
696.155	37689.57
696.501	37432.41
696.847	37484.38
697.193	37072.42
697.539	37345.4
697.885	37073.54
698.231	37001.68
698.577	37057.95
698.923	36887.34
699.269	36710.84
699.614	36629.04
699.96	36527.57
700.306	36609.6
700.651	36387.24
700.997	36362.38
701.342	36172.1
701.688	36142.95
702.033	35991.31
702.379	36009.39
702.724	35935.95
703.069	36022.95
703.415	35597.88
703.76	35536.41
704.105	35608.72
704.45	35586.35
704.795	35371.44
705.14	35243.54
705.485	35161.5
705.83	35115.18
706.175	35200.37
706.52	35096.42
706.865	34904.11
707.209	34876.31
707.554	34702.31
707.899	34814.85
708.243	34637.22
708.588	34524.91
708.932	34308.65
709.277	34464.8
709.621	34460.96
709.966	34179.84
710.31	34185.71
710.654	33980.97
710.998	34077.47
711.342	33934.87
711.687	33931.93
712.031	33800.86
712.375	33538.04
712.719	33710.7
713.063	33609
713.407	33685.84
713.75	33471.83
714.094	33470.7
714.438	33461.21
714.782	33422.79
715.125	33314.77
715.469	33263.02
715.812	33130.82
716.156	32989.58
716.499	32982.58
716.843	33017.15
717.186	32868.46
717.53	32991.17
717.873	32903.26
718.216	32707.33
718.559	32639.31
718.902	32448.36
719.246	32552.08
719.589	32446.1
719.932	32449.71
720.275	32277.29
720.617	32272.77
720.96	32222.37
721.303	32261.92
721.646	32152.32
721.989	32001.81
722.331	31967.69
722.674	32096.27
723.016	32036.84
723.359	31842.27
723.701	31992.55
724.044	31731.31
724.386	31703.29
724.729	31661.94
725.071	31599.56
725.413	31694.93
725.755	31557.76
726.097	31531.09
726.439	31376.52
726.782	31319.12
727.124	31463.75
727.465	31321.61
727.807	31388.95
728.149	31259.46
728.491	31215.85
728.833	31058.11
729.175	31090.43
729.516	30975.85
729.858	30934.72
730.199	30992.12
730.541	30838.23
730.882	30833.26
731.224	30881.17
731.565	30696.99
731.906	30763.65
732.248	30746.48
732.589	30620.38
732.93	30449.09
733.271	30475.75
733.612	30541.74
733.953	30554.85
734.294	30446.6
734.635	30398.69
734.976	30326.15
735.317	30388.07
735.658	30339.48
735.999	30311.46
736.339	30134.29
736.68	30271.24
737.021	30146.04
737.361	29827.41
737.702	29987.63
738.042	30054.52
738.383	29933.39
738.723	29999.38
739.063	29774.3
739.404	29874.41
739.744	29765.04
740.084	29768.43
740.424	29704.47
740.764	29573.4
741.104	29683.68
741.444	29568.43
741.784	29537.47
742.124	29570.92
742.464	29629.9
742.804	29441.66
743.143	29411.15
743.483	29412.28
743.823	29252.73
744.162	29211.38
744.502	29228.55
744.841	29102.91
745.181	29235.11
745.52	29037.15
745.86	29274.88
746.199	29071.27
746.538	29036.92
746.877	29095
747.216	28974.77
747.556	28883.25
747.895	28884.61
748.234	28808.23
748.573	28861.78
748.911	28713.76
749.25	28802.12
749.589	28629.02
749.928	28650.94
750.267	28600.32
750.605	28548.57
750.944	28478.97
751.283	28334.57
751.621	28330.95
751.96	28338.86
752.298	28237.62
752.636	28265.64
752.975	28194.68
753.313	28074.46
753.651	28127.34
753.989	27961.92
754.327	27952.2
754.666	27871.08
755.004	27823.84
755.342	27827.23
755.679	27812.77
756.017	27720.57
756.355	27886.22
756.693	27705.2
757.031	27531.42
757.368	27535.94
757.706	27444.87
758.044	27436.06
758.381	27493.68
758.719	27322.61
759.056	27297.53
759.394	27215.05
759.731	27031.78
760.068	27004.21
760.405	26919.91
760.743	26844.44
761.08	26961.04
761.417	26775.28
761.754	26752.91
762.091	26764.44
762.428	26542.75
762.765	26380.94
763.102	26453.49
763.438	26304.11
763.775	26115.64
764.112	26206.71
764.449	26277.9
764.785	26069.31
765.122	25870
765.458	25846.95
765.795	25740.96
766.131	25690.34
766.467	25642.43
766.804	25446.28
767.14	25379.84
767.476	25421.65
767.812	25245.38
768.148	25303.91
768.485	25198.6
768.821	24924.49
769.157	25022.79
769.492	24872.96
769.828	24935.56
770.164	24819.63
770.5	24608.56
770.836	24606.75
771.171	24507.32
771.507	24507.77
771.842	24323.82
772.178	24249.48
772.513	24141.23
772.849	24147.33
773.184	23999.09
773.519	24026.66
773.855	23908.24
774.19	23799.54
774.525	23697.4
774.86	23710.28
775.195	23639.77
775.53	23604.75
775.865	23368.59
776.2	23316.39
776.535	23219.22
776.87	23010.19
777.205	23050.86
777.539	22927.93
777.874	22980.58
778.209	22761.6
778.543	22730.65
778.878	22647.94
779.212	22568.39
779.547	22411.33
779.881	22552.12
780.215	22315.06
780.55	22309.87
780.884	22170.89
781.218	22096.09
781.552	22058.35
781.886	21933.6
782.22	21868.75
782.554	21783.1
782.888	21651.8
783.222	21495.42
783.556	21407.06
783.889	21329.55
784.223	21224.24
784.557	21207.3
784.89	21285.94
785.224	21127.75
785.557	20985.61
785.891	20966.4
786.224	20785.84
786.558	20767.53
786.891	20655.45
787.224	20545.39
787.557	20563.7
787.891	20431.72
788.224	20495.45
788.557	20512.62
788.89	20306.08
789.223	20423.36
789.556	20119.64
789.888	20102.92
790.221	20064.73
790.554	19859.76
790.887	19981.34
791.219	19807.78
791.552	19769.37
791.884	19676.26
792.217	19624.96
792.549	19594.23
792.882	19450.96
793.214	19336.84
793.546	19429.26
793.879	19161.7
794.211	19108.14
794.543	19262.71
794.875	19042.15
795.207	19072.89
795.539	19030.63
795.871	18988.82
796.203	18819.34
796.535	18775.27
796.867	18787.92
797.198	18716.06
797.53	18652.33
797.862	18594.26
798.193	18681.03
798.525	18436.75
798.856	18489.85
799.188	18262.06
799.519	18185.91
799.85	18050.32
800.182	18218.45
800.513	18146.59
800.844	17961.51
801.175	18039.7
801.506	17936.65
801.837	17954.95
802.168	17950.88
802.499	17765.35
802.83	17743.88
803.161	17660.04
803.491	17636.09
803.822	17642.42
804.153	17540.05
804.483	17416.66
804.814	17364.01
805.145	17354.29
805.475	17415.76
805.805	17251.47
806.136	17279.94
806.466	17164.69
806.796	17210.34
807.126	17028.42
807.457	17060.96
807.787	17036.33
808.117	16777.13
808.447	16861.65
808.777	16892.83
809.107	16863.45
809.436	16694.42
809.766	16719.96
810.096	16591.6
810.426	16543.92
810.755	16580.75
811.085	16499.62
811.414	16511.83
811.744	16398.83
812.073	16242.23
812.403	16437.48
812.732	16251.27
813.061	16289.68
813.39	16133.98
813.719	16077.03
814.049	16285.17
814.378	16101.89
814.707	16069.8
815.036	16019.86
815.365	15933.54
815.693	15756.82
816.022	15830.26
816.351	15814.67
816.68	15713.88
817.008	15786.42
817.337	15530.16
817.665	15596.82
817.994	15595.47
818.322	15628.23
818.651	15514.11
818.979	15433.44
819.307	15484.06
819.636	15451.51
819.964	15272.54
820.292	15459.88
820.62	15281.12
820.948	15249.49
821.276	15343.27
821.604	15295.36
821.932	15303.5
822.259	15365.42
822.587	15253.1
822.915	15260.33
823.243	15250.39
823.57	15176.49
823.898	15270.5
824.225	15225.76
824.553	15227.34
824.88	15190.05
825.207	15181.24
825.535	15227.11
825.862	15236.15
826.189	15124.29
826.516	15210.84
826.843	15205.65
827.17	15292.2
827.497	15187.11
827.824	15208.58
828.151	15159.32
828.478	15237.06
828.805	15209.26
829.131	15232.76
829.458	15252.88
829.785	15129.26
830.111	15160
830.438	15137.4
830.764	15172.2
831.09	15181.69
831.417	15086.33
831.743	15157.74
832.069	15087.91
832.395	15106.21
832.722	15219.66
833.048	15092.88
833.374	15097.85
833.7	15018.76
834.026	14989.61
834.351	15039.77
834.677	15088.59
835.003	14911.42
835.329	14967.69
835.654	14971.08
835.98	14880.23
836.306	14967.91
836.631	14921.59
836.956	14931.53
837.282	14884.07
837.607	14817.41
837.932	14830.29
838.258	14875.48
838.583	14771.08
838.908	14663.06
839.233	14712.1
839.558	14669.84
839.883	14659.45
840.208	14597.98
840.533	14603.63
840.858	14664.64
841.182	14550.75
841.507	14483.86
841.832	14444.54
842.156	14458.32
842.481	14489.73
842.805	14413.58
843.13	14322.73
843.454	14397.08
843.778	14240.7
844.103	14267.82
844.427	14277.76
844.751	14177.42
845.075	14141.94
845.399	14031.66
845.723	14063.98
846.047	14045.22
846.371	13988.05
846.695	13962.51
847.019	13808.85
847.343	13745.8
847.666	13692.92
847.99	13674.84
848.313	13615.63
848.637	13558.46
848.96	13501.06
849.284	13537.89
849.607	13347.39
849.931	13342.19
850.254	13273.27
850.577	13208.64
850.9	13217
851.223	13192.14
851.546	13128.19
851.869	12996.66
852.192	13071.92
852.515	12933.16
852.838	12861.53
853.161	12878.25
853.483	12808.42
853.806	12737.91
854.129	12714.19
854.451	12636.9
854.774	12609.1
855.096	12525.94
855.419	12519.84
855.741	12568.43
856.063	12431.48
856.385	12462.89
856.708	12454.31
857.03	12343.8
857.352	12339.28
857.674	12344.93
857.996	12209.79
858.318	12089.8
858.64	12125.27
858.961	12177.02
859.283	12051.15
859.605	12106.52
859.926	12067.87
860.248	12013.41
860.57	11894.77
860.891	11923.02
861.212	11836.47
861.534	11936.58
861.855	11814.32
862.176	11881.89
862.498	11846.41
862.819	11854.1
863.14	11731.61
863.461	11663.37
863.782	11673.08
864.103	11718.96
864.424	11724.16
864.745	11687.32
865.065	11626.98
865.386	11557.15
865.707	11587.44
866.027	11515.8
866.348	11567.77
866.668	11551.96
866.989	11466.99
867.309	11371.17
867.63	11430.83
867.95	11438.06
868.27	11321
868.59	11398.29
868.91	11322.81
869.23	11350.83
869.55	11206.2
869.87	11363.71
870.19	11199.88
870.51	11348.35
870.83	11297.05
871.15	11234.45
871.469	11224.28
871.789	11187.67
872.109	11234.68
872.428	11124.4
872.748	11154.9
873.067	11140.44
873.386	11092.76
873.706	11128.01
874.025	11028.81
874.344	11029.26
874.663	11010.73
874.982	10999.88
875.301	11019.31
875.62	10967.34
875.939	10916.27
876.258	10970.95
876.577	10957.4
876.896	10907.91
877.214	10879.21
877.533	10892.54
877.852	10816.16
878.17	10815.25
878.489	10841.92
878.807	10824.97
879.125	10836.49
879.444	10778.42
879.762	10718.53
880.08	10766.89
880.398	10649.61
880.716	10657.52
881.034	10681.7
881.352	10670.17
881.67	10573
881.988	10604.86
882.306	10532.55
882.624	10552.43
882.941	10445.32
883.259	10404.19
883.577	10415.49
883.894	10407.13
884.212	10462.95
884.529	10419.33
884.846	10353.57
885.164	10332.1
885.481	10291.2
885.798	10338.43
886.115	10199.45
886.432	10271.99
886.75	10213.23
887.067	10235.15
887.383	10203.07
887.7	10234.7
888.017	10130.52
888.334	10192.9
888.651	10029.51
888.967	10084.65
889.284	10006.69
889.6	10022.96
889.917	9939.12
890.233	9933.69
890.55	9856.41
890.866	9906.35
891.182	9840.59
891.498	9824.09
891.815	9825
892.131	9746.35
892.447	9746.81
892.763	9694.83
893.079	9648.28
893.395	9721.5
893.71	9712.23
894.026	9638.11
894.342	9591.78
894.657	9550.65
894.973	9522.18
895.289	9512.69
895.604	9499.81
895.92	9422.29
896.235	9385.01
896.55	9429.53
896.865	9327.16
897.181	9344.56
897.496	9282.19
897.811	9198.57
898.126	9206.48
898.441	9160.15
898.756	9159.48
899.071	9166.03
899.386	9148.63
899.7	9093.04
900.015	9022.53
900.33	8935.3
900.644	8923.78
900.959	8962.65
901.273	8893.27
901.588	8839.71
901.902	8738.47
902.216	8745.48
902.531	8804.46
902.845	8679.04
903.159	8661.18
903.473	8606.5
903.787	8599.27
904.101	8573.5
904.415	8602.2
904.729	8517.01
905.042	8487.18
905.356	8510
905.67	8391.36
905.984	8378.71
906.297	8367.41
906.611	8327.86
906.924	8323.57
907.237	8241.08
907.551	8282.44
907.864	8243.57
908.177	8211.7
908.491	8134.87
908.804	8123.57
909.117	8076.57
909.43	8021.43
909.743	8014.87
910.056	7995.44
910.368	8011.48
910.681	7943.01
910.994	7927.42
911.307	7882.9
911.619	7856.91
911.932	7790.47
912.244	7776.01
912.557	7713.64
912.869	7687.42
913.181	7680.87
913.494	7682.68
913.806	7649.91
914.118	7542.12
914.43	7521.78
914.742	7494.44
915.054	7489.46
915.366	7418.28
915.678	7433.65
915.99	7351.61
916.302	7300.09
916.613	7345.97
916.925	7311.16
917.236	7317.72
917.548	7235.01
917.859	7269.13
918.171	7211.28
918.482	7146.65
918.794	7098.06
919.105	7108.23
919.416	7034.33
919.727	7043.83
920.038	6979.87
920.349	6946.88
920.66	6995.92
920.971	6940.33
921.282	6891.97
921.593	6894.68
921.903	6855.13
922.214	6783.49
922.525	6767.45
922.835	6746.88
923.146	6679.32
923.456	6715.25
923.767	6640.45
924.077	6621.69
924.387	6568.58
924.697	6524.52
925.008	6496.27
925.318	6522.94
925.628	6419.89
925.938	6447.23
926.248	6425.31
926.558	6387.12
926.867	6365.88
927.177	6376.05
927.487	6319.78
927.796	6194.81
928.106	6224.64
928.416	6219.89
928.725	6222.83
929.034	6193.68
929.344	6195.26
929.653	6150.06
929.962	6074.59
930.271	6021.25
930.581	6059.67
930.89	5967.02
931.199	5995.49
931.508	6021.71
931.817	5906.91
932.125	5936.51
932.434	5995.49
932.743	5839.56
933.051	5814.03
933.36	5812.9
933.669	5769.74
933.977	5781.03
934.286	5707.36
934.594	5754.14
934.902	5677.53
935.21	5659
935.519	5611.1
935.827	5640.25
936.135	5588.72
936.443	5508.05
936.751	5534.04
937.059	5504.43
937.367	5488.16
937.674	5484.09
937.982	5481.38
938.29	5412.68
938.597	5421.27
938.905	5367.26
939.213	5386.47
939.52	5328.62
939.827	5324.1
940.135	5294.72
940.442	5268.73
940.749	5277.54
941.056	5260.6
941.363	5155.29
941.67	5218.79
941.977	5138.79
942.284	5056.31
942.591	5140.83
942.898	5078.91
943.205	5121.62
943.511	5035.74
943.818	5037.33
944.125	5009.98
944.431	4993.48
944.738	4939.93
945.044	4908.29
945.35	4917.33
945.657	4897.67
945.963	4847.73
946.269	4826.94
946.575	4838.01
946.881	4846.37
947.187	4804.56
947.493	4811.12
947.799	4762.98
948.105	4724.34
948.41	4666.49
948.716	4701.97
949.022	4682.76
949.327	4697.45
949.633	4637.34
949.938	4639.6
950.244	4619.26
950.549	4558.02
950.854	4561.18
951.16	4552.37
951.465	4519.37
951.77	4458.58
952.075	4474.18
952.38	4440.28
952.685	4469.88
952.99	4407.06
953.294	4390.34
953.599	4391.69
953.904	4369.32
954.209	4342.65
954.513	4305.14
954.818	4309.21
955.122	4277.8
955.426	4277.8
955.731	4253.84
956.035	4226.05
956.339	4216.33
956.643	4160.06
956.948	4154.86
957.252	4157.8
957.556	4120.74
957.86	4117.8
958.163	4090.91
958.467	4068.99
958.771	4061.76
959.075	4052.72
959.378	4036.45
959.682	4032.61
959.985	3986.05
960.289	3972.72
960.592	3972.04
960.896	3947.64
961.199	3918.26
961.502	3946.51
961.805	3906.06
962.108	3876.23
962.411	3857.24
962.714	3849.11
963.017	3824.48
963.32	3789
963.623	3783.12
963.926	3761.88
964.228	3789.22
964.531	3732.27
964.833	3762.1
965.136	3696.34
965.438	3663.12
965.741	3685.5
966.043	3626.97
966.345	3636.23
966.648	3623.13
966.95	3589.45
967.252	3634.2
967.554	3568.21
967.856	3555.78
968.158	3524.14
968.46	3572.73
968.761	3489.12
969.063	3492.06
969.365	3478.27
969.666	3485.28
969.968	3444.37
970.269	3444.37
970.571	3403.47
970.872	3412.96
971.174	3373.64
971.475	3384.49
971.776	3354.21
972.077	3351.27
972.378	3335.68
972.679	3285.51
972.98	3288.67
973.281	3292.06
973.582	3306.07
973.883	3285.51
974.183	3257.03
974.484	3277.37
974.785	3236.24
975.085	3172.29
975.386	3201.44
975.686	3221.55
975.986	3165.96
976.287	3169.35
976.587	3097.94
976.887	3134.78
977.187	3133.87
977.487	3112.86
977.787	3075.34
978.087	3041.67
978.387	3067.43
978.687	3041.9
978.987	3008.68
979.286	3005.06
979.586	2991.73
979.885	3004.38
980.185	2994.44
980.484	2991.96
980.784	2963.71
981.083	2937.04
981.382	2915.12
981.682	2908.57
981.981	2903.37
982.28	2889.13
982.579	2855.01
982.878	2836.93
983.177	2832.64
983.475	2853.65
983.774	2801
984.073	2817.5
984.372	2767.1
984.67	2762.81
984.969	2792.86
985.267	2760.1
985.566	2767.78
985.864	2793.09
986.162	2725.75
986.461	2714.22
986.759	2685.3
987.057	2678.52
987.355	2667.44
987.653	2674.22
987.951	2612.3
988.249	2609.59
988.547	2631.96
988.844	2586.77
989.142	2618.86
989.44	2568.01
989.737	2569.82
990.035	2523.72
990.332	2589.48
990.63	2561.46
990.927	2540.67
991.224	2510.39
991.521	2490.05
991.819	2450.27
992.116	2478.07
992.413	2471.52
992.71	2494.79
993.006	2464.74
993.303	2418.19
993.6	2436.26
993.897	2404.63
994.193	2411.86
994.49	2405.53
994.787	2360.11
995.083	2363.5
995.379	2354.01
995.676	2322.37
995.972	2334.12
996.268	2328.7
996.565	2282.14
996.861	2288.47
997.157	2315.59
997.453	2302.48
997.749	2257.51
998.044	2242.14
998.34	2227.23
998.636	2222.94
998.932	2206.44
999.227	2209.38
999.523	2219.32
999.818	2195.59
1000.114	2151.98
1000.409	2123.28
1000.704	2135.93
1001	2155.82
1001.295	2133.9
1001.59	2172.54
1001.885	2110.17
1002.18	2085.09
1002.475	2070.85
1002.77	2089.83
1003.065	2083.5
1003.359	2069.04
1003.654	2035.6
1003.949	2022.94
1004.243	2010.06
1004.538	2013.22
1004.832	1979.33
1005.127	1988.37
1005.421	1986.78
1005.715	1968.93
1006.009	1959.21
1006.304	1934.81
1006.598	1931.19
1006.892	1954.92
1007.186	1920.34
1007.48	1885.77
1007.773	1882.61
1008.067	1897.75
1008.361	1890.52
1008.655	1868.37
1008.948	1834.92
1009.242	1853
1009.535	1827.92
1009.829	1818.2
1010.122	1813.68
1010.415	1806
1010.708	1798.09
1011.001	1770.07
1011.295	1767.81
1011.588	1756.28
1011.881	1723.51
1012.173	1733.68
1012.466	1720.35
1012.759	1705.21
1013.052	1713.57
1013.344	1676.06
1013.637	1666.34
1013.93	1670.63
1014.222	1675.38
1014.514	1633.35
1014.807	1627.25
1015.099	1609.17
1015.391	1648.26
1015.683	1622.05
1015.976	1601.03
1016.268	1615.72
1016.56	1605.33
1016.851	1609.62
1017.143	1544.54
1017.435	1564.42
1017.727	1570.75
1018.018	1563.52
1018.31	1512.22
1018.602	1516.51
1018.893	1512.45
1019.185	1497.08
1019.476	1483.52
1019.767	1494.59
1020.058	1481.94
1020.35	1459.79
1020.641	1438.78
1020.932	1437.65
1021.223	1444.88
1021.514	1417.99
1021.804	1391.55
1022.095	1403.52
1022.386	1431.77
1022.677	1400.58
1022.967	1379.34
1023.258	1378.44
1023.548	1380.92
1023.839	1358.33
1024.129	1374.37
1024.419	1352.22
1024.709	1333.02
1025	1306.12
1025.29	1316.07
1025.58	1289.63
1025.87	1287.59
1026.16	1281.94
1026.449	1273.81
1026.739	1269.29
1027.029	1250.76
1027.319	1236.07
1027.608	1248.27
1027.898	1252.79
1028.187	1234.71
1028.477	1225.45
1028.766	1194.71
1029.055	1201.27
1029.344	1233.13
1029.634	1211.66
1029.923	1182.06
1030.212	1186.13
1030.501	1194.49
1030.79	1163.98
1031.078	1173.7
1031.367	1143.87
1031.656	1160.59
1031.945	1111.78
1032.233	1126.24
1032.522	1122.85
1032.81	1091.44
1033.099	1095.73
1033.387	1072.46
1033.675	1090.76
1033.963	1062.29
1034.251	1074.94
1034.54	1046.7
1034.828	1071.78
1035.116	1043.31
1035.403	1047.15
1035.691	1067.49
1035.979	1025.68
1036.267	1030.65
1036.554	1033.14
1036.842	1004.66
1037.129	983.87
1037.417	1008.96
1037.704	987.04
1037.992	1000.82
1038.279	959.47
1038.566	955.85
1038.853	955.85
1039.14	955.85
