Data from hue_130_FLMS001491_00039.txt Node
Date: Tue Feb 07 16:57:32 GMT 2017
User: dcchb
Spectrometer: FLMS00149
Trigger mode: 0
Integration Time (sec): 2.000000E-2
Scans to average: 10
Electric dark correction enabled: true
Nonlinearity correction enabled: false
Boxcar width: 0
XAxis mode: Wavelengths
Number of Pixels in Spectrum: 2048
>>>>>Begin Spectral Data<<<<<
341.393	-12.61
341.776	-12.61
342.16	-12.61
342.543	-46.74
342.927	-54.19
343.31	-64.14
343.693	-68.66
344.077	-57.13
344.46	-52.61
344.843	-70.46
345.226	-48.09
345.61	-48.77
345.993	-4.03
346.376	-3.35
346.759	23.77
347.142	35.3
347.525	38.23
347.908	58.12
348.291	72.81
348.674	89.53
349.057	99.47
349.44	151
349.823	148.51
350.206	135.41
350.588	211.56
350.971	209.53
351.354	195.74
351.737	221.96
352.119	246.59
352.502	284.55
352.884	262.86
353.267	271.22
353.65	305.57
354.032	294.05
354.414	289.3
354.797	303.76
355.179	319.36
355.562	311.45
355.944	324.55
356.326	339.02
356.709	336.3
357.091	340.6
357.473	329.3
357.855	339.92
358.238	320.71
358.62	337.43
359.002	328.17
359.384	355.74
359.766	324.33
360.148	325.01
360.53	329.07
360.912	325.68
361.294	343.31
361.676	328.85
362.057	322.97
362.439	321.84
362.821	329.53
363.203	339.02
363.584	327.27
363.966	322.29
364.348	311.45
364.729	317.55
365.111	346.7
365.493	299.92
365.874	315.74
366.256	308.73
366.637	314.61
367.019	302.41
367.4	324.1
367.781	314.38
368.163	292.46
368.544	309.19
368.925	292.01
369.306	322.75
369.688	307.15
370.069	296.31
370.45	291.56
370.831	303.09
371.212	322.97
371.593	299.47
371.974	315.51
372.355	316.87
372.736	328.62
373.117	322.07
373.498	328.17
373.879	318.9
374.26	301.05
374.641	307.83
375.021	294.05
375.402	323.88
375.783	319.58
376.163	320.71
376.544	331.79
376.925	336.76
377.305	326.14
377.686	337.66
378.066	320.71
378.447	308.96
378.827	321.84
379.208	296.98
379.588	344.44
379.968	338.34
380.349	334.27
380.729	340.15
381.109	329.3
381.489	335.17
381.87	323.65
382.25	319.36
382.63	322.07
383.01	337.21
383.39	333.59
383.77	353.25
384.15	334.95
384.53	356.64
384.91	355.97
385.29	357.1
385.67	350.77
386.049	363.42
386.429	339.69
386.809	342.63
387.189	359.35
387.568	341.05
387.948	363.65
388.328	357.77
388.707	359.13
389.087	363.2
389.466	374.72
389.846	367.04
390.225	351.9
390.605	362.52
390.984	361.61
391.363	356.64
391.743	356.87
392.122	354.38
392.501	372.91
392.881	408.62
393.26	383.31
393.639	378.34
394.018	376.53
394.397	386.25
394.776	381.73
395.155	381.5
395.534	378.34
395.913	366.59
396.292	383.99
396.671	377.66
397.05	398.68
397.429	386.47
397.808	393.93
398.186	374.95
398.565	389.64
398.944	400.48
399.323	395.06
399.701	411.11
400.08	379.02
400.458	386.02
400.837	407.72
401.215	398.45
401.594	414.95
401.972	390.54
402.351	397.77
402.729	407.94
403.107	414.27
403.486	384.67
403.864	412.91
404.242	412.01
404.62	427.83
404.999	424.21
405.377	412.23
405.755	429.64
406.133	411.78
406.511	407.04
406.889	427.6
407.267	435.51
407.645	430.09
408.023	443.65
408.401	430.09
408.779	465.57
409.156	437.32
409.534	456.53
409.912	446.13
410.29	467.37
410.667	475.74
411.045	460.82
411.422	477.54
411.8	445.68
412.178	453.36
412.555	460.14
412.933	477.09
413.31	466.92
413.687	458.56
414.065	500.37
414.442	493.81
414.819	475.74
415.197	497.88
415.574	500.14
415.951	525.68
416.328	487.49
416.705	489.52
417.082	491.55
417.46	493.14
417.837	512.8
418.214	510.76
418.591	526.81
418.967	540.37
419.344	536.3
419.721	536.75
420.098	524.55
420.475	522.74
420.852	542.18
421.228	546.69
421.605	521.61
421.982	550.31
422.358	571.55
422.735	538.56
423.111	559.12
423.488	557.99
423.864	554.15
424.241	595.51
424.617	561.84
424.994	562.97
425.37	571.1
425.746	587.37
426.123	606.81
426.499	597.31
426.875	585.56
427.251	620.59
427.627	614.04
428.003	625.11
428.379	617.88
428.756	622.85
429.132	612.91
429.507	612.46
429.883	628.95
430.259	642.29
430.635	632.34
431.011	632.57
431.387	634.83
431.763	666.24
432.138	652
432.514	670.99
432.89	671.44
433.265	674.15
433.641	692.45
434.016	712.57
434.392	714.15
434.767	719.12
435.143	708.27
435.518	727.93
435.894	710.53
436.269	724.77
436.644	738.55
437.02	737.88
437.395	766.12
437.77	759.8
438.145	782.17
438.52	774.71
438.895	787.37
439.271	770.64
439.646	813.35
440.021	795.05
440.395	782.39
440.77	804.09
441.145	814.71
441.52	802.73
441.895	812.45
442.27	821.72
442.645	829.63
443.019	814.03
443.394	819.68
443.769	850.87
444.143	848.38
444.518	843.18
444.892	872.56
445.267	861.26
445.641	848.61
446.016	874.6
446.39	894.93
446.764	885.89
447.139	875.05
447.513	872.56
447.887	915.05
448.262	888.15
448.636	906.23
449.01	939
449.384	909.62
449.758	939.23
450.132	955.27
450.506	947.59
450.88	942.16
451.254	945.78
451.628	958.44
452.002	978.1
452.376	962.28
452.75	958.21
453.123	1024.65
453.497	994.14
453.871	1035.5
454.244	1038.89
454.618	1048.83
454.992	1053.8
455.365	1074.82
455.739	1067.81
456.112	1096.28
456.486	1060.81
456.859	1119.33
457.232	1100.58
457.606	1137.87
457.979	1130.41
458.352	1175.6
458.725	1163.4
459.099	1155.94
459.472	1209.5
459.845	1212.21
460.218	1240.91
460.591	1221.48
460.964	1243.17
461.337	1256.96
461.71	1276.17
462.083	1312.1
462.456	1329.05
462.829	1316.17
463.201	1379.22
463.574	1338.54
463.947	1374.02
464.32	1394.81
464.692	1442.72
465.065	1428.25
465.438	1461.47
465.81	1492.66
466.183	1508.03
466.555	1546.67
466.928	1548.7
467.3	1558.65
467.672	1553
468.045	1610.85
468.417	1632.99
468.789	1638.64
469.161	1649.94
469.534	1731.3
469.906	1729.71
470.278	1765.65
470.65	1809.94
471.022	1822.14
471.394	1889.03
471.766	1889.71
472.138	1939.43
472.51	1981.23
472.882	2029.59
473.253	2040.21
473.625	2107.78
473.997	2143.94
474.369	2181
474.74	2222.13
475.112	2267.55
475.484	2323.6
475.855	2369.25
476.227	2415.57
476.598	2515.46
476.97	2593.19
477.341	2637.49
477.713	2676.36
478.084	2726.07
478.455	2822.12
478.827	2869.57
479.198	2966.97
479.569	3023.69
479.94	3156.8
480.311	3212.39
480.682	3302.1
481.053	3427.97
481.424	3472.04
481.795	3580.51
482.166	3654.64
482.537	3744.8
482.908	3884.23
483.279	3960.39
483.65	4064.79
484.021	4191.8
484.391	4266.37
484.762	4381.62
485.133	4461.62
485.503	4591.11
485.874	4708.17
486.244	4812.57
486.615	4964.21
486.985	5045.11
487.356	5236.06
487.726	5307.02
488.097	5510.63
488.467	5566
488.837	5692.55
489.207	5875.59
489.578	5993.78
489.948	6158.52
490.318	6280.78
490.688	6368.01
491.058	6537.72
491.428	6662.69
491.798	6835.57
492.168	7027.88
492.538	7081.89
492.908	7254.99
493.278	7334.09
493.648	7451.37
494.017	7635.32
494.387	7737.01
494.757	7891.13
495.126	8024.92
495.496	8109.66
495.866	8173.16
496.235	8320.28
496.605	8524.11
496.974	8596.43
497.344	8760.72
497.713	8815.86
498.082	8953.48
498.452	9084.78
498.821	9223.3
499.19	9328.16
499.559	9461.49
499.928	9555.27
500.298	9644.76
500.667	9741.03
501.036	9809.05
501.405	9908.26
501.774	10077.74
502.143	10086.33
502.512	10194.8
502.88	10286.33
503.249	10370.39
503.618	10522.03
503.987	10568.8
504.356	10717.73
504.724	10763.15
505.093	10751.62
505.462	10831.62
505.83	11018.74
506.199	11052.86
506.567	11180.31
506.936	11228
507.304	11420.76
507.672	11415.11
508.041	11483.81
508.409	11513.64
508.777	11607.19
509.145	11679.06
509.514	11760.64
509.882	11864.59
510.25	11859.39
510.618	11942.78
510.986	11942.55
511.354	12152.72
511.722	12116.33
512.09	12278.14
512.458	12222.32
512.826	12317.68
513.193	12455.08
513.561	12451.24
513.929	12469.09
514.297	12606.49
514.664	12670.22
515.032	12583.67
515.4	12788.41
515.767	12703.66
516.135	12788.41
516.502	12846.94
516.869	13005.35
517.237	12973.26
517.604	12901.17
517.972	13064.78
518.339	13042.41
518.706	13002.64
519.073	13122.18
519.44	13119.7
519.808	13331.22
520.175	13222.07
520.542	13363.31
520.909	13353.14
521.276	13350.43
521.643	13470.65
522.009	13469.07
522.376	13478.11
522.743	13646.92
523.11	13688.5
523.477	13728.27
523.843	13741.6
524.21	13849.17
524.577	13872.9
524.943	13890.52
525.31	13943.63
525.676	13873.58
526.043	13980.01
526.409	14035.83
526.776	14024.76
527.142	14083.29
527.508	14108.6
527.874	14164.64
528.241	14239.67
528.607	14188.6
528.973	14181.59
529.339	14260.01
529.705	14242.61
530.071	14327.12
530.437	14277.41
530.803	14317.86
531.169	14332.55
531.535	14231.31
531.901	14265.66
532.267	14354.24
532.632	14340.46
532.998	14318.08
533.364	14318.76
533.73	14294.58
534.095	14356.73
534.461	14270.4
534.826	14289.61
535.192	14323.96
535.557	14301.14
535.923	14287.8
536.288	14349.5
536.653	14265.88
537.019	14223.17
537.384	14201.7
537.749	14178.43
538.114	14135.26
538.479	14060.01
538.845	14243.96
539.21	13986.12
539.575	14091.88
539.94	14074.02
540.305	14138.43
540.67	13969.17
541.034	14049.84
541.399	14050.97
541.764	14016.17
542.129	13937.53
542.494	13895.72
542.858	13957.64
543.223	13858.89
543.587	13848.27
543.952	13823.86
544.316	13796.52
544.681	13673.81
545.045	13761.04
545.41	13815.72
545.774	13727.37
546.138	13695.28
546.503	13670.87
546.867	13555.84
547.231	13691.43
547.595	13548.39
547.959	13597.42
548.324	13521.95
548.688	13472.46
549.052	13481.5
549.416	13382.52
549.779	13399.92
550.143	13321.95
550.507	13392.91
550.871	13342.29
551.235	13272.46
551.599	13343.42
551.962	13384.1
552.326	13294.61
552.689	13320.82
553.053	13149.98
553.417	13165.12
553.78	13274.5
554.143	13231.11
554.507	13170.54
554.87	13100.94
555.234	13243.76
555.597	13112.01
555.96	13050.09
556.323	13121.05
556.686	13109.75
557.05	13079.7
557.413	13085.57
557.776	13067.04
558.139	13076.76
558.502	13093.03
558.865	13043.99
559.228	13077.44
559.59	13026.37
559.953	13060.26
560.316	13194.27
560.679	13098.46
561.041	13107.04
561.404	13122.18
561.767	13217.55
562.129	13009.64
562.492	13149.08
562.854	13110.21
563.217	13072.24
563.579	13096.42
563.941	13179.58
564.304	13211.22
564.666	13100.26
565.028	13261.84
565.39	13195.4
565.753	13136.19
566.115	13285.34
566.477	13298
566.839	13229.53
567.201	13301.61
567.563	13346.81
567.925	13411.22
568.287	13388.84
568.648	13301.16
569.01	13340.03
569.372	13330.54
569.734	13269.52
570.095	13392.46
570.457	13401.95
570.819	13487.82
571.18	13353.59
571.542	13451.21
571.903	13502.74
572.265	13486.92
572.626	13531.66
572.987	13519.69
573.349	13511.1
573.71	13544.32
574.071	13594.71
574.432	13565.34
574.794	13598.1
575.155	13569.86
575.516	13612.34
575.877	13622.28
576.238	13573.92
576.599	13599.23
576.96	13535.73
577.32	13703.18
577.681	13671.55
578.042	13712.68
578.403	13587.93
578.763	13653.02
579.124	13574.37
579.485	13649.4
579.845	13684.65
580.206	13563.98
580.566	13581.61
580.927	13671.32
581.287	13691.66
581.648	13629.97
582.008	13628.61
582.368	13604.66
582.728	13709.96
583.089	13624.09
583.449	13615.05
583.809	13659.12
584.169	13585.67
584.529	13566.24
584.889	13681.26
585.249	13656.18
585.609	13599.68
585.969	13583.19
586.329	13508.84
586.688	13554.49
587.048	13545.9
587.408	13543.19
587.768	13471.78
588.127	13488.05
588.487	13436.07
588.846	13578.22
589.206	13467.03
589.565	13448.28
589.925	13524.43
590.284	13431.33
590.643	13462.29
591.003	13476.3
591.362	13489.41
591.721	13512.68
592.08	13473.13
592.44	13488.95
592.799	13467.71
593.158	13417.99
593.517	13456.86
593.876	13417.54
594.235	13375.96
594.593	13375.06
594.952	13415.51
595.311	13355.62
595.67	13425.68
596.029	13434.72
596.387	13441.5
596.746	13441.27
597.104	13354.49
597.463	13378.22
597.822	13386.81
598.18	13281.5
598.538	13341.16
598.897	13344.55
599.255	13237.43
599.613	13412.35
599.972	13335.28
600.33	13378.22
600.688	13282.63
601.046	13322.63
601.404	13387.26
601.762	13290.99
602.12	13368.28
602.478	13307.26
602.836	13393.36
603.194	13267.94
603.552	13363.31
603.91	13310.65
604.268	13367.83
604.625	13250.54
604.983	13370.31
605.341	13253.48
605.698	13357.21
606.056	13404.66
606.413	13336.19
606.771	13347.26
607.128	13397.88
607.485	13316.08
607.843	13404.21
608.2	13442.17
608.557	13452.8
608.914	13438.33
609.272	13463.64
609.629	13481.5
609.986	13500.25
610.343	13428.39
610.7	13542.06
611.057	13450.54
611.414	13485.79
611.771	13507.48
612.127	13499.8
612.484	13458.9
612.841	13598.33
613.198	13526.47
613.554	13564.88
613.911	13675.61
614.267	13579.35
614.624	13611.89
614.98	13585.22
615.337	13662.73
615.693	13601.94
616.05	13606.01
616.406	13700.7
616.762	13631.1
617.118	13649.18
617.475	13656.41
617.831	13704.09
618.187	13766.46
618.543	13736.63
618.899	13726.24
619.255	13762.84
619.611	13728.27
619.967	13763.3
620.323	13801.94
620.678	13697.76
621.034	13667.93
621.39	13740.02
621.746	13706.8
622.101	13821.6
622.457	13756.52
622.812	13729.4
623.168	13727.82
623.523	13728.49
623.879	13789.51
624.234	13713.13
624.589	13765.78
624.945	13752.68
625.3	13841.03
625.655	13782.96
626.01	13810.07
626.365	13742.73
626.72	13737.99
627.075	13758.32
627.43	13688.5
627.785	13687.82
628.14	13766.69
628.495	13749.06
628.85	13735.73
629.205	13603.3
629.559	13749.74
629.914	13703.64
630.269	13675.84
630.623	13632.68
630.978	13764.88
631.332	13761.49
631.687	13732.56
632.041	13630.19
632.396	13651.43
632.75	13654.15
633.104	13644.88
633.459	13522.4
633.813	13540.93
634.167	13524.88
634.521	13524.43
634.875	13588.16
635.229	13549.06
635.583	13448.28
635.937	13410.54
636.291	13469.97
636.645	13436.07
636.999	13383.42
637.352	13506.35
637.706	13373.7
638.06	13359.92
638.413	13286.92
638.767	13327.83
639.121	13308.84
639.474	13214.16
639.828	13267.04
640.181	13263.65
640.534	13179.58
640.888	13245.57
641.241	13156.98
641.594	13242.86
641.947	13215.74
642.301	13171.45
642.654	13199.92
643.007	13251.9
643.36	13242.86
643.713	13185.68
644.066	13156.76
644.419	13159.02
644.771	13155.85
645.124	13030.43
645.477	12952.47
645.83	12909.99
646.182	12914.73
646.535	12787.28
646.888	12854.85
647.24	12664.12
647.593	12765.58
647.945	12738.24
648.298	12722.19
648.65	12709.54
649.002	12666.38
649.355	12779.82
649.707	12803.77
650.059	12861.17
650.411	12914.96
650.763	12951.11
651.115	13079.92
651.467	13064.33
651.819	13043.54
652.171	12977.1
652.523	12966.48
652.875	12949.08
653.227	12972.36
653.578	12962.41
653.93	12967.39
654.282	12937.33
654.633	12845.81
654.985	12993.83
655.337	12952.47
655.688	12944.33
656.039	13010.1
656.391	12911.34
656.742	12900.04
657.094	12920.61
657.445	13039.02
657.796	12937.56
658.147	12994.95
658.498	12956.09
658.849	13022.52
659.2	12959.93
659.551	12952.24
659.902	13040.38
660.253	13020.04
660.604	13060.49
660.955	12897.56
661.306	13063.65
661.656	12987.5
662.007	13000.6
662.358	13007.61
662.708	12959.93
663.059	13031.34
663.409	12904.11
663.76	12981.4
664.11	13019.36
664.461	13035.63
664.811	12962.41
665.161	13012.36
665.511	13014.84
665.862	13057.1
666.212	13132.13
666.562	13063.2
666.912	13042.64
667.262	12963.54
667.612	13032.24
667.962	13115.63
668.312	13123.99
668.662	13166.25
669.011	12974.84
669.361	12977.1
669.711	12963.77
670.06	12985.01
670.41	13065.46
670.76	12971.45
671.109	13026.59
671.459	13028.17
671.808	13033.15
672.157	13027.04
672.507	12912.25
672.856	12902.08
673.205	12932.13
673.554	13001.51
673.904	12874.73
674.253	13022.52
674.602	12897.78
674.951	12785.24
675.3	12633.16
675.649	12832.02
675.998	12893.71
676.346	12794.51
676.695	12843.77
677.044	12734.17
677.393	12819.59
677.741	12837.44
678.09	12814.85
678.438	12760.84
678.787	12801.06
679.135	12762.42
679.484	12714.06
679.832	12691.69
680.181	12676.55
680.529	12651.01
680.877	12696.21
681.225	12649.43
681.573	12757.45
681.922	12589.99
682.27	12581.63
682.618	12580.05
682.966	12541.41
683.314	12473.16
683.661	12456.66
684.009	12482.43
684.357	12343.67
684.705	12341.86
685.053	12414.41
685.4	12353.16
685.748	12372.82
686.095	12287.18
686.443	12227.74
686.79	12271.81
687.138	12232.26
687.485	12256.44
687.832	12180.51
688.18	12176.67
688.527	12079.27
688.874	12051.7
689.221	12040.18
689.568	12013.74
689.915	11970.8
690.262	11958.82
690.609	11994.53
690.956	11870.92
691.303	11830.24
691.65	11801.99
691.997	11827.75
692.344	11738.04
692.69	11662.79
693.037	11698.27
693.383	11627.08
693.73	11574.2
694.077	11503.69
694.423	11578.72
694.769	11461.21
695.116	11439.52
695.462	11453.75
695.808	11436.13
696.155	11323.13
696.501	11230.48
696.847	11268.45
697.193	11155.91
697.539	11242.23
697.885	11106.64
698.231	11072.07
698.577	11041.56
698.923	11092.41
699.269	11034.78
699.614	10862.81
699.96	10963.82
700.306	10955.23
700.651	10810.83
700.997	10791.85
701.342	10731.96
701.688	10709.14
702.033	10637.95
702.379	10714.79
702.724	10602.7
703.069	10682.93
703.415	10477.28
703.76	10525.19
704.105	10591.4
704.45	10492.42
704.795	10430.5
705.14	10380.79
705.485	10415.14
705.83	10308.25
706.175	10313.9
706.52	10291.52
706.865	10217.85
707.209	10155.03
707.554	10222.37
707.899	10172.88
708.243	10150.74
708.588	10135.14
708.932	9978.54
709.277	10059.44
709.621	10052.43
709.966	9959.1
710.31	10008.59
710.654	9903.28
710.998	9927.69
711.342	9853.12
711.687	9797.98
712.031	9817.86
712.375	9769.95
712.719	9844.3
713.063	9809.5
713.407	9826.45
713.75	9714.14
714.094	9686.79
714.438	9717.75
714.782	9730.18
715.125	9679.79
715.469	9624.87
715.812	9656.51
716.156	9585.78
716.499	9583.52
716.843	9543.29
717.186	9538.32
717.53	9576.29
717.873	9580.13
718.216	9555.05
718.559	9444.99
718.902	9455.61
719.246	9456.97
719.589	9399.57
719.932	9387.37
720.275	9369.06
720.617	9394.82
720.96	9367.48
721.303	9407.25
721.646	9394.37
721.989	9271.44
722.331	9379.46
722.674	9247.03
723.016	9345.11
723.359	9328.61
723.701	9266.69
724.044	9233.47
724.386	9172
724.729	9198.44
725.071	9250.87
725.413	9277.31
725.755	9222.4
726.097	9144.89
726.439	9149.41
726.782	9177.65
727.124	9188.73
727.465	9130.2
727.807	9179.69
728.149	9184.21
728.491	9060.14
728.833	9195.51
729.175	9126.13
729.516	9132.68
729.858	9101.5
730.199	9099.92
730.541	9040.26
730.882	9102.4
731.224	9128.62
731.565	9078.22
731.906	9120.03
732.248	9088.62
732.589	9073.02
732.93	9073.25
733.271	9124.32
733.612	9096.07
733.953	9060.6
734.294	9075.51
734.635	9085
734.976	9094.27
735.317	9074.38
735.658	9052.46
735.999	9083.65
736.339	9084.55
736.68	9075.74
737.021	9039.58
737.361	9054.27
737.702	9101.27
738.042	9069.86
738.383	9047.94
738.723	9079.35
739.063	9039.8
739.404	9160.93
739.744	9095.62
740.084	9032.35
740.424	9127.26
740.764	9200.7
741.104	9206.58
741.444	9128.39
741.784	9135.62
742.124	9158.9
742.464	9134.04
742.804	9148.5
743.143	9220.59
743.483	9243.87
743.823	9178.33
744.162	9276.86
744.502	9301.27
744.841	9345.33
745.181	9390.3
745.52	9387.82
745.86	9485.44
746.199	9505.56
746.538	9494.71
746.877	9583.07
747.216	9635.95
747.556	9630.75
747.895	9646.12
748.234	9720.69
748.573	9695.38
748.911	9750.97
749.25	9916.62
749.589	9938.99
749.928	9998.65
750.267	10037.97
750.605	10192.99
750.944	10177.4
751.283	10264.63
751.621	10347.57
751.96	10355.93
752.298	10412.2
752.636	10660.55
752.975	10640.89
753.313	10755.47
753.651	10853.99
753.989	10955.91
754.327	11010.83
754.666	11063.48
755.004	11223.25
755.342	11365.39
755.679	11489.23
756.017	11568.55
756.355	11816.68
756.693	11844.93
757.031	12064.36
757.368	12140.74
757.706	12219.61
758.044	12397.46
758.381	12575.3
758.719	12624.57
759.056	12759.03
759.394	12897.78
759.731	12964
760.068	13239.24
760.405	13352.23
760.743	13432.68
761.08	13695.05
761.417	13729.85
761.754	13909.73
762.091	14058.2
762.428	14202.38
762.765	14300.46
763.102	14560.11
763.438	14683.5
763.775	14841.91
764.112	14950.16
764.449	15223.14
764.785	15351.05
765.122	15285.97
765.458	15508.79
765.795	15713.75
766.131	15883.47
766.467	15969.34
766.804	16039.17
767.14	16076.91
767.476	16259.28
767.812	16371.82
768.148	16549.66
768.485	16647.06
768.821	16670.11
769.157	16894.74
769.492	16975.19
769.828	17077.33
770.164	17139.25
770.5	17225.58
770.836	17366.14
771.171	17330.66
771.507	17542.18
771.842	17481.62
772.178	17710.09
772.513	17717.54
772.849	17831.89
773.184	17722.29
773.519	17882.96
773.855	17966.12
774.19	17984.2
774.525	18001.38
774.86	18075.27
775.195	18200.69
775.53	18238.21
775.865	18182.62
776.2	18277.98
776.535	18228.94
776.87	18343.51
777.205	18285.66
777.539	18302.39
777.874	18417.19
778.209	18400.91
778.543	18416.51
778.878	18355.04
779.212	18503.28
779.547	18370.86
779.881	18563.17
780.215	18461.48
780.55	18483.17
780.884	18423.96
781.218	18465.09
781.552	18534.47
781.886	18470.52
782.22	18494.25
782.554	18498.09
782.888	18398.2
783.222	18396.62
783.556	18297.41
783.889	18339.67
784.223	18289.28
784.557	18237.75
784.89	18355.94
785.224	18249.96
785.557	18178.55
785.891	18366.34
786.224	18217.64
786.558	18336.06
786.891	18126.12
787.224	18087.93
787.557	18110.98
787.891	18002.96
788.224	17986.46
788.557	18109.85
788.89	18067.14
789.223	18087.25
789.556	17983.98
789.888	17897.2
790.221	17908.72
790.554	17895.17
790.887	17820.59
791.219	17745.34
791.552	17724.55
791.884	17676.41
792.217	17711.67
792.549	17622.18
792.882	17612.69
793.214	17586.02
793.546	17529.3
793.879	17467.83
794.211	17315.52
794.543	17465.8
794.875	17374.95
795.207	17500.37
795.539	17359.81
795.871	17351.22
796.203	17148.07
796.535	17111.46
796.867	17129.76
797.198	17093.38
797.53	17145.35
797.862	17045.7
798.193	17110.78
798.525	16907.39
798.856	16938.58
799.188	16797.34
799.519	16741.07
799.85	16673.28
800.182	16698.81
800.513	16715.99
800.844	16561.19
801.175	16601.41
801.506	16618.14
801.837	16548.53
802.168	16456.33
802.499	16554.64
802.83	16355.09
803.161	16312.61
803.491	16373.62
803.822	16466.73
804.153	16270.8
804.483	16234.19
804.814	16097.7
805.145	16218.37
805.475	16154.87
805.805	16037.81
806.136	16016.8
806.466	16018.38
806.796	16002.79
807.126	15906.52
807.457	15891.6
807.787	15872.39
808.117	15940.87
808.447	15716.47
808.777	15810.93
809.107	15794.88
809.436	15743.81
809.766	15687.09
810.096	15601.44
810.426	15579.75
810.755	15606.64
811.085	15598.28
811.414	15575.9
811.744	15490.03
812.073	15416.36
812.403	15422.46
812.732	15322.35
813.061	15374.33
813.39	15199.64
813.719	15169.81
814.049	15314.67
814.378	15196.03
814.707	15142.92
815.036	15075.58
815.365	15099.76
815.693	14880.33
816.022	14925.3
816.351	14918.97
816.68	14874
817.008	14941.57
817.337	14756.72
817.665	14754
817.994	14820.9
818.322	14854.34
818.651	14714.01
818.979	14573.22
819.307	14798.52
819.636	14669.26
819.964	14617.96
820.292	14679.88
820.62	14625.19
820.948	14652.99
821.276	14645.08
821.604	14538.42
821.932	14708.58
822.259	14562.37
822.587	14590.85
822.915	14552.88
823.243	14615.93
823.57	14529.83
823.898	14626.1
824.225	14521.24
824.553	14525.76
824.88	14618.19
825.207	14568.25
825.535	14584.52
825.862	14553.56
826.189	14608.47
826.516	14600.11
826.843	14646.44
827.17	14624.29
827.497	14638.08
827.824	14600.11
828.151	14550.85
828.478	14584.97
828.805	14702.93
829.131	14577.74
829.458	14540.23
829.785	14456.61
830.111	14479.44
830.438	14579.32
830.764	14561.92
831.09	14617.51
831.417	14554.91
831.743	14619.77
832.069	14605.08
832.395	14476.95
832.722	14638.3
833.048	14579.09
833.374	14477.4
833.7	14529.6
834.026	14531.41
834.351	14517.17
834.677	14495.03
835.003	14538.19
835.329	14472.2
835.654	14450.06
835.98	14375.48
836.306	14478.98
836.631	14391.08
836.956	14433.56
837.282	14427.46
837.607	14328.03
837.932	14295.71
838.258	14345.65
838.583	14217.07
838.908	14112.67
839.233	14207.8
839.558	14230.4
839.883	14114.47
840.208	14112.89
840.533	14182.27
840.858	14116.51
841.182	14045.55
841.507	14087.81
841.832	14016.17
842.156	13980.69
842.481	13976.85
842.805	13934.37
843.13	13984.76
843.454	13864.08
843.778	13859.34
844.103	13752.68
844.427	13801.26
844.751	13804.65
845.075	13674.26
845.399	13703.64
845.723	13584.54
846.047	13605.11
846.371	13496.18
846.695	13427.26
847.019	13407.6
847.343	13347.49
847.666	13295.29
847.99	13208.96
848.313	13140.49
848.637	13147.72
848.96	13121.51
849.284	13037.67
849.607	12982.98
849.931	12961.06
850.254	12867.5
850.577	12841.06
850.9	12763.1
851.223	12824.34
851.546	12687.62
851.869	12609.43
852.192	12627.28
852.515	12465.7
852.838	12406.04
853.161	12477
853.483	12408.76
853.806	12299.83
854.129	12365.37
854.451	12265.48
854.774	12235.2
855.096	12180.74
855.419	12123.57
855.741	12140.51
856.063	12065.94
856.385	12075.43
856.708	11903.68
857.03	11954.98
857.352	11932.61
857.674	11825.72
857.996	11848.77
858.318	11809.22
858.64	11792.05
858.961	11739.85
859.283	11678.38
859.605	11674.31
859.926	11696.01
860.248	11608.55
860.57	11578.49
860.891	11617.82
861.212	11522.9
861.534	11526.52
861.855	11520.64
862.176	11498.27
862.498	11469.12
862.819	11547.08
863.14	11405.39
863.461	11413.3
863.782	11386.86
864.103	11428.67
864.424	11348.44
864.745	11325.17
865.065	11278.84
865.386	11187.09
865.707	11208.56
866.027	11202.01
866.348	11227.09
866.668	11193.19
866.989	11125.17
867.309	11036.81
867.63	11171.27
867.95	11131.05
868.27	11005.18
868.59	11033.88
868.91	11011.73
869.23	10969.02
869.55	10905.97
869.87	10988
870.19	11007.89
870.51	10966.31
870.83	10990.26
871.15	10853.32
871.469	10898.96
871.789	10851.96
872.109	10903.48
872.428	10790.27
872.748	10894.67
873.067	10788.46
873.386	10811.74
873.706	10817.39
874.025	10720.21
874.344	10744.62
874.663	10725.41
874.982	10711.17
875.301	10652.42
875.62	10656.49
875.939	10673.66
876.258	10657.84
876.577	10599.09
876.896	10578.07
877.214	10547.56
877.533	10551.86
877.852	10557.05
878.17	10595.92
878.489	10597.28
878.807	10559.76
879.125	10503.27
879.444	10432.54
879.762	10497.17
880.08	10406.77
880.398	10439.32
880.716	10478.86
881.034	10375.81
881.352	10422.14
881.67	10317.29
881.988	10351.86
882.306	10288.59
882.624	10207.01
882.941	10217.17
883.259	10218.98
883.577	10246.1
883.894	10177.18
884.212	10093.79
884.529	10150.06
884.846	10071.42
885.164	10062.15
885.481	10079.55
885.798	10005.65
886.115	9961.81
886.432	9972.44
886.75	9927.69
887.067	9962.49
887.383	9830.29
887.7	9933.11
888.017	9843.63
888.334	9847.92
888.651	9795.27
888.967	9758.88
889.284	9736.06
889.6	9715.49
889.917	9617.87
890.233	9704.19
890.55	9655.61
890.866	9614.03
891.182	9584.42
891.498	9590.07
891.815	9544.2
892.131	9496.29
892.447	9507.59
892.763	9454.48
893.079	9450.64
893.395	9354.37
893.71	9360.93
894.026	9329.74
894.342	9350.98
894.657	9247.26
894.973	9256.75
895.289	9261.27
895.604	9234.6
895.92	9119.58
896.235	9037.77
896.55	9018.34
896.865	9033.48
897.181	9043.19
897.496	9007.04
897.811	8936.98
898.126	8952.58
898.441	8816.99
898.756	8869.64
899.071	8823.77
899.386	8767.95
899.7	8766.59
900.015	8696.31
900.33	8660.15
900.644	8648.4
900.959	8647.72
901.273	8608.86
901.588	8612.92
901.902	8505.81
902.216	8488.63
902.531	8513.26
902.845	8467.39
903.159	8412.25
903.473	8365.7
903.787	8380.61
904.101	8304
904.415	8297.23
904.729	8267.17
905.042	8231.92
905.356	8220.17
905.67	8214.97
905.984	8191.01
906.297	8182.2
906.611	8038.25
906.924	8049.55
907.237	7995.99
907.551	8007.29
907.864	7983.79
908.177	7973.84
908.491	7966.16
908.804	7835.77
909.117	7847.52
909.43	7826.05
909.743	7720.52
910.056	7739.5
910.368	7668.77
910.681	7665.38
910.994	7679.61
911.307	7644.81
911.619	7572.72
911.932	7544.48
912.244	7456.8
912.557	7520.52
912.869	7423.35
913.181	7454.31
913.494	7415.44
913.806	7333.63
914.118	7349.45
914.43	7241.21
914.742	7266.52
915.054	7260.87
915.366	7223.81
915.678	7195.11
915.99	7150.36
916.302	7073.3
916.613	7060.65
916.925	7096.8
917.236	7021.78
917.548	6975.68
917.859	7040.99
918.171	6982.46
918.482	6877.6
918.794	6887.09
919.105	6903.36
919.416	6814.55
919.727	6796.7
920.038	6810.03
920.349	6726.87
920.66	6733.2
920.971	6719.41
921.282	6688.45
921.593	6630.6
921.903	6613.2
922.214	6574.11
922.525	6531.4
922.835	6551.06
923.146	6496.59
923.456	6492.75
923.767	6459.76
924.077	6440.55
924.387	6386.77
924.697	6377.05
925.008	6334.79
925.318	6324.4
925.628	6336.82
925.938	6293.21
926.248	6234.23
926.558	6243.04
926.867	6184.51
927.177	6159.88
927.487	6147.9
927.796	6068.81
928.106	6084.4
928.416	6027.91
928.725	6032.88
929.034	6001.24
929.344	5943.16
929.653	5996.95
929.962	5893.9
930.271	5868.14
930.581	5864.75
930.89	5807.8
931.199	5814.8
931.508	5838.08
931.817	5814.58
932.125	5763.96
932.434	5758.54
932.743	5702.49
933.051	5661.14
933.36	5709.04
933.669	5651.65
933.977	5621.82
934.286	5645.32
934.594	5627.01
934.902	5534.81
935.21	5542.72
935.519	5494.36
935.827	5496.4
936.135	5463.63
936.443	5421.59
936.751	5353.35
937.059	5439.9
937.367	5369.62
937.674	5405.78
937.982	5342.73
938.29	5301.6
938.597	5329.62
938.905	5272.9
939.213	5240.13
939.52	5237.42
939.827	5194.71
940.135	5184.76
940.442	5138.66
940.749	5166.01
941.056	5108.16
941.363	5082.62
941.67	5093.47
941.977	5041.72
942.284	5012.11
942.591	4962.62
942.898	5004.66
943.205	4933.25
943.511	4947.93
943.818	4963.75
944.125	4897.99
944.431	4890.76
944.738	4848.73
945.044	4842.17
945.35	4781.16
945.657	4794.27
945.963	4764.66
946.269	4727.6
946.575	4725.79
946.881	4706.13
947.187	4666.36
947.493	4646.02
947.799	4659.58
948.105	4653.48
948.41	4622.52
948.716	4643.99
949.022	4560.83
949.327	4626.59
949.633	4542.75
949.938	4528.51
950.244	4565.57
950.549	4475.18
950.854	4460.94
951.16	4421.85
951.465	4428.17
951.77	4364.45
952.075	4389.76
952.38	4383.88
952.685	4345.46
952.99	4316.54
953.294	4311.57
953.599	4308.4
953.904	4227.95
954.209	4238.8
954.513	4231.8
954.818	4202.64
955.122	4215.07
955.426	4185.47
955.731	4193.83
956.035	4131.01
956.339	4139.14
956.643	4120.84
956.948	4069.09
957.252	4049.43
957.556	4095.53
957.86	4014.85
958.163	4059.6
958.467	4015.08
958.771	4003.55
959.075	3967.4
959.378	3940.28
959.682	3942.99
959.985	3914.06
960.289	3909.09
960.592	3862.09
960.896	3848.98
961.199	3817.57
961.502	3837.23
961.805	3826.61
962.108	3805.82
962.411	3770.56
962.714	3769.43
963.017	3758.81
963.32	3743.45
963.623	3716.1
963.926	3691.92
964.228	3704.35
964.531	3707.06
964.833	3673.39
965.136	3657.35
965.438	3617.12
965.741	3562.43
966.043	3606.5
966.345	3544.81
966.648	3591.36
966.95	3559.72
967.252	3515.43
967.554	3497.35
967.856	3507.07
968.158	3521.76
968.46	3494.41
968.761	3478.82
969.063	3478.14
969.365	3451.93
969.666	3430.46
969.968	3397.92
970.269	3381.65
970.571	3369.45
970.872	3328.54
971.174	3322.89
971.475	3313.4
971.776	3283.12
972.077	3282.67
972.378	3278.83
972.679	3287.87
972.98	3281.31
973.281	3269.56
973.582	3216
973.883	3227.08
974.183	3186.85
974.484	3167.64
974.785	3172.39
975.085	3173.07
975.386	3151.82
975.686	3126.97
975.986	3101.88
976.287	3103.69
976.587	3038.83
976.887	3071.37
977.187	3050.81
977.487	3039.28
977.787	3016.91
978.087	3037.25
978.387	2947.54
978.687	3011.49
978.987	2962.45
979.286	3003.13
979.586	2962.68
979.885	2947.99
980.185	2944.15
980.484	2892.17
980.784	2913.86
981.083	2862.79
981.382	2898.05
981.682	2866.63
981.981	2846.52
982.28	2859.4
982.579	2839.97
982.878	2835.45
983.177	2776.92
983.475	2782.12
983.774	2763.36
984.073	2752.96
984.372	2778.95
984.67	2711.38
984.969	2744.83
985.267	2710.93
985.566	2707.54
985.864	2703.7
986.162	2667.09
986.461	2675.68
986.759	2669.58
987.057	2615.57
987.355	2613.98
987.653	2599.75
987.951	2627.32
988.249	2580.99
988.547	2602.01
988.844	2577.83
989.142	2569.47
989.44	2523.59
989.737	2536.25
990.035	2531.95
990.332	2505.51
990.63	2502.58
990.927	2495.34
991.224	2477.27
991.521	2467.77
991.819	2426.87
992.116	2418.28
992.413	2429.81
992.71	2428.91
993.006	2357.72
993.303	2389.36
993.6	2398.62
993.897	2335.57
994.193	2400.66
994.49	2373.31
994.787	2314.56
995.083	2309.13
995.379	2307.55
995.676	2294.9
995.972	2303.94
996.268	2267.1
996.565	2287.89
996.861	2279.76
997.157	2235.24
997.453	2239.98
997.749	2211.74
998.044	2202.92
998.34	2176.03
998.636	2172.41
998.932	2187.56
999.227	2191.4
999.523	2176.26
999.818	2142.13
1000.114	2141
1000.409	2111.17
1000.704	2140.55
1001	2108.01
1001.295	2086.54
1001.59	2082.47
1001.885	2078.41
1002.18	2059.88
1002.475	2048.12
1002.77	2032.31
1003.065	2031.4
1003.359	2054
1003.654	1995.7
1003.949	2015.36
1004.243	2016.49
1004.538	1959.99
1004.832	1990.72
1005.127	1968.8
1005.421	1942.14
1005.715	1935.36
1006.009	1941.46
1006.304	1911.18
1006.598	1878.19
1006.892	1873.89
1007.186	1892.2
1007.48	1849.49
1007.773	1842.93
1008.067	1823.95
1008.361	1817.62
1008.655	1833.67
1008.948	1846.77
1009.242	1753.67
1009.535	1802.48
1009.829	1768.58
1010.122	1755.48
1010.415	1746.66
1010.708	1752.76
1011.001	1767.68
1011.295	1743.5
1011.588	1706.89
1011.881	1705.99
1012.173	1697.4
1012.466	1703.27
1012.759	1682.48
1013.052	1658.98
1013.344	1684.29
1013.637	1649.26
1013.93	1657.63
1014.222	1634.58
1014.514	1645.2
1014.807	1592.54
1015.099	1607.46
1015.391	1586.22
1015.683	1609.72
1015.976	1583.73
1016.268	1561.13
1016.56	1589.15
1016.851	1544.63
1017.143	1526.78
1017.435	1531.75
1017.727	1548.02
1018.018	1537.86
1018.31	1522.04
1018.602	1514.58
1018.893	1493.34
1019.185	1474.35
1019.476	1485.2
1019.767	1458.99
1020.058	1441.13
1020.35	1422.83
1020.641	1399.33
1020.932	1396.62
1021.223	1422.38
1021.514	1384.86
1021.804	1368.82
1022.095	1382.15
1022.386	1360.23
1022.677	1379.67
1022.967	1347.13
1023.258	1334.47
1023.548	1359.1
1023.839	1322.49
1024.129	1311.42
1024.419	1301.48
1024.709	1296.05
1025	1290.4
1025.29	1304.64
1025.58	1268.03
1025.87	1245.21
1026.16	1264.64
1026.449	1252.66
1026.739	1246.56
1027.029	1259.22
1027.319	1247.24
1027.608	1218.09
1027.898	1233.46
1028.187	1197.98
1028.477	1179.22
1028.766	1178.09
1029.055	1179.22
1029.344	1191.65
1029.634	1176.06
1029.923	1194.36
1030.212	1158.66
1030.501	1124.08
1030.79	1111.2
1031.078	1130.18
1031.367	1121.59
1031.656	1116.4
1031.945	1134.02
1032.233	1106
1032.522	1079.56
1032.81	1077.98
1033.099	1056.29
1033.387	1091.54
1033.675	1079.34
1033.963	1082.95
1034.251	1062.61
1034.54	1016.51
1034.828	1059.45
1035.116	1035.27
1035.403	1024.87
1035.691	1016.74
1035.979	1008.6
1036.267	1002.28
1036.554	988.49
1036.842	979.45
1037.129	964.54
1037.417	969.51
1037.704	981.49
1037.992	975.61
1038.279	946.23
1038.566	948.04
1038.853	948.04
1039.14	948.04
