Data from hue_40_FLMS001491_99.txt Node
Date: Mon Feb 06 15:08:52 GMT 2017
User: dcchb
Spectrometer: FLMS00149
Trigger mode: 0
Integration Time (sec): 2.000000E-2
Scans to average: 10
Electric dark correction enabled: true
Nonlinearity correction enabled: false
Boxcar width: 0
XAxis mode: Wavelengths
Number of Pixels in Spectrum: 2048
>>>>>Begin Spectral Data<<<<<
341.393	-30.51
341.776	-30.51
342.16	-30.51
342.543	-60.79
342.927	-81.35
343.31	-43.39
343.693	-48.59
344.077	-78.87
344.46	-39.77
344.843	-52.43
345.226	-32.99
345.61	-32.32
345.993	-31.64
346.376	-9.49
346.759	8.36
347.142	28.47
347.525	20.79
347.908	52.88
348.291	71.86
348.674	91.75
349.057	95.36
349.44	135.82
349.823	135.36
350.206	143.73
350.588	173.33
350.971	198.41
351.354	236.6
351.737	245.42
352.119	256.72
352.502	256.49
352.884	280.22
353.267	271.41
353.65	286.77
354.032	312.08
354.414	300.11
354.797	352.53
355.179	314.12
355.562	347.56
355.944	325.87
356.326	335.13
356.709	343.49
357.091	329.48
357.473	364.74
357.855	345.08
358.238	340.56
358.62	349.37
359.002	372.42
359.384	335.13
359.766	335.13
360.148	364.51
360.53	351.18
360.912	364.28
361.294	332.19
361.676	349.14
362.057	332.65
362.439	331.52
362.821	347.34
363.203	351.4
363.584	335.58
363.966	334.91
364.348	329.48
364.729	350.95
365.111	334
365.493	349.37
365.874	315.7
366.256	307.11
366.637	318.86
367.019	322.25
367.4	316.6
367.781	325.87
368.163	335.58
368.544	323.38
368.925	323.38
369.306	329.26
369.688	318.41
370.069	306.66
370.45	329.48
370.831	331.97
371.212	317.28
371.593	311.18
371.974	323.16
372.355	321.12
372.736	327.45
373.117	315.92
373.498	335.81
373.879	346.21
374.26	318.18
374.641	333.78
375.021	316.6
375.402	348.69
375.783	338.07
376.163	325.19
376.544	344.17
376.925	311.86
377.305	332.87
377.686	326.77
378.066	324.51
378.447	324.96
378.827	344.17
379.208	342.14
379.588	344.17
379.968	334.68
380.349	327
380.729	330.16
381.109	351.63
381.489	349.82
381.87	355.47
382.25	333.78
382.63	355.7
383.01	334.68
383.39	359.09
383.77	353.21
384.15	354.11
384.53	364.28
384.91	363.38
385.29	353.44
385.67	375.58
386.049	341.46
386.429	346.66
386.809	345.08
387.189	381.23
387.568	367.9
387.948	342.82
388.328	344.85
388.707	372.65
389.087	378.75
389.466	371.74
389.846	386.2
390.225	396.83
390.605	354.57
390.984	367
391.363	392.76
391.743	369.71
392.122	376.26
392.501	404.51
392.881	388.01
393.26	367.22
393.639	393.44
394.018	370.61
394.397	408.8
394.776	405.87
395.155	375.81
395.534	388.69
395.913	407.67
396.292	405.87
396.671	410.16
397.05	406.54
397.429	401.12
397.808	406.99
398.186	383.27
398.565	392.31
398.944	413.1
399.323	387.56
399.701	419.88
400.08	419.2
400.458	413.77
400.837	414.9
401.215	407.9
401.594	409.93
401.972	425.98
402.351	410.16
402.729	417.62
403.107	413.77
403.486	424.62
403.864	422.36
404.242	423.04
404.62	442.25
404.999	424.62
405.377	412.87
405.755	446.77
406.133	451.06
406.511	435.92
406.889	448.12
407.267	438.63
407.645	449.03
408.023	452.42
408.401	455.81
408.779	434.79
409.156	464.17
409.534	475.02
409.912	474.79
410.29	481.12
410.667	460.55
411.045	473.66
411.422	510.72
411.8	491.74
412.178	467.11
412.555	499.2
412.933	490.83
413.31	493.09
413.687	505.98
414.065	505.75
414.442	501.46
414.819	511.62
415.197	522.47
415.574	529.48
415.951	508.46
416.328	522.7
416.705	543.26
417.082	519.08
417.46	533.32
417.837	531.74
418.214	535.35
418.591	533.09
418.967	532.42
419.344	536.26
419.721	581.91
420.098	512.53
420.475	564.73
420.852	522.25
421.228	570.83
421.605	533.09
421.982	567.22
422.358	554.56
422.735	568.35
423.111	571.51
423.488	572.19
423.864	587.56
424.241	582.58
424.617	584.17
424.994	606.31
425.37	607.67
425.746	599.08
426.123	614
426.499	595.69
426.875	611.28
427.251	609.02
427.627	646.31
428.003	646.31
428.379	633.2
428.756	659.42
429.132	639.53
429.507	652.64
429.883	660.77
430.259	659.64
430.635	647.21
431.011	664.39
431.387	686.31
431.763	661.23
432.138	669.59
432.514	711.17
432.89	706.2
433.265	697.16
433.641	706.2
434.016	719.53
434.392	742.58
434.767	731.96
435.143	708.23
435.518	759.3
435.894	730.83
436.269	769.47
436.644	753.2
437.02	773.76
437.395	771.05
437.77	786.42
438.145	808.11
438.52	794.78
438.895	791.39
439.271	790.49
439.646	806.31
440.021	814.89
440.395	819.64
440.77	799.98
441.145	799.3
441.52	833.42
441.895	822.13
442.27	839.98
442.645	835.01
443.019	859.19
443.394	854.21
443.769	862.35
444.143	852.18
444.518	868.45
444.892	858.51
445.267	875.01
445.641	864.84
446.016	874.78
446.39	906.64
446.764	903.71
447.139	893.54
447.513	907.09
447.887	916.36
448.262	905.29
448.636	921.78
449.01	921.56
449.384	927.66
449.758	934.44
450.132	946.87
450.506	937.38
450.88	945.74
451.254	972.63
451.628	966.08
452.002	981.9
452.376	982.35
452.75	979.64
453.123	1008.56
453.497	1012.18
453.871	1016.92
454.244	1035.9
454.618	1040.88
454.992	1046.3
455.365	1069.58
455.739	1082.46
456.112	1082.91
456.486	1096.47
456.859	1096.24
457.232	1140.99
457.606	1123.36
457.979	1126.75
458.352	1154.32
458.725	1164.04
459.099	1152.51
459.472	1195
459.845	1194.77
460.218	1209.91
460.591	1227.76
460.964	1228.89
461.337	1237.48
461.71	1292.62
462.083	1285.62
462.456	1294.66
462.829	1277.03
463.201	1325.16
463.574	1306.41
463.947	1364.03
464.32	1357.25
464.692	1380.53
465.065	1369.68
465.438	1422.56
465.81	1424.37
466.183	1441.54
466.555	1499.85
466.928	1492.39
467.3	1486.06
467.672	1518.15
468.045	1567.87
468.417	1569.68
468.789	1564.48
469.161	1606.51
469.534	1631.6
469.906	1659.39
470.278	1689.67
470.65	1689.22
471.022	1753.85
471.394	1761.08
471.766	1789.33
472.138	1811.25
472.51	1841.76
472.882	1868.43
473.253	1886.73
473.625	1949.1
473.997	1993.62
474.369	2017.57
474.74	2055.54
475.112	2077.01
475.484	2147.97
475.855	2213.05
476.227	2244.91
476.598	2288.75
476.97	2356.77
477.341	2389.32
477.713	2432.93
478.084	2476.32
478.455	2536.88
478.827	2575.07
479.198	2690.1
479.569	2698.23
479.94	2754.05
480.311	2866.82
480.682	2941.62
481.053	2998.34
481.424	3090.99
481.795	3112.46
482.166	3214.38
482.537	3290.53
482.908	3396.29
483.279	3459.12
483.65	3530.98
484.021	3653.46
484.391	3677.87
484.762	3776.4
485.133	3853.46
485.503	3896.17
485.874	4004.41
486.244	4138.87
486.615	4195.82
486.985	4336.38
487.356	4465.87
487.726	4506.55
488.097	4629.93
488.467	4706.32
488.837	4874.22
489.207	5010.26
489.578	5071.51
489.948	5176.36
490.318	5309.69
490.688	5336.13
491.058	5476.47
491.428	5577.03
491.798	5701.09
492.168	5838.94
492.538	5893.18
492.908	6038.26
493.278	6181.31
493.648	6214.53
494.017	6353.96
494.387	6402.32
494.757	6584.69
495.126	6647.28
495.496	6739.94
495.866	6817.67
496.235	6948.29
496.605	7081.4
496.974	7153.94
497.344	7265.12
497.713	7411.33
498.082	7445.45
498.452	7583.76
498.821	7700.36
499.19	7729.97
499.559	7823.75
499.928	7973.35
500.298	8014.7
500.667	8156.85
501.036	8123.18
501.405	8228.26
501.774	8351.87
502.143	8441.59
502.512	8508.25
502.88	8610.85
503.249	8664.18
503.618	8824.63
503.987	8859.2
504.356	8948.92
504.724	9008.8
505.093	9046.09
505.462	9126.99
505.83	9247.67
506.199	9315.01
506.567	9500.32
506.936	9445.4
507.304	9580.99
507.672	9638.62
508.041	9715.45
508.409	9832.51
508.777	9897.14
509.145	9960.19
509.514	10071.83
509.882	10124.25
510.25	10238.15
510.618	10284.7
510.986	10276.34
511.354	10435.66
511.722	10458.03
512.09	10634.97
512.458	10613.96
512.826	10736.67
513.193	10812.6
513.561	10829.09
513.929	11012.37
514.297	11038.35
514.664	11216.88
515.032	11151.12
515.4	11263.66
515.767	11433.37
516.135	11295.3
516.502	11303.43
516.869	11575.29
517.237	11671.33
517.604	11654.61
517.972	11732.35
518.339	11846.02
518.706	11869.07
519.073	11852.12
519.44	11973.02
519.808	12137.76
520.175	12045.56
520.542	12324.42
520.909	12302.28
521.276	12307.47
521.643	12460.24
522.009	12570.97
522.376	12656.62
522.743	12674.02
523.11	12867.91
523.477	12892.54
523.843	12900
524.21	13160.33
524.577	13241.69
524.943	13238.07
525.31	13337.5
525.676	13428.35
526.043	13441.23
526.409	13559.19
526.776	13717.83
527.142	13789.02
527.508	13875.79
527.874	14032.85
528.241	14000.99
528.607	14022.91
528.973	14202.11
529.339	14195.11
529.705	14324.37
530.071	14407.53
530.437	14454.99
530.803	14570.92
531.169	14671.25
531.535	14643.23
531.901	14796.9
532.267	14786.96
532.632	14911.47
532.998	14925.26
533.364	15046.84
533.73	15073.05
534.095	15179.04
534.461	15240.96
534.826	15334.06
535.192	15334.06
535.557	15536.99
535.923	15507.39
536.288	15639.81
536.653	15573.6
537.019	15690.66
537.384	15715.52
537.749	15842.75
538.114	15828.51
538.479	15877.55
538.845	16023.31
539.21	15964.1
539.575	16087.03
539.94	16087.71
540.305	16208.84
540.67	16258.33
541.034	16287.48
541.399	16411.32
541.764	16388.95
542.129	16501.94
542.494	16606.79
542.858	16615.83
543.223	16675.72
543.587	16817.18
543.952	16762.72
544.316	16886.11
544.681	16870.06
545.045	17014.02
545.41	17061.02
545.774	17038.42
546.138	17140.79
546.503	17178.08
546.867	17213.33
547.231	17412.88
547.595	17446.55
547.959	17479.09
548.324	17544.17
548.688	17538.52
549.052	17706.65
549.416	17623.94
549.779	17726.09
550.143	17811.74
550.507	17893.09
550.871	17942.58
551.235	17929.7
551.599	18138.96
551.962	18163.59
552.326	18231.16
552.689	18303.7
553.053	18243.59
553.417	18355.22
553.78	18552.51
554.143	18530.81
554.507	18584.37
554.87	18623.69
555.234	18709.11
555.597	18649
555.96	18833.4
556.323	18898.71
556.686	18909.56
557.05	19034.3
557.413	19065.49
557.776	19145.26
558.139	19294.63
558.502	19225.94
558.865	19241.08
559.228	19389.77
559.59	19455.31
559.953	19547.96
560.316	19752.7
560.679	19743.89
561.041	19827.28
561.404	19933.26
561.767	20069.75
562.129	19975.29
562.492	20176.19
562.854	20191.33
563.217	20231.56
563.579	20349.75
563.941	20413.93
564.304	20510.87
564.666	20617.54
565.028	20654.6
565.39	20736.63
565.753	20757.19
566.115	20865.44
566.477	20997.41
566.839	21006
567.201	21054.14
567.563	21150.86
567.925	21340
568.287	21353.11
568.648	21362.38
569.01	21506.78
569.372	21709.49
569.734	21531.64
570.095	21812.08
570.457	21801.69
570.819	21951.51
571.18	21997.61
571.542	22124.62
571.903	22121.23
572.265	22321.22
572.626	22376.59
572.987	22460.2
573.349	22537.94
573.71	22690.48
574.071	22716.92
574.432	22726.63
574.794	22956.46
575.155	22992.16
575.516	22991.26
575.877	23163.23
576.238	23289.56
576.599	23386.96
576.96	23605.71
577.32	23622.66
577.681	23765.93
578.042	24004.11
578.403	24022.42
578.763	24159.36
579.124	24233.26
579.485	24495.4
579.845	24640.48
580.206	24714.83
580.566	24837.09
580.927	24918.21
581.287	25219
581.648	25191.88
582.008	25544.19
582.368	25551.64
582.728	25772.66
583.089	26007.9
583.449	26122.03
583.809	26354.79
584.169	26571.5
584.529	26622.8
584.889	27039.74
585.249	27029.8
585.609	27114.54
585.969	27519.05
586.329	27579.16
586.688	27806.95
587.048	27961.75
587.408	28128.75
587.768	28428.86
588.127	28489.42
588.487	28683.54
588.846	29133.02
589.206	29096.86
589.565	29361.49
589.925	29638.09
590.284	29740.69
590.643	30059.32
591.003	30223.84
591.362	30489.14
591.721	30707.89
592.08	31027.43
592.44	31172.06
592.799	31431.72
593.158	31533.18
593.517	31728.43
593.876	31934.75
594.235	32026.95
594.593	32288.42
594.952	32624
595.311	32624.68
595.67	33004.33
596.029	33368.84
596.387	33419.46
596.746	33642.51
597.104	33628.95
597.463	33900.13
597.822	34164.3
598.18	34239.33
598.538	34303.73
598.897	34786.43
599.255	34476.38
599.613	35340.99
599.972	35137.61
600.33	35370.37
600.688	35387.77
601.046	35627.09
601.404	35991.82
601.762	35994.53
602.12	36416.44
602.478	36535.99
602.836	36474.52
603.194	36640.62
603.552	36771.01
603.91	36860.95
604.268	37213.71
604.625	37220.72
604.983	37481.27
605.341	37341.62
605.698	37833.36
606.056	37931.88
606.413	37995.84
606.771	38145.66
607.128	38441.7
607.485	38254.36
607.843	38396.73
608.2	38755.14
608.557	38947.9
608.914	38898.86
609.272	39227.44
609.629	39363.71
609.986	39516.48
610.343	39396.48
610.7	39826.75
611.057	39746.75
611.414	39772.51
611.771	39896.8
612.127	40187.87
612.484	40177.47
612.841	40472.83
613.198	40309.45
613.554	40464.7
613.911	40817.01
614.267	40577.69
614.624	40831.47
614.98	40908.3
615.337	41268.97
615.693	41169.76
616.05	41257.9
616.406	41564.33
616.762	41386.48
617.118	41477.33
617.475	41571.34
617.831	41730.2
618.187	41932.46
618.543	41827.83
618.899	42216.97
619.255	42209.06
619.611	42066.24
619.967	42285.44
620.323	42544.42
620.678	42317.76
621.034	42355.04
621.39	42333.12
621.746	42324.08
622.101	42865.54
622.457	42509.84
622.812	42778.08
623.168	42804.07
623.523	42894.47
623.879	43049.94
624.234	42802.72
624.589	42975.37
624.945	43109.6
625.3	43178.75
625.655	43107.34
626.01	43042.48
626.365	43138.07
626.72	43221.01
627.075	43209.71
627.43	43321.57
627.785	43123.16
628.14	43317.28
628.495	43383.49
628.85	43451.51
629.205	43072.54
629.559	43519.31
629.914	43405.19
630.269	43304.62
630.623	43481.12
630.978	43311.4
631.332	43502.13
631.687	43566.99
632.041	43459.65
632.396	43394.11
632.75	43396.83
633.104	43425.75
633.459	43362.93
633.813	43331.52
634.167	43241.35
634.521	43439.99
634.875	43549.14
635.229	43382.36
635.583	43272.76
635.937	43211.97
636.291	43081.81
636.645	43201.8
636.999	43128.58
637.352	43242.93
637.706	43019.21
638.06	43200.45
638.413	42999.77
638.767	43017.4
639.121	43115.25
639.474	42840.46
639.828	42995.03
640.181	42929.49
640.534	42977.63
640.888	42982.37
641.241	42628.94
641.594	42851.98
641.947	42923.62
642.301	42891.3
642.654	42834.35
643.007	42690.85
643.36	42846.33
643.713	42738.31
644.066	42831.87
644.419	42645.66
644.771	42395.5
645.124	41955.28
645.477	42052.68
645.83	41699.69
646.182	41640.49
646.535	41482.75
646.888	41420.15
647.24	41431
647.593	41556.65
647.945	41445.69
648.298	41255.19
648.65	41345.81
649.002	41173.15
649.355	41349.87
649.707	41328.63
650.059	41266.49
650.411	41909.86
650.763	41849.75
651.115	42390.07
651.467	42124.77
651.819	42150.76
652.171	42010.19
652.523	41948.5
652.875	42071.89
653.227	41920.25
653.578	42122.06
653.93	41985.56
654.282	41819.92
654.633	41783.99
654.985	41782.18
655.337	41845
655.688	41866.24
656.039	42082.06
656.391	41674.61
656.742	41798.22
657.094	41827.37
657.445	41983.98
657.796	41717.55
658.147	41691.11
658.498	41700.6
658.849	41791.44
659.2	41811.56
659.551	41592.13
659.902	41796.19
660.253	41703.31
660.604	41652.92
660.955	41504.45
661.306	41732.69
661.656	41512.13
662.007	41591.22
662.358	41567.72
662.708	41668.06
663.059	41602.75
663.409	41276.2
663.76	41665.57
664.11	41539.25
664.461	41586.48
664.811	41638
665.161	41456.76
665.511	41482.07
665.862	41421.51
666.212	41636.87
666.562	41660.15
666.912	41443.2
667.262	41342.19
667.612	41585.57
667.962	41623.54
668.312	41450.89
668.662	41585.12
669.011	41499.47
669.361	41364.56
669.711	41371.57
670.06	41241.85
670.41	41189.88
670.76	41274.62
671.109	41371.12
671.459	41325.24
671.808	41247.95
672.157	41343.77
672.507	41094.06
672.856	41159.82
673.205	40967.06
673.554	41277.56
673.904	41077.56
674.253	41338.57
674.602	41134.74
674.951	40718.03
675.3	40516
675.649	40940.84
675.998	41084.8
676.346	41041.63
676.695	41107.85
677.044	40817.46
677.393	40823.11
677.741	41025.81
678.09	40659.04
678.438	40750.79
678.787	40825.14
679.135	40730.91
679.484	40562.1
679.832	40812.26
680.181	40550.12
680.529	40674.64
680.877	40515.32
681.225	40352.84
681.573	40534.53
681.922	40336.57
682.27	40221.32
682.618	40287.53
682.966	40285.49
683.314	40229.9
683.661	40104.48
684.009	40023.81
684.357	39755.11
684.705	39818.84
685.053	39943.58
685.4	39777.71
685.748	39597.38
686.095	39671.27
686.443	39628.34
686.79	39435.35
687.138	39530.94
687.485	39630.82
687.832	39481.9
688.18	39377.5
688.527	39279.42
688.874	39197.39
689.221	39139.31
689.568	39093.44
689.915	38899.77
690.262	38935.7
690.609	38836.94
690.956	38574.35
691.303	38609.15
691.65	38433.34
691.997	38405.54
692.344	38344.3
692.69	38234.7
693.037	38143.63
693.383	38012.11
693.73	38068.83
694.077	37909.74
694.423	37782.74
694.769	37691.89
695.116	37690.53
695.462	37603.08
695.808	37480.82
696.155	37634.49
696.501	37270.21
696.847	37249.64
697.193	37127.39
697.539	37186.14
697.885	36880.16
698.231	36787.51
698.577	36800.84
698.923	36771.69
699.269	36558.59
699.614	36321.08
699.96	36223.68
700.306	36287.63
700.651	36252.83
700.997	36021.2
701.342	36017.58
701.688	35933.74
702.033	35824.37
702.379	35802.9
702.724	35712.96
703.069	35753.41
703.415	35372.63
703.76	35323.82
704.105	35248.56
704.45	35106.2
704.795	35062.58
705.14	34997.5
705.485	34990.04
705.83	34865.07
706.175	34972.87
706.52	34827.56
706.865	34737.84
707.209	34597.73
707.554	34593.67
707.899	34626.66
708.243	34508.92
708.588	34333.56
708.932	34171.08
709.277	34327.68
709.621	34144.86
709.966	33905.55
710.31	33959.56
710.654	33637.08
710.998	33860.8
711.342	33854.03
711.687	33746.01
712.031	33529.29
712.375	33432.79
712.719	33426.24
713.063	33375.85
713.407	33504.66
713.75	33186.7
714.094	33246.81
714.438	33102.18
714.782	33091.56
715.125	32911
715.469	32897.21
715.812	32784.9
716.156	32605.47
716.499	32638.69
716.843	32657.67
717.186	32536.77
717.53	32644.34
717.873	32696.32
718.216	32476.66
718.559	32384.23
718.902	32157.12
719.246	32230.56
719.589	32180.17
719.932	32046.16
720.275	31988.09
720.617	32163.45
720.96	32030.34
721.303	31964.36
721.646	31856.11
721.989	31748.09
722.331	31872.38
722.674	31759.62
723.016	31805.94
723.359	31785.6
723.701	31636.23
724.044	31482.11
724.386	31286.63
724.729	31542.67
725.071	31306.97
725.413	31282.57
725.755	31392.17
726.097	31191.72
726.439	30969.13
726.782	31124.38
727.124	31266.75
727.465	30942.24
727.807	30905.63
728.149	30890.49
728.491	30823.6
728.833	30982.46
729.175	30739.98
729.516	30684.16
729.858	30554.45
730.199	30605.07
730.541	30605.3
730.882	30506.32
731.224	30708.8
731.565	30405.75
731.906	30514
732.248	30347.68
732.589	30195.14
732.93	30235.59
733.271	30208.47
733.612	30246.44
733.953	30098.42
734.294	30087.12
734.635	29969.38
734.976	30137.29
735.317	29936.84
735.658	29912.66
735.999	29781.14
736.339	29994.69
736.68	29919.67
737.021	29769.84
737.361	29709.95
737.702	29802.38
738.042	29662.27
738.383	29428.15
738.723	29624.76
739.063	29526.23
739.404	29537.3
739.744	29418.89
740.084	29384.99
740.424	29391.77
740.764	29328.95
741.104	29446.68
741.444	29188.61
741.784	29092.34
742.124	29229.51
742.464	29178.44
742.804	29119.91
743.143	28988.39
743.483	29104.77
743.823	28825
744.162	28799.92
744.502	28962.4
744.841	28801.5
745.181	28865.91
745.52	28754.95
745.86	28779.58
746.199	28681.28
746.538	28619.81
746.877	28643.99
747.216	28672.01
747.556	28544.56
747.895	28547.05
748.234	28386.6
748.573	28459.14
748.911	28261.63
749.25	28300.5
749.589	28167.17
749.928	28217.34
750.267	28310.22
750.605	28192.03
750.944	28142.99
751.283	27946.61
751.621	28017.79
751.96	27790.91
752.298	27820.74
752.636	27885.37
752.975	27724.47
753.313	27579.61
753.651	27799.27
753.989	27600.18
754.327	27540.07
754.666	27425.49
755.004	27512.72
755.342	27492.38
755.679	27367.19
756.017	27311.82
756.355	27385.72
756.693	27135.78
757.031	27092.62
757.368	26924.94
757.706	26936.01
758.044	26911.38
758.381	26938.73
758.719	26821.67
759.056	26751.16
759.394	26746.42
759.731	26526.53
760.068	26563.37
760.405	26409.7
760.743	26348.46
761.08	26400.44
761.417	26309.82
761.754	26159.99
762.091	26134.45
762.428	26042.03
762.765	25821.92
763.102	25921.13
763.438	25836.83
763.775	25694.24
764.112	25685.65
764.449	25756.16
764.785	25529.5
765.122	25434.81
765.458	25360.69
765.795	25204.08
766.131	25259.45
766.467	25110.98
766.804	25149.4
767.14	24934.49
767.476	24897.65
767.812	24708.95
768.148	24841.83
768.485	24735.85
768.821	24543.08
769.157	24538.56
769.492	24471.45
769.828	24391.45
770.164	24227.16
770.5	24219.48
770.836	24098.35
771.171	23956.21
771.507	23996.66
771.842	23845.02
772.178	23881.18
772.513	23768.41
772.849	23603
773.184	23539.27
773.519	23586.27
773.855	23399.84
774.19	23322.32
774.525	23143.8
774.86	23308.31
775.195	23152.61
775.53	23033.52
775.865	22863.13
776.2	22786.29
776.535	22629.91
776.87	22588.78
777.205	22625.62
777.539	22439.18
777.874	22409.58
778.209	22178.63
778.543	22160.55
778.878	22154.45
779.212	22006.43
779.547	21875.58
779.881	22038.29
780.215	21809.82
780.55	21842.82
780.884	21695.25
781.218	21673.78
781.552	21595.82
781.886	21507.68
782.22	21390.85
782.554	21247.58
782.888	21088.26
783.222	21094.59
783.556	20976.85
783.889	20908.38
784.223	20772.34
784.557	20710.64
784.89	20827.93
785.224	20665.45
785.557	20538.22
785.891	20541.61
786.224	20426.81
786.558	20463.19
786.891	20240.15
787.224	20208.28
787.557	20100.26
787.891	20078.34
788.224	20039.25
788.557	20005.8
788.89	19996.08
789.223	19887.39
789.556	19765.36
789.888	19646.26
790.221	19725.58
790.554	19507.06
790.887	19420.05
791.219	19426.83
791.552	19335.99
791.884	19270
792.217	19186.84
792.549	19126.05
792.882	19042.89
793.214	18964.25
793.546	19034.98
793.879	18767.87
794.211	18731.71
794.543	18806.51
794.875	18664.82
795.207	18712.28
795.539	18598.83
795.871	18615.1
796.203	18472.73
796.535	18300.08
796.867	18262.57
797.198	18272.51
797.53	18204.72
797.862	18148
798.193	18189.13
798.525	18077.26
798.856	18004.72
799.188	17825.07
799.519	17839.98
799.85	17718.63
800.182	17651.29
800.513	17750.27
800.844	17584.85
801.175	17682.92
801.506	17528.35
801.837	17502.14
802.168	17463.95
802.499	17396.15
802.83	17249.49
803.161	17288.58
803.491	17230.73
803.822	17171.98
804.153	17047.24
804.483	17008.82
804.814	17047.24
805.145	16892.89
805.475	16910.97
805.805	16808.6
806.136	16864.19
806.466	16808.37
806.796	16779.22
807.126	16561.82
807.457	16610.86
807.787	16627.59
808.117	16536.51
808.447	16488.61
808.777	16405.44
809.107	16344.43
809.436	16286.35
809.766	16351.89
810.096	16251.32
810.426	16285.22
810.755	16153.7
811.085	16162.96
811.414	16136.07
811.744	16002.74
812.073	15894.72
812.403	15933.37
812.732	15828.96
813.061	15884.33
813.39	15842.97
813.719	15853.59
814.049	15780.83
814.378	15788.06
814.707	15662.41
815.036	15574.51
815.365	15504.68
815.693	15446.6
816.022	15487.73
816.351	15375.41
816.68	15257.23
817.008	15358.47
817.337	15153.95
817.665	15237.79
817.994	15239.15
818.322	15278.47
818.651	15048.64
818.979	14987.18
819.307	15142.43
819.636	15024.92
819.964	14977.91
820.292	15051.81
820.62	15011.13
820.948	14865.37
821.276	14999.83
821.604	14859.5
821.932	14929.78
822.259	14970.23
822.587	14853.39
822.915	14864.92
823.243	14934.3
823.57	14858.37
823.898	14781.53
824.225	14737.24
824.553	14834.41
824.88	14884.58
825.207	14874.19
825.535	14812.04
825.862	14847.75
826.189	14751.02
826.516	14891.36
826.843	14883.9
827.17	14903.34
827.497	14900.63
827.824	14924.58
828.151	14860.63
828.478	14838.48
828.805	14906.05
829.131	14788.54
829.458	14833.73
829.785	14749.22
830.111	14785.37
830.438	14878.48
830.764	14753.96
831.09	14837.35
831.417	14718.26
831.743	14783.79
832.069	14741.76
832.395	14681.2
832.722	14681.42
833.048	14647.98
833.374	14675.55
833.7	14645.72
834.026	14627.41
834.351	14662.21
834.677	14614.53
835.003	14704.7
835.329	14697.69
835.654	14631.25
835.98	14458.83
836.306	14591.93
836.631	14469.45
836.956	14616.56
837.282	14550.58
837.607	14471.48
837.932	14385.38
838.258	14425.84
838.583	14482.56
838.908	14351.26
839.233	14371.83
839.558	14267.65
839.883	14238.5
840.208	14207.76
840.533	14260.19
840.858	14188.1
841.182	14214.54
841.507	14160.31
841.832	14088.67
842.156	14062.91
842.481	14091.61
842.805	13988.78
843.13	13984.27
843.454	13995.56
843.778	13939.52
844.103	13875.79
844.427	13890.48
844.751	13901.33
845.075	13810.94
845.399	13715.35
845.723	13676.7
846.047	13730.03
846.371	13652.75
846.695	13677.15
847.019	13539.31
847.343	13459.08
847.666	13349.93
847.99	13344.51
848.313	13291.85
848.637	13207.79
848.96	13158.52
849.284	13127.56
849.607	13059.09
849.931	13011.64
850.254	12941.13
850.577	12905.2
850.9	12802.38
851.223	12800.57
851.546	12728.93
851.869	12668.82
852.192	12668.37
852.515	12582.04
852.838	12534.36
853.161	12593.57
853.483	12508.82
853.806	12389.28
854.129	12422.27
854.451	12334.36
854.774	12282.61
855.096	12241.03
855.419	12174.14
855.741	12189.74
856.063	12064.09
856.385	12151.32
856.708	12069.29
857.03	11968.95
857.352	12045.11
857.674	12028.84
857.996	11876.75
858.318	11853.25
858.64	11874.94
858.961	11831.33
859.283	11782.97
859.605	11677.43
859.926	11773.02
860.248	11668.62
860.57	11588.85
860.891	11699.13
861.212	11536.87
861.534	11551.79
861.855	11562.18
862.176	11585.68
862.498	11562.86
862.819	11579.58
863.14	11452.13
863.461	11395.18
863.782	11349.53
864.103	11369.42
864.424	11418.46
864.745	11395.18
865.065	11331.68
865.386	11298.91
865.707	11235.64
866.027	11252.36
866.348	11222.98
866.668	11284.68
866.989	11187.05
867.309	11167.62
867.63	11150.44
867.95	11131.68
868.27	11037.22
868.59	11099.82
868.91	11044.68
869.23	10994.97
869.55	11004.23
869.87	11066.15
870.19	11006.49
870.51	11005.81
870.83	11074.06
871.15	10952.93
871.469	10907.06
871.789	10949.32
872.109	10940.05
872.428	10842.88
872.748	10917.68
873.067	10862.77
873.386	10947.96
873.706	10846.04
874.025	10788.19
874.344	10774.18
874.663	10735.54
874.982	10800.39
875.301	10747.97
875.62	10626.16
875.939	10654.86
876.258	10639.04
876.577	10559.5
876.896	10613.28
877.214	10567.18
877.533	10582.09
877.852	10576.67
878.17	10589.78
878.489	10573.51
878.807	10534.41
879.125	10479.5
879.444	10493.28
879.762	10435.88
880.08	10475.66
880.398	10367.41
880.716	10393.63
881.034	10333.29
881.352	10383.68
881.67	10355.21
881.988	10351.37
882.306	10290.8
882.624	10343.23
882.941	10192.27
883.259	10176.91
883.577	10208.77
883.894	10179.17
884.212	10136.68
884.529	10155.67
884.846	10049.45
885.164	10107.3
885.481	10043.13
885.798	10031.6
886.115	10052.17
886.432	10067.31
886.75	10013.3
887.067	9963.35
887.383	9894.2
887.7	9939.85
888.017	9904.82
888.334	9821.66
888.651	9834.32
888.967	9855.11
889.284	9783.47
889.6	9739.18
889.917	9726.3
890.233	9742.57
890.55	9675.45
890.866	9634.55
891.182	9619.18
891.498	9540.31
891.815	9572.18
892.131	9560.88
892.447	9515.23
892.763	9476.59
893.079	9391.84
893.395	9429.58
893.71	9380.32
894.026	9330.15
894.342	9306.87
894.657	9289.93
894.973	9265.52
895.289	9200.44
895.604	9204.05
895.92	9135.13
896.235	9185.52
896.55	9108.24
896.865	9127.44
897.181	9067.56
897.496	9012.19
897.811	8998.18
898.126	8965.19
898.441	8996.83
898.756	8938.97
899.071	8856.26
899.386	8862.37
899.7	8818.53
900.015	8801.12
900.33	8748.47
900.644	8724.29
900.959	8712.31
901.273	8662.6
901.588	8610.4
901.902	8567.46
902.216	8625.54
902.531	8495.6
902.845	8513.9
903.159	8435.48
903.473	8396.16
903.787	8410.17
904.101	8349.16
904.415	8361.59
904.729	8296.28
905.042	8302.38
905.356	8251.53
905.67	8304.41
905.984	8210.41
906.297	8179.9
906.611	8076.4
906.924	8157.07
907.237	8092.44
907.551	8014.48
907.864	8035.72
908.177	8035.04
908.491	8064.87
908.804	7948.04
909.117	7874.14
909.43	7831.66
909.743	7741.94
910.056	7799.34
910.368	7663.98
910.681	7760.02
910.994	7707.37
911.307	7661.04
911.619	7582.63
911.932	7685.9
912.244	7584.21
912.557	7522.51
912.869	7463.53
913.181	7431.44
913.494	7476.64
913.806	7315.51
914.118	7392.57
914.43	7260.37
914.742	7309.41
915.054	7239.13
915.366	7251.11
915.678	7216.53
915.99	7232.35
916.302	7130.66
916.613	7132.02
916.925	7109.64
917.236	7065.12
917.548	7053.83
917.859	7035.07
918.171	6975.41
918.482	6939.7
918.794	6901.74
919.105	6948.97
919.416	6838.24
919.727	6847.28
920.038	6834.62
920.349	6794.62
920.66	6733.61
920.971	6738.81
921.282	6719.6
921.593	6633.72
921.903	6645.02
922.214	6685.25
922.525	6554.18
922.835	6614.06
923.146	6479.6
923.456	6482.99
923.767	6495.87
924.077	6449.1
924.387	6435.99
924.697	6403.45
925.008	6395.99
925.318	6375.2
925.628	6355.99
925.938	6305.14
926.248	6245.94
926.558	6232.38
926.867	6169.33
927.177	6188.09
927.487	6150.12
927.796	6155.77
928.106	6101.08
928.416	6076.22
928.725	5991.48
929.034	6012.5
929.344	6015.66
929.653	6039.39
929.962	5952.39
930.271	5972.95
930.581	5887.08
930.89	5863.12
931.199	5819.51
931.508	5855.44
931.817	5777.25
932.125	5798.94
932.434	5773.86
932.743	5750.36
933.051	5684.37
933.36	5667.87
933.669	5632.17
933.977	5611.15
934.286	5634.65
934.594	5593.53
934.902	5531.38
935.21	5525.05
935.519	5561.66
935.827	5513.08
936.135	5468.33
936.443	5418.61
936.751	5459.29
937.059	5412.51
937.367	5338.16
937.674	5362.34
937.982	5325.74
938.29	5306.53
938.597	5291.61
938.905	5221.33
939.213	5254.78
939.52	5236.7
939.827	5227.21
940.135	5222.69
940.442	5087.55
940.749	5131.62
941.056	5117.38
941.363	5135.01
941.67	5040.09
941.977	5058.62
942.284	4989.47
942.591	4995.35
942.898	4973.65
943.205	4978.17
943.511	4938.63
943.818	4923.49
944.125	4891.17
944.431	4902.7
944.738	4883.94
945.044	4838.74
945.35	4834
945.657	4766.88
945.963	4736.82
946.269	4780.67
946.575	4707.22
946.881	4686.43
947.187	4670.16
947.493	4674.91
947.799	4605.53
948.105	4610.95
948.41	4582.7
948.716	4587
949.022	4551.29
949.327	4524.17
949.633	4521.92
949.938	4509.71
950.244	4474.68
950.549	4438.3
950.854	4422.26
951.16	4406.44
951.465	4391.97
951.77	4408.47
952.075	4363.28
952.38	4338.42
952.685	4358.98
952.99	4329.38
953.294	4274.24
953.599	4249.15
953.904	4254.58
954.209	4230.17
954.513	4199.66
954.818	4181.58
955.122	4193.79
955.426	4153.11
955.731	4116.95
956.035	4085.09
956.339	4084.86
956.643	4095.26
956.948	4044.87
957.252	4054.58
957.556	4068.82
957.86	3966.45
958.163	4001.48
958.467	3967.58
958.771	3980.23
959.075	3938.2
959.378	3936.39
959.682	3940.69
959.985	3912.21
960.289	3877.86
960.592	3857.3
960.896	3843.29
961.199	3823.4
961.502	3846.9
961.805	3817.53
962.108	3778.88
962.411	3757.19
962.714	3741.14
963.017	3740.47
963.32	3724.65
963.623	3691.65
963.926	3700.24
964.228	3684.2
964.531	3672.45
964.833	3626.35
965.136	3620.7
965.438	3615.95
965.741	3565.1
966.043	3526.69
966.345	3553.58
966.648	3555.39
966.95	3550.42
967.252	3482.17
967.554	3535.5
967.856	3477.65
968.158	3425.9
968.46	3447.14
968.761	3441.49
969.063	3411.21
969.365	3401.94
969.666	3391.55
969.968	3351.32
970.269	3368.27
970.571	3337.77
970.872	3354.71
971.174	3337.99
971.475	3278.78
971.776	3320.36
972.077	3280.82
972.378	3281.5
972.679	3260.03
972.98	3209.86
973.281	3203.31
973.582	3206.02
973.883	3203.98
974.183	3186.36
974.484	3167.83
974.785	3141.39
975.085	3131.9
975.386	3118.56
975.686	3101.16
975.986	3108.17
976.287	3111.56
976.587	3027.04
976.887	3051.45
977.187	3048.96
977.487	3018.9
977.787	2985.68
978.087	2995.85
978.387	2970.32
978.687	2994.5
978.987	2941.39
979.286	2967.38
979.586	2935.06
979.885	2893.94
980.185	2897.78
980.484	2899.81
980.784	2882.86
981.083	2862.52
981.382	2804.67
981.682	2838.12
981.981	2852.35
982.28	2838.34
982.579	2799.25
982.878	2808.29
983.177	2803.09
983.475	2785.24
983.774	2709.76
984.073	2743.43
984.372	2720.61
984.67	2726.03
984.969	2716.99
985.267	2672.25
985.566	2686.71
985.864	2660.04
986.162	2695.75
986.461	2672.02
986.759	2664.34
987.057	2572.14
987.355	2574.17
987.653	2602.87
987.951	2615.75
988.249	2588.41
988.547	2554.28
988.844	2538.46
989.142	2550.44
989.44	2531.23
989.737	2520.16
990.035	2471.35
990.332	2477.67
990.63	2452.36
990.927	2450.11
991.224	2458.24
991.521	2424.57
991.819	2461.4
992.116	2445.13
992.413	2441.52
992.71	2409.88
993.006	2387.96
993.303	2373.04
993.6	2339.6
993.897	2373.5
994.193	2359.26
994.49	2334.63
994.787	2309.32
995.083	2328.75
995.379	2319.49
995.676	2275.65
995.972	2263.9
996.268	2289.88
996.565	2264.8
996.861	2267.74
997.157	2214.18
997.453	2209.66
997.749	2233.16
998.044	2180.06
998.34	2230.45
998.636	2228.19
998.932	2157.46
999.227	2145.93
999.523	2160.62
999.818	2138.47
1000.114	2144.8
1000.409	2145.03
1000.704	2127.63
1001	2115.2
1001.295	2089.44
1001.59	2065.26
1001.885	2063.45
1002.18	2055.77
1002.475	2045.37
1002.77	2042.66
1003.065	2021.19
1003.359	2021.42
1003.654	2015.09
1003.949	1995.88
1004.243	2010.57
1004.538	1957.69
1004.832	1951.59
1005.127	1970.57
1005.421	1944.36
1005.715	1930.34
1006.009	1900.29
1006.304	1923.57
1006.598	1862.32
1006.892	1868.65
1007.186	1860.74
1007.48	1891.25
1007.773	1830.46
1008.067	1842.66
1008.361	1840.63
1008.655	1795.88
1008.948	1831.36
1009.242	1818.71
1009.535	1774.64
1009.829	1776.68
1010.122	1795.66
1010.415	1761.31
1010.708	1748.2
1011.001	1746.85
1011.295	1721.54
1011.588	1734.87
1011.881	1720.41
1012.173	1696.23
1012.466	1686.51
1012.759	1676.34
1013.052	1687.87
1013.344	1662.78
1013.637	1646.96
1013.93	1648.77
1014.222	1644.48
1014.514	1628.88
1014.807	1626.62
1015.099	1617.36
1015.391	1586.4
1015.683	1592.05
1015.976	1587.75
1016.268	1561.54
1016.56	1543.91
1016.851	1564.48
1017.143	1511.82
1017.435	1550.24
1017.727	1526.74
1018.018	1479.51
1018.31	1508.89
1018.602	1487.42
1018.893	1492.84
1019.185	1471.37
1019.476	1441.09
1019.767	1471.83
1020.058	1435.44
1020.35	1455.1
1020.641	1442
1020.932	1404.71
1021.223	1420.08
1021.514	1412.84
1021.804	1371.26
1022.095	1377.82
1022.386	1389.57
1022.677	1352.73
1022.967	1343.02
1023.258	1331.26
1023.548	1324.71
1023.839	1329.68
1024.129	1334.88
1024.419	1316.35
1024.709	1298.27
1025	1302.56
1025.29	1296.92
1025.58	1281.77
1025.87	1259.4
1026.16	1269.8
1026.449	1245.84
1026.739	1223.02
1027.029	1228.44
1027.319	1238.39
1027.608	1229.57
1027.898	1226.86
1028.187	1212.17
1028.477	1209.69
1028.766	1181.21
1029.055	1196.8
1029.344	1171.49
1029.634	1169.69
1029.923	1157.03
1030.212	1114.32
1030.501	1146.18
1030.79	1130.14
1031.078	1131.04
1031.367	1147.31
1031.656	1107.77
1031.945	1113.42
1032.233	1109.8
1032.522	1086.07
1032.81	1074.55
1033.099	1074.1
1033.387	1075
1033.675	1051.5
1033.963	1052.85
1034.251	1040.65
1034.54	1057.15
1034.828	1063.93
1035.116	1032.74
1035.403	1058.5
1035.691	1033.42
1035.979	1020.31
1036.267	978.96
1036.554	1012.18
1036.842	992.06
1037.129	1006.75
1037.417	1002.46
1037.704	970.6
1037.992	969.24
1038.279	946.87
1038.566	944.16
1038.853	944.16
1039.14	944.16
