Data from hue_290_FLMS001491_00064.txt Node
Date: Tue Feb 07 15:53:04 GMT 2017
User: dcchb
Spectrometer: FLMS00149
Trigger mode: 0
Integration Time (sec): 2.000000E-2
Scans to average: 10
Electric dark correction enabled: true
Nonlinearity correction enabled: false
Boxcar width: 0
XAxis mode: Wavelengths
Number of Pixels in Spectrum: 2048
>>>>>Begin Spectral Data<<<<<
341.393	-22.32
341.776	-22.32
342.16	-22.32
342.543	-78.59
342.927	-56.89
343.31	-79.94
343.693	-65.48
344.077	-69.09
344.46	-54.41
344.843	-50.56
345.226	-34.52
345.61	-22.77
345.993	-18.25
346.376	1.86
346.759	25.37
347.142	19.94
347.525	53.84
347.908	58.59
348.291	52.03
348.674	77.12
349.057	106.27
349.44	109.43
349.823	132.71
350.206	163.44
350.588	177.45
350.971	199.37
351.354	208.19
351.737	234.85
352.119	232.59
352.502	265.59
352.884	270.33
353.267	264.23
353.65	280.28
354.032	290.44
354.414	282.53
354.797	302.87
355.179	335.41
355.562	311.01
355.944	317.56
356.326	322.76
356.709	320.73
357.091	317.34
357.473	352.59
357.855	348.75
358.238	356.88
358.62	320.05
359.002	329.54
359.384	339.93
359.766	313.04
360.148	330.67
360.53	327.28
360.912	335.64
361.294	349.88
361.676	350.56
362.057	328.64
362.439	323.21
362.821	327.28
363.203	337.9
363.584	318.24
363.966	345.58
364.348	328.64
364.729	321.18
365.111	301.97
365.493	311.46
365.874	305.81
366.256	297.68
366.637	307.39
367.019	315.3
367.4	328.18
367.781	317.79
368.163	308.3
368.544	312.82
368.925	297.68
369.306	314.4
369.688	327.73
370.069	311.46
370.45	322.31
370.831	316.66
371.212	330.9
371.593	315.08
371.974	296.77
372.355	316.43
372.736	299.71
373.117	337.22
373.498	308.75
373.879	299.03
374.26	314.85
374.641	297
375.021	304
375.402	333.83
375.783	323.66
376.163	325.7
376.544	326.38
376.925	322.53
377.305	334.96
377.686	330.44
378.066	319.82
378.447	311.91
378.827	337.22
379.208	335.41
379.588	335.19
379.968	333.83
380.349	330.67
380.729	332.03
381.109	350.56
381.489	339.93
381.87	331.12
382.25	332.7
382.63	352.59
383.01	354.62
383.39	356.88
383.77	345.13
384.15	329.31
384.53	360.05
384.91	348.97
385.29	361.18
385.67	343.1
386.049	349.65
386.429	371.8
386.809	362.76
387.189	350.56
387.568	360.27
387.948	353.04
388.328	351.69
388.707	349.43
389.087	373.61
389.466	372.25
389.846	399.14
390.225	376.32
390.605	369.76
390.984	376.77
391.363	377.22
391.743	386.94
392.122	380.16
392.501	401.63
392.881	384.45
393.26	387.39
393.639	400.95
394.018	404.11
394.397	398.24
394.776	403.21
395.155	417.67
395.534	409.31
395.913	405.02
396.292	413.15
396.671	418.12
397.05	404.79
397.429	395.07
397.808	410.44
398.186	412.48
398.565	432.36
398.944	419.03
399.323	437.56
399.701	423.77
400.08	403.44
400.458	429.88
400.837	446.82
401.215	447.95
401.594	430.1
401.972	448.41
402.351	434.85
402.729	425.13
403.107	458.58
403.486	445.02
403.864	468.74
404.242	469.87
404.62	462.64
404.999	454.73
405.377	476.43
405.755	490.67
406.133	471.68
406.511	478.91
406.889	489.08
407.267	505.13
407.645	504
408.023	492.02
408.401	519.36
408.779	529.08
409.156	530.44
409.534	528.4
409.912	527.05
410.29	538.35
410.667	541.74
411.045	565.24
411.422	568.18
411.8	552.81
412.178	569.08
412.555	598.23
412.933	602.3
413.31	614.5
413.687	633.71
414.065	614.96
414.442	620.15
414.819	635.52
415.197	635.97
415.574	651.11
415.951	654.95
416.328	675.29
416.705	682.98
417.082	666.71
417.46	664.22
417.837	721.17
418.214	693.82
418.591	718.23
418.967	725.01
419.344	718.23
419.721	762.3
420.098	753.48
420.475	784.67
420.852	785.12
421.228	782.41
421.605	785.57
421.982	796.42
422.358	810.66
422.735	827.15
423.111	807.04
423.488	855.63
423.864	839.36
424.241	871.67
424.617	847.72
424.994	894.5
425.37	911.44
425.746	918.45
426.123	917.55
426.499	910.09
426.875	914.83
427.251	967.71
427.627	964.78
428.003	952.8
428.379	976.08
428.756	979.24
429.132	1002.52
429.507	999.58
429.883	1015.4
430.259	1058.79
430.635	1055.85
431.011	1038
431.387	1071.21
431.763	1104.21
432.138	1092.23
432.514	1131.1
432.89	1136.3
433.265	1156.41
433.641	1146.92
434.016	1205.9
434.392	1194.38
434.767	1230.53
435.143	1211.1
435.518	1221.95
435.894	1234.6
436.269	1253.13
436.644	1293.13
437.02	1320.47
437.395	1325.9
437.77	1322.73
438.145	1351.21
438.52	1351.43
438.895	1338.33
439.271	1387.36
439.646	1376.29
440.021	1428.04
440.395	1405.44
440.77	1398.89
441.145	1414.48
441.52	1468.72
441.895	1437.53
442.27	1467.81
442.645	1455.61
443.019	1469.17
443.394	1496.51
443.769	1508.49
444.143	1479.11
444.518	1513.01
444.892	1501.03
445.267	1483.63
445.641	1536.97
446.016	1522.28
446.39	1546.91
446.764	1566.57
447.139	1549.85
447.513	1562.28
447.887	1540.13
448.262	1570.64
448.636	1585.78
449.01	1587.59
449.384	1614.25
449.758	1637.3
450.132	1628.04
450.506	1657.64
450.88	1630.97
451.254	1682.5
451.628	1662.39
452.002	1675.72
452.376	1681.59
452.75	1706.23
453.123	1716.62
453.497	1707.36
453.871	1729.05
454.244	1748.49
454.618	1769.28
454.992	1811.08
455.365	1821.25
455.739	1879.56
456.112	1841.82
456.486	1845.21
456.859	1874.13
457.232	1899.89
457.606	1891.53
457.979	1914.36
458.352	1924.98
458.725	1953.23
459.099	1970.85
459.472	2008.14
459.845	2003.62
460.218	2035.94
460.591	2055.82
460.964	2061.25
461.337	2108.48
461.71	2092.43
462.083	2141.92
462.456	2149.15
462.829	2109.61
463.201	2161.81
463.574	2159.77
463.947	2167.91
464.32	2242.94
464.692	2219.43
465.065	2248.81
465.438	2312.31
465.81	2302.82
466.183	2319.32
466.555	2381.46
466.928	2340.79
467.3	2373.55
467.672	2404.74
468.045	2425.76
468.417	2452.65
468.789	2474.12
469.161	2479.99
469.534	2519.31
469.906	2552.08
470.278	2561.8
470.65	2592.76
471.022	2617.61
471.394	2698.52
471.766	2675.24
472.138	2707.1
472.51	2762.92
472.882	2757.72
473.253	2810.6
473.625	2843.82
473.997	2874.11
474.369	2899.64
474.74	2910.04
475.112	2962.46
475.484	2982.35
475.855	3007.89
476.227	3041.11
476.598	3122.91
476.97	3130.82
477.341	3167.66
477.713	3238.39
478.084	3224.83
478.455	3310.48
478.827	3300.31
479.198	3366.97
479.569	3399.74
479.94	3455.78
480.311	3504.37
480.682	3581.43
481.053	3590.47
481.424	3687.42
481.795	3684.25
482.166	3714.76
482.537	3754.76
482.908	3843.57
483.279	3834.98
483.65	3921.08
484.021	3924.93
484.391	3965.83
484.762	4003.79
485.133	4048.54
485.503	4057.12
485.874	4157.69
486.244	4136.67
486.615	4235.65
486.985	4262.32
487.356	4321.3
487.726	4375.08
488.097	4429.54
488.467	4437.23
488.837	4463.44
489.207	4531.24
489.578	4574.63
489.948	4582.08
490.318	4627.05
490.688	4715.64
491.058	4760.16
491.428	4771.68
491.798	4819.14
492.168	4859.82
492.538	4953.6
492.908	4913.15
493.278	5004.22
493.648	5004.9
494.017	5078.34
494.387	5114.72
494.757	5130.09
495.126	5165.57
495.496	5194.95
495.866	5199.02
496.235	5235.4
496.605	5301.61
496.974	5311.56
497.344	5371.44
497.713	5395.39
498.082	5382.97
498.452	5515.62
498.821	5530.53
499.19	5447.82
499.559	5469.52
499.928	5578.89
500.298	5601.27
500.667	5635.61
501.036	5581.15
501.405	5612.11
501.774	5660.92
502.143	5690.75
502.512	5723.75
502.88	5766.01
503.249	5815.72
503.618	5816.4
503.987	5827.25
504.356	5871.54
504.724	5865.44
505.093	5893.01
505.462	5874.03
505.83	5909.05
506.199	5963.97
506.567	6008.71
506.936	6029.5
507.304	6077.64
507.672	6061.14
508.041	6070.18
508.409	6141.36
508.777	6198.76
509.145	6231.53
509.514	6157.86
509.882	6227.01
510.25	6232.21
510.618	6232.89
510.986	6293.22
511.354	6276.5
511.722	6356.73
512.09	6402.6
512.458	6370.51
512.826	6386.33
513.193	6454.12
513.561	6464.07
513.929	6459.1
514.297	6533.9
514.664	6555.14
515.032	6562.6
515.4	6629.49
515.767	6575.02
516.135	6694.8
516.502	6590.84
516.869	6626.32
517.237	6725.08
517.604	6701.8
517.972	6743.38
518.339	6726.21
518.706	6768.92
519.073	6751.97
519.44	6839.88
519.808	6879.65
520.175	6824.51
520.542	6877.39
520.909	6928.69
521.276	6966.43
521.643	7044.17
522.009	6998.97
522.376	7074.67
522.743	7115.35
523.11	7206.87
523.477	7114.45
523.843	7266.08
524.21	7274.89
524.577	7325.97
524.943	7349.47
525.31	7325.74
525.676	7345.85
526.043	7458.17
526.409	7504.04
526.776	7564.15
527.142	7517.37
527.508	7609.35
527.874	7649.35
528.241	7712.85
528.607	7682.79
528.973	7687.99
529.339	7685.96
529.705	7779.06
530.071	7870.13
530.437	7783.35
530.803	7914.88
531.169	7882.11
531.535	7915.1
531.901	7984.03
532.267	7956.46
532.632	8005.04
532.998	8003.01
533.364	8090.24
533.73	8129.79
534.095	8090.24
534.461	8188.77
534.826	8258.6
535.192	8249.56
535.557	8312.38
535.923	8257.01
536.288	8247.52
536.653	8314.87
537.019	8328.43
537.384	8351.02
537.749	8391.47
538.114	8432.15
538.479	8466.73
538.845	8511.47
539.21	8389.44
539.575	8550.34
539.94	8541.98
540.305	8548.98
540.67	8592.6
541.034	8636.89
541.399	8675.76
541.764	8647.74
542.129	8660.85
542.494	8689.32
542.858	8675.31
543.223	8781.75
543.587	8797.57
543.952	8861.74
544.316	8831.46
544.681	8838.69
545.045	8855.19
545.41	8941.52
545.774	8967.96
546.138	8876.21
546.503	8957.34
546.867	8989.2
547.231	9071.91
547.595	9035.53
547.959	9091.34
548.324	9103.32
548.688	9074.62
549.052	9161.17
549.416	9155.07
549.779	9189.65
550.143	9162.98
550.507	9339.7
550.871	9307.61
551.235	9330.88
551.599	9255.41
551.962	9347.61
552.326	9324.78
552.689	9356.42
553.053	9429.87
553.417	9372.47
553.78	9456.76
554.143	9462.86
554.507	9497.89
554.87	9553.93
555.234	9558.45
555.597	9472.12
555.96	9561.16
556.323	9578.11
556.686	9558.68
557.05	9638.22
557.413	9707.82
557.776	9686.58
558.139	9743.3
558.502	9786.47
558.865	9727.48
559.228	9764.32
559.59	9874.15
559.953	9808.16
560.316	9951.43
560.679	9917.08
561.041	10040.7
561.404	10062.16
561.767	10023.52
562.129	10090.86
562.492	10148.04
562.854	10138.32
563.217	10079.34
563.579	10157.76
563.941	10274.81
564.304	10225.32
564.666	10318.88
565.028	10304.42
565.39	10327.24
565.753	10437.52
566.115	10430.97
566.477	10481.81
566.839	10472.1
567.201	10588.25
567.563	10521.14
567.925	10568.37
568.287	10675.26
568.648	10697.4
569.01	10771.3
569.372	10808.59
569.734	10723.39
570.095	10848.36
570.457	10917.96
570.819	10898.53
571.18	10870.28
571.542	10976.49
571.903	10975.36
572.265	11066.21
572.626	11098.52
572.987	11080.44
573.349	11208.8
573.71	11233.21
574.071	11258.29
574.432	11316.6
574.794	11436.14
575.155	11451.73
575.516	11415.12
575.877	11597.27
576.238	11534.22
576.599	11635.68
576.96	11722.91
577.32	11778.5
577.681	11852.85
578.042	11794.1
578.403	11886.52
578.763	12020.08
579.124	12077.93
579.485	12195.89
579.845	12275.21
580.206	12267.76
580.566	12294.65
580.927	12432.27
581.287	12521.76
581.648	12560.86
582.008	12739.16
582.368	12742.77
582.728	12812.15
583.089	12892.6
583.449	13039.04
583.809	13088.07
584.169	13348.86
584.529	13293.04
584.889	13459.82
585.249	13531
585.609	13616.87
585.969	13834.72
586.329	13868.39
586.688	14017.99
587.048	14166.69
587.408	14285.78
587.768	14363.52
588.127	14485.78
588.487	14554.7
588.846	14895.48
589.206	14868.14
589.565	15039.44
589.925	15245.53
590.284	15319.65
590.643	15539.31
591.003	15675.58
591.362	15851.84
591.721	15888.45
592.08	16002.35
592.44	16195.11
592.799	16366.63
593.158	16490.24
593.517	16636
593.876	16696.57
594.235	16822.21
594.593	16950.57
594.952	17219.94
595.311	17239.38
595.67	17312.6
596.029	17691.57
596.387	17885.91
596.746	18029.64
597.104	18025.57
597.463	18152.8
597.822	18255.4
598.18	18436.41
598.538	18456.75
598.897	18824.87
599.255	18764.76
599.613	19173.34
599.972	19063.28
600.33	19402.94
600.688	19271.19
601.046	19571.52
601.404	19699.88
601.762	19750.27
602.12	19961.11
602.478	20166.08
602.836	20184.61
603.194	20152.52
603.552	20373.53
603.91	20385.96
604.268	20465.51
604.625	20623.7
604.983	20698.95
605.341	20748.44
605.698	21001.09
606.056	21014.42
606.413	21088.32
606.771	21185.71
607.128	21337.8
607.485	21301.64
607.843	21420.06
608.2	21667.51
608.557	21705.7
608.914	21712.48
609.272	21855.53
609.629	22035.86
609.986	22179.13
610.343	22088.97
610.7	22280.83
611.057	22328.51
611.414	22325.57
611.771	22396.3
612.127	22664.77
612.484	22684.66
612.841	22733.92
613.198	22730.08
613.554	22769.85
613.911	22994.93
614.267	23030.64
614.624	23111.77
614.98	23148.37
615.337	23397.63
615.693	23170.97
616.05	23254.13
616.406	23473.56
616.762	23393.11
617.118	23566.22
617.475	23603.5
617.831	23672.65
618.187	23714.69
618.543	23756.95
618.899	23863.84
619.255	23830.39
619.611	23808.7
619.967	23955.81
620.323	24141.79
620.678	23994.23
621.034	24039.65
621.39	24118.74
621.746	24090.27
622.101	24273.54
622.457	24242.58
622.812	24184.73
623.168	24344.5
623.523	24359.87
623.879	24471.5
624.234	24314.67
624.589	24382.69
624.945	24306.31
625.3	24539.98
625.655	24469.92
626.01	24454.55
626.365	24632.18
626.72	24471.96
627.075	24537.94
627.43	24593.76
627.785	24488.45
628.14	24645.96
628.495	24685.06
628.85	24615
629.205	24524.38
629.559	24686.87
629.914	24600.54
630.269	24584.95
630.623	24562.35
630.978	24620.2
631.332	24721.21
631.687	24761.44
632.041	24575.46
632.396	24742.91
632.75	24617.26
633.104	24544.04
633.459	24551.5
633.813	24598.51
634.167	24588.56
634.521	24615
634.875	24571.61
635.229	24602.57
635.583	24473.54
635.937	24444.39
636.291	24474.22
636.645	24487.32
636.999	24483.71
637.352	24471.5
637.706	24404.16
638.06	24458.85
638.413	24367.78
638.767	24356.03
639.121	24429.24
639.474	24252.07
639.828	24302.47
640.181	24275.35
640.534	24299.3
640.888	24247.55
641.241	24264.28
641.594	24252.53
641.947	24295.46
642.301	24271.51
642.654	24160.33
643.007	24331.39
643.36	24286.2
643.713	24138.18
644.066	24187.22
644.419	24166.2
644.771	24087.33
645.124	23890.28
645.477	23788.58
645.83	23600.11
646.182	23513.11
646.535	23407.35
646.888	23488.25
647.24	23370.52
647.593	23531.64
647.945	23500.46
648.298	23349.95
648.65	23379.33
649.002	23314.7
649.355	23471.53
649.707	23383.62
650.059	23592.43
650.411	23817.96
650.763	23749.94
651.115	24126.43
651.467	24025.41
651.819	24114
652.171	23979.09
652.523	23982.25
652.875	24068.35
653.227	23942.93
653.578	24144.28
653.93	24041.46
654.282	23977.73
654.633	24000.33
654.985	23961.01
655.337	23911.97
655.688	23974.79
656.039	24184.28
656.391	23831.97
656.742	23974.79
657.094	24069.71
657.445	24051.4
657.796	23941.57
658.147	23956.04
658.498	23835.81
658.849	23922.59
659.2	23971.18
659.551	23921.24
659.902	24003.27
660.253	23945.19
660.604	24001.91
660.955	23918.3
661.306	23948.35
661.656	24039.65
662.007	24048.01
662.358	24033.32
662.708	23959.43
663.059	23986.32
663.409	23841.24
663.76	24030.84
664.11	24018.18
664.461	24136.15
664.811	24061.34
665.161	24036.94
665.511	23969.6
665.862	24055.02
666.212	24086.43
666.562	24038.97
666.912	24013.44
667.262	24057.95
667.612	24021.57
667.962	24049.14
668.312	24112.42
668.662	24188.12
669.011	24068.35
669.361	24070.84
669.711	24088.24
670.06	23988.35
670.41	23828.58
670.76	23896.83
671.109	23978.86
671.459	23911.52
671.808	23867.45
672.157	23977.73
672.507	23751.75
672.856	23831.29
673.205	23795.14
673.554	23874.91
673.904	23788.81
674.253	23970.05
674.602	23871.29
674.951	23520.57
675.3	23428.14
675.649	23746.1
675.998	23794.69
676.346	23691.18
676.695	23716.95
677.044	23712.2
677.393	23631.3
677.741	23761.01
678.09	23632.2
678.438	23559.21
678.787	23590.17
679.135	23548.36
679.484	23407.58
679.832	23591.3
680.181	23349.95
680.529	23484.86
680.877	23344.3
681.225	23341.36
681.573	23406.67
681.922	23271.08
682.27	23182.95
682.618	23214.81
682.966	23149.96
683.314	23282.83
683.661	23181.82
684.009	23012.56
684.357	23047.13
684.705	23002.39
685.053	22912
685.4	23004.2
685.748	22806.91
686.095	22826.12
686.443	22784.32
686.79	22614.15
687.138	22814.37
687.485	22724.43
687.832	22646.47
688.18	22652.79
688.527	22442.86
688.874	22393.37
689.221	22436.3
689.568	22316.98
689.915	22267.49
690.262	22245.8
690.609	22147.04
690.956	22102.75
691.303	22053.04
691.65	21885.36
691.997	21993.15
692.344	21880.84
692.69	21827.73
693.037	21807.17
693.383	21599.94
693.73	21726.26
694.077	21570.56
694.423	21575.53
694.769	21503.9
695.116	21493.73
695.462	21346.39
695.808	21271.81
696.155	21319.95
696.501	21130.12
696.847	21172.61
697.193	20887.19
697.539	21078.37
697.885	20792.28
698.231	20678.16
698.577	20836.12
698.923	20735.33
699.269	20472.51
699.614	20377.83
699.96	20492.4
700.306	20388.67
700.651	20252.18
700.997	20257.15
701.342	20061.9
701.688	20149.13
702.033	20070.26
702.379	20026.87
702.724	19942.36
703.069	19956.82
703.415	19759.99
703.76	19745.98
704.105	19706.66
704.45	19703.49
704.795	19497.85
705.14	19641.57
705.485	19476.15
705.83	19383.95
706.175	19471.86
706.52	19362.94
706.865	19221.92
707.209	19243.62
707.554	19121.81
707.899	19179.67
708.243	19034.81
708.588	19082.49
708.932	18897.41
709.277	18868.49
709.621	18838.43
709.966	18786
710.31	18733.58
710.654	18706.23
710.998	18671.2
711.342	18636.4
711.687	18561.38
712.031	18542.62
712.375	18481.6
712.719	18471.66
713.063	18378.56
713.407	18408.84
713.75	18316.41
714.094	18315.51
714.438	18161.84
714.782	18327.03
715.125	18100.82
715.469	18113.03
715.812	18092.46
716.156	17939.7
716.499	18038.45
716.843	17989.41
717.186	17933.37
717.53	18045.23
717.873	18062.86
718.216	17895.18
718.559	17870.55
718.902	17797.33
719.246	17748.74
719.589	17778.12
719.932	17626.26
720.275	17722.08
720.617	17688.86
720.96	17701.06
721.303	17664.22
721.646	17651.57
721.989	17533.15
722.331	17567.96
722.674	17531.57
723.016	17513.49
723.359	17540.61
723.701	17587.39
724.044	17444.34
724.386	17363.44
724.729	17408.64
725.071	17382.42
725.413	17280.51
725.755	17267.4
726.097	17279.6
726.439	17184.24
726.782	17227.4
727.124	17267.85
727.465	17159.83
727.807	17255.42
728.149	17127.29
728.491	17233.5
728.833	17172.71
729.175	17173.84
729.516	17052.26
729.858	17065.14
730.199	17028.31
730.541	17066.27
730.882	17030.12
731.224	17110.57
731.565	16997.8
731.906	16999.61
732.248	17084.81
732.589	16934.53
732.93	16997.58
733.271	16992.15
733.612	17035.54
733.953	17014.07
734.294	16932.49
734.635	16839.61
734.976	16985.6
735.317	16891.14
735.658	16883
735.999	16891.59
736.339	16920.52
736.68	16968.88
737.021	16897.92
737.361	16963.9
737.702	16966.16
738.042	16893.4
738.383	16877.8
738.723	16986.05
739.063	16887.3
739.404	16951.93
739.744	16921.87
740.084	16954.86
740.424	16971.36
740.764	16897.47
741.104	16937.01
741.444	16918.48
741.784	16864.92
742.124	17050.46
742.464	16930.91
742.804	17050.46
743.143	16979.72
743.483	17029.89
743.823	16933.62
744.162	17063.79
744.502	17223.33
744.841	17031.7
745.181	17228.3
745.52	17135.65
745.86	17183.33
746.199	17292.03
746.538	17277.79
746.877	17376.1
747.216	17395.98
747.556	17436.43
747.895	17457
748.234	17467.39
748.573	17480.73
748.911	17563.66
749.25	17572.25
749.589	17665.81
749.928	17765.47
750.267	17840.49
750.605	17891.11
750.944	17879.59
751.283	17994.61
751.621	18102.86
751.96	18196.87
752.298	18153.48
752.636	18357.31
752.975	18334.26
753.313	18469.18
753.651	18654.71
753.989	18601.15
754.327	18687.02
754.666	18738.32
755.004	18990.07
755.342	19033
755.679	19166.78
756.017	19135.6
756.355	19414.01
756.693	19461.47
757.031	19575.59
757.368	19605.87
757.706	19690.39
758.044	19811.51
758.381	19986.42
758.719	19969.93
759.056	20198.4
759.394	20203.59
759.731	20240.43
760.068	20340.54
760.405	20515
760.743	20525.62
761.08	20738.27
761.417	20720.87
761.754	20948.88
762.091	20970.58
762.428	21060.29
762.765	21147.52
763.102	21198.37
763.438	21252.15
763.775	21283.34
764.112	21446.05
764.449	21498.7
764.785	21512.26
765.122	21463.9
765.458	21742.08
765.795	21748.86
766.131	21799.71
766.467	21726.26
766.804	21774.85
767.14	21871.57
767.476	21856.66
767.812	21961.29
768.148	22096.42
768.485	21973.04
768.821	22140.49
769.157	22137.78
769.492	22143.88
769.828	22117.22
770.164	22022.98
770.5	22151.56
770.836	22093.49
771.171	22071.34
771.507	22141.17
771.842	22018.91
772.178	22164.45
772.513	22088.52
772.849	22153.15
773.184	22117.89
773.519	22146.14
773.855	22098.23
774.19	22062.3
774.525	21986.15
774.86	22084.9
775.195	22172.58
775.53	22145.91
775.865	22080.83
776.2	21877.9
776.535	21797
776.87	21846.04
777.205	21795.19
777.539	21816.21
777.874	21862.31
778.209	21715.64
778.543	21702.31
778.878	21550.45
779.212	21668.41
779.547	21572.14
779.881	21549.32
780.215	21512.03
780.55	21496.21
780.884	21414.63
781.218	21498.7
781.552	21479.04
781.886	21382.77
782.22	21171.48
782.554	21249.44
782.888	21016.91
783.222	21011.71
783.556	20942.56
783.889	20953.86
784.223	20940.52
784.557	20822.33
784.89	20914.31
785.224	20677.7
785.557	20649.68
785.891	20640.64
786.224	20629.34
786.558	20538.27
786.891	20341.89
787.224	20438.39
787.557	20420.54
787.891	20414.21
788.224	20352.29
788.557	20289.24
788.89	20256.02
789.223	20226.87
789.556	20136.7
789.888	20088.79
790.221	19963.37
790.554	19841.79
790.887	19811.29
791.219	19740.55
791.552	19728.35
791.884	19613.78
792.217	19619.43
792.549	19506.89
792.882	19343.05
793.214	19377.63
793.546	19389.15
793.879	19164.3
794.211	19206.11
794.543	19334.24
794.875	19130.85
795.207	19149.16
795.539	19066.67
795.871	19119.55
796.203	18998.65
796.535	18810.86
796.867	18757.08
797.198	18680.47
797.53	18797.98
797.862	18611.54
798.193	18626.69
798.525	18472.57
798.856	18531.77
799.188	18360.93
799.519	18275.96
799.85	18209.97
800.182	18208.17
800.513	18233.48
800.844	18117.55
801.175	18214.72
801.506	18212.01
801.837	17951.67
802.168	17986.7
802.499	17966.36
802.83	17892.69
803.161	17768.85
803.491	17760.27
803.822	17783.32
804.153	17745.35
804.483	17635.52
804.814	17543.55
805.145	17629.2
805.475	17565.47
805.805	17429.88
806.136	17509.2
806.466	17439.82
806.796	17381.97
807.126	17181.3
807.457	17160.06
807.787	17160.06
808.117	17169.77
808.447	16995.32
808.777	17109.66
809.107	16992.83
809.436	17023.79
809.766	17030.12
810.096	16842.55
810.426	16821.99
810.755	16772.27
811.085	16728.88
811.414	16757.81
811.744	16619.51
812.073	16573.63
812.403	16502.9
812.732	16502
813.061	16522.11
813.39	16300.19
813.719	16315.79
814.049	16410.25
814.378	16410.02
814.707	16229.46
815.036	16279.18
815.365	16267.65
815.693	16063.36
816.022	16104.94
816.351	16127.54
816.68	15919.41
817.008	16096.13
817.337	15885.74
817.665	15883.93
817.994	15892.52
818.322	15814.78
818.651	15718.29
818.979	15703.37
819.307	15770.49
819.636	15774.33
819.964	15650.49
820.292	15810.94
820.62	15665.63
820.948	15707.89
821.276	15652.53
821.604	15580.44
821.932	15621.57
822.259	15621.57
822.587	15556.48
822.915	15550.38
823.243	15520.1
823.57	15525.3
823.898	15489.82
824.225	15454.57
824.553	15446.2
824.88	15569.82
825.207	15591.51
825.535	15508.58
825.862	15524.62
826.189	15560.33
826.516	15528.01
826.843	15577.73
827.17	15576.82
827.497	15628.12
827.824	15594.22
828.151	15584.51
828.478	15561.23
828.805	15668.35
829.131	15493.66
829.458	15464.06
829.785	15406.43
830.111	15473.1
830.438	15505.64
830.764	15483.27
831.09	15481.46
831.417	15377.05
831.743	15496.37
832.069	15488.24
832.395	15376.15
832.722	15460.21
833.048	15410.05
833.374	15424.96
833.7	15360.78
834.026	15377.73
834.351	15373.66
834.677	15369.6
835.003	15389.48
835.329	15344.51
835.654	15436.26
835.98	15243.27
836.306	15224.29
836.631	15221.58
836.956	15161.69
837.282	15254.34
837.607	15215.7
837.932	15209.83
838.258	15115.59
838.583	15024.75
838.908	15073.78
839.233	15067
839.558	15030.4
839.883	14985.65
840.208	14953.11
840.533	14916.5
840.858	14874.47
841.182	14891.87
841.507	14873.79
841.832	14888.25
842.156	14854.13
842.481	14814.58
842.805	14694.36
843.13	14697.07
843.454	14739.33
843.778	14550.41
844.103	14532.1
844.427	14574.14
844.751	14546.79
845.075	14534.36
845.399	14468.15
845.723	14420.92
846.047	14413.91
846.371	14230.19
846.695	14316.52
847.019	14161.27
847.343	14133.7
847.666	14031.55
847.99	14003.08
848.313	14036.75
848.637	13918.33
848.96	13865.45
849.284	13790.43
849.607	13784.78
849.931	13592.24
850.254	13617.33
850.577	13479.48
850.9	13437.9
851.223	13447.61
851.546	13354.28
851.869	13353.15
852.192	13355.41
852.515	13293.72
852.838	13076.77
853.161	13148.19
853.483	13126.49
853.806	12917.46
854.129	13039.49
854.451	12933.05
854.774	12892.82
855.096	12870.9
855.419	12900.96
855.741	12868.42
856.063	12759.5
856.385	12768.76
856.708	12685.37
857.03	12656.45
857.352	12652.15
857.674	12596.79
857.996	12510.01
858.318	12500.97
858.64	12537.81
858.961	12425.49
859.283	12427.53
859.605	12366.06
859.926	12379.39
860.248	12327.87
860.57	12252.62
860.891	12226.63
861.212	12213.97
861.534	12101.21
861.855	12143.01
862.176	12147.31
862.498	12122.9
862.819	12127.87
863.14	12032.73
863.461	12114.99
863.782	12074.99
864.103	12030.7
864.424	11932.62
864.745	11991.83
865.065	11889.69
865.386	11894.88
865.707	11898.05
866.027	11821.44
866.348	11922
866.668	11828.22
866.989	11816.92
867.309	11742.57
867.63	11819.18
867.95	11707.55
868.27	11659.64
868.59	11636.13
868.91	11624.84
869.23	11608.34
869.55	11576.93
869.87	11632.29
870.19	11603.82
870.51	11511.17
870.83	11577.38
871.15	11500.32
871.469	11557.27
871.789	11532.18
872.109	11486.99
872.428	11420.32
872.748	11421.23
873.067	11366.76
873.386	11434.11
873.706	11338.06
874.025	11413.32
874.344	11272.75
874.663	11371.73
874.982	11344.16
875.301	11300.1
875.62	11266.43
875.939	11187.33
876.258	11236.37
876.577	11132.65
876.896	11190.72
877.214	11127.22
877.533	11205.64
877.852	11123.83
878.17	11154.79
878.489	11098.75
878.807	11090.16
879.125	11053.33
879.444	10984.4
879.762	11007.68
880.08	10991.18
880.398	10925.42
880.716	11032.31
881.034	10932.42
881.352	10962.25
881.67	10896.04
881.988	10879.54
882.306	10868.02
882.624	10871.86
882.941	10743.95
883.259	10770.17
883.577	10692.88
883.894	10746.89
884.212	10689.94
884.529	10675.03
884.846	10597.07
885.164	10582.6
885.481	10576.5
885.798	10618.08
886.115	10536.73
886.432	10482.27
886.75	10466.67
887.067	10491.98
887.383	10400.24
887.7	10475.26
888.017	10394.13
888.334	10337.41
888.651	10416.96
888.967	10348.03
889.284	10220.35
889.6	10229.39
889.917	10194.82
890.233	10206.79
890.55	10117.08
890.866	10201.37
891.182	10096.06
891.498	10092.45
891.815	10049.96
892.131	10051.77
892.447	9958.89
892.763	9928.83
893.079	9932.9
893.395	9849.74
893.71	9834.6
894.026	9887.93
894.342	9756.18
894.657	9726.13
894.973	9795.96
895.289	9730.2
895.604	9778.56
895.92	9546.25
896.235	9550.77
896.55	9560.26
896.865	9620.82
897.181	9559.81
897.496	9622.4
897.811	9507.15
898.126	9466.7
898.441	9379.7
898.756	9349.19
899.071	9253.82
899.386	9308.74
899.7	9225.35
900.015	9192.36
900.33	9104.45
900.644	9076.43
900.959	9196.2
901.273	9137.67
901.588	9030.55
901.902	8967.5
902.216	9005.47
902.531	8918.92
902.845	8943.1
903.159	8880.5
903.473	8821.29
903.787	8817.68
904.101	8818.58
904.415	8807.96
904.729	8739.26
905.042	8646.83
905.356	8653.61
905.67	8563.45
905.984	8641.86
906.297	8573.16
906.611	8552.83
906.924	8560.96
907.237	8476.9
907.551	8410.23
907.864	8419.72
908.177	8396.67
908.491	8330.23
908.804	8336.79
909.117	8258.37
909.43	8233.74
909.743	8199.39
910.056	8168.88
910.368	8096.34
910.681	8112.84
910.994	8043.01
911.307	8029.22
911.619	7985.38
911.932	7991.48
912.244	7899.06
912.557	7927.76
912.869	7866.74
913.181	7865.39
913.494	7831.26
913.806	7758.72
914.118	7756.91
914.43	7712.4
914.742	7672.17
915.054	7626.07
915.366	7573.87
915.678	7610.25
915.99	7584.72
916.302	7541.1
916.613	7454.1
916.925	7441.89
917.236	7412.97
917.548	7426.3
917.859	7417.26
918.171	7288
918.482	7301.33
918.794	7235.8
919.105	7263.82
919.416	7202.13
919.727	7184.27
920.038	7143.82
920.349	7117.16
920.66	7096.59
920.971	7083.94
921.282	7076.25
921.593	7062.92
921.903	6933.66
922.214	6935.47
922.525	6920.78
922.835	6882.59
923.146	6804.85
923.456	6859.99
923.767	6790.61
924.077	6809.82
924.387	6763.27
924.697	6688.69
925.008	6638.07
925.318	6684.17
925.628	6647.57
925.938	6628.13
926.248	6575.7
926.558	6491.41
926.867	6492.54
927.177	6485.54
927.487	6470.17
927.796	6380.91
928.106	6384.07
928.416	6331.64
928.725	6384.97
929.034	6361.47
929.344	6314.01
929.653	6265.43
929.962	6209.38
930.271	6214.13
930.581	6180.23
930.89	6139.78
931.199	6084.64
931.508	6122.38
931.817	6057.07
932.125	6108.6
932.434	6062.95
932.743	6000.58
933.051	5939.56
933.36	5906.79
933.669	5925.1
933.977	5828.15
934.286	5893.46
934.594	5900.24
934.902	5813.24
935.21	5791.99
935.519	5799
935.827	5756.52
936.135	5690.98
936.443	5663.64
936.751	5682.17
937.059	5662.96
937.367	5603.52
937.674	5629.96
937.982	5621.15
938.29	5547.26
938.597	5565.33
938.905	5477.2
939.213	5437.65
939.52	5442.4
939.827	5441.04
940.135	5408.28
940.442	5376.86
940.749	5361.72
941.056	5349.97
941.363	5324.44
941.67	5320.82
941.977	5246.92
942.284	5249.41
942.591	5241.95
942.898	5186.36
943.205	5213.48
943.511	5158.34
943.818	5148.17
944.125	5122.86
944.431	5085.57
944.738	5063.88
945.044	5070.21
945.35	5013.48
945.657	5001.51
945.963	4972.13
946.269	4960.15
946.575	4931.23
946.881	4930.32
947.187	4908.18
947.493	4874.5
947.799	4904.56
948.105	4816.88
948.41	4836.99
948.716	4754.96
949.022	4801.51
949.327	4724
949.633	4713.83
949.938	4700.95
950.244	4688.97
950.549	4655.3
950.854	4670.22
951.16	4598.58
951.465	4647.17
951.77	4595.64
952.075	4541.86
952.38	4557.45
952.685	4550.22
952.99	4509.99
953.294	4466.83
953.599	4471.8
953.904	4472.48
954.209	4441.52
954.513	4423.67
954.818	4380.73
955.122	4372.6
955.426	4364.91
955.731	4348.64
956.035	4307.97
956.339	4269.55
956.643	4300.06
956.948	4262.54
957.252	4234.97
957.556	4221.64
957.86	4202.66
958.163	4207.63
958.467	4157.01
958.771	4141.42
959.075	4131.47
959.378	4077.24
959.682	4115.2
959.985	4093.06
960.289	4089.89
960.592	4055.32
960.896	3997.92
961.199	4051.02
961.502	3994.75
961.805	3952.95
962.108	3952.27
962.411	3917.02
962.714	3895.32
963.017	3885.83
963.32	3919.95
963.623	3862.1
963.926	3866.17
964.228	3858.03
964.531	3792.05
964.833	3776.68
965.136	3780.07
965.438	3743.69
965.741	3733.74
966.043	3743.23
966.345	3719.96
966.648	3714.08
966.95	3704.14
967.252	3668.66
967.554	3646.97
967.856	3685.61
968.158	3647.64
968.46	3595.44
968.761	3576.01
969.063	3539.17
969.365	3563.35
969.666	3556.35
969.968	3496.01
970.269	3553.41
970.571	3510.47
970.872	3461.89
971.174	3478.61
971.475	3414.43
971.776	3458.95
972.077	3424.83
972.378	3420.76
972.679	3371.27
972.98	3382.57
973.281	3374.88
973.582	3351.83
973.883	3330.14
974.183	3325.62
974.484	3286.52
974.785	3252.85
975.085	3262.57
975.386	3263.7
975.686	3231.84
975.986	3234.1
976.287	3195.45
976.587	3188.67
976.887	3158.62
977.187	3176.92
977.487	3203.14
977.787	3161.56
978.087	3143.93
978.387	3096.02
978.687	3113.42
978.987	3060.99
979.286	3020.77
979.586	3059.41
979.885	3036.36
980.185	3018.51
980.484	2999.53
980.784	3037.04
981.083	3015.12
981.382	2976.93
981.682	2948.23
981.981	2960.43
982.28	2935.12
982.579	2939.41
982.878	2930.83
983.177	2893.54
983.475	2885.18
983.774	2864.84
984.073	2880.21
984.372	2795.01
984.67	2852.64
984.969	2821.9
985.267	2797.72
985.566	2787.33
985.864	2795.46
986.162	2802.24
986.461	2766.09
986.759	2723.37
987.057	2738.97
987.355	2719.08
987.653	2759.31
987.951	2738.29
988.249	2694.22
988.547	2706.65
988.844	2659.87
989.142	2658.52
989.44	2616.48
989.737	2623.94
990.035	2609.03
990.332	2605.86
990.63	2574.9
990.927	2598.41
991.224	2543.94
991.521	2529.48
991.819	2525.87
992.116	2527
992.413	2511.18
992.71	2521.35
993.006	2509.14
993.303	2502.14
993.6	2497.39
993.897	2463.04
994.193	2454.68
994.49	2452.42
994.787	2411.07
995.083	2416.26
995.379	2394.12
995.676	2374.46
995.972	2363.84
996.268	2360.22
996.565	2359.32
996.861	2362.48
997.157	2303.27
997.453	2283.84
997.749	2277.28
998.044	2267.57
998.34	2254.91
998.636	2295.14
998.932	2266.66
999.227	2251.52
999.523	2236.83
999.818	2206.33
1000.114	2202.71
1000.409	2161.13
1000.704	2188.7
1001	2219.21
1001.295	2161.58
1001.59	2157.06
1001.885	2142.6
1002.18	2108.7
1002.475	2138.08
1002.77	2109.61
1003.065	2102.6
1003.359	2077.06
1003.654	2063.96
1003.949	2064.41
1004.243	2044.3
1004.538	2012.43
1004.832	2066.67
1005.127	2023.05
1005.421	2016.05
1005.715	2007.24
1006.009	1976.73
1006.304	1967.91
1006.598	1930.18
1006.892	1920.91
1007.186	1908.03
1007.48	1924.53
1007.773	1883.62
1008.067	1889.5
1008.361	1892.89
1008.655	1889.5
1008.948	1870.06
1009.242	1858.31
1009.535	1848.14
1009.829	1834.81
1010.122	1827.13
1010.415	1812.44
1010.708	1816.05
1011.001	1800.91
1011.295	1770.18
1011.588	1738.99
1011.881	1767.02
1012.173	1758.2
1012.466	1737.86
1012.759	1746.9
1013.052	1735.6
1013.344	1736.06
1013.637	1713.91
1013.93	1715.27
1014.222	1670.97
1014.514	1665.78
1014.807	1672.1
1015.099	1648.15
1015.391	1620.58
1015.683	1652.89
1015.976	1646.57
1016.268	1603.86
1016.56	1581.26
1016.851	1576.74
1017.143	1595.04
1017.435	1569.96
1017.727	1553.01
1018.018	1549.85
1018.31	1553.69
1018.602	1530.86
1018.893	1519.56
1019.185	1515.95
1019.476	1510.75
1019.767	1508.94
1020.058	1482.73
1020.35	1464.2
1020.641	1494.03
1020.932	1455.84
1021.223	1430.53
1021.514	1442.28
1021.804	1411.32
1022.095	1398.89
1022.386	1399.79
1022.677	1379.68
1022.967	1374.48
1023.258	1400.7
1023.548	1385.33
1023.839	1362.51
1024.129	1367.25
1024.419	1340.81
1024.709	1333.13
1025	1350.3
1025.29	1309.17
1025.58	1317.08
1025.87	1305.33
1026.16	1308.95
1026.449	1293.13
1026.739	1301.94
1027.029	1275.73
1027.319	1268.27
1027.608	1252.45
1027.898	1254.71
1028.187	1233.92
1028.477	1209.29
1028.766	1238.67
1029.055	1192.57
1029.344	1225.11
1029.634	1170.87
1029.923	1174.71
1030.212	1168.84
1030.501	1197.54
1030.79	1152.12
1031.078	1142.85
1031.367	1153.47
1031.656	1144.21
1031.945	1132.23
1032.233	1149.4
1032.522	1104.66
1032.81	1132
1033.099	1112.34
1033.387	1090.65
1033.675	1084.1
1033.963	1072.57
1034.251	1065.79
1034.54	1042.06
1034.828	1067.15
1035.116	1058.56
1035.403	1067.6
1035.691	1056.53
1035.979	1036.19
1036.267	1002.06
1036.554	997.09
1036.842	1024.44
1037.129	1014.95
1037.417	1012.91
1037.704	998.9
1037.992	994.83
1038.279	1001.61
1038.566	999.13
1038.853	999.13
1039.14	999.13
