Data from hue_70_FLMS001491_66.txt Node
Date: Mon Feb 06 15:21:16 GMT 2017
User: dcchb
Spectrometer: FLMS00149
Trigger mode: 0
Integration Time (sec): 2.000000E-2
Scans to average: 10
Electric dark correction enabled: true
Nonlinearity correction enabled: false
Boxcar width: 0
XAxis mode: Wavelengths
Number of Pixels in Spectrum: 2048
>>>>>Begin Spectral Data<<<<<
341.393	-14.65
341.776	-14.65
342.16	-14.65
342.543	-57.58
342.927	-58.94
343.31	-72.27
343.693	-63.68
344.077	-57.81
344.46	-49.45
344.843	-63.68
345.226	-36.79
345.61	-19.39
345.993	-13.52
346.376	-18.49
346.759	21.74
347.142	34.17
347.525	35.07
347.908	58.35
348.291	64.45
348.674	80.04
349.057	101.28
349.44	139.47
349.823	166.37
350.206	141.51
350.588	179.7
350.971	213.6
351.354	222.18
351.737	240.26
352.119	244.1
352.502	277.55
352.884	259.02
353.267	275.97
353.65	277.55
354.032	284.78
354.414	303.99
354.797	316.87
355.179	320.71
355.562	312.35
355.944	304.67
356.326	332.46
356.709	332.91
357.091	340.37
357.473	328.4
357.855	354.16
358.238	338.79
358.62	339.69
359.002	340.15
359.384	347.15
359.766	333.59
360.148	334.27
360.53	343.08
360.912	332.24
361.294	344.89
361.676	347.15
362.057	333.37
362.439	321.16
362.821	312.58
363.203	309.41
363.584	334.04
363.966	314.61
364.348	329.3
364.729	331.11
365.111	320.49
365.493	322.52
365.874	327.94
366.256	322.52
366.637	306.93
367.019	317.1
367.4	304.44
367.781	315.06
368.163	292.01
368.544	311.67
368.925	317.1
369.306	308.51
369.688	304.67
370.069	316.19
370.45	315.06
370.831	307.38
371.212	304.67
371.593	311.67
371.974	286.14
372.355	323.2
372.736	305.8
373.117	324.1
373.498	313.03
373.879	306.7
374.26	312.12
374.641	320.03
375.021	316.87
375.402	322.97
375.783	327.94
376.163	322.52
376.544	319.13
376.925	308.51
377.305	333.59
377.686	320.94
378.066	302.86
378.447	341.05
378.827	329.53
379.208	341.05
379.588	334.95
379.968	339.47
380.349	333.37
380.729	321.16
381.109	335.17
381.489	323.42
381.87	331.79
382.25	313.93
382.63	318.68
383.01	318.68
383.39	351.67
383.77	343.31
384.15	337.21
384.53	348.96
384.91	356.64
385.29	350.99
385.67	340.37
386.049	341.05
386.429	352.12
386.809	354.84
387.189	331.11
387.568	337.66
387.948	329.98
388.328	355.06
388.707	332.91
389.087	334.95
389.466	362.97
389.846	364.1
390.225	340.82
390.605	361.39
390.984	338.56
391.363	370.43
391.743	346.7
392.122	341.73
392.501	363.2
392.881	362.29
393.26	382.41
393.639	367.94
394.018	376.76
394.397	356.64
394.776	351.22
395.155	360.48
395.534	348.73
395.913	393.48
396.292	373.14
396.671	392.12
397.05	356.64
397.429	379.92
397.808	367.04
398.186	361.39
398.565	358.68
398.944	383.76
399.323	370.2
399.701	369.3
400.08	378.34
400.458	368.17
400.837	399.81
401.215	402.74
401.594	401.16
401.972	383.76
402.351	398.9
402.729	379.92
403.107	400.26
403.486	396.64
403.864	398.22
404.242	401.39
404.62	388.96
404.999	399.35
405.377	400.48
405.755	421.05
406.133	421.73
406.511	399.13
406.889	384.89
407.267	385.79
407.645	428.96
408.023	417.21
408.401	440.93
408.779	389.18
409.156	417.66
409.534	404.78
409.912	452.23
410.29	438
410.667	441.16
411.045	438.67
411.422	438
411.8	430.54
412.178	448.84
412.555	427.6
412.933	435.96
413.31	454.27
413.687	466.7
414.065	451.78
414.442	485.45
414.819	439.13
415.197	463.08
415.574	483.65
415.951	454.95
416.328	469.63
416.705	479.35
417.082	480.71
417.46	491.1
417.837	468.96
418.214	467.37
418.591	496.07
418.967	483.65
419.344	481.16
419.721	519.12
420.098	498.56
420.475	507.6
420.852	530.42
421.228	520.03
421.605	506.02
421.982	515.74
422.358	502.4
422.735	533.59
423.111	525.9
423.488	519.58
423.864	522.29
424.241	548.95
424.617	543.76
424.994	544.21
425.37	537.2
425.746	547.82
426.123	536.75
426.499	549.18
426.875	562.97
427.251	546.02
427.627	566.81
428.003	566.13
428.379	562.51
428.756	540.14
429.132	569.29
429.507	582.17
429.883	604.32
430.259	582.17
430.635	581.95
431.011	566.58
431.387	616.98
431.763	600.48
432.138	591.44
432.514	604.09
432.89	593.47
433.265	649.97
433.641	626.24
434.016	630.31
434.392	628.73
434.767	649.97
435.143	663.08
435.518	662.17
435.894	650.19
436.269	657.43
436.644	648.16
437.02	653.81
437.395	654.71
437.77	697.88
438.145	677.31
438.52	709.18
438.895	700.14
439.271	701.04
439.646	723.41
440.021	716.63
440.395	697.2
440.77	722.74
441.145	703.3
441.52	731.32
441.895	744.66
442.27	742.62
442.645	746.01
443.019	730.42
443.394	756.63
443.769	755.05
444.143	747.14
444.518	752.11
444.892	755.05
445.267	753.24
445.641	738.33
446.016	776.29
446.39	789.85
446.764	777.88
447.139	795.28
447.513	800.02
447.887	782.39
448.262	821.72
448.636	808.16
449.01	797.76
449.384	816.29
449.758	809.06
450.132	825.33
450.506	831.88
450.88	825.78
451.254	830.3
451.628	843.18
452.002	863.97
452.376	833.69
452.75	852.68
453.123	884.31
453.497	884.54
453.871	872.34
454.244	913.69
454.618	914.59
454.992	907.14
455.365	914.59
455.739	945.55
456.112	919.11
456.486	951.43
456.859	913.24
457.232	985.55
457.606	972.9
457.979	975.61
458.352	997.3
458.725	1004.31
459.099	1012.67
459.472	1015.38
459.845	1027.13
460.218	1040.02
460.591	1048.15
460.964	1063.29
461.337	1075.49
461.71	1110.52
462.083	1116.85
462.456	1109.39
462.829	1134.93
463.201	1120.24
463.574	1157.3
463.947	1151.2
464.32	1191.42
464.692	1213.12
465.065	1208.6
465.438	1246.79
465.81	1243.4
466.183	1257.18
466.555	1310.97
466.928	1320.69
467.3	1308.71
467.672	1308.26
468.045	1345.09
468.417	1373.11
468.789	1381.25
469.161	1429.84
469.534	1449.04
469.906	1450.63
470.278	1474.35
470.65	1504.41
471.022	1535.6
471.394	1575.14
471.766	1608.81
472.138	1621.47
472.51	1660.11
472.882	1690.39
473.253	1741.69
473.625	1743.27
473.997	1800.9
474.369	1829.6
474.74	1877.28
475.112	1908.47
475.484	1982.14
475.855	1996.6
476.227	2048.12
476.598	2072.76
476.97	2130.16
477.341	2211.06
477.713	2242.92
478.084	2273.88
478.455	2357.95
478.827	2384.61
479.198	2492.86
479.569	2546.19
479.94	2620.31
480.311	2731.95
480.682	2802.45
481.053	2837.03
481.424	2930.36
481.795	2994.99
482.166	3067.08
482.537	3184.14
482.908	3288.54
483.279	3342.1
483.65	3450.8
484.021	3551.36
484.391	3636.33
484.762	3721.07
485.133	3848.08
485.503	3909.54
485.874	4068.64
486.244	4138.46
486.615	4266.37
486.985	4380.49
487.356	4512.01
487.726	4603.31
488.097	4763.31
488.467	4858.9
488.837	4992.23
489.207	5113.13
489.578	5257.98
489.948	5400.35
490.318	5499.78
490.688	5563.74
491.058	5789.27
491.428	5858.42
491.798	6007.34
492.168	6272.42
492.538	6325.53
492.908	6446.65
493.278	6622.69
493.648	6695.01
494.017	6890.03
494.387	6994.66
494.757	7205.73
495.126	7327.08
495.496	7350.36
495.866	7508.09
496.235	7702.66
496.605	7835.77
496.974	7922.09
497.344	8039.38
497.713	8215.19
498.082	8390.56
498.452	8529.08
498.821	8623.09
499.19	8726.14
499.559	8890.66
499.928	9022.63
500.298	9148.5
500.667	9263.08
501.036	9322.06
501.405	9533.13
501.774	9612.44
502.143	9793.91
502.512	9774.93
502.88	10061.47
503.249	10093.11
503.618	10231.41
503.987	10320.9
504.356	10430.73
504.724	10562.7
505.093	10594.34
505.462	10686.54
505.83	10863.94
506.199	10986.42
506.567	11154.55
506.936	11244.94
507.304	11412.62
507.672	11511.38
508.041	11547.99
508.409	11663.01
508.777	11793.86
509.145	11917.47
509.514	11991.37
509.882	12117.92
510.25	12208.76
510.618	12316.33
510.986	12344.12
511.354	12564.01
511.722	12676.55
512.09	12795.86
512.458	12768.75
512.826	12984.79
513.193	13122.64
513.561	13114.05
513.929	13198.34
514.297	13364.66
514.664	13426.58
515.032	13572.34
515.4	13679
515.767	13684.65
516.135	13914.25
516.502	13829.51
516.869	14110.63
517.237	14152.44
517.604	14000.58
517.972	14303.62
518.339	14358.08
518.706	14371.42
519.073	14564.63
519.44	14617.74
519.808	14810.27
520.175	14811.86
520.542	14981.12
520.909	14995.13
521.276	15001.46
521.643	15223.37
522.009	15264.73
522.376	15483.93
522.743	15544.94
523.11	15561.22
523.477	15721.21
523.843	15766.63
524.21	15974.31
524.577	16039.17
524.943	16163.69
525.31	16156.23
525.676	16273.51
526.043	16377.24
526.409	16459.5
526.776	16541.08
527.142	16555.09
527.508	16746.27
527.874	16817.45
528.241	16878.47
528.607	16848.19
528.973	17092.25
529.339	17083.89
529.705	17189.87
530.071	17318.46
530.437	17339.7
530.803	17481.62
531.169	17469.19
531.535	17449.3
531.901	17538.11
532.267	17669.41
532.632	17752.8
532.998	17776.3
533.364	17748.28
533.73	17781.72
534.095	17945.79
534.461	18003.41
534.826	18063.52
535.192	18130.64
535.557	18194.37
535.923	18258.09
536.288	18231.88
536.653	18303.29
537.019	18233.46
537.384	18323.18
537.749	18317.53
538.114	18267.13
538.479	18341.48
538.845	18421.7
539.21	18401.37
539.575	18421.7
539.94	18418.77
540.305	18588.71
540.67	18478.2
541.034	18611.3
541.399	18571.31
541.764	18705.77
542.129	18684.07
542.494	18679.78
542.858	18726.33
543.223	18707.57
543.587	18773.79
543.952	18826.21
544.316	18833.22
544.681	18804.29
545.045	18898.08
545.41	18918.19
545.774	18978.53
546.138	18869.15
546.503	18952.31
546.867	18830.28
547.231	19055.59
547.595	18997.06
547.959	19000.67
548.324	19034.57
548.688	19077.28
549.052	19124.74
549.416	19087
549.779	19091.07
550.143	19051.07
550.507	19283.38
550.871	19284.96
551.235	19260.33
551.599	19328.57
551.962	19316.82
552.326	19322.25
552.689	19439.53
553.053	19286.99
553.417	19421.23
553.78	19569.7
554.143	19454.22
554.507	19546.2
554.87	19603.82
555.234	19702.58
555.597	19604.72
555.96	19580.32
556.323	19690.37
556.686	19673.65
557.05	19734.66
557.413	19833.87
557.776	19936.24
558.139	19944.15
558.502	19959.29
558.865	19968.56
559.228	20052.62
559.59	20200.87
559.953	20174.88
560.316	20350.47
560.679	20254.43
561.041	20441.31
561.404	20447.64
561.767	20505.04
562.129	20453.06
562.492	20715.88
562.854	20602.89
563.217	20601.53
563.579	20702.32
563.941	20758.59
564.304	20884.24
564.666	20867.29
565.028	20931.92
565.39	20956.33
565.753	21096.21
566.115	21114.97
566.477	21155.19
566.839	21245.13
567.201	21273.38
567.563	21415.98
567.925	21501.4
568.287	21505.69
568.648	21434.51
569.01	21599.47
569.372	21769.19
569.734	21703.43
570.095	21807.15
570.457	21822.29
570.819	21775.29
571.18	21862.52
571.542	22023.64
571.903	22032.46
572.265	22123.75
572.626	22082.4
572.987	22136.41
573.349	22196.97
573.71	22182.06
574.071	22204.88
574.432	22292.56
574.794	22448.27
575.155	22409.4
575.516	22349.96
575.877	22416.4
576.238	22445.33
576.599	22624.31
576.96	22547.92
577.32	22638.77
577.681	22640.13
578.042	22729.39
578.403	22649.84
578.763	22761.25
579.124	22615.94
579.485	22872.66
579.845	22938.87
580.206	22829.95
580.566	22790.18
580.927	22749.95
581.287	22859.78
581.648	22843.28
582.008	23038.98
582.368	22783.62
582.728	22928.48
583.089	22887.58
583.449	22944.3
583.809	22883.96
584.169	22906.11
584.529	22907.24
584.889	23111.98
585.249	22987.69
585.609	22818.65
585.969	23063.84
586.329	22840.57
586.688	22970.06
587.048	22970.51
587.408	22999.89
587.768	22870.18
588.127	22885.32
588.487	22902.49
588.846	23008.48
589.206	22849.84
589.565	22883.06
589.925	22971.64
590.284	23035.37
590.643	22913.34
591.003	22951.53
591.362	22986.56
591.721	22901.14
592.08	23000.79
592.44	23001.25
592.799	22939.1
593.158	22921.02
593.517	23023.84
593.876	22966.22
594.235	22950.4
594.593	22913.56
594.952	23095.48
595.311	22881.25
595.67	22959.66
596.029	23132.99
596.387	23052.54
596.746	23114.69
597.104	23015.03
597.463	23111.07
597.822	23142.94
598.18	22973.9
598.538	23024.75
598.897	23175.48
599.255	22844.41
599.613	23276.49
599.972	23130.51
600.33	23264.06
600.688	23044.18
601.046	23282.14
601.404	23231.3
601.762	23262.03
602.12	23295.48
602.478	23360.11
602.836	23319.43
603.194	23205.99
603.552	23274.68
603.91	23215.48
604.268	23320.79
604.625	23248.47
604.983	23316.27
605.341	23228.81
605.698	23350.84
606.056	23398.52
606.413	23441.01
606.771	23512.87
607.128	23527.56
607.485	23345.64
607.843	23337.28
608.2	23601.23
608.557	23629.93
608.914	23474.68
609.272	23540.67
609.629	23704.05
609.986	23736.37
610.343	23493.89
610.7	23849.13
611.057	23773.65
611.414	23626.77
611.771	23783.6
612.127	23826.53
612.484	23826.99
612.841	23986.08
613.198	23877.83
613.554	23897.72
613.911	24007.77
614.267	24059.52
614.624	24092.52
614.98	24113.31
615.337	24175.45
615.693	24145.85
616.05	24147.88
616.406	24234.21
616.762	24021.78
617.118	24149.69
617.475	24160.99
617.831	24313.75
618.187	24273.3
618.543	24297.48
618.899	24430.59
619.255	24371.15
619.611	24450.25
619.967	24457.93
620.323	24444.82
620.678	24272.62
621.034	24216.35
621.39	24346.97
621.746	24312.4
622.101	24562.33
622.457	24412.28
622.812	24503.35
623.168	24502.9
623.523	24566.85
623.879	24570.7
624.234	24472.85
624.589	24635.78
624.945	24586.29
625.3	24554.65
625.655	24526.63
626.01	24591.94
626.365	24707.42
626.72	24626.29
627.075	24578.83
627.43	24590.81
627.785	24531.83
628.14	24588.1
628.495	24727.75
628.85	24616.8
629.205	24545.84
629.559	24654.99
629.914	24516.91
630.269	24601.88
630.623	24523.69
630.978	24505.61
631.332	24655.89
631.687	24620.19
632.041	24536.8
632.396	24536.8
632.75	24410.7
633.104	24589.9
633.459	24297.71
633.813	24302.68
634.167	24424.48
634.521	24383.58
634.875	24430.36
635.229	24334.54
635.583	24203.47
635.937	24275.11
636.291	24240.99
636.645	24170.93
636.999	24152.63
637.352	24226.52
637.706	24160.54
638.06	24223.81
638.413	24193.3
638.767	24239.63
639.121	24153.53
639.474	23957.83
639.828	24048
640.181	24111.95
640.534	24000.32
640.888	23899.53
641.241	23923.71
641.594	23954.44
641.947	24009.13
642.301	23912.86
642.654	23919.41
643.007	24034.89
643.36	23963.25
643.713	23775.24
644.066	23941.33
644.419	23793.99
644.771	23546.77
645.124	23440.56
645.477	23458.18
645.83	23166.44
646.182	23223.39
646.535	23037.85
646.888	23180.45
647.24	23036.5
647.593	23182.48
647.945	23025.65
648.298	23008.02
648.65	22891.19
649.002	22937.29
649.355	23084.18
649.707	22936.84
650.059	23021.58
650.411	23359.43
650.763	23377.73
651.115	23599.87
651.467	23531.4
651.819	23611.4
652.171	23530.72
652.523	23557.39
652.875	23456.83
653.227	23361.91
653.578	23523.94
653.93	23535.24
654.282	23410.73
654.633	23354.68
654.985	23440.78
655.337	23410.73
655.688	23402.36
656.039	23536.37
656.391	23258.64
656.742	23384.29
657.094	23317.4
657.445	23365.08
657.796	23390.16
658.147	23359.65
658.498	23294.35
658.849	23427.22
659.2	23330.05
659.551	23305.87
659.902	23445.98
660.253	23369.82
660.604	23350.16
660.955	23283.5
661.306	23435.13
661.656	23388.35
662.007	23343.84
662.358	23289.37
662.708	23384.06
663.059	23342.48
663.409	23348.58
663.76	23389.26
664.11	23431.74
664.461	23400.33
664.811	23330.05
665.161	23357.17
665.511	23257.06
665.862	23338.64
666.212	23448.47
666.562	23421.12
666.912	23375.25
667.262	23270.84
667.612	23377.51
667.962	23294.57
668.312	23260.22
668.662	23410.05
669.011	23258.64
669.361	23344.97
669.711	23207.12
670.06	23322.82
670.41	23206.66
670.76	23198.3
671.109	23285.98
671.459	23161.92
671.808	23189.94
672.157	23257.28
672.507	23121.02
672.856	23211.86
673.205	23064.97
673.554	23279.66
673.904	23068.59
674.253	23219.54
674.602	23158.08
674.951	22758.09
675.3	22728.03
675.649	22977.52
675.998	22912.43
676.346	23076.72
676.695	23172.77
677.044	22890.74
677.393	23022.49
677.741	23022.94
678.09	22943.85
678.438	22880.8
678.787	22846.9
679.135	22839.44
679.484	22696.39
679.832	22813.91
680.181	22654.36
680.529	22751.08
680.877	22629.96
681.225	22588.6
681.573	22641.03
681.922	22558.32
682.27	22565.55
682.618	22558.32
682.966	22437.87
683.314	22550.86
683.661	22516.96
684.009	22361.94
684.357	22249.63
684.705	22231.1
685.053	22265.9
685.4	22246.69
685.748	22156.75
686.095	22180.7
686.443	22089.41
686.79	22006.92
687.138	22021.84
687.485	22068.84
687.832	21875.17
688.18	21906.59
688.527	21850.09
688.874	21838.56
689.221	21693.48
689.568	21646.93
689.915	21724.89
690.262	21649.87
690.609	21497.78
690.956	21384.34
691.303	21407.84
691.65	21341.63
691.997	21280.39
692.344	21152.48
692.69	21089.21
693.037	21236.09
693.383	20993.39
693.73	21032.26
694.077	20976.89
694.423	20906.61
694.769	20817.12
695.116	20753.85
695.462	20804.47
695.808	20666.39
696.155	20768.54
696.501	20596.34
696.847	20505.27
697.193	20355.21
697.539	20333.97
697.885	20361.54
698.231	20207.65
698.577	20276.12
698.923	20211.94
699.269	19943.47
699.614	19866.41
699.96	19840.65
700.306	19915
700.651	19710.48
700.997	19732.63
701.342	19724.5
701.688	19597.72
702.033	19508.46
702.379	19488.57
702.724	19425.97
703.069	19455.12
703.415	19238.86
703.76	19307.11
704.105	19354.56
704.45	19143.95
704.795	19154.79
705.14	19115.92
705.485	19073.67
705.83	19004.74
706.175	18978.75
706.52	18917.29
706.865	18856.5
707.209	18809.94
707.554	18753
707.899	18745.99
708.243	18630.29
708.588	18616.28
708.932	18453.34
709.277	18426.68
709.621	18529.5
709.966	18367.7
710.31	18401.14
710.654	18243.86
710.998	18245.89
711.342	18329.73
711.687	18135.61
712.031	18110.98
712.375	18011.55
712.719	18099.68
713.063	18011.77
713.407	18057.19
713.75	17980.13
714.094	18008.83
714.438	17873.7
714.782	17860.82
715.125	17738.78
715.469	17750.54
715.812	17693.14
716.156	17605.91
716.499	17731.55
716.843	17577.89
717.186	17520.26
717.53	17636.64
717.873	17598.22
718.216	17644.55
718.559	17502.86
718.902	17462.41
719.246	17390.77
719.589	17294.95
719.932	17320.49
720.275	17280.04
720.617	17317.55
720.96	17218.35
721.303	17217.67
721.646	17232.13
721.989	17040.27
722.331	17141.96
722.674	17145.81
723.016	17179.25
723.359	17084.56
723.701	17082.31
724.044	16962.99
724.386	16896.1
724.729	17040.5
725.071	16984.68
725.413	16993.72
725.755	17001.4
726.097	16862.65
726.439	16819.94
726.782	16782.43
727.124	16967.96
727.465	16771.35
727.807	16726.61
728.149	16717.57
728.491	16752.37
728.833	16742.43
729.175	16742.43
729.516	16689.1
729.858	16684.8
730.199	16724.8
730.541	16658.14
730.882	16664.24
731.224	16689.77
731.565	16591.7
731.906	16600.06
732.248	16573.62
732.589	16531.81
732.93	16451.81
733.271	16518.93
733.612	16510.12
733.953	16518.48
734.294	16450.23
734.635	16415.2
734.976	16544.69
735.317	16476.9
735.658	16409.33
735.999	16386.28
736.339	16406.62
736.68	16446.84
737.021	16414.75
737.361	16265.83
737.702	16374.08
738.042	16352.15
738.383	16319.16
738.723	16392.38
739.063	16391.7
739.404	16308.54
739.744	16315.77
740.084	16265.83
740.424	16377.24
740.764	16338.82
741.104	16338.82
741.444	16263.12
741.784	16285.94
742.124	16252.04
742.464	16251.59
742.804	16378.14
743.143	16380.85
743.483	16351.25
743.823	16265.83
744.162	16302.21
744.502	16407.07
744.841	16359.39
745.181	16321.2
745.52	16419.05
745.86	16393.96
746.199	16457.01
746.538	16425.83
746.877	16475.09
747.216	16543.79
747.556	16524.81
747.895	16604.58
748.234	16448.2
748.573	16565.93
748.911	16554.18
749.25	16626.72
749.589	16679.6
749.928	16657.68
750.267	16756.44
750.605	16769.54
750.944	16749.88
751.283	16821.29
751.621	16966.6
751.96	16958.24
752.298	16954.4
752.636	17004.57
752.975	17071.23
753.313	17043.66
753.651	17219.02
753.989	17174.05
754.327	17250.21
754.666	17288.85
755.004	17325.91
755.342	17427.38
755.679	17433.71
756.017	17465.57
756.355	17585.57
756.693	17639.13
757.031	17787.15
757.368	17763.87
757.706	17813.13
758.044	17830.76
758.381	17905.79
758.719	17936.75
759.056	18164.76
759.394	18117.31
759.731	18027.59
760.068	18158.89
760.405	18163.41
760.743	18214.7
761.08	18339
761.417	18320.01
761.754	18453.57
762.091	18518.88
762.428	18598.65
762.765	18505.54
763.102	18641.36
763.438	18609.04
763.775	18607.24
764.112	18751.19
764.449	18768.36
764.785	18758.87
765.122	18762.26
765.458	18791.41
765.795	18862.6
766.131	18793.22
766.467	18843.16
766.804	18877.96
767.14	18856.27
767.476	18826.89
767.812	18839.1
768.148	18912.77
768.485	18875.03
768.821	18856.95
769.157	18856.04
769.492	18845.42
769.828	18835.25
770.164	18748.25
770.5	18745.99
770.836	18887.91
771.171	18790.73
771.507	18764.52
771.842	18593.9
772.178	18684.75
772.513	18700.57
772.849	18588.71
773.184	18574.92
773.519	18684.3
773.855	18555.49
774.19	18698.53
774.525	18513.45
774.86	18590.51
775.195	18576.96
775.53	18443.17
775.865	18480.46
776.2	18401.37
776.535	18230.07
776.87	18286.57
777.205	18198.21
777.539	18253.57
777.874	18292.67
778.209	18077.76
778.543	18114.59
778.878	17983.52
779.212	18039.79
779.547	17937.2
779.881	18040.25
780.215	17799.8
780.55	17849.29
780.884	17739.01
781.218	17756.86
781.552	17812
781.886	17716.41
782.22	17633.48
782.554	17529.75
782.888	17402.97
783.222	17370.43
783.556	17378.12
783.889	17269.64
784.223	17228.74
784.557	17183.32
784.89	17261.74
785.224	17135.41
785.557	17044.11
785.891	17035.98
786.224	16908.3
786.558	16865.81
786.891	16787.4
787.224	16766.16
787.557	16733.84
787.891	16645.48
788.224	16721.86
788.557	16654.75
788.89	16574.97
789.223	16529.1
789.556	16418.37
789.888	16455.65
790.221	16414.98
790.554	16312.61
790.887	16268.09
791.219	16219.95
791.552	16211.14
791.884	16087.98
792.217	16149.22
792.549	15960.3
792.882	15967.76
793.214	15849.57
793.546	15917.36
793.879	15739.74
794.211	15743.13
794.543	15750.14
794.875	15719.63
795.207	15773.41
795.539	15602.57
795.871	15577.26
796.203	15447.09
796.535	15463.59
796.867	15421.78
797.198	15347.66
797.53	15443.25
797.862	15330.94
798.193	15305.18
798.525	15178.4
798.856	15268.79
799.188	15088.91
799.519	15055.92
799.85	14932.76
800.182	15028.12
800.513	14931.4
800.844	14799.43
801.175	14855.24
801.506	14879.2
801.837	14812.99
802.168	14802.37
802.499	14638.08
802.83	14606.21
803.161	14635.82
803.491	14597.4
803.822	14576.38
804.153	14497.97
804.483	14357.4
804.814	14348.37
805.145	14243.96
805.475	14389.04
805.805	14276.96
806.136	14216.62
806.466	14197.18
806.796	14126.9
807.126	14046.68
807.457	14025.89
807.787	14008.71
808.117	13987.7
808.447	13920.13
808.777	13885.33
809.107	13922.61
809.436	13783.41
809.766	13869.51
810.096	13770.98
810.426	13759.23
810.755	13756.29
811.085	13686.24
811.414	13621.15
811.744	13499.57
812.073	13531.89
812.403	13607.14
812.732	13439.91
813.061	13407.37
813.39	13398.56
813.719	13355.17
814.049	13387.04
814.378	13345
814.707	13307.49
815.036	13250.32
815.365	13265.23
815.693	13156.53
816.022	13232.91
816.351	13088.29
816.68	12962.41
817.008	13089.64
817.337	12924.45
817.665	12922.64
817.994	12967.39
818.322	12983.66
818.651	12853.49
818.979	12809.42
819.307	12961.06
819.636	12806.71
819.964	12677.9
820.292	12856.2
820.62	12800.16
820.948	12810.55
821.276	12705.47
821.604	12813.26
821.932	12714.74
822.259	12707.5
822.587	12662.31
822.915	12671.12
823.243	12673.61
823.57	12681.74
823.898	12731.91
824.225	12583.44
824.553	12684.91
824.88	12711.8
825.207	12715.19
825.535	12627.73
825.862	12645.81
826.189	12650.11
826.516	12673.83
826.843	12655.53
827.17	12645.36
827.497	12719.93
827.824	12732.36
828.151	12683.1
828.478	12729.2
828.805	12714.06
829.131	12595.19
829.458	12615.3
829.785	12544.57
830.111	12635.19
830.438	12601.52
830.764	12714.96
831.09	12661.4
831.417	12626.6
831.743	12695.98
832.069	12712.48
832.395	12625.7
832.722	12651.46
833.048	12540.96
833.374	12594.29
833.7	12467.74
834.026	12524.91
834.351	12529.43
834.677	12551.35
835.003	12590.22
835.329	12474.29
835.654	12563.33
835.98	12349.1
836.306	12468.87
836.631	12396.78
836.956	12529.2
837.282	12429.55
837.607	12395.2
837.932	12383.22
838.258	12373.28
838.583	12313.84
838.908	12196.11
839.233	12248.99
839.558	12202.43
839.883	12162.89
840.208	12102.77
840.533	12175.54
840.858	12194.98
841.182	12169.21
841.507	12179.61
841.832	12156.78
842.156	12068.88
842.481	12107.07
842.805	12068.88
843.13	11970.35
843.454	11959.73
843.778	11924.7
844.103	11866.4
844.427	11816.45
844.751	11837.02
845.075	11844.93
845.399	11867.3
845.723	11675.89
846.047	11769.45
846.371	11588.21
846.695	11595.22
847.019	11567.65
847.343	11522.45
847.666	11390.48
847.99	11342.34
848.313	11424.6
848.637	11328.78
848.96	11268.45
849.284	11303.93
849.607	11192.52
849.931	11150.48
850.254	10998.4
850.577	10953.2
850.9	10918.85
851.223	10955.46
851.546	10877.27
851.869	10782.36
852.192	10844.5
852.515	10815.58
852.838	10743.26
853.161	10841.11
853.483	10693.55
853.806	10631.63
854.129	10609.03
854.451	10606.32
854.774	10475.47
855.096	10523.16
855.419	10505.08
855.741	10458.98
856.063	10399.77
856.385	10399.99
856.708	10247.91
857.03	10249.04
857.352	10270.28
857.674	10247.46
857.996	10197.29
858.318	10189.83
858.64	10206.55
858.961	10087.69
859.283	10081.59
859.605	10024.64
859.926	10046.33
860.248	10016.95
860.57	9936.73
860.891	9949.39
861.212	9930.63
861.534	9847.24
861.855	9898.54
862.176	9856.28
862.498	9881.14
862.819	9856.96
863.14	9793.46
863.461	9823.06
863.782	9710.3
864.103	9784.19
864.424	9674.59
864.745	9783.51
865.065	9722.27
865.386	9678.66
865.707	9648.15
866.027	9644.53
866.348	9666.68
866.668	9618.77
866.989	9522.5
867.309	9505.56
867.63	9582.16
867.95	9589.39
868.27	9503.75
868.59	9459.45
868.91	9572.67
869.23	9568.6
869.55	9443.18
869.87	9535.38
870.19	9454.48
870.51	9433.01
870.83	9412.68
871.15	9455.16
871.469	9407.7
871.789	9451.77
872.109	9342.85
872.428	9283.19
872.748	9373.81
873.067	9349.63
873.386	9291.1
873.706	9314.37
874.025	9246.13
874.344	9238.22
874.663	9223.98
874.982	9249.29
875.301	9223.08
875.62	9124.32
875.939	9160.71
876.258	9153.25
876.577	9113.25
876.896	9093.59
877.214	9075.96
877.533	9081.39
877.852	9087.71
878.17	9088.62
878.489	9045
878.807	9023.08
879.125	9033.48
879.444	8969.75
879.762	8959.35
880.08	8933.37
880.398	8931.78
880.716	8962.52
881.034	8921.16
881.352	8889.98
881.67	8847.49
881.988	8896.31
882.306	8780.83
882.624	8850.43
882.941	8805.91
883.259	8753.71
883.577	8705.35
883.894	8722.07
884.212	8695.63
884.529	8646.59
884.846	8663.09
885.164	8651.79
885.481	8642.98
885.798	8598.46
886.115	8563.21
886.432	8557.11
886.75	8551.91
887.067	8522.3
887.383	8481.4
887.7	8473.27
888.017	8393.27
888.334	8492.47
888.651	8424.23
888.967	8377
889.284	8409.31
889.6	8355.08
889.917	8325.02
890.233	8325.02
890.55	8250.9
890.866	8273.72
891.182	8199.6
891.498	8246.38
891.815	8185.59
892.131	8156.89
892.447	8192.6
892.763	8170.9
893.079	8077.8
893.395	8105.37
893.71	8057.46
894.026	8003.9
894.342	7989.89
894.657	7979.27
894.973	7966.39
895.289	7966.84
895.604	7941.98
895.92	7959.38
896.235	7828.76
896.55	7874.86
896.865	7892.94
897.181	7788.76
897.496	7790.57
897.811	7738.6
898.126	7742.21
898.441	7620.86
898.756	7653.4
899.071	7607.53
899.386	7628.99
899.7	7545.15
900.015	7528.21
900.33	7425.61
900.644	7495.21
900.959	7491.82
901.273	7463.8
901.588	7395.33
901.902	7288.21
902.216	7365.95
902.531	7338.61
902.845	7270.36
903.159	7217.48
903.473	7219.29
903.787	7191.94
904.101	7179.51
904.415	7150.14
904.729	7133.41
905.042	7069.01
905.356	7092.29
905.67	7043.47
905.984	7046.86
906.297	7033.3
906.611	6957.15
906.924	6964.83
907.237	6966.86
907.551	6900.65
907.864	6876.7
908.177	6850.48
908.491	6805.97
908.804	6746.08
909.117	6734.33
909.43	6778.17
909.743	6727.55
910.056	6649.36
910.368	6637.38
910.681	6643.48
910.994	6570.94
911.307	6535.24
911.619	6559.87
911.932	6571.62
912.244	6497.72
912.557	6450.72
912.869	6421.34
913.181	6356.94
913.494	6384.28
913.806	6401.23
914.118	6373.89
914.43	6288.01
914.742	6283.04
915.054	6269.71
915.366	6215.92
915.678	6208.01
915.99	6142.93
916.302	6102.03
916.613	6086.44
916.925	6123.05
917.236	6131.86
917.548	6068.81
917.859	6061.8
918.171	6004.63
918.482	5977.96
918.794	5994.46
919.105	5951.3
919.416	5905.88
919.727	5887.8
920.038	5892.77
920.349	5881.7
920.66	5773
920.971	5758.08
921.282	5782.26
921.593	5739.55
921.903	5687.58
922.214	5696.16
922.525	5683.28
922.835	5674.92
923.146	5644.41
923.456	5653
923.767	5582.49
924.077	5549.95
924.387	5552.66
924.697	5490.07
925.008	5474.25
925.318	5523.29
925.628	5469.96
925.938	5442.39
926.248	5425.44
926.558	5368.71
926.867	5371.2
927.177	5325.55
927.487	5300.47
927.796	5258.44
928.106	5257.53
928.416	5210.07
928.725	5241.71
929.034	5198.1
929.344	5185.89
929.653	5169.85
929.962	5137.08
930.271	5078.55
930.581	5056.18
930.89	5066.35
931.199	5072.23
931.508	5037.65
931.817	5021.38
932.125	4983.19
932.434	4980.25
932.743	4951.32
933.051	4916.98
933.36	4912.23
933.669	4870.42
933.977	4859.8
934.286	4847.6
934.594	4884.89
934.902	4771.89
935.21	4790.2
935.519	4801.5
935.827	4743.42
936.135	4703.65
936.443	4662.29
936.751	4672.69
937.059	4618.68
937.367	4657.55
937.674	4628.62
937.982	4608.51
938.29	4599.02
938.597	4589.3
938.905	4572.8
939.213	4484.67
939.52	4493.71
939.827	4520.6
940.135	4457.33
940.442	4436.76
940.749	4383.2
941.056	4438.57
941.363	4381.62
941.67	4399.02
941.977	4296.2
942.284	4310.44
942.591	4295.3
942.898	4301.4
943.205	4250.55
943.511	4278.35
943.818	4262.76
944.125	4183.44
944.431	4193.83
944.738	4187.5
945.044	4145.47
945.35	4143.89
945.657	4129.88
945.963	4077.45
946.269	4088.52
946.575	4101.18
946.881	4051.46
947.187	4064.34
947.493	4018.69
947.799	3985.47
948.105	4007.85
948.41	4015.98
948.716	3962.2
949.022	3957.45
949.327	3970.56
949.633	3922.2
949.938	3913.16
950.244	3885.59
950.549	3881.07
950.854	3816.44
951.16	3827.96
951.465	3836.78
951.77	3784.58
952.075	3756.33
952.38	3787.97
952.685	3750.9
952.99	3711.13
953.294	3721.98
953.599	3702.54
953.904	3695.31
954.209	3664.13
954.513	3669.32
954.818	3623.22
955.122	3644.92
955.426	3606.73
955.731	3584.58
956.035	3559.72
956.339	3594.98
956.643	3518.82
956.948	3497.13
957.252	3505.26
957.556	3498.03
957.86	3459.84
958.163	3486.28
958.467	3476.11
958.771	3448.09
959.075	3441.08
959.378	3416
959.682	3406.28
959.985	3349.78
960.289	3357.92
960.592	3351.59
960.896	3367.41
961.199	3344.59
961.502	3314.31
961.805	3293.97
962.108	3312.95
962.411	3259.17
962.714	3251.03
963.017	3237.25
963.32	3218.49
963.623	3224.82
963.926	3218.94
964.228	3196.12
964.531	3147.53
964.833	3136.01
965.136	3112.28
965.438	3105.72
965.741	3140.07
966.043	3164.03
966.345	3095.55
966.648	3089.45
966.95	3053.97
967.252	3058.27
967.554	3046.06
967.856	3009.68
968.158	3039.96
968.46	3017.36
968.761	2974.65
969.063	2999.06
969.365	2947.99
969.666	2969.46
969.968	2933.52
970.269	2903.24
970.571	2903.02
970.872	2884.03
971.174	2899.18
971.475	2884.03
971.776	2870.02
972.077	2861.89
972.378	2841.32
972.679	2855.11
972.98	2810.82
973.281	2794.77
973.582	2841.1
973.883	2811.27
974.183	2764.04
974.484	2769.46
974.785	2730.82
975.085	2742.12
975.386	2707.77
975.686	2738.05
975.986	2727.2
976.287	2678.84
976.587	2662.8
976.887	2673.19
977.187	2667.32
977.487	2653.98
977.787	2644.72
978.087	2623.93
978.387	2609.01
978.687	2623.7
978.987	2572.18
979.286	2576.02
979.586	2554.78
979.885	2554.33
980.185	2526.76
980.484	2520.88
980.784	2520.88
981.083	2545.51
981.382	2490.15
981.682	2484.04
981.981	2503.48
982.28	2484.72
982.579	2444.5
982.878	2496.02
983.177	2458.28
983.475	2415.8
983.774	2387.32
984.073	2394.56
984.372	2355.91
984.67	2386.65
984.969	2383.26
985.267	2355.23
985.566	2364.73
985.864	2359.98
986.162	2345.74
986.461	2312.3
986.759	2309.36
987.057	2303.03
987.355	2279.53
987.653	2290.15
987.951	2247.44
988.249	2235.46
988.547	2274.56
988.844	2245.18
989.142	2217.39
989.44	2196.14
989.737	2183.94
990.035	2200.66
990.332	2196.14
990.63	2152.08
990.927	2166.77
991.224	2123.38
991.521	2141.68
991.819	2150.04
992.116	2110.27
992.413	2104.39
992.71	2099.2
993.006	2125.86
993.303	2080.67
993.6	2094.9
993.897	2051.51
994.193	2063.72
994.49	2049.03
994.787	2049.25
995.083	2022.14
995.379	1983.49
995.676	2036.37
995.972	1999.54
996.268	1976.49
996.565	2024.17
996.861	1995.24
997.157	1974.68
997.453	1940.1
997.749	1931.52
998.044	1950.05
998.34	1942.36
998.636	1934.23
998.932	1915.47
999.227	1909.6
999.523	1883.38
999.818	1883.38
1000.114	1841.8
1000.409	1877.06
1000.704	1863.04
1001	1820.56
1001.295	1825.76
1001.59	1820.79
1001.885	1817.17
1002.18	1817.4
1002.475	1794.57
1002.77	1794.8
1003.065	1771.07
1003.359	1764.97
1003.654	1742.6
1003.949	1755.7
1004.243	1751.63
1004.538	1735.59
1004.832	1723.61
1005.127	1702.37
1005.421	1690.39
1005.715	1691.3
1006.009	1687.23
1006.304	1675.25
1006.598	1676.61
1006.892	1672.09
1007.186	1629.15
1007.48	1636.38
1007.773	1601.36
1008.067	1603.16
1008.361	1580.57
1008.655	1600.45
1008.948	1600.23
1009.242	1599.55
1009.535	1581.92
1009.829	1578.31
1010.122	1567.01
1010.415	1574.46
1010.708	1564.3
1011.001	1523.17
1011.295	1496.73
1011.588	1524.75
1011.881	1485.88
1012.173	1489.27
1012.466	1470.74
1012.759	1452.21
1013.052	1488.36
1013.344	1480.23
1013.637	1450.17
1013.93	1444.75
1014.222	1422.38
1014.514	1445.88
1014.807	1419.21
1015.099	1431.19
1015.391	1402.04
1015.683	1418.08
1015.976	1383.73
1016.268	1415.15
1016.56	1355.71
1016.851	1366.33
1017.143	1353.45
1017.435	1340.8
1017.727	1344.41
1018.018	1341.93
1018.31	1352.32
1018.602	1303.51
1018.893	1334.24
1019.185	1303.06
1019.476	1300.57
1019.767	1312.78
1020.058	1294.92
1020.35	1272.33
1020.641	1304.64
1020.932	1246.56
1021.223	1242.04
1021.514	1231.65
1021.804	1249.95
1022.095	1231.2
1022.386	1229.16
1022.677	1199.78
1022.967	1205.66
1023.258	1171.99
1023.548	1166.11
1023.839	1200.69
1024.129	1163.4
1024.419	1167.02
1024.709	1174.25
1025	1153.46
1025.29	1140.13
1025.58	1145.1
1025.87	1141.71
1026.16	1113.23
1026.449	1121.14
1026.739	1120.46
1027.029	1118.88
1027.319	1105.32
1027.608	1103.97
1027.898	1099.67
1028.187	1087.02
1028.477	1072.33
1028.766	1067.13
1029.055	1051.09
1029.344	1062.61
1029.634	1030.52
1029.923	1042.27
1030.212	1038.89
1030.501	1023.07
1030.79	1005.44
1031.078	1010.64
1031.367	1016.29
1031.656	1023.29
1031.945	986.23
1032.233	987.36
1032.522	1007.02
1032.81	984.2
1033.099	986.46
1033.387	973.58
1033.675	972.9
1033.963	952.33
1034.251	942.84
1034.54	946.46
1034.828	928.15
1035.116	945.33
1035.403	943.29
1035.691	913.01
1035.979	907.36
1036.267	891.77
1036.554	905.33
1036.842	884.09
1037.129	883.18
1037.417	900.81
1037.704	872.56
1037.992	875.05
1038.279	870.3
1038.566	881.6
1038.853	881.6
1039.14	881.6
