Data from hue_170_FLMS001491_00100.txt Node
Date: Tue Feb 07 16:49:32 GMT 2017
User: dcchb
Spectrometer: FLMS00149
Trigger mode: 0
Integration Time (sec): 2.000000E-2
Scans to average: 10
Electric dark correction enabled: true
Nonlinearity correction enabled: false
Boxcar width: 0
XAxis mode: Wavelengths
Number of Pixels in Spectrum: 2048
>>>>>Begin Spectral Data<<<<<
341.393	-7.09
341.776	-7.09
342.16	-7.09
342.543	-55.68
342.927	-69.91
343.31	-67.2
343.693	-72.17
344.077	-68.11
344.46	-44.6
344.843	-53.64
345.226	-20.42
345.61	-33.3
345.993	-29.01
346.376	2.18
346.759	17.54
347.142	26.81
347.525	27.26
347.908	42.85
348.291	84.88
348.674	91.44
349.057	95.51
349.44	112.68
349.823	139.35
350.206	153.13
350.588	195.84
350.971	204.43
351.354	225.45
351.737	227.25
352.119	258.21
352.502	247.59
352.884	268.38
353.267	293.24
353.65	294.82
354.032	284.65
354.414	302.96
354.797	314.48
355.179	311.09
355.562	337.76
355.944	321.04
356.326	346.12
356.709	339.12
357.091	327.14
357.473	332.79
357.855	338.21
358.238	341.6
358.62	319.68
359.002	349.28
359.384	337.53
359.766	355.61
360.148	349.06
360.53	349.28
360.912	337.99
361.294	322.62
361.676	330.98
362.057	318.32
362.439	355.16
362.821	324.2
363.203	335.95
363.584	314.71
363.966	333.92
364.348	333.24
364.729	315.61
365.111	311.32
365.493	316.52
365.874	321.94
366.256	309.96
366.637	287.37
367.019	289.63
367.4	319.23
367.781	327.14
368.163	316.52
368.544	319.68
368.925	328.95
369.306	309.96
369.688	308.83
370.069	311.55
370.45	302.96
370.831	306.35
371.212	321.71
371.593	304.99
371.974	316.97
372.355	321.49
372.736	320.81
373.117	312.22
373.498	302.73
373.879	319.45
374.26	327.14
374.641	304.99
375.021	299.34
375.402	329.17
375.783	304.77
376.163	318.1
376.544	308.38
376.925	330.3
377.305	320.81
377.686	332.34
378.066	325.33
378.447	323.75
378.827	313.81
379.208	318.78
379.588	329.17
379.968	304.31
380.349	326.91
380.729	344.99
381.109	335.27
381.489	322.39
381.87	317.87
382.25	306.35
382.63	334.37
383.01	338.44
383.39	311.55
383.77	352.67
384.15	349.06
384.53	354.93
384.91	350.19
385.29	344.09
385.67	343.41
386.049	365.56
386.429	321.71
386.809	325.1
387.189	354.71
387.568	367.14
387.948	347.93
388.328	358.32
388.707	374.14
389.087	349.28
389.466	349.06
389.846	339.34
390.225	375.5
390.605	374.59
390.984	358.1
391.363	355.39
391.743	362.62
392.122	378.44
392.501	366.23
392.881	352.45
393.26	377.98
393.639	371.88
394.018	370.3
394.397	359.23
394.776	363.97
395.155	376.63
395.534	390.41
395.913	383.86
396.292	368.49
396.671	390.41
397.05	368.04
397.429	382.73
397.808	376.18
398.186	382.73
398.565	380.02
398.944	380.7
399.323	394.71
399.701	394.71
400.08	388.83
400.458	384.54
400.837	397.64
401.215	409.17
401.594	405.78
401.972	418.21
402.351	425.44
402.729	407.81
403.107	417.76
403.486	433.8
403.864	430.64
404.242	418.44
404.62	420.7
404.999	408.49
405.377	422.5
405.755	417.31
406.133	435.38
406.511	448.04
406.889	448.27
407.267	428.83
407.645	436.74
408.023	438.1
408.401	442.39
408.779	437.19
409.156	452.11
409.534	447.81
409.912	470.41
410.29	474.25
410.667	465.44
411.045	482.84
411.422	488.94
411.8	473.35
412.178	503.18
412.555	515.83
412.933	495.72
413.31	493.01
413.687	496.63
414.065	513.12
414.442	513.57
414.819	510.41
415.197	526.68
415.574	543.4
415.951	533.23
416.328	531.65
416.705	554.93
417.082	554.02
417.46	551.31
417.837	573.91
418.214	556.96
418.591	562.61
418.967	579.79
419.344	563.74
419.721	603.52
420.098	609.84
420.475	602.39
420.852	588.15
421.228	593.12
421.605	613.91
421.982	627.92
422.358	619.33
422.735	615.72
423.111	636.06
423.488	647.58
423.864	644.87
424.241	662.72
424.617	671.54
424.994	683.06
425.37	676.06
425.746	671.31
426.123	674.7
426.499	708.82
426.875	686.45
427.251	712.21
427.627	722.61
428.003	730.97
428.379	745.88
428.756	728.26
429.132	759.67
429.507	738.43
429.883	749.5
430.259	763.74
430.635	767.35
431.011	790.85
431.387	811.65
431.763	810.97
432.138	799.22
432.514	814.36
432.89	793.11
433.265	823.17
433.641	831.76
434.016	844.41
434.392	849.84
434.767	896.39
435.143	872.89
435.518	893.9
435.894	915.37
436.269	923.51
436.644	923.51
437.02	922.15
437.395	965.54
437.77	950.62
438.145	990.17
438.52	980.23
438.895	997.86
439.271	1014.8
439.646	1028.14
440.021	1013.45
440.395	1041.92
440.77	1034.01
441.145	1061.81
441.52	1056.16
441.895	1053.22
442.27	1088.47
442.645	1069.72
443.019	1105.42
443.394	1116.72
443.769	1109.72
444.143	1114.91
444.518	1108.59
444.892	1111.98
445.267	1157.4
445.641	1165.99
446.016	1142.03
446.39	1183.39
446.764	1163.95
447.139	1187.45
447.513	1190.62
447.887	1213.89
448.262	1194.23
448.636	1203.05
449.01	1254.12
449.384	1249.15
449.758	1244.85
450.132	1255.25
450.506	1257.74
450.88	1263.61
451.254	1263.38
451.628	1318.52
452.002	1322.59
452.376	1332.76
452.75	1358.52
453.123	1372.08
453.497	1378.86
453.871	1380.67
454.244	1427.45
454.618	1403.49
454.992	1456.83
455.365	1419.76
455.739	1481.91
456.112	1486.2
456.486	1518.97
456.859	1507.45
457.232	1550.16
457.606	1551.74
457.979	1554
458.352	1574.79
458.725	1623.38
459.099	1627.22
459.472	1631.96
459.845	1637.16
460.218	1691.85
460.591	1702.7
460.964	1724.84
461.337	1769.59
461.71	1783.82
462.083	1805.97
462.456	1805.29
462.829	1816.14
463.201	1824.73
463.574	1872.41
463.947	1885.74
464.32	1946.98
464.692	1986.98
465.065	2005.51
465.438	2052.06
465.81	2062.01
466.183	2114.66
466.555	2113.53
466.928	2127.54
467.3	2144.94
467.672	2189.01
468.045	2260.87
468.417	2235.34
468.789	2310.59
469.161	2327.54
469.534	2357.82
469.906	2443.92
470.278	2473.3
470.65	2477.14
471.022	2533.86
471.394	2597.59
471.766	2643.24
472.138	2663.8
472.51	2712.39
472.882	2784.25
473.253	2819.73
473.625	2835.77
473.997	2992.83
474.369	2976.33
474.74	3033.96
475.112	3102.66
475.484	3150.11
475.855	3208.87
476.227	3304.24
476.598	3428.98
476.97	3456.1
477.341	3573.38
477.713	3631.91
478.084	3665.36
478.455	3807.5
478.827	3842.98
479.198	3977.66
479.569	4006.59
479.94	4163.65
480.311	4220.14
480.682	4310.31
481.053	4427.37
481.424	4524.99
481.795	4613.13
482.166	4699.68
482.537	4816.29
482.908	4964.98
483.279	5027.13
483.65	5115.94
484.021	5301.02
484.391	5381.02
484.762	5440.22
485.133	5562.25
485.503	5677.73
485.874	5804.96
486.244	5899.87
486.615	6058.51
486.985	6142.58
487.356	6326.08
487.726	6393.19
488.097	6549.12
488.467	6639.97
488.837	6815.56
489.207	6927.87
489.578	7061.65
489.948	7153.63
490.318	7284.02
490.688	7375.31
491.058	7529.89
491.428	7653.27
491.798	7752.93
492.168	7984.11
492.538	7981.63
492.908	8116.09
493.278	8253.26
493.648	8326.25
494.017	8475.62
494.387	8591.78
494.757	8663.42
495.126	8779.35
495.496	8851.21
495.866	8938.21
496.235	9006.46
496.605	9133.46
496.974	9252.33
497.344	9380.46
497.713	9458.65
498.082	9501.59
498.452	9608.7
498.821	9697.74
499.19	9789.71
499.559	9864.06
499.928	9983.61
500.298	10030.84
500.667	10096.15
501.036	10116.49
501.405	10210.04
501.774	10257.95
502.143	10370.49
502.512	10423.6
502.88	10547.43
503.249	10495.46
503.618	10611.16
503.987	10655.45
504.356	10689.13
504.724	10751.04
505.093	10839.4
505.462	10958.5
505.83	10911.94
506.199	11063.81
506.567	11050.92
506.936	11089.34
507.304	11169.57
507.672	11295.89
508.041	11336.79
508.409	11368.43
508.777	11480.52
509.145	11442.33
509.514	11495.88
509.882	11576.11
510.25	11596.9
510.618	11694.75
510.986	11711.92
511.354	11654.98
511.722	11760.96
512.09	11794.41
512.458	11867.85
512.826	12000.73
513.193	11947.17
513.561	12028.07
513.929	12077.79
514.297	12118.69
514.664	12157.56
515.032	12122.76
515.4	12202.08
515.767	12279.82
516.135	12303.09
516.502	12157.34
516.869	12337.44
517.237	12384.45
517.604	12341.74
517.972	12414.73
518.339	12468.29
518.706	12387.84
519.073	12452.7
519.44	12486.59
519.808	12572.01
520.175	12442.75
520.542	12561.84
520.909	12642.97
521.276	12560.49
521.643	12720.26
522.009	12721.16
522.376	12694.95
522.743	12749.64
523.11	12766.36
523.477	12982.85
523.843	12866.24
524.21	12965.9
524.577	12950.08
524.943	13005
525.31	12985.79
525.676	13091.55
526.043	13096.97
526.409	13062.4
526.776	13170.19
527.142	13119.12
527.508	13155.95
527.874	13215.16
528.241	13190.53
528.607	13134.26
528.973	13200.02
529.339	13201.15
529.705	13265.78
530.071	13243.86
530.437	13217.87
530.803	13182.85
531.169	13241.15
531.535	13139.46
531.901	13160.7
532.267	13172.22
532.632	13154.15
532.998	13142.62
533.364	13198.21
533.73	13181.49
534.095	13143.75
534.461	13091.32
534.826	13196.86
535.192	13107.37
535.557	13089.29
535.923	13059.23
536.288	13057.2
536.653	13033.7
537.019	12896.98
537.384	12934.49
537.749	12929.29
538.114	12837.54
538.479	12873.7
538.845	12816.08
539.21	12795.51
539.575	12755.06
539.94	12712.35
540.305	12796.64
540.67	12698.11
541.034	12719.58
541.399	12569.75
541.764	12562.97
542.129	12581.51
542.494	12538.12
542.858	12534.27
543.223	12486.59
543.587	12430.55
543.952	12379.02
544.316	12343.55
544.681	12283.89
545.045	12195.75
545.41	12331.12
545.774	12222.87
546.138	12181.06
546.503	12134.96
546.867	12037.34
547.231	12134.74
547.595	12065.36
547.959	12032.82
548.324	11969.54
548.688	11934.06
549.052	11880.73
549.416	11925.93
549.779	11883.9
550.143	11782.43
550.507	11816.55
550.871	11836.67
551.235	11685.94
551.599	11696.33
551.962	11687.07
552.326	11629.67
552.689	11612.49
553.053	11572.27
553.417	11457.92
553.78	11670.12
554.143	11520.29
554.507	11493.4
554.87	11488.2
555.234	11513.96
555.597	11436.45
555.96	11424.7
556.323	11422.21
556.686	11367.53
557.05	11344.48
557.413	11372.95
557.776	11313.97
558.139	11351.71
558.502	11283.23
558.865	11270.35
559.228	11317.81
559.59	11282.33
559.953	11294.53
560.316	11329.11
560.679	11237.81
561.041	11303.12
561.404	11241.2
561.767	11281.2
562.129	11269.68
562.492	11311.93
562.854	11292.95
563.217	11243.91
563.579	11224.93
563.941	11288.88
564.304	11249.79
564.666	11353.06
565.028	11357.13
565.39	11308.54
565.753	11312.84
566.115	11281.43
566.477	11349
566.839	11327.3
567.201	11349.67
567.563	11318.04
567.925	11370.69
568.287	11366.85
568.648	11354.87
569.01	11401.65
569.372	11419.95
569.734	11403.46
570.095	11346.51
570.457	11384.25
570.819	11439.16
571.18	11382.21
571.542	11406.39
571.903	11402.1
572.265	11463.57
572.626	11429.9
572.987	11407.52
573.349	11478.03
573.71	11454.08
574.071	11482.33
574.432	11495.43
574.794	11491.14
575.155	11443.68
575.516	11482.78
575.877	11457.24
576.238	11492.49
576.599	11480.07
576.96	11468.31
577.32	11574.07
577.681	11546.96
578.042	11542.21
578.403	11492.49
578.763	11486.62
579.124	11479.39
579.485	11506.96
579.845	11573.4
580.206	11508.31
580.566	11487.97
580.927	11537.24
581.287	11534.98
581.648	11485.49
582.008	11529.78
582.368	11488.2
582.728	11401.2
583.089	11493.17
583.449	11464.02
583.809	11434.19
584.169	11460.4
584.529	11373.63
584.889	11461.53
585.249	11433.96
585.609	11341.99
585.969	11461.99
586.329	11405.04
586.688	11322.78
587.048	11319.39
587.408	11307.19
587.768	11338.37
588.127	11308.54
588.487	11310.8
588.846	11403.01
589.206	11271.03
589.565	11236.91
589.925	11241.88
590.284	11285.72
590.643	11238.26
591.003	11292.73
591.362	11227.42
591.721	11196.46
592.08	11270.81
592.44	11287.75
592.799	11230.58
593.158	11210.69
593.517	11203.69
593.876	11263.35
594.235	11213.18
594.593	11142.45
594.952	11169.11
595.311	11097.7
595.67	11153.29
596.029	11220.86
596.387	11182.9
596.746	11239.39
597.104	11175.21
597.463	11115.78
597.822	11080.08
598.18	11016.35
598.538	11091.15
598.897	11149.68
599.255	11096.57
599.613	11139.28
599.972	11168.21
600.33	11128.44
600.688	11094.99
601.046	11166.63
601.404	11187.87
601.762	11076.91
602.12	11201.65
602.478	11144.71
602.836	11147.42
603.194	11105.39
603.552	11119.62
603.91	11082.79
604.268	11177.7
604.625	11040.75
604.983	11089.79
605.341	11036.69
605.698	11126.18
606.056	11173.63
606.413	11107.65
606.771	11144.93
607.128	11158.27
607.485	11041.21
607.843	11091.15
608.2	11147.42
608.557	11179.28
608.914	11110.36
609.272	11189
609.629	11200.52
609.986	11181.32
610.343	11164.59
610.7	11171.6
611.057	11210.02
611.414	11180.41
611.771	11151.26
612.127	11245.72
612.484	11196.68
612.841	11170.92
613.198	11239.39
613.554	11231.26
613.911	11291.14
614.267	11294.53
614.624	11235.55
614.98	11277.81
615.337	11336.57
615.693	11333.85
616.05	11337.92
616.406	11340.86
616.762	11267.19
617.118	11226.74
617.475	11265.16
617.831	11300.41
618.187	11360.52
618.543	11229.45
618.899	11392.84
619.255	11356.9
619.611	11316.23
619.967	11339.73
620.323	11381.31
620.678	11323.69
621.034	11299.96
621.39	11352.16
621.746	11296.79
622.101	11494.75
622.457	11318.26
622.812	11345.38
623.168	11362.78
623.523	11429.45
623.879	11433.29
624.234	11368.43
624.589	11467.41
624.945	11455.89
625.3	11437.13
625.655	11431.25
626.01	11367.3
626.365	11390.8
626.72	11391.03
627.075	11342.44
627.43	11331.59
627.785	11286.62
628.14	11299.96
628.495	11374.76
628.85	11308.09
629.205	11287.08
629.559	11360.29
629.914	11326.17
630.269	11324.36
630.623	11253.18
630.978	11199.17
631.332	11334.31
631.687	11265.38
632.041	11205.27
632.396	11266.06
632.75	11188.77
633.104	11203.69
633.459	11186.51
633.813	11144.03
634.167	11179.51
634.521	11200.52
634.875	11174.31
635.229	11167.08
635.583	11120.98
635.937	11182.45
636.291	11074.65
636.645	11135.22
636.999	11100.87
637.352	11058.16
637.706	11099.28
638.06	11126.18
638.413	11019.29
638.767	11018.83
639.121	11053.64
639.474	10912.17
639.828	10991.94
640.181	11003.47
640.534	10962.56
640.888	10876.69
641.241	10832.17
641.594	10881.89
641.947	10899.74
642.301	10863.81
642.654	10830.36
643.007	10881.66
643.36	10825.85
643.713	10832.17
644.066	10895.22
644.419	10774.55
644.771	10729.35
645.124	10749.69
645.477	10626.75
645.83	10658.17
646.182	10608
646.535	10510.83
646.888	10578.85
647.24	10474.67
647.593	10555.8
647.945	10569.13
648.298	10482.58
648.65	10511.73
649.002	10426.76
649.355	10529.58
649.707	10453.43
650.059	10550.6
650.411	10653.19
650.763	10689.35
651.115	10764.38
651.467	10728.67
651.819	10675.79
652.171	10693.19
652.523	10669.69
652.875	10649.13
653.227	10588.56
653.578	10701.33
653.93	10734.32
654.282	10680.54
654.633	10671.95
654.985	10658.62
655.337	10717.6
655.688	10769.12
656.039	10759.63
656.391	10669.69
656.742	10727.77
657.094	10735.45
657.445	10765.73
657.796	10723.25
658.147	10774.1
658.498	10783.81
658.849	10765.73
659.2	10774.77
659.551	10778.84
659.902	10823.81
660.253	10823.81
660.604	10896.8
660.955	10737.49
661.306	10863.36
661.656	10856.8
662.007	10855
662.358	10812.29
662.708	10820.2
663.059	10784.26
663.409	10802.34
663.76	10766.41
664.11	10888.22
664.461	10863.13
664.811	10939.51
665.161	10842.79
665.511	10815
665.862	10864.04
666.212	10795.56
666.562	10885.5
666.912	10850.48
667.262	10866.52
667.612	10826.07
667.962	10855.45
668.312	10802.8
668.662	10854.77
669.011	10834.21
669.361	10792.17
669.711	10831.27
670.06	10849.35
670.41	10729.58
670.76	10775.9
671.109	10828.11
671.459	10769.8
671.808	10775.68
672.157	10775
672.507	10698.84
672.856	10804.83
673.205	10769.58
673.554	10796.47
673.904	10752.4
674.253	10838.05
674.602	10796.02
674.951	10601.67
675.3	10533.65
675.649	10690.26
675.998	10764.38
676.346	10710.82
676.695	10738.62
677.044	10623.14
677.393	10692.97
677.741	10701.33
678.09	10660.2
678.438	10566.19
678.787	10694.32
679.135	10555.57
679.484	10462.69
679.832	10623.59
680.181	10537.49
680.529	10576.59
680.877	10495.01
681.225	10460.66
681.573	10539.75
681.922	10477.61
682.27	10451.62
682.618	10388.57
682.966	10344.73
683.314	10358.51
683.661	10363.03
684.009	10255.46
684.357	10300.66
684.705	10343.82
685.053	10316.25
685.4	10329.81
685.748	10268.57
686.095	10193.32
686.443	10126.88
686.79	10186.09
687.138	10093.66
687.485	10144.51
687.832	10094.57
688.18	10079.65
688.527	10069.03
688.874	10038.07
689.221	9964.62
689.568	9943.83
689.915	9974.79
690.262	9918.52
690.609	9939.09
690.956	9896.15
691.303	9820.9
691.65	9741.35
691.997	9794.01
692.344	9751.3
692.69	9717.85
693.037	9676.27
693.383	9638.31
693.73	9583.84
694.077	9532.32
694.423	9543.85
694.769	9484.64
695.116	9477.18
695.462	9401.93
695.808	9406.67
696.155	9346.11
696.501	9357.41
696.847	9296.62
697.193	9291.87
697.539	9289.61
697.885	9201.03
698.231	9194.48
698.577	9177.08
698.923	9138.21
699.269	9083.74
699.614	9055.04
699.96	9009.4
700.306	9025.67
700.651	8972.11
700.997	8929.85
701.342	8837.42
701.688	8881.26
702.033	8799.23
702.379	8774.6
702.724	8767.59
703.069	8792
703.415	8662.96
703.76	8647.37
704.105	8671.55
704.45	8631.78
704.795	8570.54
705.14	8561.95
705.485	8504.78
705.83	8564.89
706.175	8501.84
706.52	8475.17
706.865	8478.79
707.209	8458.9
707.554	8420.03
707.899	8393.14
708.243	8384.55
708.588	8299.36
708.932	8266.59
709.277	8241.96
709.621	8243.77
709.966	8180.94
710.31	8214.16
710.654	8147.5
710.998	8176.42
711.342	8151.11
711.687	8170.32
712.031	8068.86
712.375	8088.29
712.719	8104.33
713.063	8036.77
713.407	8054.62
713.75	7945.92
714.094	7965.58
714.438	7942.08
714.782	7962.19
715.125	7928.75
715.469	7928.07
715.812	7889.65
716.156	7894.85
716.499	7891.69
716.843	7855.75
717.186	7761.97
717.53	7856.66
717.873	7853.49
718.216	7826.6
718.559	7804.91
718.902	7731.01
719.246	7850.33
719.589	7802.2
719.932	7749.77
720.275	7712.25
720.617	7730.79
720.96	7700.73
721.303	7645.14
721.646	7606.72
721.989	7680.17
722.331	7649.43
722.674	7617.57
723.016	7697.34
723.359	7621.64
723.701	7666.61
724.044	7556.1
724.386	7624.57
724.729	7615.53
725.071	7633.39
725.413	7626.83
725.755	7557.23
726.097	7577.34
726.439	7543.67
726.782	7600.39
727.124	7534.63
727.465	7565.59
727.807	7550.68
728.149	7544.12
728.491	7513.16
728.833	7484.24
729.175	7507.29
729.516	7536.67
729.858	7523.56
730.199	7501.64
730.541	7542.32
730.882	7501.86
731.224	7551.13
731.565	7514.97
731.906	7528.53
732.248	7497.57
732.589	7466.84
732.93	7471.36
733.271	7518.36
733.612	7547.29
733.953	7478.14
734.294	7518.14
734.635	7452.6
734.976	7533.5
735.317	7506.61
735.658	7540.06
735.999	7502.99
736.339	7515.65
736.68	7582.31
737.021	7496.67
737.361	7504.35
737.702	7546.61
738.042	7495.99
738.383	7514.29
738.723	7529.43
739.063	7537.57
739.404	7626.83
739.744	7548.87
740.084	7585.93
740.424	7614.86
740.764	7597.91
741.104	7658.92
741.444	7614.18
741.784	7708.87
742.124	7717.9
742.464	7703.44
742.804	7738.69
743.143	7692.14
743.483	7791.12
743.823	7773.27
744.162	7848.97
744.502	7836.09
744.841	7901.63
745.181	7932.36
745.52	7977.78
745.86	8002.87
746.199	7978.01
746.538	8008.29
746.877	8114.05
747.216	8154.73
747.556	8119.93
747.895	8284.67
748.234	8296.87
748.573	8267.49
748.911	8339.36
749.25	8484.89
749.589	8466.81
749.928	8559.46
750.267	8609.86
750.605	8647.37
750.944	8746.8
751.283	8865.44
751.621	8954.71
751.96	8954.48
752.298	9018.44
752.636	9145.66
752.975	9221.59
753.313	9238.54
753.651	9452.77
753.989	9500.91
754.327	9638.08
754.666	9728.02
755.004	9878.98
755.342	10011.63
755.679	10132.3
756.017	10183.38
756.355	10357.61
756.693	10465.18
757.031	10610.71
757.368	10753.08
757.706	10972.96
758.044	11009.57
758.381	11220.64
758.719	11310.58
759.056	11484.81
759.394	11701.53
759.731	11817.23
760.068	11895.87
760.405	12089.99
760.743	12215.19
761.08	12363.21
761.417	12532.47
761.754	12649.53
762.091	12917.99
762.428	13059.23
762.765	13130.64
763.102	13424.87
763.438	13493.57
763.775	13638.65
764.112	13847.91
764.449	14038.64
764.785	14133.78
765.122	14208.13
765.458	14387.56
765.795	14537.61
766.131	14738.06
766.467	14744.61
766.804	14976.24
767.14	14960.43
767.476	15244.03
767.812	15333.98
768.148	15540.98
768.485	15574.65
768.821	15628.88
769.157	15863.9
769.492	15898.93
769.828	15974.86
770.164	15990.68
770.5	16223.9
770.836	16349.77
771.171	16373.27
771.507	16509.31
771.842	16532.81
772.178	16671.79
772.513	16717.67
772.849	16827.5
773.184	16886.48
773.519	16973.71
773.855	17074.27
774.19	17079.92
774.525	17118.11
774.86	17332.34
775.195	17257.09
775.53	17383.64
775.865	17362.85
776.2	17249.41
776.535	17305.45
776.87	17483.98
777.205	17524.65
777.539	17477.65
777.874	17701.14
778.209	17510.19
778.543	17582.05
778.878	17597.87
779.212	17677.64
779.547	17620.92
779.881	17762.16
780.215	17677.64
780.55	17737.3
780.884	17700.01
781.218	17637.42
781.552	17841.71
781.886	17737.53
782.22	17766.23
782.554	17848.49
782.888	17620.92
783.222	17632.67
783.556	17689.85
783.889	17669.96
784.223	17610.3
784.557	17578.66
784.89	17617.53
785.224	17541.83
785.557	17415.05
785.891	17521.26
786.224	17581.15
786.558	17683.74
786.891	17500.02
787.224	17445.56
787.557	17400.14
787.891	17486.69
788.224	17592.9
788.557	17510.87
788.89	17486.46
789.223	17445.33
789.556	17381.15
789.888	17269.07
790.221	17331.89
790.554	17236.75
790.887	17267.71
791.219	17171.22
791.552	17138.22
791.884	17067.49
792.217	17133.02
792.549	17100.71
792.882	17081.5
793.214	16932.8
793.546	16940.94
793.879	16966.02
794.211	16839.25
794.543	16942.29
794.875	16810.09
795.207	16990.43
795.539	16823.88
795.871	16900.26
796.203	16652.81
796.535	16669.99
796.867	16578.01
797.198	16591.12
797.53	16541.85
797.862	16567.39
798.193	16490.78
798.525	16399.71
798.856	16379.6
799.188	16271.13
799.519	16317.45
799.85	16168.08
800.182	16203.33
800.513	16270.67
800.844	16054.41
801.175	16249.21
801.506	16206.49
801.837	16102.09
802.168	16133.28
802.499	15997.46
802.83	16021.64
803.161	15846.96
803.491	15966.5
803.822	16026.39
804.153	15774.87
804.483	15750.24
804.814	15678.83
805.145	15684.25
805.475	15756.79
805.805	15625.04
806.136	15647.64
806.466	15612.61
806.796	15606.74
807.126	15486.06
807.457	15406.52
807.787	15397.25
808.117	15292.39
808.447	15369.23
808.777	15474.76
809.107	15388.66
809.436	15320.87
809.766	15315.44
810.096	15266.41
810.426	15107.99
810.755	15252.62
811.085	15142.34
811.414	15078.16
811.744	14990.48
812.073	14965.85
812.403	15035.23
812.732	14882.01
813.061	14965.85
813.39	14806.76
813.719	14851.5
814.049	14917.26
814.378	14766.31
814.707	14734.9
815.036	14719.75
815.365	14754.56
815.693	14580.1
816.022	14620.32
816.351	14508.46
816.68	14541.45
817.008	14430.5
817.337	14460.78
817.665	14412.64
817.994	14487.67
818.322	14435.47
818.651	14273.89
818.979	14279.31
819.307	14357.28
819.636	14319.99
819.964	14180.33
820.292	14289.26
820.62	14279.54
820.948	14290.84
821.276	14296.26
821.604	14275.92
821.932	14242.25
822.259	14258.52
822.587	14225.53
822.915	14214.46
823.243	14173.55
823.57	14227.11
823.898	14270.5
824.225	14214.23
824.553	14181.46
824.88	14132.43
825.207	14307.11
825.535	14234.57
825.862	14218.3
826.189	14211.97
826.516	14296.04
826.843	14239.09
827.17	14179.43
827.497	14316.15
827.824	14292.19
828.151	14284.06
828.478	14312.08
828.805	14297.84
829.131	14240.67
829.458	14237.51
829.785	14164.29
830.111	14214.91
830.438	14328.58
830.764	14263.72
831.09	14314.12
831.417	14206.1
831.743	14237.28
832.069	14240.22
832.395	14218.98
832.722	14202.25
833.048	14236.38
833.374	14207.23
833.7	14186.21
834.026	14159.54
834.351	14131.52
834.677	14140.79
835.003	14168.81
835.329	14106.44
835.654	14168.58
835.98	13948.7
836.306	14109.83
836.631	14038.42
836.956	14110.96
837.282	13996.38
837.607	14021.92
837.932	13915.03
838.258	13893.11
838.583	13943.05
838.908	13875.93
839.233	13880.91
839.558	13879.1
839.883	13786.45
840.208	13807.24
840.533	13713.9
840.858	13781.47
841.182	13734.7
841.507	13760.23
841.832	13642.27
842.156	13611.99
842.481	13571.76
842.805	13670.74
843.13	13640.69
843.454	13573.12
843.778	13525.44
844.103	13441.82
844.427	13450.86
844.751	13427.13
845.075	13444.31
845.399	13330.86
845.723	13330.86
846.047	13298.77
846.371	13167.48
846.695	13219.23
847.019	13121.38
847.343	13078.89
847.666	12990.99
847.99	12998.44
848.313	12912.8
848.637	12845.91
848.96	12889.07
849.284	12727.49
849.607	12703.76
849.931	12732.24
850.254	12579.7
850.577	12529.76
850.9	12420.61
851.223	12445.24
851.546	12384.9
851.869	12330.21
852.192	12329.76
852.515	12195.98
852.838	12223.77
853.161	12202.08
853.483	12136.32
853.806	12123.89
854.129	12040.05
854.451	12027.17
854.774	11958.02
855.096	11907.85
855.419	11859.72
855.741	11834.63
856.063	11860.39
856.385	11768.65
856.708	11751.24
857.03	11716.67
857.352	11729.78
857.674	11651.13
857.996	11550.57
858.318	11513.06
858.64	11517.13
858.961	11473.06
859.283	11420.41
859.605	11339.28
859.926	11438.94
860.248	11396
860.57	11345.61
860.891	11302.67
861.212	11327.3
861.534	11285.27
861.855	11246.63
862.176	11219.28
862.498	11220.64
862.819	11163.01
863.14	11147.64
863.461	11179.51
863.782	11040.3
864.103	11128.21
864.424	11070.36
864.745	11128.89
865.065	11049.34
865.386	10994.2
865.707	11064.26
866.027	10992.39
866.348	11019.74
866.668	10908.33
866.989	10932.74
867.309	10846.64
867.63	10924.83
867.95	10882.11
868.27	10831.27
868.59	10800.76
868.91	10766.19
869.23	10814.09
869.55	10729.12
869.87	10805.96
870.19	10759.63
870.51	10781.55
870.83	10762.8
871.15	10656.81
871.469	10668.79
871.789	10665.85
872.109	10695.91
872.428	10568.9
872.748	10593.54
873.067	10512.63
873.386	10599.64
873.706	10550.15
874.025	10495.91
874.344	10488.23
874.663	10464.95
874.982	10459.3
875.301	10448.91
875.62	10488.45
875.939	10407.1
876.258	10413.65
876.577	10387.21
876.896	10441.22
877.214	10374.11
877.533	10336.37
877.852	10265.63
878.17	10249.36
878.489	10315.8
878.807	10239.42
879.125	10214.11
879.444	10263.6
879.762	10212.53
880.08	10160.33
880.398	10233.77
880.716	10143.83
881.034	10184.51
881.352	10141.34
881.67	10047.33
881.988	10095.02
882.306	10086.43
882.624	10020.89
882.941	10034.68
883.259	9902.03
883.577	9955.36
883.894	9928.02
884.212	9942.93
884.529	9885.98
884.846	9873.78
885.164	9838.3
885.481	9802.37
885.798	9910.62
886.115	9800.79
886.432	9785.65
886.75	9750.85
887.067	9780
887.383	9664.75
887.7	9692.77
888.017	9608.48
888.334	9695.71
888.651	9620.23
888.967	9577.52
889.284	9548.36
889.6	9548.82
889.917	9512.21
890.233	9486.22
890.55	9453.23
890.866	9458.65
891.182	9401.02
891.498	9375.26
891.815	9352.89
892.131	9259.11
892.447	9258.88
892.763	9189.96
893.079	9187.92
893.395	9182.5
893.71	9175.04
894.026	9124.65
894.342	9152.89
894.657	9078.77
894.973	9045.78
895.289	9038.1
895.604	9005.55
895.92	8924.2
896.235	8899.57
896.55	8908.61
896.865	8841.49
897.181	8855.5
897.496	8853.24
897.811	8788.16
898.126	8822.51
898.441	8812.11
898.756	8646.47
899.071	8603.53
899.386	8632.23
899.7	8533.7
900.015	8462.74
900.33	8512.23
900.644	8518.11
900.959	8478.34
901.273	8436.53
901.588	8431.33
901.902	8370.09
902.216	8281.73
902.531	8316.53
902.845	8269.53
903.159	8257.1
903.473	8186.14
903.787	8188.17
904.101	8074.05
904.415	8127.84
904.729	8075.64
905.042	8047.61
905.356	8085.13
905.67	7984.56
905.984	8036.99
906.297	7956.77
906.611	7896.88
906.924	7859.37
907.237	7894.17
907.551	7848.97
907.864	7829.09
908.177	7801.52
908.491	7745.7
908.804	7662.31
909.117	7658.7
909.43	7599.72
909.743	7570.11
910.056	7553.84
910.368	7518.59
910.681	7490.34
910.994	7515.2
911.307	7454.63
911.619	7396.78
911.932	7429.1
912.244	7350.46
912.557	7290.35
912.869	7321.08
913.181	7254.87
913.494	7233.17
913.806	7133.74
914.118	7203.57
914.43	7150.91
914.742	7079.96
915.054	7070.92
915.366	7069.79
915.678	6991.82
915.99	6971.03
916.302	6951.6
916.613	6920.86
916.925	6919.06
917.236	6907.08
917.548	6892.16
917.859	6853.75
918.171	6760.19
918.482	6791.15
918.794	6773.75
919.105	6789.12
919.416	6682.9
919.727	6693.52
920.038	6616.92
920.349	6623.24
920.66	6543.7
920.971	6537.82
921.282	6557.93
921.593	6545.73
921.903	6468.67
922.214	6466.41
922.525	6428.67
922.835	6385.74
923.146	6329.01
923.456	6328.34
923.767	6323.36
924.077	6278.39
924.387	6244.5
924.697	6237.27
925.008	6223.93
925.318	6145.52
925.628	6145.74
925.938	6175.12
926.248	6102.58
926.558	6093.99
926.867	6079.76
927.177	6060.32
927.487	6042.02
927.796	5987.55
928.106	5978.74
928.416	5946.65
928.725	5917.5
929.034	5880.66
929.344	5846.99
929.653	5892.42
929.962	5851.96
930.271	5780.55
930.581	5769.71
930.89	5743.04
931.199	5718.86
931.508	5707.11
931.817	5683.16
932.125	5658.52
932.434	5665.53
932.743	5571.75
933.051	5605.64
933.36	5588.69
933.669	5496.72
933.977	5502.37
934.286	5496.72
934.594	5478.64
934.902	5479.77
935.21	5396.38
935.519	5389.15
935.827	5395.03
936.135	5374.01
936.443	5361.36
936.751	5264.18
937.059	5250.85
937.367	5296.73
937.674	5252.21
937.982	5233.45
938.29	5201.36
938.597	5210.85
938.905	5145.77
939.213	5134.7
939.52	5111.42
939.827	5106.67
940.135	5041.59
940.442	5078.65
940.749	5065.32
941.056	5022.83
941.363	4960.24
941.67	4964.76
941.977	4943.97
942.284	4892.44
942.591	4891.76
942.898	4849.73
943.205	4866
943.511	4861.48
943.818	4774.7
944.125	4778.55
944.431	4787.36
944.738	4753.46
945.044	4758.21
945.35	4676.63
945.657	4691.77
945.963	4690.64
946.269	4697.64
946.575	4658.1
946.881	4601.83
947.187	4644.54
947.493	4596.63
947.799	4531.1
948.105	4548.5
948.41	4572.68
948.716	4544.65
949.022	4508.72
949.327	4479.12
949.633	4432.57
949.938	4442.06
950.244	4397.99
950.549	4410.19
950.854	4300.59
951.16	4319.8
951.465	4354.6
951.77	4329.74
952.075	4271.44
952.38	4263.98
952.685	4257.2
952.99	4232.8
953.294	4206.58
953.599	4225.57
953.904	4190.31
954.209	4137.66
954.513	4151.44
954.818	4123.42
955.122	4112.35
955.426	4094.27
955.731	4071.67
956.035	4077.1
956.339	4072.12
956.643	4080.94
956.948	4032.13
957.252	4012.69
957.556	3956.87
957.86	3942.86
958.163	3934.73
958.467	3898.34
958.771	3917.1
959.075	3926.82
959.378	3866.25
959.682	3816.54
959.985	3894.05
960.289	3850.66
960.592	3850.21
960.896	3816.99
961.199	3781.06
961.502	3762.08
961.805	3774.28
962.108	3733.38
962.411	3704.45
962.714	3664.45
963.017	3671.68
963.32	3689.99
963.623	3672.36
963.926	3660.61
964.228	3647.05
964.531	3608.18
964.833	3621.29
965.136	3562.53
965.438	3510.78
965.741	3545.81
966.043	3497.22
966.345	3517.34
966.648	3519.6
966.95	3528.18
967.252	3464.46
967.554	3451.35
967.856	3405.93
968.158	3433.05
968.46	3408.41
968.761	3375.87
969.063	3385.81
969.365	3369.77
969.666	3374.06
969.968	3363.44
970.269	3318.47
970.571	3306.27
970.872	3317.34
971.174	3232.82
971.475	3264.01
971.776	3248.19
972.077	3212.71
972.378	3219.27
972.679	3217.68
972.98	3203.67
973.281	3188.98
973.582	3192.37
973.883	3152.83
974.183	3171.81
974.484	3101.98
974.785	3103.79
975.085	3064.69
975.386	3117.35
975.686	3074.86
975.986	3039.61
976.287	3031.7
976.587	3012.04
976.887	3018.82
977.187	3033.51
977.487	2952.61
977.787	2963.23
978.087	2933.85
978.387	2939.95
978.687	2972.27
978.987	2913.74
979.286	2881.42
979.586	2904.25
979.885	2873.51
980.185	2856.79
980.484	2855.66
980.784	2833.29
981.083	2853.17
981.382	2803.68
981.682	2822.44
981.981	2776.34
982.28	2792.16
982.579	2812.27
982.878	2773.4
983.177	2693.18
983.475	2726.62
983.774	2705.38
984.073	2689.79
984.372	2686.4
984.67	2676.23
984.969	2675.55
985.267	2660.64
985.566	2643.69
985.864	2657.25
986.162	2617.47
986.461	2582.9
986.759	2617.47
987.057	2574.54
987.355	2560.75
987.653	2550.81
987.951	2578.83
988.249	2510.13
988.547	2564.37
988.844	2517.59
989.142	2519.85
989.44	2471.94
989.737	2487.08
990.035	2509.91
990.332	2449.34
990.63	2464.26
990.927	2475.33
991.224	2425.84
991.521	2399.63
991.819	2432.39
992.116	2400.76
992.413	2353.07
992.71	2350.81
993.006	2369.8
993.303	2341.1
993.6	2356.01
993.897	2337.93
994.193	2307.88
994.49	2316.46
994.787	2306.75
995.083	2342.45
995.379	2294.77
995.676	2253.64
995.972	2280.31
996.268	2244.15
996.565	2250.25
996.861	2235.79
997.157	2217.94
997.453	2187.2
997.749	2205.51
998.044	2177.03
998.34	2217.71
998.636	2153.76
998.932	2132.74
999.227	2123.48
999.523	2128.9
999.818	2115.34
1000.114	2091.84
1000.409	2085.51
1000.704	2076.02
1001	2053.42
1001.295	2074.89
1001.59	2031.27
1001.885	2038.28
1002.18	2058.84
1002.475	2009.13
1002.77	2012.07
1003.065	1996.92
1003.359	1971.61
1003.654	1969.13
1003.949	1963.03
1004.243	1960.09
1004.538	1955.34
1004.832	1926.87
1005.127	1907.44
1005.421	1906.31
1005.715	1917.83
1006.009	1869.7
1006.304	1868.57
1006.598	1857.95
1006.892	1844.39
1007.186	1829.47
1007.48	1845.74
1007.773	1829.7
1008.067	1815.91
1008.361	1779.08
1008.655	1770.49
1008.948	1780.66
1009.242	1753.09
1009.535	1775.24
1009.829	1737.27
1010.122	1733.2
1010.415	1736.37
1010.708	1732.98
1011.001	1697.27
1011.295	1694.79
1011.588	1694.56
1011.881	1678.29
1012.173	1688.01
1012.466	1668.8
1012.759	1628.57
1013.052	1668.8
1013.344	1635.13
1013.637	1624.51
1013.93	1613.88
1014.222	1588.8
1014.514	1607.1
1014.807	1581.57
1015.099	1546.09
1015.391	1594.9
1015.683	1581.12
1015.976	1570.72
1016.268	1533.89
1016.56	1519.88
1016.851	1517.16
1017.143	1495.24
1017.435	1521.46
1017.727	1470.61
1018.018	1485.98
1018.31	1467
1018.602	1471.51
1018.893	1481.91
1019.185	1441.23
1019.476	1425.19
1019.767	1467.22
1020.058	1434
1020.35	1400.33
1020.641	1427.45
1020.932	1394.91
1021.223	1376.38
1021.514	1357.39
1021.804	1381.57
1022.095	1333.67
1022.386	1324.85
1022.677	1321.91
1022.967	1336.15
1023.258	1321.24
1023.548	1344.29
1023.839	1288.69
1024.129	1301.58
1024.419	1298.19
1024.709	1265.19
1025	1277.17
1025.29	1280.33
1025.58	1247.34
1025.87	1246.21
1026.16	1235.36
1026.449	1227.91
1026.739	1244.63
1027.029	1197.62
1027.319	1219.54
1027.608	1194.91
1027.898	1206.21
1028.187	1189.71
1028.477	1181.13
1028.766	1181.81
1029.055	1192.65
1029.344	1162.6
1029.634	1160.11
1029.923	1151.75
1030.212	1163.27
1030.501	1116.5
1030.79	1107.68
1031.078	1099.1
1031.367	1137.51
1031.656	1097.06
1031.945	1079.43
1032.233	1108.36
1032.522	1051.86
1032.81	1095.03
1033.099	1078.98
1033.387	1052.77
1033.675	1041.02
1033.963	1045.76
1034.251	1026.78
1034.54	1024.52
1034.828	1016.16
1035.116	1012.32
1035.403	1012.54
1035.691	983.39
1035.979	991.08
1036.267	980.45
1036.554	984.97
1036.842	966.9
1037.129	981.81
1037.417	973.9
1037.704	970.96
1037.992	975.03
1038.279	940.23
1038.566	941.13
1038.853	941.13
1039.14	941.13
