Data from hue_20_FLMS001491_44.txt Node
Date: Mon Feb 06 15:34:10 GMT 2017
User: dcchb
Spectrometer: FLMS00149
Trigger mode: 0
Integration Time (sec): 2.000000E-2
Scans to average: 10
Electric dark correction enabled: true
Nonlinearity correction enabled: false
Boxcar width: 0
XAxis mode: Wavelengths
Number of Pixels in Spectrum: 2048
>>>>>Begin Spectral Data<<<<<
341.393	-7.67
341.776	-7.67
342.16	-7.67
342.543	-46.99
342.927	-64.39
343.31	-65.97
343.693	-64.16
344.077	-69.36
344.46	-63.71
344.843	-51.06
345.226	-51.74
345.61	-36.6
345.993	-30.95
346.376	8.38
346.759	10.86
347.142	35.72
347.525	41.14
347.908	64.42
348.291	83.63
348.674	82.72
349.057	106.68
349.44	134.25
349.823	137.41
350.206	159.33
350.588	198.43
350.971	223.51
351.354	223.06
351.737	235.04
352.119	260.57
352.502	265.09
352.884	290.85
353.267	273.68
353.65	303.51
354.032	305.32
354.414	298.31
354.797	325.66
355.179	322.49
355.562	354.81
355.944	322.72
356.326	327.24
356.709	331.53
357.091	349.61
357.473	351.64
357.855	365.88
358.238	346.9
358.62	347.12
359.002	357.74
359.384	354.81
359.766	348.25
360.148	341.93
360.53	353.23
360.912	338.31
361.294	335.82
361.676	337.86
362.057	340.57
362.439	349.16
362.821	346.67
363.203	348.25
363.584	336.05
363.966	331.98
364.348	338.99
364.729	351.19
365.111	332.66
365.493	333.11
365.874	324.3
366.256	332.43
366.637	310.29
367.019	320.23
367.4	349.61
367.781	326.33
368.163	324.53
368.544	326.11
368.925	333.56
369.306	306.22
369.688	341.7
370.069	317.52
370.45	291.31
370.831	347.12
371.212	327.24
371.593	334.69
371.974	319.33
372.355	301.93
372.736	343.51
373.117	338.99
373.498	338.54
373.879	344.64
374.26	331.76
374.641	336.73
375.021	333.56
375.402	309.38
375.783	318.88
376.163	345.32
376.544	336.28
376.925	343.28
377.305	337.41
377.686	332.21
378.066	346.67
378.447	340.34
378.827	333.79
379.208	336.05
379.588	333.56
379.968	354.58
380.349	335.82
380.729	341.47
381.109	344.86
381.489	321.81
381.87	343.73
382.25	354.36
382.63	356.84
383.01	347.35
383.39	353
383.77	350.74
384.15	368.37
384.53	359.55
384.91	346.67
385.29	355.94
385.67	349.84
386.049	357.74
386.429	373.34
386.809	362.94
387.189	366.11
387.568	368.37
387.948	378.99
388.328	365.43
388.707	365.2
389.087	380.12
389.466	378.31
389.846	360.46
390.225	384.41
390.605	376.28
390.984	391.87
391.363	371.3
391.743	389.38
392.122	386.44
392.501	381.92
392.881	393.22
393.26	379.89
393.639	396.39
394.018	400.91
394.397	389.61
394.776	414.47
395.155	387.12
395.534	393.68
395.913	394.81
396.292	397.29
396.671	411.75
397.05	401.13
397.429	405.43
397.808	412.21
398.186	404.52
398.565	397.74
398.944	413.11
399.323	412.66
399.701	388.93
400.08	402.04
400.458	424.18
400.837	402.72
401.215	446.56
401.594	440.23
401.972	411.98
402.351	416.5
402.729	437.52
403.107	445.43
403.486	433
403.864	417.4
404.242	433.9
404.62	444.3
404.999	443.62
405.377	451.75
405.755	435.03
406.133	449.04
406.511	441.58
406.889	464.86
407.267	463.96
407.645	460.79
408.023	477.29
408.401	468.25
408.779	460.57
409.156	462.37
409.534	464.63
409.912	486.33
410.29	473.22
410.667	460.57
411.045	490.62
411.422	471.19
411.8	484.07
412.178	489.94
412.555	512.99
412.933	499.66
413.31	509.15
413.687	521.13
414.065	501.24
414.442	528.59
414.819	504.41
415.197	535.82
415.574	521.36
415.951	513.45
416.328	531.98
416.705	538.76
417.082	546.89
417.46	550.28
417.837	538.98
418.214	539.89
418.591	540.34
418.967	565.65
419.344	552.77
419.721	555.93
420.098	556.16
420.475	546.44
420.852	550.96
421.228	581.24
421.605	557.29
421.982	564.29
422.358	556.38
422.735	567
423.111	588.25
423.488	590.73
423.864	590.06
424.241	596.38
424.617	587.12
424.994	609.26
425.37	606.33
425.746	620.11
426.123	623.73
426.499	631.41
426.875	640.22
427.251	617.63
427.627	654.91
428.003	653.56
428.379	641.13
428.756	624.86
429.132	639.77
429.507	647.23
429.883	671.41
430.259	660.79
430.635	663.73
431.011	685.19
431.387	668.7
431.763	683.61
432.138	703.5
432.514	682.71
432.89	703.05
433.265	687.45
433.641	716.61
434.016	741.46
434.392	735.59
434.767	733.1
435.143	726.32
435.518	763.84
435.894	773.55
436.269	751.63
436.644	729.71
437.02	767.45
437.395	763.84
437.77	781.46
438.145	787.11
438.52	787.79
438.895	803.16
439.271	811.29
439.646	809.48
440.021	824.17
440.395	829.37
440.77	801.12
441.145	830.05
441.52	843.38
441.895	869.37
442.27	863.49
442.645	844.74
443.019	830.73
443.394	853.78
443.769	863.72
444.143	851.07
444.518	872.53
444.892	882.25
445.267	894
445.641	881.12
446.016	903.49
446.39	911.63
446.764	909.59
447.139	891.97
447.513	914.79
447.887	915.02
448.262	911.18
448.636	921.8
449.01	938.75
449.384	924.96
449.758	931.29
450.132	948.92
450.506	949.82
450.88	964.73
451.254	955.02
451.628	983.04
452.002	976.49
452.376	1000.89
452.75	1014.68
453.123	984.62
453.497	1021.68
453.871	1042.47
454.244	1076.82
454.618	1068.69
454.992	1034.79
455.365	1070.72
455.739	1067.33
456.112	1098.97
456.486	1105.97
456.859	1091.96
457.232	1105.52
457.606	1098.29
457.979	1118.85
458.352	1148.46
458.725	1154.11
459.099	1197.04
459.472	1195.91
459.845	1198.17
460.218	1229.59
460.591	1218.51
460.964	1225.97
461.337	1245.86
461.71	1283.37
462.083	1274.1
462.456	1253.99
462.829	1270.72
463.201	1294.67
463.574	1310.71
463.947	1322.24
464.32	1347.55
464.692	1369.24
465.065	1366.31
465.438	1426.42
465.81	1443.82
466.183	1412.41
466.555	1459.18
466.928	1463.48
467.3	1474.55
467.672	1477.26
468.045	1542.57
468.417	1527.43
468.789	1534.21
469.161	1533.99
469.534	1576.7
469.906	1625.28
470.278	1591.84
470.65	1636.81
471.022	1655.79
471.394	1699.4
471.766	1731.04
472.138	1727.65
472.51	1767.88
472.882	1789.8
473.253	1807.88
473.625	1858.04
473.997	1853.3
474.369	1890.36
474.74	1931.26
475.112	1948.44
475.484	1995.89
475.855	2012.84
476.227	2025.05
476.598	2089.68
476.97	2096.46
477.341	2158.83
477.713	2207.64
478.084	2183.01
478.455	2237.92
478.827	2306.62
479.198	2363.34
479.569	2401.98
479.94	2404.92
480.311	2444.92
480.682	2491.7
481.053	2575.09
481.424	2606.5
481.795	2642.66
482.166	2692.82
482.537	2780.51
482.908	2769.43
483.279	2828.41
483.65	2895.76
484.021	2923.78
484.391	2966.26
484.762	3014.17
485.133	3050.56
485.503	3097.11
485.874	3167.61
486.244	3211.23
486.615	3274.28
486.985	3317.67
487.356	3402.18
487.726	3442.86
488.097	3492.35
488.467	3505.46
488.837	3588.62
489.207	3622.97
489.578	3646.47
489.948	3729.41
490.318	3775.28
490.688	3803.08
491.058	3864.32
491.428	3930.08
491.798	3955.84
492.168	4059.12
492.538	4046.69
492.908	4091.88
493.278	4135.95
493.648	4183.86
494.017	4241.26
494.387	4315.38
494.757	4343.63
495.126	4349.96
495.496	4365.55
495.866	4417.3
496.235	4489.84
496.605	4502.04
496.974	4541.82
497.344	4625.2
497.713	4636.95
498.082	4677.41
498.452	4722.83
498.821	4748.36
499.19	4742.94
499.559	4803.5
499.928	4867.46
500.298	4890.06
500.667	4959.66
501.036	4902.71
501.405	4971.86
501.774	5006.44
502.143	5054.34
502.512	5071.29
502.88	5120.78
503.249	5109.48
503.618	5184.74
503.987	5230.39
504.356	5184.06
504.724	5227.22
505.093	5222.93
505.462	5261.8
505.83	5310.61
506.199	5363.71
506.567	5422.47
506.936	5451.17
507.304	5459.53
507.672	5504.5
508.041	5501.79
508.409	5567.78
508.777	5578.62
509.145	5621.34
509.514	5630.37
509.882	5691.16
510.25	5628.79
510.618	5704.5
510.986	5760.09
511.354	5758.73
511.722	5799.86
512.09	5866.53
512.458	5850.03
512.826	5923.25
513.193	5902.68
513.561	5972.06
513.929	5997.14
514.297	6049.57
514.664	6035.11
515.032	6066.97
515.4	6107.2
515.767	6135.9
516.135	6175.9
516.502	6166.18
516.869	6220.64
517.237	6219.96
517.604	6265.61
517.972	6294.76
518.339	6324.37
518.706	6297.93
519.073	6369.11
519.44	6443.69
519.808	6494.53
520.175	6435.1
520.542	6507.19
520.909	6498.6
521.276	6529.33
521.643	6625.15
522.009	6641.65
522.376	6721.87
522.743	6673.74
523.11	6780.85
523.477	6798.03
523.843	6866.05
524.21	6936.1
524.577	6930.45
524.943	6977.91
525.31	6993.28
525.676	7106.95
526.043	7104.23
526.409	7099.71
526.776	7191.69
527.142	7170.45
527.508	7273.72
527.874	7282.76
528.241	7340.16
528.607	7333.61
528.973	7496.99
529.339	7402.31
529.705	7489.31
530.071	7528.4
530.437	7535.41
530.803	7630.1
531.169	7592.81
531.535	7679.81
531.901	7678.46
532.267	7722.3
532.632	7751
532.998	7790.54
533.364	7894.5
533.73	7843.42
534.095	7943.76
534.461	7927.94
534.826	7986.24
535.192	8031.89
535.557	8103.08
535.923	8037.77
536.288	8128.16
536.653	8171.55
537.019	8126.13
537.384	8177.43
537.749	8181.95
538.114	8289.97
538.479	8269.63
538.845	8306.69
539.21	8360.92
539.575	8419.68
539.94	8371.09
540.305	8552.11
540.67	8426.01
541.034	8535.61
541.399	8560.02
541.764	8575.61
542.129	8624.65
542.494	8629.17
542.858	8625.55
543.223	8682.05
543.587	8753.68
543.952	8737.64
544.316	8790.97
544.681	8816.51
545.045	8879.33
545.41	8950.51
545.774	9001.59
546.138	8958.42
546.503	8993.45
546.867	8989.38
547.231	9112.32
547.595	9103.73
547.959	9166.78
548.324	9170.62
548.688	9233.9
549.052	9245.19
549.416	9234.12
549.779	9290.39
550.143	9265.08
550.507	9406.09
550.871	9437.96
551.235	9430.5
551.599	9384.63
551.962	9508.69
552.326	9566.99
552.689	9600.89
553.053	9563.6
553.417	9608.12
553.78	9717.72
554.143	9606.32
554.507	9731.06
554.87	9750.49
555.234	9757.5
555.597	9789.36
555.96	9811.28
556.323	9841.34
556.686	9908.23
557.05	9962.69
557.413	9954.55
557.776	9991.39
558.139	10075
558.502	9999.75
558.865	10137.15
559.228	10205.17
559.59	10192.29
559.953	10223.93
560.316	10336.69
560.679	10292.62
561.041	10333.3
561.404	10364.71
561.767	10467.08
562.129	10384.83
562.492	10495.33
562.854	10533.52
563.217	10493.75
563.579	10578.95
563.941	10571.04
564.304	10681.32
564.666	10728.55
565.028	10779.17
565.39	10811.03
565.753	10787.3
566.115	10818.26
566.477	10889.45
566.839	10986.84
567.201	11011.48
567.563	11027.29
567.925	11020.06
568.287	11119.5
568.648	11137.12
569.01	11203.11
569.372	11192.71
569.734	11279.94
570.095	11330.11
570.457	11363.11
570.819	11425.93
571.18	11392.03
571.542	11493.27
571.903	11547.06
572.265	11690.33
572.626	11614.85
572.987	11709.08
573.349	11637.45
573.71	11773.49
574.071	11964.45
574.432	11892.58
574.794	12038.57
575.155	12012.35
575.516	12047.38
575.877	12125.35
576.238	12170.77
576.599	12291.44
576.96	12387.71
577.32	12453.25
577.681	12539.57
578.042	12557.2
578.403	12698.21
578.763	12694.14
579.124	12823.41
579.485	12959.45
579.845	13145.21
580.206	13086.9
580.566	13265.43
580.927	13371.41
581.287	13542.93
581.648	13551.07
582.008	13707.9
582.368	13756.49
582.728	14011.85
583.089	14197.38
583.449	14277.6
583.809	14464.04
584.169	14660.42
584.529	14749.23
584.889	15066.74
585.249	15182.67
585.609	15304.7
585.969	15549.66
586.329	15744.01
586.688	15924.34
587.048	16040.5
587.408	16302.18
587.768	16492.91
588.127	16713.02
588.487	16912.34
588.846	17308.03
589.206	17420.35
589.565	17729.94
589.925	17996.83
590.284	18276.14
590.643	18582.58
591.003	18880.2
591.362	19171.26
591.721	19375.78
592.08	19616.67
592.44	20032.48
592.799	20321.29
593.158	20515.63
593.517	20850.31
593.876	21216.63
594.235	21372.79
594.593	21812.55
594.952	22129.83
595.311	22266.32
595.67	22676.25
596.029	23048.22
596.387	23441.88
596.746	23697.92
597.104	23991.93
597.463	24224.69
597.822	24704.22
598.18	24933.14
598.538	25182.18
598.897	25675.27
599.255	25616.06
599.613	26395.03
599.972	26589.6
600.33	27028
600.688	27137.15
601.046	27602.23
601.404	27952.73
601.762	28120.63
602.12	28585.48
602.478	28836.09
602.836	29007.61
603.194	29161.51
603.552	29608.05
603.91	29846.24
604.268	30259.78
604.625	30305.21
604.983	30723.95
605.341	30873.55
605.698	31363.71
606.056	31685.96
606.413	31996.46
606.771	32328.2
607.128	32539.95
607.485	32539.27
607.843	33020.84
608.2	33369.31
608.557	33678.45
608.914	33709.86
609.272	34163.86
609.629	34401.6
609.986	34792.77
610.343	34876.84
610.7	35401.12
611.057	35378.97
611.414	35688.34
611.771	35891.5
612.127	36157.93
612.484	36349.34
612.841	36676.34
613.198	36671.82
613.554	37006.27
613.911	37335.08
614.267	37482.87
614.624	37665.24
614.98	37895.06
615.337	38308.39
615.693	38202.85
616.05	38412.79
616.406	38745.66
616.762	38669.28
617.118	38825.89
617.475	39023.39
617.831	39289.6
618.187	39632.87
618.543	39697.5
618.899	40020.43
619.255	39998.06
619.611	40147.43
619.967	40407.09
620.323	40673.29
620.678	40563.02
621.034	40678.49
621.39	40800.3
621.746	40870.35
622.101	41300.62
622.457	41192.83
622.812	41407.06
623.168	41509.43
623.523	41635.98
623.879	41783.32
624.234	41715.98
624.589	41907.39
624.945	41983.77
625.3	42014.28
625.655	42220.82
626.01	42264.67
626.365	42467.6
626.72	42374.72
627.075	42565.45
627.43	42605.9
627.785	42501.95
628.14	42795.05
628.495	42860.36
628.85	42821.94
629.205	42723.64
629.559	43088.37
629.914	42903.74
630.269	43045.66
630.623	42973.8
630.978	43005.66
631.332	43276.16
631.687	43246.33
632.041	43117.75
632.396	43406.78
632.75	43159.56
633.104	43168.37
633.459	43088.6
633.813	43124.3
634.167	43136.28
634.521	43295.6
634.875	43304.19
635.229	43268.25
635.583	43100.35
635.937	43293.11
636.291	43303.51
636.645	43200.46
636.999	43233
637.352	43291.08
637.706	43082.05
638.06	43328.14
638.413	43294.69
638.767	43274.81
639.121	43393.9
639.474	43066.68
639.828	43223.06
640.181	43388.03
640.534	43247.46
640.888	43149.84
641.241	43063.97
641.594	43197.3
641.947	43290.4
642.301	43085.21
642.654	43296.28
643.007	43140.35
643.36	43159.78
643.713	43029.84
644.066	43258.31
644.419	42979.67
644.771	42792.79
645.124	42362.74
645.477	42245.46
645.83	42163.43
646.182	41991.45
646.535	41861.96
646.888	41973.15
647.24	41712.36
647.593	41913.04
647.945	41994.16
648.298	41696.77
648.65	41653.83
649.002	41602.31
649.355	41830.55
649.707	41640.73
650.059	41963.88
650.411	42399.13
650.763	42366.13
651.115	42892.67
651.467	42682.28
651.819	42736.29
652.171	42721.15
652.523	42681.38
652.875	42618.55
653.227	42432.34
653.578	42774.03
653.93	42574.71
654.282	42607.71
654.633	42432.12
654.985	42525.45
655.337	42557.77
655.688	42558.9
656.039	42669.17
656.391	42247.49
656.742	42357.54
657.094	42432.12
657.445	42521.16
657.796	42347.15
658.147	42368.84
658.498	42430.31
658.849	42343.08
659.2	42305.34
659.551	42323.65
659.902	42449.07
660.253	42366.13
660.604	42390.31
660.955	42277.09
661.306	42356.19
661.656	42136.08
662.007	42231.9
662.358	42245.23
662.708	42309.18
663.059	42207.27
663.409	42038.68
663.76	42329.52
664.11	42263.31
664.461	42264.67
664.811	42184.22
665.161	42228.96
665.511	42128.85
665.862	42055.63
666.212	42326.81
666.562	42268.96
666.912	42221.28
667.262	42148.28
667.612	42175.63
667.962	42191
668.312	42048.17
668.662	42316.19
669.011	42266.25
669.361	41998.91
669.711	42014.95
670.06	42031
670.41	42021.73
670.76	41992.58
671.109	42064.67
671.459	42037.1
671.808	41987.84
672.157	42110.77
672.507	41767.05
672.856	41981.96
673.205	41935.18
673.554	42013.82
673.904	41884.11
674.253	42175.85
674.602	42049.08
674.951	41370
675.3	41155.54
675.649	41852.7
675.998	41815.41
676.346	41814.73
676.695	41819.48
677.044	41586.94
677.393	41669.88
677.741	41672.14
678.09	41514.4
678.438	41583.1
678.787	41522.09
679.135	41581.52
679.484	41344.01
679.832	41444.12
680.181	41245.48
680.529	41407.96
680.877	41291.13
681.225	41195.99
681.573	41561.86
681.922	41142.89
682.27	41036.45
682.618	41058.82
682.966	41094.07
683.314	41053.4
683.661	40923.68
684.009	40861.76
684.357	40705.38
684.705	40738.83
685.053	40681.88
685.4	40638.72
685.748	40342.91
686.095	40506.29
686.443	40417.26
686.79	40289.12
687.138	40356.24
687.485	40346.52
687.832	40300.88
688.18	40206.41
688.527	40026.08
688.874	39924.84
689.221	40008
689.568	39798.06
689.915	39752.42
690.262	39826.54
690.609	39533.21
690.956	39435.81
691.303	39482.14
691.65	39279.66
691.997	39152.66
692.344	38944.75
692.69	39150.85
693.037	39009.61
693.383	38697.98
693.73	38902.04
694.077	38477.87
694.423	38571.43
694.769	38495.05
695.116	38442.85
695.462	38339.57
695.808	38285.56
696.155	38256.41
696.501	38118.11
696.847	37995.63
697.193	37772.58
697.539	38030.65
697.885	37736.87
698.231	37480.84
698.577	37698.46
698.923	37696.88
699.269	37377.79
699.614	37196.78
699.96	37203.33
700.306	37146.38
700.651	36947.74
700.997	36972.83
701.342	36829.78
701.688	36814.41
702.033	36717.01
702.379	36668.43
702.724	36505.27
703.069	36506.4
703.415	36252.62
703.76	36230.47
704.105	36199.97
704.45	36167.2
704.795	35963.81
705.14	35889.69
705.485	35784.38
705.83	35704.84
706.175	35627.33
706.52	35604.05
706.865	35454.22
707.209	35430.27
707.554	35314.57
707.899	35285.19
708.243	35204.74
708.588	35153.21
708.932	34892.2
709.277	34906.89
709.621	34929.04
709.966	34747.8
710.31	34826.9
710.654	34515.94
710.998	34553
711.342	34603.62
711.687	34550.74
712.031	34463.97
712.375	34157.08
712.719	34152.34
713.063	34174.26
713.407	34308.94
713.75	34086.8
714.094	34065.79
714.438	33991.89
714.782	33998.89
715.125	33845.9
715.469	33834.38
715.812	33646.81
716.156	33431.68
716.499	33493.82
716.843	33522.07
717.186	33312.81
717.53	33426.93
717.873	33474.16
718.216	33360.72
718.559	33266.71
718.902	33080.5
719.246	33179.93
719.589	32950.79
719.932	32913.72
720.275	32876.44
720.617	32809.32
720.96	32719.83
721.303	32675.54
721.646	32680.06
721.989	32582.21
722.331	32648.65
722.674	32502.21
723.016	32652.71
723.359	32485.26
723.701	32527.52
724.044	32258.15
724.386	32022.9
724.729	32323.01
725.071	32164.82
725.413	32120.53
725.755	32080.3
726.097	32029.91
726.439	31741.33
726.782	31899.97
727.124	31936.58
727.465	31744.49
727.807	31761.89
728.149	31622.46
728.491	31549.69
728.833	31678.28
729.175	31504.5
729.516	31520.54
729.858	31386.76
730.199	31494.78
730.541	31360.77
730.882	31308.57
731.224	31424.95
731.565	31031.29
731.906	31180.89
732.248	31179.76
732.589	31112.42
732.93	30981.12
733.271	30906.55
733.612	31092.08
733.953	31060.67
734.294	30894.8
734.635	30802.37
734.976	30886.21
735.317	30549.72
735.658	30715.36
735.999	30683.73
736.339	30615.48
736.68	30654.8
737.021	30593.11
737.361	30321.7
737.702	30452.09
738.042	30478.31
738.383	30309.05
738.723	30363.96
739.063	30390.85
739.404	30238.32
739.744	30180.92
740.084	30127.58
740.424	30126.91
740.764	30145.21
741.104	30288.26
741.444	30000.81
741.784	29880.58
742.124	29917.65
742.464	29836.29
742.804	29692.79
743.143	29707.71
743.483	29808.72
743.823	29657.54
744.162	29603.53
744.502	29670.65
744.841	29465.23
745.181	29681.95
745.52	29426.81
745.86	29549.29
746.199	29509.52
746.538	29408.05
746.877	29516.53
747.216	29465.68
747.556	29365.12
747.895	29312.69
748.234	29218.45
748.573	29092.13
748.911	29175.07
749.25	29110.66
749.589	28952.25
749.928	28939.59
750.267	28929.42
750.605	28897.79
750.944	28930.1
751.283	28731.69
751.621	28837.67
751.96	28531.24
752.298	28585.93
752.636	28611.69
752.975	28550.68
753.313	28310
753.651	28450.34
753.989	28357.69
754.327	28411.92
754.666	28136
755.004	28159.05
755.342	28346.61
755.679	28149.56
756.017	27961.54
756.355	28053.97
756.693	27975.32
757.031	28014.64
757.368	27825.05
757.706	27796.12
758.044	27744.37
758.381	27726.97
758.719	27697.82
759.056	27626.63
759.394	27565.84
759.731	27336.24
760.068	27434.55
760.405	27154.78
760.743	27157.72
761.08	27156.14
761.417	27094.67
761.754	26926.31
762.091	26897.84
762.428	26884.28
762.765	26675.47
763.102	26669.82
763.438	26547.34
763.775	26429.6
764.112	26539.88
764.449	26517.28
764.785	26327.01
765.122	26187.35
765.458	26079.55
765.795	26076.39
766.131	26154.35
766.467	25957.75
766.804	25795.49
767.14	25763.63
767.476	25750.52
767.812	25590.75
768.148	25572
768.485	25397.09
768.821	25448.16
769.157	25319.8
769.492	25275.73
769.828	25220.59
770.164	25064.89
770.5	24989.64
770.836	24930.88
771.171	24632.81
771.507	24757.78
771.842	24584.68
772.178	24545.58
772.513	24477.79
772.849	24379.49
773.184	24224.46
773.519	24173.16
773.855	24130.45
774.19	24078.93
774.525	23971.81
774.86	23927.07
775.195	23889.78
775.53	23815.21
775.865	23673.29
776.2	23485.95
776.535	23404.82
776.87	23419.06
777.205	23244.15
777.539	23105.17
777.874	23255.22
778.209	23022.01
778.543	23013.42
778.878	22945.63
779.212	22829.02
779.547	22712.41
779.881	22687.78
780.215	22488.24
780.55	22557.16
780.884	22392.42
781.218	22397.84
781.552	22415.47
781.886	22201.46
782.22	22117.17
782.554	21964.63
782.888	21861.59
783.222	21734.13
783.556	21730.52
783.889	21659.78
784.223	21484.65
784.557	21424.31
784.89	21514.7
785.224	21321.94
785.557	21234.26
785.891	21231.32
786.224	21295.05
786.558	21097.99
786.891	20886.02
787.224	20866.81
787.557	20773.03
787.891	20797.66
788.224	20752.46
788.557	20712.92
788.89	20532.81
789.223	20564.45
789.556	20420.49
789.888	20440.15
790.221	20302.53
790.554	20225.02
790.887	20116.77
791.219	20045.14
791.552	20065.7
791.884	19890.11
792.217	19906.16
792.549	19737.57
792.882	19624.36
793.214	19596.11
793.546	19657.35
793.879	19532.61
794.211	19413.06
794.543	19445.83
794.875	19349.79
795.207	19411.93
795.539	19244.93
795.871	19308.66
796.203	19161.77
796.535	19009.46
796.867	18981.44
797.198	18966.07
797.53	18992.06
797.862	18713.19
798.193	18759.75
798.525	18715.91
798.856	18649.92
799.188	18568.11
799.519	18492.64
799.85	18331.96
800.182	18415.12
800.513	18331.96
800.844	18212.87
801.175	18213.09
801.506	18195.47
801.837	18040.44
802.168	18013.55
802.499	17945.76
802.83	17879.32
803.161	17829.38
803.491	17852.65
803.822	17739.89
804.153	17633.67
804.483	17568.14
804.814	17449.05
805.145	17500.12
805.475	17507.8
805.805	17427.13
806.136	17428.93
806.466	17317.75
806.796	17358.88
807.126	17217.19
807.457	17140.35
807.787	17166.12
808.117	17014.26
808.447	17030.3
808.777	17098.55
809.107	16922.06
809.436	16844.32
809.766	16896.29
810.096	16857.42
810.426	16753.47
810.755	16754.6
811.085	16654.49
811.414	16694.94
811.744	16461.05
812.073	16557.32
812.403	16480.03
812.732	16367.95
813.061	16381.5
813.39	16256.31
813.719	16374.27
814.049	16364.1
814.378	16239.14
814.707	16159.14
815.036	16210.66
815.365	16098.35
815.693	15921.4
816.022	15992.81
816.351	16032.36
816.68	15853.16
817.008	15899.26
817.337	15713.73
817.665	15664.46
817.994	15803.89
818.322	15771.58
818.651	15737.91
818.979	15619.04
819.307	15718.24
819.636	15663.33
819.964	15480.96
820.292	15505.82
820.62	15552.83
820.948	15459.72
821.276	15508.31
821.604	15452.49
821.932	15406.39
822.259	15520.51
822.587	15486.61
822.915	15395.99
823.243	15436.22
823.57	15425.37
823.898	15421.3
824.225	15364.81
824.553	15320.06
824.88	15305.37
825.207	15461.98
825.535	15375.66
825.862	15450.46
826.189	15422.21
826.516	15447.52
826.843	15426.73
827.17	15389.89
827.497	15434.86
827.824	15395.77
828.151	15438.48
828.478	15404.35
828.805	15354.41
829.131	15313.74
829.458	15370.68
829.785	15219.5
830.111	15306.5
830.438	15285.04
830.764	15333.85
831.09	15414.07
831.417	15262.21
831.743	15283.91
832.069	15337.46
832.395	15252.72
832.722	15274.41
833.048	15201.2
833.374	15218.82
833.7	15007.3
834.026	15168.43
834.351	15241.65
834.677	15188.54
835.003	15129.56
835.329	15141.76
835.654	15059.96
835.98	15030.13
836.306	15013.18
836.631	15016.12
836.956	15012.5
837.282	15106.28
837.607	15014.31
837.932	14944.93
838.258	14957.13
838.583	14885.5
838.908	14861.54
839.233	14841.66
839.558	14852.28
839.883	14718.05
840.208	14819.51
840.533	14752.85
840.858	14722.11
841.182	14688.89
841.507	14661.78
841.832	14628.56
842.156	14541.78
842.481	14562.57
842.805	14532.97
843.13	14495.68
843.454	14438.05
843.778	14458.62
844.103	14426.08
844.427	14386.3
844.751	14350.15
845.075	14320.54
845.399	14309.47
845.723	14211.84
846.047	14196.7
846.371	14103.6
846.695	14136.59
847.019	13945.41
847.343	13992.19
847.666	13793.78
847.99	13755.81
848.313	13809.14
848.637	13718.52
848.96	13606.21
849.284	13639.43
849.607	13562.14
849.931	13541.35
850.254	13460.68
850.577	13403.05
850.9	13285.09
851.223	13193.11
851.546	13144.53
851.869	13102.27
852.192	13187.92
852.515	13054.36
852.838	13064.76
853.161	13009.16
853.483	12887.81
853.806	12871.99
854.129	12779.57
854.451	12754.93
854.774	12808.26
855.096	12689.4
855.419	12747.93
855.741	12668.16
856.063	12570.76
856.385	12601.72
856.708	12521.94
857.03	12453.02
857.352	12469.29
857.674	12398.11
857.996	12285.11
858.318	12299.58
858.64	12309.52
858.961	12272.69
859.283	12250.99
859.605	12086.48
859.926	12227.26
860.248	12077.89
860.57	12011.9
860.891	12051.22
861.212	11923.54
861.534	11972.81
861.855	11955.18
862.176	11987.95
862.498	11912.47
862.819	11886.03
863.14	11790.44
863.461	11878.12
863.782	11815.3
864.103	11798.57
864.424	11796.99
864.745	11807.84
865.065	11626.38
865.386	11680.61
865.707	11626.15
866.027	11694.17
866.348	11625.92
866.668	11611.46
866.989	11634.51
867.309	11562.42
867.63	11508.19
867.95	11554.51
868.27	11412.14
868.59	11518.81
868.91	11442.88
869.23	11445.59
869.55	11313.61
869.87	11432.71
870.19	11383.9
870.51	11382.09
870.83	11366.49
871.15	11286.27
871.469	11270.23
871.789	11304.12
872.109	11280.85
872.428	11290.11
872.748	11210.79
873.067	11215.31
873.386	11230.68
873.706	11204.69
874.025	11189.1
874.344	11153.17
874.663	11123.34
874.982	11101.42
875.301	11077.69
875.62	11044.24
875.939	10988.43
876.258	11010.12
876.577	10975.32
876.896	10931.25
877.214	10918.15
877.533	10946.17
877.852	10942.55
878.17	10959.95
878.489	10959.73
878.807	10923.34
879.125	10902.1
879.444	10757.92
879.762	10841.76
880.08	10851.48
880.398	10661.43
880.716	10845.38
881.034	10799.96
881.352	10750.01
881.67	10669.34
881.988	10716.79
882.306	10733.07
882.624	10641.77
882.941	10670.24
883.259	10576.91
883.577	10578.27
883.894	10548.89
884.212	10519.51
884.529	10510.02
884.846	10446.97
885.164	10471.6
885.481	10442.9
885.798	10432.73
886.115	10353.87
886.432	10355.9
886.75	10289.91
887.067	10329.46
887.383	10210.37
887.7	10282.46
888.017	10144.15
888.334	10236.81
888.651	10177.37
888.967	10128.34
889.284	10102.8
889.6	10135.57
889.917	9985.06
890.233	10057.6
890.55	9927.89
890.866	10042.24
891.182	9931.73
891.498	9881.56
891.815	9882.24
892.131	9820.55
892.447	9778.74
892.763	9759.76
893.079	9765.18
893.395	9664.84
893.71	9731.51
894.026	9666.88
894.342	9604.96
894.657	9627.78
894.973	9632.08
895.289	9615.58
895.604	9593.43
895.92	9442.7
896.235	9502.14
896.55	9454.23
896.865	9443.16
897.181	9385.76
897.496	9399.99
897.811	9333.1
898.126	9264.4
898.441	9266.66
898.756	9264.63
899.071	9211.75
899.386	9164.52
899.7	9142.15
900.015	9063.73
900.33	8977.63
900.644	9038.87
900.959	8982.83
901.273	8995.48
901.588	8880.23
901.902	8878.2
902.216	8842.27
902.531	8868.26
902.845	8778.77
903.159	8802.72
903.473	8691.09
903.787	8665.32
904.101	8678.66
904.415	8666.23
904.729	8604.08
905.042	8537.64
905.356	8505.33
905.67	8551.65
905.984	8544.42
906.297	8598.88
906.611	8401.38
906.924	8369.51
907.237	8405.67
907.551	8337.87
907.864	8304.2
908.177	8323.86
908.491	8234.15
908.804	8174.71
909.117	8113.02
909.43	8172.91
909.743	8103.53
910.056	8078.45
910.368	7999.13
910.681	8014.49
910.994	7956.87
911.307	7968.39
911.619	7840.71
911.932	7918.22
912.244	7826.02
912.557	7783.99
912.869	7756.87
913.181	7721.62
913.494	7742.18
913.806	7683.65
914.118	7654.95
914.43	7634.16
914.742	7559.14
915.054	7554.39
915.366	7521.17
915.678	7471
915.99	7448.86
916.302	7394.62
916.613	7406.83
916.925	7360.72
917.236	7304.68
917.548	7303.55
917.859	7304.91
918.171	7186.04
918.482	7219.71
918.794	7170
919.105	7151.24
919.416	7054.74
919.727	7106.04
920.038	7062.2
920.349	7024.46
920.66	6955.54
920.971	6902.88
921.282	6974.52
921.593	6891.58
921.903	6837.8
922.214	6866.05
922.525	6869.66
922.835	6826.5
923.146	6733.62
923.456	6748.54
923.767	6697.01
924.077	6692.95
924.387	6638.94
924.697	6660.63
925.008	6630.8
925.318	6538.15
925.628	6603.68
925.938	6571.37
926.248	6498.15
926.558	6493.85
926.867	6429.45
927.177	6418.15
927.487	6375.21
927.796	6329.79
928.106	6357.36
928.416	6249.79
928.725	6314.65
929.034	6258.15
929.344	6280.53
929.653	6181.77
929.962	6155.56
930.271	6109.46
930.581	6132.28
930.89	6073.3
931.199	6067.2
931.508	6110.14
931.817	6082.57
932.125	6006.41
932.434	5985.17
932.743	5935.23
933.051	5895.45
933.36	5891.16
933.669	5793.99
933.977	5837.83
934.286	5798.28
934.594	5753.08
934.902	5732.74
935.21	5717.83
935.519	5702.46
935.827	5698.85
936.135	5638.51
936.443	5617.72
936.751	5555.8
937.059	5557.83
937.367	5538.85
937.674	5514.22
937.982	5486.42
938.29	5475.8
938.597	5481.45
938.905	5443.49
939.213	5323.26
939.52	5342.47
939.827	5401
940.135	5323.94
940.442	5359.87
940.749	5302.02
941.056	5299.76
941.363	5234.68
941.67	5192.19
941.977	5207.79
942.284	5169.82
942.591	5171.18
942.898	5128.01
943.205	5165.08
943.511	5088.69
943.818	5083.27
944.125	5050.28
944.431	5044.63
944.738	4990.39
945.044	4989.71
945.35	4994.23
945.657	4951.97
945.963	4936.38
946.269	4890.73
946.575	4934.35
946.881	4842.37
947.187	4836.95
947.493	4798.31
947.799	4795.37
948.105	4741.36
948.41	4716.5
948.716	4734.8
949.022	4737.52
949.327	4681.02
949.633	4647.58
949.938	4680.12
950.244	4657.52
950.549	4618.88
950.854	4608.93
951.16	4552.21
951.465	4520.57
951.77	4552.89
952.075	4526
952.38	4500.46
952.685	4482.38
952.99	4477.86
953.294	4435.83
953.599	4425.89
953.904	4406
954.209	4374.36
954.513	4331.88
954.818	4292.33
955.122	4308.38
955.426	4288.94
955.731	4276.06
956.035	4286.91
956.339	4266.79
956.643	4199.9
956.948	4242.84
957.252	4193.8
957.556	4204.65
957.86	4186.8
958.163	4135.5
958.467	4120.81
958.771	4145.22
959.075	4070.87
959.378	4074.71
959.682	4067.25
959.985	4040.36
960.289	4020.02
960.592	3980.7
960.896	3999.68
961.199	3965.33
961.502	3938.44
961.805	3910.65
962.108	3920.59
962.411	3880.82
962.714	3824.55
963.017	3847.82
963.32	3850.76
963.623	3827.26
963.926	3815.06
964.228	3821.83
964.531	3787.26
964.833	3761.05
965.136	3722.85
965.438	3723.08
965.741	3710.43
966.043	3709.52
966.345	3662.29
966.648	3714.72
966.95	3637.21
967.252	3620.26
967.554	3641.27
967.856	3575.74
968.158	3588.17
968.46	3561.28
968.761	3575.74
969.063	3507.72
969.365	3530.77
969.666	3487.15
969.968	3508.17
970.269	3493.48
970.571	3459.36
970.872	3456.42
971.174	3416.87
971.475	3417.78
971.776	3399.47
972.077	3384.56
972.378	3388.63
972.679	3368.06
972.98	3341.4
973.281	3342.75
973.582	3305.01
973.883	3309.98
974.183	3286.26
974.484	3252.13
974.785	3231.34
975.085	3223.66
975.386	3230.44
975.686	3233.6
975.986	3208.97
976.287	3164
976.587	3178.46
976.887	3189.99
977.187	3105.02
977.487	3115.41
977.787	3093.27
978.087	3118.8
978.387	3088.07
978.687	3047.17
978.987	3064.79
979.286	3034.06
979.586	3047.17
979.885	2964
980.185	2999.71
980.484	2950.45
980.784	2976.89
981.083	2930.33
981.382	2933.5
981.682	2966.72
981.981	2948.86
982.28	2917.23
982.579	2887.62
982.878	2850.33
983.177	2859.37
983.475	2860.73
983.774	2854.18
984.073	2846.94
984.372	2811.47
984.67	2853.72
984.969	2784.12
985.267	2800.62
985.566	2771.01
985.864	2749.32
986.162	2747.74
986.461	2765.82
986.759	2737.34
987.057	2692.6
987.355	2694.18
987.653	2701.86
987.951	2639.04
988.249	2629.55
988.547	2648.76
988.844	2645.14
989.142	2615.76
989.44	2621.19
989.737	2620.74
990.035	2583.45
990.332	2566.73
990.63	2592.94
990.927	2543.45
991.224	2533.51
991.521	2528.99
991.819	2507.74
992.116	2521.3
992.413	2514.98
992.71	2462.1
993.006	2449.22
993.303	2468.65
993.6	2446.73
993.897	2462.77
994.193	2434.75
994.49	2427.07
994.787	2397.47
995.083	2408.54
995.379	2368.31
995.676	2356.56
995.972	2371.7
996.268	2344.59
996.565	2329.44
996.861	2342.1
997.157	2333.96
997.453	2320.86
997.749	2279.28
998.044	2277.92
998.34	2273.17
998.636	2281.31
998.932	2240.63
999.227	2247.86
999.523	2227.3
999.818	2198.37
1000.114	2174.65
1000.409	2147.98
1000.704	2134.42
1001	2159.51
1001.295	2157.25
1001.59	2146.17
1001.885	2130.81
1002.18	2131.94
1002.475	2092.61
1002.77	2098.49
1003.065	2111.82
1003.359	2074.54
1003.654	2071.37
1003.949	2044.48
1004.243	2056.68
1004.538	2042.22
1004.832	2024.37
1005.127	1998.61
1005.421	1984.14
1005.715	1969.91
1006.009	1946.18
1006.304	1989.57
1006.598	1942.79
1006.892	1934.43
1007.186	1944.82
1007.48	1888.78
1007.773	1910.02
1008.067	1873.19
1008.361	1858.5
1008.655	1856.91
1008.948	1874.77
1009.242	1837.25
1009.535	1844.49
1009.829	1825.73
1010.122	1825.28
1010.415	1815.79
1010.708	1812.85
1011.001	1795.67
1011.295	1808.33
1011.588	1769.91
1011.881	1756.35
1012.173	1750.48
1012.466	1743.92
1012.759	1706.41
1013.052	1727.2
1013.344	1687.88
1013.637	1709.57
1013.93	1670.03
1014.222	1714.55
1014.514	1701.21
1014.807	1658.05
1015.099	1656.47
1015.391	1637.49
1015.683	1619.18
1015.976	1637.94
1016.268	1642.46
1016.56	1593.64
1016.851	1615.34
1017.143	1571.05
1017.435	1556.13
1017.727	1557.49
1018.018	1538.28
1018.31	1531.05
1018.602	1564.04
1018.893	1531.73
1019.185	1514.1
1019.476	1508.68
1019.767	1516.58
1020.058	1512.52
1020.35	1467.55
1020.641	1442.01
1020.932	1462.57
1021.223	1439.52
1021.514	1434.1
1021.804	1411.28
1022.095	1417.6
1022.386	1446.98
1022.677	1369.7
1022.967	1402.46
1023.258	1378.73
1023.548	1377.83
1023.839	1362.46
1024.129	1335.8
1024.419	1334.22
1024.709	1347.78
1025	1333.31
1025.29	1350.94
1025.58	1285.86
1025.87	1302.13
1026.16	1309.81
1026.449	1305.74
1026.739	1288.34
1027.029	1252.18
1027.319	1272.75
1027.608	1273.43
1027.898	1279.08
1028.187	1247.89
1028.477	1237.5
1028.766	1195.46
1029.055	1205.18
1029.344	1221.22
1029.634	1180.32
1029.923	1202.92
1030.212	1197.27
1030.501	1184.39
1030.79	1185.97
1031.078	1148.01
1031.367	1124.96
1031.656	1144.62
1031.945	1134.22
1032.233	1145.97
1032.522	1129.25
1032.81	1139.65
1033.099	1094.67
1033.387	1090.15
1033.675	1105.3
1033.963	1093.09
1034.251	1064.84
1034.54	1061.91
1034.828	1058.97
1035.116	1044.28
1035.403	1026.43
1035.691	1023.49
1035.979	1049.93
1036.267	1068.69
1036.554	1028.46
1036.842	1037.95
1037.129	1025.52
1037.417	1009.03
1037.704	999.31
1037.992	1002.93
1038.279	985.75
1038.566	994.34
1038.853	994.34
1039.14	994.34
