Data from hue_110_FLMS001491_00060.txt Node
Date: Tue Feb 07 17:01:32 GMT 2017
User: dcchb
Spectrometer: FLMS00149
Trigger mode: 0
Integration Time (sec): 2.000000E-2
Scans to average: 10
Electric dark correction enabled: true
Nonlinearity correction enabled: false
Boxcar width: 0
XAxis mode: Wavelengths
Number of Pixels in Spectrum: 2048
>>>>>Begin Spectral Data<<<<<
341.393	-11.03
341.776	-11.03
342.16	-11.03
342.543	-56.68
342.927	-74.98
343.31	-61.2
343.693	-66.85
344.077	-54.65
344.46	-83.35
344.843	-54.87
345.226	-41.54
345.61	-29.34
345.993	-20.75
346.376	4.56
346.759	12.02
347.142	40.04
347.525	40.49
347.908	50.89
348.291	72.13
348.674	96.76
349.057	95.63
349.44	136.76
349.823	163.43
350.206	168.4
350.588	181.51
350.971	196.87
351.354	238.68
351.737	223.09
352.119	234.61
352.502	240.26
352.884	271.9
353.267	290.2
353.65	299.02
354.032	299.24
354.414	337.21
354.797	308.06
355.179	319.13
355.562	328.62
355.944	302.86
356.326	334.72
356.709	329.75
357.091	334.04
357.473	325.68
357.855	334.27
358.238	339.02
358.62	329.75
359.002	365
359.384	373.14
359.766	342.63
360.148	342.86
360.53	357.1
360.912	305.12
361.294	336.98
361.676	341.95
362.057	333.37
362.439	338.56
362.821	341.05
363.203	336.53
363.584	337.43
363.966	339.69
364.348	320.49
364.729	322.75
365.111	325.01
365.493	310.77
365.874	311.22
366.256	327.94
366.637	318.45
367.019	287.72
367.4	303.99
367.781	307.38
368.163	315.06
368.544	305.35
368.925	306.47
369.306	334.72
369.688	311.22
370.069	327.27
370.45	318.23
370.831	317.77
371.212	298.11
371.593	318.9
371.974	311.45
372.355	324.33
372.736	317.77
373.117	334.95
373.498	318.68
373.879	318.23
374.26	324.1
374.641	299.7
375.021	340.6
375.402	313.93
375.783	304.89
376.163	322.29
376.544	325.91
376.925	339.69
377.305	310.32
377.686	347.15
378.066	313.48
378.447	314.38
378.827	327.72
379.208	325.46
379.588	333.14
379.968	336.3
380.349	324.78
380.729	325.68
381.109	329.98
381.489	345.57
381.87	323.2
382.25	333.82
382.63	332.01
383.01	357.77
383.39	331.33
383.77	331.79
384.15	344.44
384.53	347.15
384.91	364.78
385.29	338.79
385.67	351.67
386.049	334.72
386.429	373.59
386.809	339.24
387.189	342.41
387.568	337.21
387.948	331.79
388.328	333.37
388.707	358.45
389.087	344.89
389.466	335.17
389.846	348.28
390.225	343.54
390.605	341.28
390.984	352.8
391.363	378.34
391.743	378.34
392.122	390.99
392.501	374.27
392.881	367.72
393.26	361.39
393.639	378.34
394.018	359.13
394.397	380.15
394.776	384.44
395.155	371.11
395.534	367.26
395.913	369.75
396.292	370.2
396.671	383.54
397.05	367.26
397.429	403.42
397.808	369.07
398.186	380.6
398.565	396.19
398.944	401.84
399.323	383.99
399.701	412.91
400.08	403.42
400.458	390.09
400.837	397.55
401.215	399.58
401.594	407.26
401.972	397.09
402.351	422.86
402.729	416.75
403.107	415.85
403.486	425.79
403.864	428.05
404.242	423.99
404.62	416.53
404.999	423.76
405.377	425.79
405.755	407.72
406.133	426.47
406.511	405
406.889	453.59
407.267	420.82
407.645	419.01
408.023	432.35
408.401	435.29
408.779	416.3
409.156	437.32
409.534	443.87
409.912	432.8
410.29	444.1
410.667	435.74
411.045	426.47
411.422	441.61
411.8	454.72
412.178	462.63
412.555	438.22
412.933	452.91
413.31	471.89
413.687	470.76
414.065	473.25
414.442	486.58
414.819	477.09
415.197	493.59
415.574	495.85
415.951	471.22
416.328	474.38
416.705	475.74
417.082	492.46
417.46	479.35
417.837	499.24
418.214	506.24
418.591	502.85
418.967	502.4
419.344	518.22
419.721	516.19
420.098	519.58
420.475	511.44
420.852	517.99
421.228	538.56
421.605	529.29
421.982	540.82
422.358	527.26
422.735	545.11
423.111	534.94
423.488	522.74
423.864	540.14
424.241	533.14
424.617	541.5
424.994	546.02
425.37	558.45
425.746	553.47
426.123	579.69
426.499	572.23
426.875	557.99
427.251	578.33
427.627	586.24
428.003	593.02
428.379	591.89
428.756	596.86
429.132	604.09
429.507	602.74
429.883	619.24
430.259	621.04
430.635	615.85
431.011	596.86
431.387	623.08
431.763	646.13
432.138	638.9
432.514	629.86
432.89	626.92
433.265	655.17
433.641	655.62
434.016	662.62
434.392	659.01
434.767	674.83
435.143	664.66
435.518	665.11
435.894	694.49
436.269	693.36
436.644	679.12
437.02	704.66
437.395	705.11
437.77	695.84
438.145	698.78
438.52	703.3
438.895	725.22
439.271	736.29
439.646	742.62
440.021	749.18
440.395	752.34
440.77	748.72
441.145	745.79
441.52	774.49
441.895	789.85
442.27	766.8
442.645	779.23
443.019	781.94
443.394	761.6
443.769	795.95
444.143	789.63
444.518	800.93
444.892	800.7
445.267	800.02
445.641	802.06
446.016	827.82
446.39	821.04
446.764	811.55
447.139	821.04
447.513	836.4
447.887	834.14
448.262	852.22
448.636	838.44
449.01	852
449.384	872.34
449.758	862.17
450.132	876.18
450.506	878.21
450.88	888.61
451.254	879.12
451.628	897.19
452.002	924.99
452.376	934.03
452.75	915.95
453.123	906.69
453.497	946.68
453.871	940.13
454.244	942.62
454.618	948.72
454.992	955.72
455.365	962.05
455.739	984.2
456.112	1000.92
456.486	1009.06
456.859	1002.95
457.232	1029.17
457.606	1035.95
457.979	1031.43
458.352	1055.38
458.725	1089.51
459.099	1093.8
459.472	1118.21
459.845	1105.32
460.218	1126.34
460.591	1129.96
460.964	1115.04
461.337	1190.52
461.71	1181.71
462.083	1204.53
462.456	1208.6
462.829	1228.48
463.201	1261.93
463.574	1250.4
463.947	1262.83
464.32	1291.99
464.692	1278.43
465.065	1323.4
465.438	1313
465.81	1329.27
466.183	1376.05
466.555	1397.29
466.928	1401.14
467.3	1425.77
467.672	1440.23
468.045	1484.07
468.417	1475.94
468.789	1480
469.161	1538.53
469.534	1564.97
469.906	1574.69
470.278	1592.54
470.65	1624.18
471.022	1673.67
471.394	1696.04
471.766	1760
472.138	1753.89
472.51	1784.85
472.882	1835.25
473.253	1840.67
473.625	1869.82
473.997	1972.87
474.369	1973.32
474.74	2024.85
475.112	2073.43
475.484	2116.37
475.855	2166.54
476.227	2209.7
476.598	2282.24
476.97	2293.99
477.341	2348
477.713	2439.98
478.084	2508.45
478.455	2561.33
478.827	2605.85
479.198	2706.64
479.569	2769.01
479.94	2847.88
480.311	2914.32
480.682	3010.13
481.053	3069.34
481.424	3171.26
481.795	3258.94
482.166	3317.47
482.537	3402.89
482.908	3541.87
483.279	3544.36
483.65	3667.29
484.021	3809.66
484.391	3898.7
484.762	3999.71
485.133	4086.04
485.503	4246.94
485.874	4279.48
486.244	4388.63
486.615	4556.08
486.985	4629.75
487.356	4810.76
487.726	4865
488.097	5045.79
488.467	5142.96
488.837	5242.84
489.207	5362.84
489.578	5506.79
489.948	5631.98
490.318	5767.8
490.688	5841.24
491.058	6021.8
491.428	6145.64
491.798	6289.37
492.168	6468.57
492.538	6575.91
492.908	6704.95
493.278	6789.92
493.648	6914.66
494.017	7116.92
494.387	7191.72
494.757	7295.9
495.126	7424.71
495.496	7538.15
495.866	7617.02
496.235	7811.81
496.605	7891.13
496.974	7986.05
497.344	8155.31
497.713	8249.99
498.082	8351.69
498.452	8497.67
498.821	8637.78
499.19	8720.27
499.559	8789.64
499.928	8923.2
500.298	8974.72
500.667	9125
501.036	9133.36
501.405	9261.95
501.774	9348.95
502.143	9513.46
502.512	9530.87
502.88	9658.55
503.249	9736.51
503.618	9836.62
503.987	9946
504.356	9913.45
504.724	10024.86
505.093	10134.01
505.462	10146.89
505.83	10266.21
506.199	10389.6
506.567	10505.98
506.936	10648.12
507.304	10716.6
507.672	10706.43
508.041	10804.28
508.409	10842.47
508.777	10959.53
509.145	11068
509.514	11145.51
509.882	11098.51
510.25	11158.39
510.618	11256.92
510.986	11317.48
511.354	11382.34
511.722	11390.03
512.09	11521.32
512.458	11490.81
512.826	11565.39
513.193	11681.77
513.561	11679.74
513.929	11702.56
514.297	11822.56
514.664	11956.34
515.032	11923.57
515.4	11945.49
515.767	11978.94
516.135	12120.85
516.502	11986.62
516.869	12211.92
517.237	12176.9
517.604	12142.55
517.972	12279.04
518.339	12156.78
518.706	12246.5
519.073	12300.28
519.44	12377.57
519.808	12459.83
520.175	12455.53
520.542	12624.57
520.909	12592.03
521.276	12589.32
521.643	12635.87
522.009	12648.3
522.376	12703.89
522.743	12728.07
523.11	12861.85
523.477	12863.21
523.843	12964
524.21	13011.23
524.577	12993.83
524.943	13008.51
525.31	13022.75
525.676	13158.79
526.043	13195.63
526.409	13212.35
526.776	13182.75
527.142	13190.88
527.508	13122.86
527.874	13247.83
528.241	13193.37
528.607	13303.65
528.973	13262.52
529.339	13279.02
529.705	13311.56
530.071	13417.99
530.437	13353.36
530.803	13367.15
531.169	13377.32
531.535	13348.84
531.901	13226.59
532.267	13340.71
532.632	13415.06
532.998	13259.35
533.364	13393.59
533.73	13325.12
534.095	13439.01
534.461	13383.65
534.826	13343.19
535.192	13368.28
535.557	13349.52
535.923	13358.56
536.288	13364.21
536.653	13256.42
537.019	13289.18
537.384	13224.1
537.749	13272.91
538.114	13207.15
538.479	13155.85
538.845	13154.72
539.21	13070.66
539.575	13075.63
539.94	13133.03
540.305	13126.25
540.67	13027.95
541.034	13012.58
541.399	13074.27
541.764	13016.88
542.129	12993.6
542.494	12998.34
542.858	12814.85
543.223	12856.2
543.587	12929.42
543.952	12788.63
544.316	12816.2
544.681	12743.44
545.045	12749.54
545.41	12752.02
545.774	12708.41
546.138	12639.71
546.503	12646.72
546.867	12553.38
547.231	12720.84
547.595	12566.49
547.959	12568.07
548.324	12527.85
548.688	12481.97
549.052	12470.67
549.416	12476.32
549.779	12391.58
550.143	12393.61
550.507	12480.39
550.871	12399.94
551.235	12312.26
551.599	12341.86
551.962	12387.74
552.326	12232.49
552.689	12270
553.053	12232.94
553.417	12235.88
553.78	12300.74
554.143	12158.14
554.507	12130.57
554.87	12194.3
555.234	12190
555.597	12096
555.96	12097.35
556.323	12131.02
556.686	12042.89
557.05	12132.15
557.413	12079.95
557.776	11972.38
558.139	12073.4
558.502	12110.23
558.865	12040.86
559.228	12159.04
559.59	12096.9
559.953	12040.63
560.316	12119.5
560.679	12071.82
561.041	12112.72
561.404	12125.83
561.767	12146.39
562.129	12040.86
562.492	12151.81
562.854	12148.42
563.217	12091.93
563.579	12091.02
563.941	12125.83
564.304	12168.31
564.666	12136.22
565.028	12184.35
565.39	12170.34
565.753	12208.76
566.115	12151.36
566.477	12195.65
566.839	12185.94
567.201	12243.34
567.563	12177.8
567.925	12285.82
568.287	12293.96
568.648	12306.61
569.01	12325.14
569.372	12280.62
569.734	12358.36
570.095	12420.73
570.457	12388.42
570.819	12349.55
571.18	12365.59
571.542	12382.54
571.903	12342.09
572.265	12494.86
572.626	12351.58
572.987	12395.2
573.349	12493.73
573.71	12379.38
574.071	12414.86
574.432	12518.81
574.794	12474.74
575.155	12533.5
575.516	12481.07
575.877	12470.9
576.238	12516.1
576.599	12509.77
576.96	12521.97
577.32	12561.52
577.681	12510.45
578.042	12571.92
578.403	12577.34
578.763	12503.67
579.124	12500.28
579.485	12568.53
579.845	12624.34
580.206	12611.46
580.566	12569.66
580.927	12581.41
581.287	12516.78
581.648	12552.03
582.008	12547.96
582.368	12534.85
582.728	12568.53
583.089	12564.23
583.449	12443.56
583.809	12582.76
584.169	12577.34
584.529	12514.52
584.889	12612.37
585.249	12481.52
585.609	12467.96
585.969	12464.35
586.329	12433.39
586.688	12521.52
587.048	12531.24
587.408	12451.24
587.768	12472.71
588.127	12463.67
588.487	12309.78
588.846	12513.39
589.206	12369.89
589.565	12388.64
589.925	12389.1
590.284	12302.32
590.643	12329.21
591.003	12401.3
591.362	12411.69
591.721	12382.09
592.08	12297.35
592.44	12317.23
592.799	12373.95
593.158	12306.84
593.517	12295.54
593.876	12326.05
594.235	12264.58
594.593	12330.57
594.952	12423.9
595.311	12279.49
595.67	12272.94
596.029	12357.68
596.387	12358.81
596.746	12367.4
597.104	12301.19
597.463	12271.81
597.822	12358.36
598.18	12262.32
598.538	12340.96
598.897	12351.13
599.255	12164.47
599.613	12396.78
599.972	12315.42
600.33	12299.61
600.688	12220.96
601.046	12265.26
601.404	12209.66
601.762	12290.57
602.12	12408.3
602.478	12333.28
602.836	12332.37
603.194	12252.15
603.552	12309.78
603.91	12300.74
604.268	12242.43
604.625	12249.44
604.983	12342.99
605.341	12260.96
605.698	12370.56
606.056	12287.85
606.413	12253.51
606.771	12300.51
607.128	12388.42
607.485	12279.04
607.843	12325.82
608.2	12388.19
608.557	12356.1
608.914	12339.38
609.272	12311.81
609.629	12355.2
609.986	12368.53
610.343	12381.64
610.7	12439.49
611.057	12428.19
611.414	12389.55
611.771	12394.07
612.127	12478.81
612.484	12497.34
612.841	12427.74
613.198	12424.35
613.554	12451.01
613.911	12541.41
614.267	12405.59
614.624	12472.71
614.98	12513.61
615.337	12552.03
615.693	12563.1
616.05	12565.59
616.406	12542.99
616.762	12442.88
617.118	12557.23
617.475	12529.66
617.831	12603.55
618.187	12608.52
618.543	12573.72
618.899	12640.39
619.255	12670.44
619.611	12613.04
619.967	12654.85
620.323	12611.24
620.678	12594.06
621.034	12672.25
621.39	12603.1
621.746	12554.74
622.101	12678.13
622.457	12625.93
622.812	12711.12
623.168	12698.69
623.523	12699.14
623.879	12703.66
624.234	12623.21
624.589	12646.26
624.945	12636.55
625.3	12703.44
625.655	12606.72
626.01	12688.07
626.365	12633.38
626.72	12655.08
627.075	12537.79
627.43	12590.22
627.785	12635.42
628.14	12618.24
628.495	12694.17
628.85	12591.8
629.205	12565.36
629.559	12552.25
629.914	12558.13
630.269	12622.08
630.623	12538.7
630.978	12531.69
631.332	12636.32
631.687	12527.17
632.041	12532.37
632.396	12572.59
632.75	12489.21
633.104	12539.37
633.459	12439.49
633.813	12441.98
634.167	12440.17
634.521	12450.11
634.875	12436.33
635.229	12417.79
635.583	12340.06
635.937	12350.68
636.291	12371.47
636.645	12378.02
636.999	12349.32
637.352	12334.41
637.706	12285.82
638.06	12314.75
638.413	12279.27
638.767	12279.95
639.121	12351.81
639.474	12240.17
639.828	12260.51
640.181	12239.49
640.534	12168.08
640.888	12181.87
641.241	12042.21
641.594	12110.01
641.947	12158.37
642.301	12125.83
642.654	12165.15
643.007	12255.09
643.36	12233.39
643.713	12142.55
644.066	12182.77
644.419	12114.3
644.771	12006.28
645.124	11846.74
645.477	11858.04
645.83	11743.46
646.182	11785.72
646.535	11812.39
646.888	11783.91
647.24	11713.18
647.593	11778.49
647.945	11757.47
648.298	11758.38
648.65	11671.37
649.002	11624.6
649.355	11696.91
649.707	11662.79
650.059	11693.52
650.411	11970.12
650.763	11925.83
651.115	12027.07
651.467	11943.01
651.819	12020.74
652.171	11945.04
652.523	11931.03
652.875	11915.66
653.227	11937.58
653.578	11860.07
653.93	12020.29
654.282	11950.24
654.633	11944.59
654.985	11871.37
655.337	11874.76
655.688	11938.26
656.039	11983.23
656.391	11894.19
656.742	11897.36
657.094	11973.29
657.445	12003.57
657.796	11952.27
658.147	11971.25
658.498	11989.56
658.849	12015.77
659.2	11984.59
659.551	11956.56
659.902	11971.25
660.253	11933.29
660.604	12049.44
660.955	11947.3
661.306	11975.09
661.656	11975.32
662.007	11986.39
662.358	11941.2
662.708	11995.66
663.059	11989.11
663.409	11926.28
663.76	12011.03
664.11	12032.95
664.461	12000.18
664.811	11967.41
665.161	12014.42
665.511	11972.16
665.862	12036.79
666.212	12068.65
666.562	12065.26
666.912	12019.61
667.262	11959.28
667.612	12050.8
667.962	11967.64
668.312	12002.44
668.662	11990.46
669.011	12023.68
669.361	11978.26
669.711	11943.23
670.06	11973.74
670.41	11927.64
670.76	11973.74
671.109	12046.05
671.459	11935.32
671.808	11942.1
672.157	11901.65
672.507	11816.68
672.856	11885.15
673.205	11853.97
673.554	11940.07
673.904	11916.34
674.253	11932.16
674.602	11909.56
674.951	11786.17
675.3	11625.73
675.649	11871.14
675.998	11822.56
676.346	11857.81
676.695	11825.49
677.044	11783.69
677.393	11865.49
677.741	11934.64
678.09	11754.08
678.438	11752.05
678.787	11764.48
679.135	11739.17
679.484	11724.71
679.832	11690.13
680.181	11671.15
680.529	11697.59
680.877	11640.41
681.225	11597.7
681.573	11706.18
681.922	11548.89
682.27	11541.89
682.618	11569.68
682.966	11568.78
683.314	11554.31
683.661	11541.43
684.009	11422.11
684.357	11482.9
684.705	11392.51
685.053	11411.04
685.4	11394.55
685.748	11312.29
686.095	11328.78
686.443	11351.61
686.79	11283.59
687.138	11346.64
687.485	11239.52
687.832	11317.71
688.18	11244.27
688.527	11206.3
688.874	11115.23
689.221	11105.97
689.568	11123.37
689.915	11016.25
690.262	10985.74
690.609	11060.77
690.956	10970.6
691.303	10945.74
691.65	10846.76
691.997	10951.84
692.344	10832.3
692.69	10776.71
693.037	10835.92
693.383	10662.81
693.73	10690.16
694.077	10581.23
694.423	10613.1
694.769	10609.93
695.116	10542.36
695.462	10553.44
695.808	10494.23
696.155	10456.72
696.501	10346.21
696.847	10371.97
697.193	10319.77
697.539	10324.97
697.885	10272.54
698.231	10228.02
698.577	10197.06
698.923	10181.47
699.269	10123.17
699.614	10091.98
699.96	10045.65
700.306	10013.11
700.651	9930.18
700.997	9907.35
701.342	9893.12
701.688	9887.69
702.033	9869.39
702.379	9818.09
702.724	9900.57
703.069	9818.77
703.415	9665.1
703.76	9729.5
704.105	9707.81
704.45	9671.2
704.795	9603.18
705.14	9569.28
705.485	9580.13
705.83	9549.85
706.175	9543.07
706.52	9477.76
706.865	9479.79
707.209	9418.1
707.554	9340.81
707.899	9427.59
708.243	9332.45
708.588	9395.73
708.932	9273.92
709.277	9273.24
709.621	9247.93
709.966	9203.64
710.31	9230.53
710.654	9186.92
710.998	9149.63
711.342	9075.51
711.687	9097.66
712.031	9098.11
712.375	9023.99
712.719	9004.1
713.063	9047.49
713.407	9097.88
713.75	8943.76
714.094	8939.47
714.438	8905.34
714.782	8873.48
715.125	8862.41
715.469	8899.24
715.812	8852.24
716.156	8845.91
716.499	8877.78
716.843	8837.55
717.186	8824.9
717.53	8742.41
717.873	8773.6
718.216	8797.78
718.559	8782.18
718.902	8709.64
719.246	8765.46
719.589	8668.06
719.932	8662.19
720.275	8723.65
720.617	8684.79
720.96	8674.16
721.303	8662.87
721.646	8668.06
721.989	8605.69
722.331	8598.23
722.674	8553.04
723.016	8628.52
723.359	8618.8
723.701	8619.02
724.044	8544.45
724.386	8557.56
724.729	8580.16
725.071	8577.9
725.413	8513.72
725.755	8567.73
726.097	8506.26
726.439	8507.39
726.782	8495.64
727.124	8517.78
727.465	8494.96
727.807	8504.23
728.149	8481.4
728.491	8431.46
728.833	8499.71
729.175	8437.11
729.516	8370.44
729.858	8439.37
730.199	8418.8
730.541	8428.3
730.882	8472.14
731.224	8447.05
731.565	8378.81
731.906	8411.57
732.248	8461.97
732.589	8427.62
732.93	8441.18
733.271	8398.92
733.612	8473.04
733.953	8415.41
734.294	8440.05
734.635	8393.04
734.976	8464.45
735.317	8360.27
735.658	8367.28
735.999	8443.66
736.339	8367.51
736.68	8484.11
737.021	8465.13
737.361	8384.45
737.702	8516.43
738.042	8480.5
738.383	8428.75
738.723	8492.02
739.063	8467.16
739.404	8542.87
739.744	8495.86
740.084	8509.88
740.424	8544
740.764	8547.61
741.104	8511.46
741.444	8548.29
741.784	8513.94
742.124	8556.88
742.464	8553.94
742.804	8650.66
743.143	8609.76
743.483	8605.24
743.823	8598.91
744.162	8639.82
744.502	8693.15
744.841	8682.75
745.181	8842.3
745.52	8734.5
745.86	8814.95
746.199	8824.44
746.538	8824.22
746.877	8965.68
747.216	8972.01
747.556	9006.81
747.895	9032.12
748.234	9031.67
748.573	9132.46
748.911	9218.33
749.25	9251.32
749.589	9254.49
749.928	9387.82
750.267	9441.6
750.605	9478.44
750.944	9539.23
751.283	9582.62
751.621	9666.68
751.96	9748.49
752.298	9880.46
752.636	9996.39
752.975	10048.59
753.313	10126.78
753.651	10308.47
753.989	10317.96
754.327	10454.91
754.666	10507.34
755.004	10637.73
755.342	10775.13
755.679	10881.79
756.017	10939.19
756.355	11112.29
756.693	11185.06
757.031	11379.86
757.368	11506.86
757.706	11654.65
758.044	11663.92
758.381	11933.97
758.719	12166.28
759.056	12238.82
759.394	12482.65
759.731	12482.65
760.068	12613.5
760.405	12711.35
760.743	12846.48
761.08	13066.37
761.417	13173.71
761.754	13335.06
762.091	13537.54
762.428	13624.09
762.765	13774.14
763.102	13990.63
763.438	14090.29
763.775	14189.73
764.112	14380.91
764.449	14623.61
764.785	14648.02
765.122	14808.01
765.458	14914.45
765.795	15042.58
766.131	15219.3
766.467	15303.37
766.804	15553.76
767.14	15586.3
767.476	15811.83
767.812	15848.44
768.148	15936.57
768.485	15988.55
768.821	16045.04
769.157	16250.69
769.492	16419.95
769.828	16470.57
770.164	16556.44
770.5	16632.83
770.836	16667.63
771.171	16718.25
771.507	16748.08
771.842	16888.86
772.178	17021.74
772.513	17099.48
772.849	17193.26
773.184	17193.49
773.519	17275.75
773.855	17303.54
774.19	17397.78
774.525	17374.73
774.86	17434.84
775.195	17543.76
775.53	17550.99
775.865	17548.28
776.2	17589.41
776.535	17466.48
776.87	17638.9
777.205	17587.38
777.539	17636.64
777.874	17777.88
778.209	17736.75
778.543	17765.22
778.878	17702.4
779.212	17685
779.547	17710.31
779.881	17780.37
780.215	17743.76
780.55	17949.63
780.884	17812.23
781.218	17845.67
781.552	17861.49
781.886	17815.39
782.22	17747.37
782.554	17816.75
782.888	17685.23
783.222	17698.33
783.556	17721.84
783.889	17684.32
784.223	17584.21
784.557	17612.23
784.89	17694.94
785.224	17658.79
785.557	17617.66
785.891	17550.77
786.224	17569.07
786.558	17534.04
786.891	17505.12
787.224	17395.29
787.557	17418.57
787.891	17424.22
788.224	17379.47
788.557	17391.22
788.89	17287.05
789.223	17475.97
789.556	17360.49
789.888	17255.86
790.221	17216.54
790.554	17099.25
790.887	17191.23
791.219	17130.67
791.552	17066.71
791.884	17042.76
792.217	16986.26
792.549	16964.34
792.882	16858.58
793.214	16833.27
793.546	16847.96
793.879	16831.46
794.211	16778.58
794.543	16784.23
794.875	16850.67
795.207	16731.58
795.539	16712.6
795.871	16762.54
796.203	16583.56
796.535	16490.46
796.867	16497.46
797.198	16471.7
797.53	16515.09
797.862	16392.15
798.193	16384.47
798.525	16370.46
798.856	16345.15
799.188	16246.39
799.519	16160.97
799.85	16048.89
800.182	16081.43
800.513	16117.58
800.844	15939.96
801.175	16109.68
801.506	16000.75
801.837	16002.11
802.168	15906.97
802.499	15803.24
802.83	15773.64
803.161	15766.63
803.491	15756.92
803.822	15746.07
804.153	15661.1
804.483	15595.56
804.814	15597.82
805.145	15524.83
805.475	15527.09
805.805	15417.72
806.136	15448.45
806.466	15498.84
806.796	15400.32
807.126	15305.85
807.457	15281.22
807.787	15302.01
808.117	15241
808.447	15138.63
808.777	15195.58
809.107	15106.54
809.436	15103.83
809.766	15120.32
810.096	14983.6
810.426	14932.53
810.755	14950.61
811.085	14921.91
811.414	14989.03
811.744	14762.82
812.073	14836.94
812.403	14847.11
812.732	14712.88
813.061	14724.63
813.39	14652.54
813.719	14716.49
814.049	14752.2
814.378	14748.58
814.707	14578.19
815.036	14592.65
815.365	14495.48
815.693	14400.57
816.022	14509.49
816.351	14444.86
816.68	14342.94
817.008	14409.16
817.337	14273.34
817.665	14263.4
817.994	14251.42
818.322	14306.56
818.651	14156.28
818.979	14080.12
819.307	14203.28
819.636	14168.03
819.964	14117.19
820.292	14104.08
820.62	14112.21
820.948	14033.8
821.276	14149.95
821.604	13991.99
821.932	14038.77
822.259	14092.1
822.587	14069.5
822.915	13958.32
823.243	13981.37
823.57	13959.22
823.898	14035.38
824.225	13980.01
824.553	13978.43
824.88	13977.75
825.207	13994.02
825.535	13994.25
825.862	14007.58
826.189	14003.06
826.516	14031.76
826.843	14120.12
827.17	14093.01
827.497	14023.63
827.824	14008.26
828.151	14040.35
828.478	14043.97
828.805	14050.07
829.131	14069.95
829.458	13988.6
829.785	13985.21
830.111	14014.82
830.438	13972.33
830.764	13978.66
831.09	14034.48
831.417	14029.28
831.743	14077.86
832.069	13975.72
832.395	13889.62
832.722	14019.33
833.048	14026.11
833.374	13966.91
833.7	13913.12
834.026	13970.07
834.351	13951.99
834.677	13882.84
835.003	13969.39
835.329	13973.01
835.654	13824.09
835.98	13836.51
836.306	13864.08
836.631	13820.7
836.956	13816.18
837.282	13833.12
837.607	13822.28
837.932	13719.46
838.258	13785.89
838.583	13616.63
838.908	13688.27
839.233	13637.42
839.558	13598.55
839.883	13571.21
840.208	13619.57
840.533	13577.31
840.858	13560.59
841.182	13522.62
841.507	13622.96
841.832	13458.45
842.156	13502.96
842.481	13460.03
842.805	13427.71
843.13	13378.45
843.454	13330.99
843.778	13261.61
844.103	13195.85
844.427	13225.01
844.751	13276.98
845.075	13186.81
845.399	13212.35
845.723	13103.2
846.047	13074.73
846.371	12969.64
846.695	12938.23
847.019	12885.35
847.343	12827.73
847.666	12702.31
847.99	12689.43
848.313	12729.2
848.637	12630.44
848.96	12641.74
849.284	12552.48
849.607	12510.9
849.931	12465.93
850.254	12382.09
850.577	12331.47
850.9	12248.76
851.223	12304.58
851.546	12204.92
851.869	12139.61
852.192	12173.96
852.515	12035.21
852.838	11996.11
853.161	11977.81
853.483	11941.65
853.806	11859.84
854.129	11867.53
854.451	11823.23
854.774	11740.07
855.096	11744.37
855.419	11654.65
855.741	11627.99
856.063	11476.8
856.385	11580.98
856.708	11460.98
857.03	11562
857.352	11525.84
857.674	11445.39
857.996	11349.35
858.318	11306.86
858.64	11355.9
858.961	11270.25
859.283	11236.13
859.605	11144.16
859.926	11246.3
860.248	11232.52
860.57	11180.99
860.891	11126.08
861.212	11128.11
861.534	11148.45
861.855	11091.05
862.176	11041.11
862.498	11005.18
862.819	11014.22
863.14	10922.92
863.461	11033.65
863.782	10913.65
864.103	10878.85
864.424	10882.69
864.745	10951.17
865.065	10873.43
865.386	10867.1
865.707	10855.12
866.027	10840.66
866.348	10767.67
866.668	10688.12
866.989	10755.24
867.309	10631.85
867.63	10674.11
867.95	10682.47
868.27	10622.81
868.59	10634.11
868.91	10653.77
869.23	10609.48
869.55	10550.05
869.87	10624.17
870.19	10548.92
870.51	10532.42
870.83	10571.52
871.15	10548.01
871.469	10510.27
871.789	10527
872.109	10426.21
872.428	10397.51
872.748	10370.84
873.067	10415.14
873.386	10405.87
873.706	10394.35
874.025	10357.51
874.344	10310.73
874.663	10269.83
874.982	10309.6
875.301	10244.07
875.62	10214.92
875.939	10208.59
876.258	10255.14
876.577	10214.69
876.896	10176.05
877.214	10189.83
877.533	10171.3
877.852	10104.64
878.17	10034.81
878.489	10089.04
878.807	10096.95
879.125	10003.85
879.444	9989.84
879.762	10064.86
880.08	10058.53
880.398	10029.61
880.716	10042.94
881.034	10007.91
881.352	9954.13
881.67	9895.83
881.988	9923.17
882.306	9855.6
882.624	9886.34
882.941	9863.29
883.259	9921.59
883.577	9786.45
883.894	9772.67
884.212	9765.66
884.529	9780.35
884.846	9728.37
885.164	9662.84
885.481	9741.03
885.798	9674.59
886.115	9580.81
886.432	9600.24
886.75	9604.99
887.067	9632.11
887.383	9551.66
887.7	9558.21
888.017	9471.66
888.334	9467.59
888.651	9494.93
888.967	9427.14
889.284	9350.98
889.6	9401.6
889.917	9328.16
890.233	9323.41
890.55	9279.57
890.866	9245.45
891.182	9179.24
891.498	9239.12
891.815	9206.81
892.131	9125.23
892.447	9107.37
892.763	9068.05
893.079	9063.31
893.395	9025.34
893.71	9012.01
894.026	9012.69
894.342	8948.51
894.657	8946.7
894.973	8852.01
895.289	8914.84
895.604	8840.26
895.92	8751.9
896.235	8787.38
896.55	8769.98
896.865	8699.25
897.181	8683.88
897.496	8681.62
897.811	8658.12
898.126	8604.34
898.441	8627.16
898.756	8544
899.071	8483.89
899.386	8563.88
899.7	8396.88
900.015	8443.44
900.33	8358.69
900.644	8396.43
900.959	8360.73
901.273	8261.75
901.588	8289.54
901.902	8242.09
902.216	8224.91
902.531	8147.62
902.845	8142.2
903.159	8101.75
903.473	8069.43
903.787	8025.14
904.101	8007.29
904.415	7994.86
904.729	7940.4
905.042	7923.68
905.356	7864.69
905.67	7878.25
905.984	7884.13
906.297	7825.15
906.611	7785.6
906.924	7794.64
907.237	7759.16
907.551	7688.2
907.864	7654.76
908.177	7571.37
908.491	7576.79
908.804	7587.19
909.117	7488.21
909.43	7523.23
909.743	7431.94
910.056	7367.08
910.368	7365.95
910.681	7366.85
910.994	7375.44
911.307	7334.31
911.619	7238.72
911.932	7262.9
912.244	7200.53
912.557	7183.13
912.869	7170.93
913.181	7093.19
913.494	7093.42
913.806	7066.3
914.118	7064.04
914.43	6979.75
914.742	6996.47
915.054	6964.83
915.366	6920.09
915.678	6892.97
915.99	6929.35
916.302	6809.35
916.613	6837.83
916.925	6786.53
917.236	6781.56
917.548	6794.67
917.859	6764.61
918.171	6668.57
918.482	6646.65
918.794	6658.62
919.105	6628.34
919.416	6574.56
919.727	6580.21
920.038	6510.15
920.349	6473.09
920.66	6470.38
920.971	6424.73
921.282	6538.63
921.593	6390.83
921.903	6351.51
922.214	6359.88
922.525	6311.06
922.835	6309.03
923.146	6277.17
923.456	6251.4
923.767	6218.86
924.077	6180.67
924.387	6116.04
924.697	6150.84
925.008	6120.33
925.318	6051.41
925.628	6091.18
925.938	6048.92
926.248	5994.01
926.558	5991.75
926.867	6030.62
927.177	5954.69
927.487	5962.6
927.796	5875.82
928.106	5919.66
928.416	5831.98
928.725	5829.27
929.034	5759.89
929.344	5857.52
929.653	5787.23
929.962	5699.1
930.271	5681.93
930.581	5678.99
930.89	5654.58
931.199	5614.81
931.508	5622.95
931.817	5609.39
932.125	5596.96
932.434	5547.24
932.743	5510.63
933.051	5487.13
933.36	5429.28
933.669	5429.05
933.977	5459.56
934.286	5406.45
934.594	5405.55
934.902	5320.58
935.21	5311.32
935.519	5366
935.827	5326
936.135	5276.74
936.443	5258.89
936.751	5216.18
937.059	5237.87
937.367	5155.16
937.674	5216.63
937.982	5148.38
938.29	5135.5
938.597	5130.53
938.905	5060.25
939.213	5028.16
939.52	5032.68
939.827	5017.54
940.135	4997.2
940.442	4951.32
940.749	4962.4
941.056	4909.29
941.363	4869.74
941.67	4924.66
941.977	4873.59
942.284	4827.03
942.591	4809.18
942.898	4796.3
943.205	4833.14
943.511	4771.67
943.818	4720.6
944.125	4747.04
944.431	4680.82
944.738	4653.25
945.044	4635.85
945.35	4626.36
945.657	4587.72
945.963	4584.78
946.269	4565.8
946.575	4521.96
946.881	4543.65
947.187	4500.94
947.493	4511.34
947.799	4513.82
948.105	4442.86
948.41	4427.04
948.716	4438.12
949.022	4395.86
949.327	4391.79
949.633	4353.15
949.938	4359.25
950.244	4334.62
950.549	4291
950.854	4293.26
951.16	4243.77
951.465	4299.82
951.77	4286.26
952.075	4206.03
952.38	4219.37
952.685	4207.62
952.99	4178.69
953.294	4076.32
953.599	4142.98
953.904	4085.81
954.209	4074.96
954.513	4092.36
954.818	4083.55
955.122	4055.08
955.426	4030.22
955.731	3993.38
956.035	4024.57
956.339	3977.56
956.643	3978.02
956.948	3940.28
957.252	3912.71
957.556	3924.23
957.86	3896.21
958.163	3882.43
958.467	3867.96
958.771	3883.33
959.075	3809.89
959.378	3803.11
959.682	3815.99
959.985	3784.8
960.289	3732.6
960.592	3782.09
960.896	3767.85
961.199	3725.82
961.502	3659.83
961.805	3675.65
962.108	3646.95
962.411	3638.82
962.714	3622.09
963.017	3656.9
963.32	3674.75
963.623	3552.49
963.926	3580.06
964.228	3519.72
964.531	3540.74
964.833	3534.64
965.136	3538.48
965.438	3526.73
965.741	3460.29
966.043	3428.65
966.345	3441.08
966.648	3410.12
966.95	3429.78
967.252	3366.51
967.554	3360.86
967.856	3366.06
968.158	3322.44
968.46	3341.2
968.761	3339.62
969.063	3331.48
969.365	3289.45
969.666	3292.84
969.968	3292.61
970.269	3258.04
970.571	3269.79
970.872	3281.54
971.174	3233.63
971.475	3180.07
971.776	3210.35
972.077	3160.41
972.378	3159.73
972.679	3197.92
972.98	3117.25
973.281	3122.45
973.582	3138.94
973.883	3098.94
974.183	3066.4
974.484	3078.61
974.785	3078.38
975.085	3055.78
975.386	3042.67
975.686	3042.45
975.986	2996.12
976.287	2943.24
976.587	2959.29
976.887	3003.35
977.187	2974.2
977.487	2977.14
977.787	2945.28
978.087	2903.47
978.387	2921.1
978.687	2891.04
978.987	2867.99
979.286	2864.6
979.586	2876.35
979.885	2854.66
980.185	2854.2
980.484	2801.78
980.784	2807.88
981.083	2786.86
981.382	2752.96
981.682	2749.35
981.981	2718.61
982.28	2734.89
982.579	2723.81
982.878	2733.76
983.177	2671.84
983.475	2699.86
983.774	2691.95
984.073	2651.72
984.372	2645.85
984.67	2629.58
984.969	2647.43
985.267	2643.81
985.566	2592.06
985.864	2601.33
986.162	2613.31
986.461	2591.61
986.759	2606.75
987.057	2556.13
987.355	2490.37
987.653	2542.57
987.951	2557.94
988.249	2495.8
988.547	2483.37
988.844	2487.43
989.142	2466.42
989.44	2457.38
989.737	2402.69
990.035	2397.49
990.332	2422.58
990.63	2403.59
990.927	2378.74
991.224	2388
991.521	2384.16
991.819	2376.48
992.116	2376.25
992.413	2354.56
992.71	2301.45
993.006	2332.41
993.303	2322.02
993.6	2308.68
993.897	2301.22
994.193	2279.08
994.49	2270.49
994.787	2276.37
995.083	2252.41
995.379	2243.37
995.676	2242.02
995.972	2233.66
996.268	2185.75
996.565	2184.84
996.861	2192.3
997.157	2204.96
997.453	2202.02
997.749	2141
998.044	2134.9
998.34	2157.95
998.636	2123.15
998.932	2137.84
999.227	2113.21
999.523	2075.69
999.818	2086.99
1000.114	2089.7
1000.409	2060.78
1000.704	2060.78
1001	2070.95
1001.295	2017.84
1001.59	2045.41
1001.885	2025.07
1002.18	1969.48
1002.475	2002.7
1002.77	1993.66
1003.065	1947.11
1003.359	1960.67
1003.654	1922.7
1003.949	1949.14
1004.243	1918.64
1004.538	1916.15
1004.832	1887
1005.127	1886.55
1005.421	1874.8
1005.715	1845.19
1006.009	1872.76
1006.304	1839.54
1006.598	1832.99
1006.892	1818.53
1007.186	1791.41
1007.48	1800.67
1007.773	1821.24
1008.067	1794.57
1008.361	1742.37
1008.655	1794.12
1008.948	1735.14
1009.242	1745.99
1009.535	1719.77
1009.829	1713.67
1010.122	1722.71
1010.415	1690.85
1010.708	1682.94
1011.001	1678.19
1011.295	1651.52
1011.588	1684.29
1011.881	1647.46
1012.173	1658.76
1012.466	1622.6
1012.759	1616.95
1013.052	1644.97
1013.344	1616.05
1013.637	1602.71
1013.93	1600.45
1014.222	1569.94
1014.514	1594.8
1014.807	1590.74
1015.099	1548.7
1015.391	1538.98
1015.683	1547.8
1015.976	1527.69
1016.268	1525.43
1016.56	1496.95
1016.851	1502.15
1017.143	1477.29
1017.435	1483.85
1017.727	1483.62
1018.018	1434.35
1018.31	1431.19
1018.602	1450.63
1018.893	1443.62
1019.185	1452.21
1019.476	1398.42
1019.767	1415.15
1020.058	1436.84
1020.35	1388.93
1020.641	1379.67
1020.932	1419.67
1021.223	1382.15
1021.514	1362.49
1021.804	1379.89
1022.095	1336.73
1022.386	1325.66
1022.677	1320.91
1022.967	1324.75
1023.258	1308.03
1023.548	1298.09
1023.839	1306
1024.129	1292.44
1024.419	1298.77
1024.709	1256.05
1025	1244.98
1025.29	1235.72
1025.58	1226.22
1025.87	1201.37
1026.16	1221.03
1026.449	1222.84
1026.739	1216.06
1027.029	1224.42
1027.319	1214.7
1027.608	1210.63
1027.898	1175.83
1028.187	1173.57
1028.477	1176.96
1028.766	1143.06
1029.055	1139
1029.344	1148.49
1029.634	1136.96
1029.923	1136.28
1030.212	1110.97
1030.501	1135.83
1030.79	1087.47
1031.078	1100.13
1031.367	1094.93
1031.656	1084.76
1031.945	1082.73
1032.233	1065.78
1032.522	1065.78
1032.81	1061.26
1033.099	1045.44
1033.387	1057.19
1033.675	1015.38
1033.963	1029.85
1034.251	1016.51
1034.54	1019.45
1034.828	1020.13
1035.116	1002.5
1035.403	1002.5
1035.691	1007.7
1035.979	957.31
1036.267	994.14
1036.554	965.21
1036.842	949.62
1037.129	953.01
1037.417	966.12
1037.704	970.86
1037.992	974.71
1038.279	928.38
1038.566	939.23
1038.853	939.23
1039.14	939.23
