Data from hue_280_FLMS001491_00035.txt Node
Date: Tue Feb 07 15:55:11 GMT 2017
User: dcchb
Spectrometer: FLMS00149
Trigger mode: 0
Integration Time (sec): 2.000000E-2
Scans to average: 10
Electric dark correction enabled: true
Nonlinearity correction enabled: false
Boxcar width: 0
XAxis mode: Wavelengths
Number of Pixels in Spectrum: 2048
>>>>>Begin Spectral Data<<<<<
341.393	8.16
341.776	8.16
342.16	8.16
342.543	-65.28
342.927	-59.63
343.31	-61.44
343.693	-74.32
344.077	-59.63
344.46	-65.96
344.843	-58.05
345.226	-52.85
345.61	-47.2
345.993	-0.65
346.376	-23.93
346.759	19.01
347.142	19.01
347.525	59.46
347.908	50.42
348.291	94.04
348.674	83.87
349.057	118.22
349.44	127.26
349.823	129.52
350.206	162.06
350.588	191.89
350.971	199.35
351.354	212.9
351.737	238.67
352.119	242.96
352.502	279.12
352.884	269.63
353.267	271.43
353.65	311.66
354.032	287.93
354.414	288.16
354.797	312.11
355.179	315.05
355.562	315.05
355.944	322.28
356.326	337.65
356.709	334.71
357.091	336.97
357.473	326.57
357.855	342.62
358.238	319.79
358.62	321.6
359.002	310.3
359.384	319.12
359.766	344.43
360.148	319.57
360.53	313.24
360.912	329.06
361.294	342.17
361.676	321.15
362.057	307.59
362.439	336.29
362.821	339.68
363.203	328.83
363.584	348.27
363.966	326.8
364.348	312.79
364.729	336.52
365.111	311.88
365.493	323.18
365.874	305.56
366.256	314.6
366.637	293.58
367.019	306.69
367.4	319.57
367.781	324.54
368.163	302.39
368.544	305.1
368.925	316.18
369.306	312.11
369.688	310.75
370.069	330.42
370.45	324.99
370.831	304.88
371.212	319.34
371.593	303.52
371.974	334.03
372.355	304.65
372.736	317.31
373.117	317.53
373.498	303.98
373.879	325.22
374.26	306.01
374.641	314.37
375.021	315.5
375.402	320.02
375.783	316.18
376.163	342.62
376.544	334.48
376.925	333.8
377.305	319.57
377.686	326.8
378.066	324.54
378.447	320.92
378.827	314.6
379.208	325.22
379.588	320.02
379.968	341.26
380.349	337.65
380.729	336.29
381.109	336.74
381.489	345.33
381.87	324.99
382.25	341.26
382.63	334.93
383.01	347.36
383.39	356.18
383.77	346.01
384.15	344.2
384.53	354.6
384.91	355.05
385.29	357.76
385.67	346.91
386.049	354.6
386.429	365.67
386.809	360.02
387.189	342.84
387.568	360.24
387.948	362.28
388.328	339.23
388.707	353.92
389.087	376.29
389.466	352.79
389.846	384.42
390.225	374.48
390.605	348.27
390.984	372.22
391.363	377.87
391.743	368.15
392.122	378.32
392.501	369.96
392.881	379.23
393.26	383.97
393.639	386.23
394.018	381.26
394.397	372.22
394.776	395.95
395.155	392.56
395.534	383.52
395.913	386.23
396.292	389.85
396.671	373.13
397.05	384.42
397.429	390.75
397.808	386.68
398.186	377.42
398.565	393.01
398.944	408.38
399.323	419.68
399.701	393.69
400.08	404.76
400.458	393.69
400.837	402.28
401.215	408.61
401.594	418.55
401.972	430.53
402.351	427.59
402.729	422.39
403.107	400.92
403.486	430.98
403.864	429.17
404.242	431.2
404.62	449.96
404.999	452.22
405.377	437.76
405.755	451.32
406.133	464.87
406.511	459.23
406.889	454.93
407.267	476.63
407.645	476.85
408.023	471.43
408.401	482.5
408.779	476.85
409.156	511.43
409.534	505.78
409.912	530.86
410.29	510.3
410.667	507.36
411.045	537.42
411.422	509.39
411.8	548.71
412.178	545.78
412.555	539.9
412.933	552.56
413.31	562.95
413.687	562.73
414.065	559.79
414.442	585.1
414.819	578.54
415.197	585.1
415.574	599.56
415.951	616.28
416.328	630.07
416.705	636.62
417.082	622.61
417.46	633.23
417.837	660.8
418.214	658.54
418.591	653.57
418.967	651.31
419.344	680.69
419.721	685.89
420.098	658.09
420.475	694.25
420.852	701.93
421.228	691.54
421.605	710.29
421.982	713.68
422.358	759.1
422.735	722.95
423.111	738.77
423.488	757.75
423.864	770.4
424.241	793.23
424.617	796.39
424.994	793
425.37	792.1
425.746	823.28
426.123	814.47
426.499	814.47
426.875	830.97
427.251	844.53
427.627	836.39
428.003	881.81
428.379	890.17
428.756	879.78
429.132	914.35
429.507	909.61
429.883	910.74
430.259	920.91
430.635	943.28
431.011	958.42
431.387	978.53
431.763	976.05
432.138	978.31
432.514	994.35
432.89	1001.13
433.265	1007.69
433.641	1026.89
434.016	1068.93
434.392	1099.21
434.767	1080.68
435.143	1079.55
435.518	1115.48
435.894	1139.89
436.269	1147.12
436.644	1141.92
437.02	1144.18
437.395	1152.31
437.77	1212.88
438.145	1204.52
438.52	1217.62
438.895	1233.44
439.271	1237.06
439.646	1270.05
440.021	1284.51
440.395	1272.09
440.77	1283.38
441.145	1309.82
441.52	1323.16
441.895	1319.09
442.27	1343.04
442.645	1334.68
443.019	1351.18
443.394	1343.72
443.769	1371.52
444.143	1353.89
444.518	1380.33
444.892	1362.25
445.267	1404.74
445.641	1421.91
446.016	1398.64
446.39	1396.15
446.764	1398.86
447.139	1440.89
447.513	1472.31
447.887	1445.64
448.262	1424.85
448.636	1457.17
449.01	1495.13
449.384	1516.15
449.758	1506.2
450.132	1479.99
450.506	1514.56
450.88	1526.77
451.254	1512.53
451.628	1514.56
452.002	1565.18
452.376	1555.47
452.75	1592.98
453.123	1590.04
453.497	1594.56
453.871	1583.04
454.244	1624.84
454.618	1620.1
454.992	1665.3
455.365	1670.49
455.739	1704.84
456.112	1666.43
456.486	1723.82
456.859	1708.46
457.232	1766.76
457.606	1741.68
457.979	1765.86
458.352	1785.29
458.725	1831.39
459.099	1828.23
459.472	1841.56
459.845	1827.55
460.218	1865.06
460.591	1882.24
460.964	1872.97
461.337	1900.77
461.71	1935.34
462.083	1949.58
462.456	1918.85
462.829	1963.37
463.201	1986.64
463.574	1989.81
463.947	1999.52
464.32	2040.2
464.692	2044.95
465.065	2093.76
465.438	2099.63
465.81	2133.31
466.183	2112.74
466.555	2157.49
466.928	2192.96
467.3	2171.95
467.672	2195.68
468.045	2245.39
468.417	2217.37
468.789	2267.31
469.161	2299.18
469.534	2327.88
469.906	2354.32
470.278	2377.82
470.65	2387.08
471.022	2441.32
471.394	2444.48
471.766	2453.52
472.138	2497.36
472.51	2495.33
472.882	2545.72
473.253	2566.29
473.625	2586.63
473.997	2655.33
474.369	2643.35
474.74	2685.83
475.112	2678.15
475.484	2754.98
475.855	2780.52
476.227	2750.46
476.598	2852.83
476.97	2818.94
477.341	2887.41
477.713	2925.15
478.084	2964.92
478.455	3016.67
478.827	3046.5
479.198	3117.23
479.569	3072.49
479.94	3171.24
480.311	3193.84
480.682	3239.72
481.053	3328.98
481.424	3331.92
481.795	3385.48
482.166	3388.41
482.537	3426.38
482.908	3481.52
483.279	3547.96
483.65	3561.74
484.021	3601.29
484.391	3642.19
484.762	3651.01
485.133	3700.5
485.503	3735.3
485.874	3777.78
486.244	3806.71
486.615	3808.52
486.985	3905.01
487.356	3953.6
487.726	3942.52
488.097	4031.79
488.467	4053.26
488.837	4121.73
489.207	4144.78
489.578	4169.41
489.948	4233.59
490.318	4230.43
490.688	4255.96
491.058	4302.29
491.428	4357.2
491.798	4417.09
492.168	4516.29
492.538	4468.61
492.908	4479.01
493.278	4566.69
493.648	4530.3
494.017	4580.7
494.387	4629.74
494.757	4648.27
495.126	4705.89
495.496	4708.83
495.866	4745.21
496.235	4794.93
496.605	4826.12
496.974	4790.86
497.344	4846.68
497.713	4876.96
498.082	4911.09
498.452	4928.26
498.821	4992.44
499.19	4953.34
499.559	4977.07
499.928	5027.24
500.298	4955.83
500.667	5059.78
501.036	5063.62
501.405	5088.71
501.774	5084.64
502.143	5139.1
502.512	5138.88
502.88	5185.2
503.249	5203.28
503.618	5190.17
503.987	5196.28
504.356	5234.01
504.724	5263.17
505.093	5305.43
505.462	5277.63
505.83	5377.51
506.199	5382.26
506.567	5373.45
506.936	5328.25
507.304	5457.96
507.672	5419.77
508.041	5463.16
508.409	5444.4
508.777	5520.56
509.145	5521.69
509.514	5485.31
509.882	5583.84
510.25	5549.49
510.618	5519.21
510.986	5589.94
511.354	5643.95
511.722	5650.95
512.09	5696.6
512.458	5652.99
512.826	5664.96
513.193	5728.69
513.561	5707.9
513.929	5800.33
514.297	5809.82
514.664	5787.67
515.032	5818.86
515.4	5821.8
515.767	5881.46
516.135	5858.86
516.502	5838.74
516.869	5879.87
517.237	5916.71
517.604	5936.14
517.972	5977.5
518.339	5965.97
518.706	5977.5
519.073	6005.29
519.44	6029.93
519.808	6056.37
520.175	6019.08
520.542	6061.11
520.909	6081.9
521.276	6106.76
521.643	6151.73
522.009	6182.01
522.376	6167.1
522.743	6167.1
523.11	6238.73
523.477	6296.36
523.843	6280.99
524.21	6353.76
524.577	6332.97
524.943	6366.87
525.31	6418.16
525.676	6406.19
526.043	6397.37
526.409	6405.51
526.776	6496.58
527.142	6518.73
527.508	6596.46
527.874	6510.59
528.241	6586.97
528.607	6585.39
528.973	6599.18
529.339	6607.99
529.705	6657.93
530.071	6694.99
530.437	6752.39
530.803	6739.51
531.169	6771.38
531.535	6772.05
531.901	6835.78
532.267	6809.34
532.632	6826.74
532.998	6791.94
533.364	6863.12
533.73	6937.92
534.095	6925.95
534.461	6936.12
534.826	6955.1
535.192	6919.62
535.557	6959.39
535.923	6960.52
536.288	7048.2
536.653	7047.53
537.019	7045.04
537.384	7103.12
537.749	7090.46
538.114	7086.17
538.479	7061.09
538.845	7086.85
539.21	7167.52
539.575	7079.62
539.94	7106.06
540.305	7148.09
540.67	7139.95
541.034	7202.32
541.399	7241.65
541.764	7287.75
542.129	7212.04
542.494	7228.31
542.858	7319.38
543.223	7225.37
543.587	7311.02
543.952	7261.53
544.316	7354.41
544.681	7326.16
545.045	7385.82
545.41	7379.72
545.774	7377.69
546.138	7372.72
546.503	7419.27
546.867	7423.79
547.231	7481.64
547.595	7411.13
547.959	7462.43
548.324	7503.33
548.688	7502.66
549.052	7573.39
549.416	7543.11
549.779	7551.24
550.143	7529.32
550.507	7607.51
550.871	7547.17
551.235	7550.11
551.599	7633.05
551.962	7604.57
552.326	7636.89
552.689	7639.6
553.053	7664.23
553.417	7659.71
553.78	7743.78
554.143	7689.09
554.507	7760.73
554.87	7795.76
555.234	7794.4
555.597	7778.13
555.96	7753.04
556.323	7829.2
556.686	7756.21
557.05	7883.21
557.413	7905.13
557.776	7872.82
558.139	7907.16
558.502	7986.71
558.865	7892.48
559.228	7981.97
559.59	7950.1
559.953	8042.08
560.316	8053.83
560.679	8046.82
561.041	8080.04
561.404	8167.95
561.767	8176.54
562.129	8148.29
562.492	8219.47
562.854	8196.65
563.217	8193.94
563.579	8201.85
563.941	8276.87
564.304	8310.54
564.666	8297.66
565.028	8357.55
565.39	8395.51
565.753	8441.16
566.115	8454.72
566.477	8490.65
566.839	8484.32
567.201	8535.85
567.563	8530.65
567.925	8634.6
568.287	8623.3
568.648	8601.61
569.01	8659.91
569.372	8660.14
569.734	8710.53
570.095	8784.2
570.457	8805.9
570.819	8778.55
571.18	8858.78
571.542	8866.91
571.903	8836.86
572.265	8954.6
572.626	8991.2
572.987	8972.45
573.349	9039.11
573.71	9038.43
574.071	9075.27
574.432	9109.39
574.794	9246.79
575.155	9170.86
575.516	9165.44
575.877	9267.58
576.238	9265.32
576.599	9322.95
576.96	9347.35
577.32	9341.25
577.681	9431.42
578.042	9486.56
578.403	9428.03
578.763	9567.23
579.124	9522.26
579.485	9689.49
579.845	9635.26
580.206	9703.5
580.566	9669.15
580.927	9691.3
581.287	9828.7
581.648	9876.83
582.008	9894.91
582.368	9994.34
582.728	10022.14
583.089	10083.83
583.449	10035.7
583.809	10103.49
584.169	10215.58
584.529	10231.62
584.889	10340.55
585.249	10337.16
585.609	10370.6
585.969	10530.15
586.329	10544.61
586.688	10558.39
587.048	10548.68
587.408	10633.87
587.768	10769.91
588.127	10787.77
588.487	10888.1
588.846	10997.03
589.206	10950.47
589.565	11092.17
589.925	11173.52
590.284	11168.1
590.643	11296.45
591.003	11345.04
591.362	11456
591.721	11468.43
592.08	11516.11
592.44	11675.2
592.799	11658.93
593.158	11750
593.517	11773.28
593.876	11886.27
594.235	11870.22
594.593	12027.28
594.952	12063.21
595.311	12053.95
595.67	12102.99
596.029	12293.26
596.387	12309.31
596.746	12422.3
597.104	12389.53
597.463	12486.03
597.822	12465.24
598.18	12509.98
598.538	12554.05
598.897	12767.15
599.255	12628.17
599.613	12896.41
599.972	12840.82
600.33	12930.54
600.688	12910.42
601.046	12968.73
601.404	13068.84
601.762	13063.87
602.12	13191.32
602.478	13227.03
602.836	13351.99
603.194	13192.9
603.552	13265.67
603.91	13350.41
604.268	13425.89
604.625	13439.67
604.983	13517.64
605.341	13474.7
605.698	13550.63
606.056	13550.41
606.413	13704.98
606.771	13763.51
607.128	13786.33
607.485	13719.44
607.843	13758.99
608.2	13823.17
608.557	13870.17
608.914	13879.21
609.272	14006.67
609.629	14047.12
609.986	14115.36
610.343	14088.92
610.7	14164.63
611.057	14146.55
611.414	14166.89
611.771	14132.99
612.127	14199.88
612.484	14342.02
612.841	14372.31
613.198	14340.67
613.554	14371.63
613.911	14424.51
614.267	14459.76
614.624	14461.79
614.98	14461.34
615.337	14470.38
615.693	14527.78
616.05	14537.95
616.406	14656.37
616.762	14560.78
617.118	14610.04
617.475	14621.11
617.831	14757.15
618.187	14691.85
618.543	14726.19
618.899	14833.76
619.255	14832.63
619.611	14867.21
619.967	14850.94
620.323	14926.64
620.678	14859.75
621.034	14845.29
621.39	14801.9
621.746	14815.46
622.101	15001.67
622.457	14920.77
622.812	14962.35
623.168	14943.82
623.523	14983.82
623.879	14976.81
624.234	14915.34
624.589	15027.2
624.945	14990.82
625.3	15033.98
625.655	15023.81
626.01	15033.53
626.365	15037.37
626.72	15052.29
627.075	15047.32
627.43	14990.14
627.785	15010.93
628.14	15019.97
628.495	15003.93
628.85	15077.15
629.205	15068.78
629.559	15080.08
629.914	14979.3
630.269	15071.95
630.623	14927.32
630.978	14988.33
631.332	14956.47
631.687	15050.25
632.041	15050.71
632.396	14953.53
632.75	14809.36
633.104	14967.77
633.459	14866.53
633.813	14896.81
634.167	14907.66
634.521	14837.83
634.875	14843.03
635.229	14868.34
635.583	14755.8
635.937	14808.68
636.291	14731.39
636.645	14808.68
636.999	14784.95
637.352	14789.7
637.706	14664.95
638.06	14710.38
638.413	14762.35
638.767	14793.09
639.121	14735.46
639.474	14605.07
639.828	14680.55
640.181	14597.16
640.534	14632.64
640.888	14605.29
641.241	14608.91
641.594	14616.14
641.947	14753.76
642.301	14626.08
642.654	14665.18
643.007	14631.28
643.36	14631.06
643.713	14582.92
644.066	14583.83
644.419	14502.47
644.771	14426.77
645.124	14406.2
645.477	14298.18
645.83	14231.74
646.182	14170.96
646.535	14176.83
646.888	14137.51
647.24	14101.13
647.593	14193.78
647.945	14131.86
648.298	14107
648.65	14052.54
649.002	14040.11
649.355	14121.69
649.707	14105.87
650.059	14122.82
650.411	14405.53
650.763	14360.1
651.115	14552.64
651.467	14464.96
651.819	14461.34
652.171	14476.48
652.523	14407.33
652.875	14376.83
653.227	14361.46
653.578	14529.82
653.93	14380.22
654.282	14389.71
654.633	14311.52
654.985	14361.23
655.337	14390.16
655.688	14436.26
656.039	14457.28
656.391	14370.72
656.742	14488.91
657.094	14454.79
657.445	14466.31
657.796	14455.47
658.147	14459.99
658.498	14567.33
658.849	14475.35
659.2	14460.21
659.551	14407.11
659.902	14504.05
660.253	14415.47
660.604	14481.23
660.955	14476.03
661.306	14459.99
661.656	14480.1
662.007	14562.81
662.358	14466.77
662.708	14508.35
663.059	14429.71
663.409	14435.58
663.76	14563.71
664.11	14488.01
664.461	14562.81
664.811	14569.59
665.161	14555.13
665.511	14495.24
665.862	14565.97
666.212	14601.23
666.562	14602.81
666.912	14518.06
667.262	14526.2
667.612	14567.78
667.962	14525.97
668.312	14533.66
668.662	14527.33
669.011	14528.46
669.361	14486.88
669.711	14496.6
670.06	14492.53
670.41	14491.4
670.76	14447.56
671.109	14485.75
671.459	14472.87
671.808	14400.33
672.157	14503.15
672.507	14405.3
672.856	14419.54
673.205	14344.06
673.554	14375.02
673.904	14370.95
674.253	14498.86
674.602	14346.09
674.951	14154.46
675.3	14117.62
675.649	14245.98
675.998	14225.64
676.346	14307
676.695	14366.66
677.044	14270.84
677.393	14312.65
677.741	14301.12
678.09	14305.41
678.438	14188.13
678.787	14176.6
679.135	14226.77
679.484	14066.55
679.832	14137.06
680.181	14027.68
680.529	14120.33
680.877	14134.12
681.225	14077.17
681.573	14183.61
681.922	13991.07
682.27	14015.25
682.618	13989.04
682.966	13964.41
683.314	13911.98
683.661	13957.18
684.009	13845.77
684.357	13842.15
684.705	13830.4
685.053	13806.22
685.4	13869.72
685.748	13735.71
686.095	13673.79
686.443	13657.07
686.79	13695.71
687.138	13683.06
687.485	13695.94
687.832	13553.12
688.18	13630.18
688.527	13507.92
688.874	13484.42
689.221	13492.78
689.568	13351.99
689.915	13342.28
690.262	13333.91
690.609	13281.26
690.956	13203.75
691.303	13264.31
691.65	13210.08
691.997	13183.41
692.344	13093.47
692.69	13122.85
693.037	13090.08
693.383	12947.94
693.73	13000.59
694.077	12900.03
694.423	12877.88
694.769	12792.01
695.116	12802.18
695.462	12838.11
695.808	12726.25
696.155	12719.92
696.501	12615.06
696.847	12666.59
697.193	12531
697.539	12597.21
697.885	12458.01
698.231	12499.59
698.577	12455.75
698.923	12377.78
699.269	12324.22
699.614	12239.03
699.96	12151.35
700.306	12179.82
700.651	12034.97
700.997	12027.96
701.342	12005.14
701.688	12086.04
702.033	11992.26
702.379	11968.53
702.724	11894.86
703.069	11847.17
703.415	11684.24
703.76	11773.5
704.105	11772.37
704.45	11763.56
704.795	11620.74
705.14	11594.75
705.485	11592.49
705.83	11512.49
706.175	11516.34
706.52	11500.29
706.865	11414.19
707.209	11392.72
707.554	11370.8
707.899	11381.88
708.243	11241.77
708.588	11342.33
708.932	11227.76
709.277	11202.22
709.621	11199.06
709.966	11206.74
710.31	11136.23
710.654	11067.99
710.998	11025.95
711.342	11142.79
711.687	11044.26
712.031	10921.32
712.375	10916.13
712.719	10950.02
713.063	10878.39
713.407	10927.65
713.75	10821.44
714.094	10815.34
714.438	10804.26
714.782	10794.32
715.125	10759.07
715.469	10757.26
715.812	10720.88
716.156	10694.66
716.499	10668.9
716.843	10704.83
717.186	10622.8
717.53	10652.86
717.873	10652.63
718.216	10576.25
718.559	10580.32
718.902	10535.8
719.246	10527.21
719.589	10523.59
719.932	10507.32
720.275	10548.9
720.617	10517.04
720.96	10497.83
721.303	10492.86
721.646	10503.71
721.989	10430.71
722.331	10433.43
722.674	10452.63
723.016	10391.85
723.359	10376.25
723.701	10379.87
724.044	10402.92
724.386	10271.4
724.729	10390.94
725.071	10396.59
725.413	10310.72
725.755	10310.94
726.097	10284.05
726.439	10222.13
726.782	10265.07
727.124	10285.86
727.465	10264.39
727.807	10232.75
728.149	10207.67
728.491	10199.31
728.833	10242.24
729.175	10240.66
729.516	10203.15
729.858	10227.56
730.199	10265.3
730.541	10201.12
730.882	10240.66
731.224	10132.87
731.565	10124.06
731.906	10208.35
732.248	10162.47
732.589	10154.11
732.93	10107.11
733.271	10150.5
733.612	10123.83
733.953	10163.15
734.294	10198.63
734.635	10082.25
734.976	10204.96
735.317	10108.24
735.658	10181.23
735.999	10167.67
736.339	10120.21
736.68	10247.22
737.021	10144.85
737.361	10174.68
737.702	10134.45
738.042	10215.35
738.383	10141
738.723	10177.61
739.063	10147.56
739.404	10189.59
739.744	10237.95
740.084	10198.18
740.424	10266.65
740.764	10242.47
741.104	10311.85
741.444	10225.07
741.784	10279.08
742.124	10258.52
742.464	10288.57
742.804	10324.05
743.143	10307.78
743.483	10305.75
743.823	10322.92
744.162	10342.13
744.502	10405.63
744.841	10383.48
745.181	10478.4
745.52	10494.44
745.86	10563.37
746.199	10635.68
746.538	10603.82
746.877	10684.04
747.216	10743.7
747.556	10691.05
747.895	10834.09
748.234	10834.77
748.573	10871.61
748.911	10912.96
749.25	11012.85
749.589	11123.13
749.928	11162.67
750.267	11234.54
750.605	11249.22
750.944	11350.01
751.283	11329.9
751.621	11602.66
751.96	11567.86
752.298	11674.07
752.636	11765.14
752.975	11804.01
753.313	11824.58
753.651	11993.61
753.989	12098.02
754.327	12253.04
754.666	12220.05
755.004	12435.63
755.342	12504.78
755.679	12678.11
756.017	12658.68
756.355	12843.53
756.693	12992
757.031	13081.27
757.368	13207.82
757.706	13284.2
758.044	13507.7
758.381	13640.35
758.719	13770.74
759.056	13873.34
759.394	13993.56
759.731	14161.46
760.068	14262.7
760.405	14398.75
760.743	14485.3
761.08	14690.72
761.417	14761.22
761.754	14936.36
762.091	15113.98
762.428	15186.3
762.765	15297.03
763.102	15514.65
763.438	15603.23
763.775	15754.64
764.112	15910.12
764.449	16115.54
764.785	16123.22
765.122	16292.03
765.458	16339.49
765.795	16464.91
766.131	16588.97
766.467	16699.93
766.804	16788.74
767.14	16776.08
767.476	17026.02
767.812	17079.35
768.148	17154.83
768.485	17247.71
768.821	17377.42
769.157	17398.67
769.492	17481.6
769.828	17637.98
770.164	17607.02
770.5	17709.39
770.836	17840.46
771.171	17764.98
771.507	17830.29
771.842	17964.75
772.178	18089.04
772.513	18050.4
772.849	18117.52
773.184	18227.12
773.519	18196.39
773.855	18120.68
774.19	18203.84
774.525	18292.2
774.86	18400.45
775.195	18441.35
775.53	18431.86
775.865	18365.65
776.2	18323.16
776.535	18372.43
776.87	18353.9
777.205	18463.27
777.539	18488.81
777.874	18427.79
778.209	18376.72
778.543	18493.1
778.878	18378.75
779.212	18527.22
779.547	18497.85
779.881	18517.28
780.215	18395.25
780.55	18522.93
780.884	18392.09
781.218	18473.89
781.552	18459.2
781.886	18366.78
782.22	18266.89
782.554	18296.04
782.888	18190.96
783.222	18247.46
783.556	18194.35
783.889	18135.14
784.223	18110.06
784.557	18221.24
784.89	18265.76
785.224	18106.67
785.557	17973.79
785.891	17949.39
786.224	17910.97
786.558	18028.25
786.891	17826.45
787.224	17883.85
787.557	17794.59
787.891	17821.03
788.224	17930.63
788.557	17901.7
788.89	17790.07
789.223	17753.46
789.556	17746.68
789.888	17643.63
790.221	17656.29
790.554	17489.51
790.887	17504.43
791.219	17434.15
791.552	17514.82
791.884	17402.96
792.217	17372.9
792.549	17280.48
792.882	17257.43
793.214	17182.63
793.546	17219.24
793.879	17082.06
794.211	17042.52
794.543	17223.76
794.875	16986.93
795.207	17092.23
795.539	17046.36
795.871	17016.76
796.203	16780.15
796.535	16752.36
796.867	16787.16
797.198	16729.76
797.53	16713.49
797.862	16493.83
798.193	16568.41
798.525	16471.01
798.856	16604.11
799.188	16394.63
799.519	16400.95
799.85	16309.2
800.182	16347.85
800.513	16284.57
800.844	16125.25
801.175	16302.65
801.506	16284.12
801.837	16090.23
802.168	16146.5
802.499	16163.45
802.83	16041.64
803.161	15934.75
803.491	15963.45
803.822	16038.02
804.153	15856.56
804.483	15797.58
804.814	15827.18
805.145	15739.5
805.475	15737.69
805.805	15705.38
806.136	15745.83
806.466	15699.5
806.796	15523.46
807.126	15492.05
807.457	15392.62
807.787	15411.6
808.117	15383.35
808.447	15311.04
808.777	15349
809.107	15298.61
809.436	15224.94
809.766	15281.21
810.096	15193.3
810.426	15045.51
810.755	15126.41
811.085	15072.4
811.414	15053.87
811.744	14999.63
812.073	14993.98
812.403	14965.74
812.732	14865.17
813.061	14989.46
813.39	14821.56
813.719	14777.49
814.049	14805.51
814.378	14771.62
814.707	14715.8
815.036	14759.41
815.365	14639.64
815.693	14574.56
816.022	14576.37
816.351	14425.86
816.68	14426.32
817.008	14478.52
817.337	14346.09
817.665	14318.52
817.994	14402.36
818.322	14350.39
818.651	14187.23
818.979	14264.51
819.307	14268.13
819.636	14385.41
819.964	14151.52
820.292	14260.67
820.62	14260.22
820.948	14127.34
821.276	14220.9
821.604	14165.98
821.932	14242.82
822.259	14252.08
822.587	14144.97
822.915	14111.3
823.243	14158.07
823.57	14130.05
823.898	14143.61
824.225	14075.14
824.553	14078.75
824.88	14030.39
825.207	14168.7
825.535	14096.83
825.862	14158.3
826.189	14136.38
826.516	14115.59
826.843	14226.55
827.17	14177.51
827.497	14148.81
827.824	14150.39
828.151	14252.31
828.478	14144.52
828.805	14268.13
829.131	14187.68
829.458	14119.66
829.785	14032.2
830.111	14174.8
830.438	14198.3
830.764	14204.63
831.09	14156.94
831.417	14056.61
831.743	14116.27
832.069	14181.35
832.395	14072.2
832.722	14117.4
833.048	14027
833.374	14084.18
833.7	13902.49
834.026	13956.5
834.351	14030.17
834.677	14004.18
835.003	13994.69
835.329	13946.78
835.654	13997.4
835.98	13922.83
836.306	13935.71
836.631	13912.2
836.956	13870.62
837.282	13932.77
837.607	13820.91
837.932	13784.98
838.258	13808.03
838.583	13781.36
838.908	13760.12
839.233	13842.15
839.558	13694.13
839.883	13656.62
840.208	13653.91
840.533	13623.17
840.858	13596.96
841.182	13718.76
841.507	13604.19
841.832	13545.66
842.156	13479.45
842.481	13538.2
842.805	13518.54
843.13	13484.65
843.454	13362.84
843.778	13361.48
844.103	13316.29
844.427	13383.63
844.751	13327.36
845.075	13260.24
845.399	13201.26
845.723	13093.02
846.047	13130.76
846.371	13013.92
846.695	13059.8
847.019	12937.32
847.343	12919.46
847.666	12901.16
847.99	12846.47
848.313	12763.08
848.637	12722.18
848.96	12655.97
849.284	12566.03
849.607	12541.85
849.931	12456.42
850.254	12346.37
850.577	12373.71
850.9	12277.22
851.223	12287.16
851.546	12247.16
851.869	12180.05
852.192	12217.79
852.515	12124.46
852.838	12033.61
853.161	12081.97
853.483	12073.84
853.806	11939.6
854.129	11955.65
854.451	11927.62
854.774	11837.68
855.096	11856.21
855.419	11735.54
855.741	11654.64
856.063	11705.03
856.385	11750.91
856.708	11639.27
857.03	11606.95
857.352	11524.02
857.674	11455.77
857.996	11510.23
858.318	11422.78
858.64	11476.56
858.961	11350.46
859.283	11338.04
859.605	11279.73
859.926	11375.32
860.248	11291.93
860.57	11196.8
860.891	11278.15
861.212	11154.99
861.534	11114.76
861.855	11089
862.176	11183.24
862.498	11073.41
862.819	11072.51
863.14	11122.45
863.461	11055.33
863.782	10984.37
864.103	10993.41
864.424	10951.38
864.745	11003.81
865.065	10864.6
865.386	10912.06
865.707	10815.79
866.027	10882.45
866.348	10834.09
866.668	10825.51
866.989	10830.25
867.309	10683.36
867.63	10674.55
867.95	10751.61
868.27	10666.64
868.59	10654.66
868.91	10681.78
869.23	10608.11
869.55	10631.16
869.87	10603.59
870.19	10614.89
870.51	10647.21
870.83	10664.83
871.15	10583.7
871.469	10497.15
871.789	10528.79
872.109	10554.1
872.428	10366.08
872.748	10522.92
873.067	10511.84
873.386	10408.34
873.706	10468.91
874.025	10375.8
874.344	10325.63
874.663	10386.87
874.982	10403.14
875.301	10321.79
875.62	10286.54
875.939	10276.82
876.258	10350.49
876.577	10299.19
876.896	10285.63
877.214	10222.36
877.533	10268.23
877.852	10229.82
878.17	10249.02
878.489	10232.3
878.807	10187.56
879.125	10126.32
879.444	10159.54
879.762	10102.14
880.08	10060.33
880.398	9993.89
880.716	10054
881.034	9987.34
881.352	10046.09
881.67	9964.96
881.988	9993.89
882.306	9957.28
882.624	9953.89
882.941	9870.5
883.259	9837.96
883.577	9767.23
883.894	9780.11
884.212	9802.26
884.529	9751.64
884.846	9758.87
885.164	9767.68
885.481	9692.88
885.798	9646.33
886.115	9583.51
886.432	9568.82
886.75	9565.65
887.067	9580.57
887.383	9544.18
887.7	9528.37
888.017	9509.83
888.334	9508.03
888.651	9510.51
888.967	9484.52
889.284	9421.25
889.6	9400.46
889.917	9337.41
890.233	9375.83
890.55	9267.36
890.866	9313
891.182	9307.58
891.498	9222.84
891.815	9233.91
892.131	9223.74
892.447	9182.84
892.763	9143.52
893.079	9106.68
893.395	9080.92
893.71	9097.19
894.026	9009.51
894.342	9030.75
894.657	8904.65
894.973	9010.41
895.289	8929.74
895.604	8933.13
895.92	8791.89
896.235	8787.82
896.55	8828.27
896.865	8790.76
897.181	8727.48
897.496	8714.38
897.811	8706.01
898.126	8595.73
898.441	8605.45
898.756	8616.07
899.071	8546.7
899.386	8509.64
899.7	8487.26
900.015	8479.58
900.33	8382.18
900.644	8396.19
900.959	8376.98
901.273	8358.9
901.588	8355.29
901.902	8260.38
902.216	8205.46
902.531	8165.46
902.845	8167.5
903.159	8091.34
903.473	8103.54
903.787	8041.85
904.101	8050.44
904.415	8045.24
904.729	8011.57
905.042	7931.12
905.356	7888.41
905.67	7870.33
905.984	7902.19
906.297	7875.75
906.611	7841.4
906.924	7839.37
907.237	7729.32
907.551	7689.32
907.864	7691.8
908.177	7704.23
908.491	7691.58
908.804	7635.31
909.117	7492.26
909.43	7481.19
909.743	7527.06
910.056	7485.48
910.368	7432.38
910.681	7460.4
910.994	7395.54
911.307	7402.09
911.619	7287.29
911.932	7261.08
912.244	7235.32
912.557	7238.26
912.869	7205.94
913.181	7176.56
913.494	7144.93
913.806	7069.9
914.118	7068.54
914.43	7057.47
914.742	7026.28
915.054	7017.24
915.366	6964.59
915.678	6944.25
915.99	6911.26
916.302	6847.31
916.613	6795.78
916.925	6858.38
917.236	6834.42
917.548	6732.51
917.859	6730.02
918.171	6711.49
918.482	6682.56
918.794	6650.7
919.105	6638.72
919.416	6613.64
919.727	6505.85
920.038	6495.9
920.349	6559.4
920.66	6526.18
920.971	6505.39
921.282	6410.26
921.593	6392.63
921.903	6340.2
922.214	6340.2
922.525	6308.56
922.835	6256.59
923.146	6233.08
923.456	6235.34
923.767	6256.36
924.077	6198.28
924.387	6195.35
924.697	6151.05
925.008	6106.76
925.318	6055.01
925.628	6104.27
925.938	6065.18
926.248	6037.84
926.558	5997.16
926.867	6023.6
927.177	5948.12
927.487	5888.01
927.796	5860.89
928.106	5940.89
928.416	5883.26
928.725	5809.14
929.034	5819.31
929.344	5769.14
929.653	5746.54
929.962	5734.79
930.271	5692.76
930.581	5679.43
930.89	5703.61
931.199	5625.64
931.508	5619.54
931.817	5652.76
932.125	5594.01
932.434	5589.49
932.743	5517.4
933.051	5474.91
933.36	5489.83
933.669	5438.3
933.977	5439.89
934.286	5435.82
934.594	5431.07
934.902	5367.34
935.21	5338.64
935.519	5319.66
935.827	5323.96
936.135	5266.33
936.443	5216.16
936.751	5308.14
937.059	5271.98
937.367	5234.69
937.674	5195.15
937.982	5135.71
938.29	5119.89
938.597	5156.05
938.905	5093
939.213	5088.26
939.52	5025.43
939.827	5057.07
940.135	4999.67
940.442	4992.67
940.749	4944.53
941.056	4964.42
941.363	4943.85
941.67	4915.15
941.977	4858.43
942.284	4850.97
942.591	4817.75
942.898	4841.26
943.205	4853.46
943.511	4767.59
943.818	4797.19
944.125	4717.42
944.431	4683.07
944.738	4726.68
945.044	4644.65
945.35	4658.44
945.657	4635.39
945.963	4584.99
946.269	4578.66
946.575	4598.78
946.881	4572.79
947.187	4550.87
947.493	4512.68
947.799	4502.73
948.105	4473.36
948.41	4448.5
948.716	4404.88
949.022	4423.41
949.327	4373.7
949.633	4372.57
949.938	4363.3
950.244	4390.2
950.549	4297.32
950.854	4307.03
951.16	4300.25
951.465	4244.21
951.77	4267.26
952.075	4190.2
952.38	4233.82
952.685	4202.63
952.99	4135.51
953.294	4090.09
953.599	4124.89
953.904	4123.31
954.209	4080.37
954.513	4063.88
954.818	4056.87
955.122	4011.9
955.426	4037.44
955.731	4004.44
956.035	3990.43
956.339	3991.79
956.643	3939.13
956.948	3921.73
957.252	3875.63
957.556	3959.7
957.86	3920.15
958.163	3874.73
958.467	3860.94
958.771	3835.86
959.075	3832.02
959.378	3817.55
959.682	3821.17
959.985	3755.18
960.289	3729.42
960.592	3714.51
960.896	3730.1
961.199	3673.38
961.502	3711.8
961.805	3693.49
962.108	3627.05
962.411	3629.54
962.714	3606.71
963.017	3607.39
963.32	3611.68
963.623	3590.67
963.926	3556.77
964.228	3544.79
964.531	3521.74
964.833	3546.83
965.136	3510.44
965.438	3507.28
965.741	3462.99
966.043	3471.35
966.345	3426.38
966.648	3418.92
966.95	3446.49
967.252	3415.31
967.554	3377.57
967.856	3361.52
968.158	3341.64
968.46	3314.07
968.761	3315.2
969.063	3286.95
969.365	3302.77
969.666	3305.25
969.968	3260.06
970.269	3239.27
970.571	3269.77
970.872	3231.81
971.174	3176.89
971.475	3178.02
971.776	3202.43
972.077	3207.4
972.378	3128.53
972.679	3134.86
972.98	3163.56
973.281	3146.61
973.582	3118.82
973.883	3125.37
974.183	3067.97
974.484	3071.36
974.785	3023.45
975.085	3030.01
975.386	3045.82
975.686	2991.81
975.986	3030.68
976.287	2989.55
976.587	2912.49
976.887	2920.18
977.187	2937.35
977.487	2921.08
977.787	2925.83
978.087	2896
978.387	2875.21
978.687	2905.71
978.987	2908.88
979.286	2857.35
979.586	2874.75
979.885	2841.76
980.185	2809.9
980.484	2793.18
980.784	2810.12
981.083	2736.91
981.382	2771.48
981.682	2745.04
981.981	2737.58
982.28	2736.91
982.579	2719.5
982.878	2700.07
983.177	2718.6
983.475	2693.29
983.774	2694.65
984.073	2636.12
984.372	2625.04
984.67	2631.37
984.969	2618.72
985.267	2605.61
985.566	2611.03
985.864	2584.82
986.162	2576.68
986.461	2560.41
986.759	2517.7
987.057	2519.28
987.355	2524.03
987.653	2486.29
987.951	2536.23
988.249	2484.71
988.547	2502.56
988.844	2464.14
989.142	2485.39
989.44	2435.44
989.737	2442
990.035	2409.68
990.332	2392.06
990.63	2430.25
990.927	2400.64
991.224	2388.44
991.521	2412.17
991.819	2338.27
992.116	2368.1
992.413	2353.64
992.71	2313.87
993.006	2325.16
993.303	2277.03
993.6	2294.88
993.897	2272.96
994.193	2272.06
994.49	2255.79
994.787	2261.44
995.083	2227.99
995.379	2209.24
995.676	2203.81
995.972	2187.99
996.268	2202.23
996.565	2197.94
996.861	2146.64
997.157	2177.82
997.453	2151.16
997.749	2125.4
998.044	2125.4
998.34	2091.05
998.636	2133.53
998.932	2085.4
999.227	2073.42
999.523	2062.57
999.818	2065.96
1000.114	2056.25
1000.409	2057.83
1000.704	2021.44
1001	2017.15
1001.295	1998.17
1001.59	1962.46
1001.885	1983.48
1002.18	1955.68
1002.475	1929.92
1002.77	1965.63
1003.065	1949.58
1003.359	1936.25
1003.654	1906.19
1003.949	1925.4
1004.243	1897.61
1004.538	1870.49
1004.832	1914.33
1005.127	1851.05
1005.421	1874.33
1005.715	1833.88
1006.009	1835.69
1006.304	1837.49
1006.598	1819.87
1006.892	1815.12
1007.186	1783.03
1007.48	1830.49
1007.773	1793.2
1008.067	1754.11
1008.361	1755.46
1008.655	1757.04
1008.948	1751.62
1009.242	1747.78
1009.535	1734.22
1009.829	1701
1010.122	1675.92
1010.415	1692.19
1010.708	1700.32
1011.001	1665.3
1011.295	1639.31
1011.588	1659.42
1011.881	1632.08
1012.173	1641.79
1012.466	1622.81
1012.759	1628.91
1013.052	1605.18
1013.344	1633.43
1013.637	1564.73
1013.93	1557.95
1014.222	1596.37
1014.514	1543.26
1014.807	1568.12
1015.099	1521.12
1015.391	1540.78
1015.683	1534.68
1015.976	1519.08
1016.268	1487.67
1016.56	1490.38
1016.851	1498.07
1017.143	1497.39
1017.435	1470.72
1017.727	1460.1
1018.018	1459.42
1018.31	1449.48
1018.602	1427.79
1018.893	1426.21
1019.185	1422.59
1019.476	1398.18
1019.767	1379.88
1020.058	1385.08
1020.35	1390.27
1020.641	1381.91
1020.932	1332.87
1021.223	1354.12
1021.514	1354.57
1021.804	1357.28
1022.095	1329.48
1022.386	1342.82
1022.677	1331.97
1022.967	1305.98
1023.258	1272.76
1023.548	1283.16
1023.839	1268.24
1024.129	1263.5
1024.419	1249.49
1024.709	1281.58
1025	1253.33
1025.29	1203.61
1025.58	1224.4
1025.87	1205.42
1026.16	1214.91
1026.449	1211.52
1026.739	1203.61
1027.029	1175.14
1027.319	1184.18
1027.608	1183.5
1027.898	1141.24
1028.187	1186.66
1028.477	1152.99
1028.766	1142.82
1029.055	1156.38
1029.344	1142.82
1029.634	1121.13
1029.923	1125.65
1030.212	1094.24
1030.501	1073.9
1030.79	1116.84
1031.078	1098.3
1031.367	1074.8
1031.656	1057.18
1031.945	1046.33
1032.233	1063.28
1032.522	1060.11
1032.81	1041.36
1033.099	1050.62
1033.387	1019.89
1033.675	1017.85
1033.963	1012.88
1034.251	1022.6
1034.54	1016.05
1034.828	997.97
1035.116	975.82
1035.403	983.73
1035.691	983.51
1035.979	982.83
1036.267	966.1
1036.554	984.41
1036.842	941.92
1037.129	906.67
1037.417	939.44
1037.704	943.05
1037.992	937.63
1038.279	936.27
1038.566	900.34
1038.853	900.34
1039.14	900.34
