Data from hue_30_FLMS001491_98.txt Node
Date: Mon Feb 06 15:06:25 GMT 2017
User: dcchb
Spectrometer: FLMS00149
Trigger mode: 0
Integration Time (sec): 2.000000E-2
Scans to average: 10
Electric dark correction enabled: true
Nonlinearity correction enabled: false
Boxcar width: 0
XAxis mode: Wavelengths
Number of Pixels in Spectrum: 2048
>>>>>Begin Spectral Data<<<<<
341.393	-20.69
341.776	-20.69
342.16	-20.69
342.543	-66.79
342.927	-70.18
343.31	-66.11
343.693	-83.51
344.077	-67.7
344.46	-41.03
344.843	-49.17
345.226	-51.65
345.61	-21.82
345.993	-15.49
346.376	4.62
346.759	-8.04
347.142	3.94
347.525	38.74
347.908	60.44
348.291	74.22
348.674	124.62
349.057	97.95
349.44	122.58
349.823	137.27
350.206	159.42
350.588	184.05
350.971	218.4
351.354	221.79
351.737	241.45
352.119	265.4
352.502	265.63
352.884	267.44
353.267	283.03
353.65	301.79
354.032	315.8
354.414	309.47
354.797	300.88
355.179	323.03
355.562	323.25
355.944	310.83
356.326	334.33
356.709	337.49
357.091	322.8
357.473	341.78
357.855	337.72
358.238	343.59
358.62	328.23
359.002	357.6
359.384	307.21
359.766	344.04
360.148	352.18
360.53	346.3
360.912	321.9
361.294	332.97
361.676	326.87
362.057	336.81
362.439	328.68
362.821	344.72
363.203	333.2
363.584	329.58
363.966	341.56
364.348	337.27
364.729	328.23
365.111	312.18
365.493	333.42
365.874	303.59
366.256	326.64
366.637	311.05
367.019	311.96
367.4	306.98
367.781	299.53
368.163	322.35
368.544	312.41
368.925	290.94
369.306	316.47
369.688	327.55
370.069	301.56
370.45	292.97
370.831	309.02
371.212	305.85
371.593	322.35
371.974	299.75
372.355	313.31
372.736	307.44
373.117	319.19
373.498	325.97
373.879	322.12
374.26	313.08
374.641	320.09
375.021	309.02
375.402	315.8
375.783	310.37
376.163	324.38
376.544	311.96
376.925	320.54
377.305	312.41
377.686	312.41
378.066	324.38
378.447	339.75
378.827	312.86
379.208	359.86
379.588	341.11
379.968	334.55
380.349	326.19
380.729	322.12
381.109	330.03
381.489	323.71
381.87	327.32
382.25	316.25
382.63	324.38
383.01	342.69
383.39	343.14
383.77	335.91
384.15	329.81
384.53	343.14
384.91	335.23
385.29	338.4
385.67	319.41
386.049	350.37
386.429	348.79
386.809	353.76
387.189	356.25
387.568	345.17
387.948	348.11
388.328	354.89
388.707	350.15
389.087	358.51
389.466	351.28
389.846	349.24
390.225	351.95
390.605	356.02
390.984	354.21
391.363	349.02
391.743	350.15
392.122	375.46
392.501	368.68
392.881	350.82
393.26	375.46
393.639	360.32
394.018	384.04
394.397	366.42
394.776	353.99
395.155	358.06
395.534	372.52
395.913	372.97
396.292	363.71
396.671	378.39
397.05	377.94
397.429	373.87
397.808	381.56
398.186	384.72
398.565	374.1
398.944	392.18
399.323	362.58
399.701	381.33
400.08	383.37
400.458	379.75
400.837	375
401.215	381.78
401.594	377.04
401.972	385.4
402.351	384.5
402.729	402.35
403.107	386.53
403.486	391.28
403.864	399.41
404.242	405.96
404.62	405.29
404.999	411.39
405.377	407.77
405.755	413.42
406.133	377.49
406.511	411.84
406.889	417.49
407.267	409.35
407.645	409.58
408.023	419.07
408.401	434.21
408.779	394.21
409.156	418.62
409.534	414.33
409.912	414.55
410.29	409.13
410.667	429.01
411.045	445.28
411.422	435.12
411.8	448
412.178	427.43
412.555	442.12
412.933	457.49
413.31	473.98
413.687	452.97
414.065	455.23
414.442	472.4
414.819	446.19
415.197	476.02
415.574	455.45
415.951	469.69
416.328	473.08
416.705	465.62
417.082	481.44
417.46	480.54
417.837	480.54
418.214	471.05
418.591	482.35
418.967	498.39
419.344	480.54
419.721	495.68
420.098	485.06
420.475	506.53
420.852	488
421.228	490.03
421.605	515.34
421.982	503.14
422.358	512.63
422.735	512.85
423.111	505.85
423.488	508.11
423.864	495.23
424.241	509.46
424.617	526.86
424.994	516.02
425.37	511.72
425.746	525.96
426.123	546.07
426.499	527.99
426.875	523.93
427.251	551.27
427.627	546.53
428.003	532.29
428.379	551.72
428.756	568.45
429.132	569.58
429.507	541.1
429.883	588.33
430.259	558.05
430.635	584.94
431.011	562.57
431.387	598.95
431.763	597.15
432.138	617.94
432.514	589.01
432.89	600.54
433.265	611.16
433.641	615.68
434.016	591.72
434.392	605.05
434.767	640.08
435.143	636.24
435.518	621.78
435.894	618.84
436.269	640.76
436.644	668.1
437.02	638.05
437.395	647.09
437.77	642.57
438.145	665.39
438.52	680.53
438.895	669.91
439.271	709.23
439.646	699.52
440.021	692.96
440.395	712.62
440.77	678.5
441.145	679.63
441.52	706.97
441.895	705.17
442.27	712.17
442.645	704.94
443.019	711.04
443.394	690.02
443.769	700.19
444.143	742.68
444.518	727.31
444.892	738.84
445.267	731.61
445.641	727.76
446.016	715.79
446.39	756.92
446.764	728.67
447.139	727.99
447.513	749.91
447.887	745.39
448.262	767.99
448.636	740.64
449.01	774.99
449.384	766.86
449.758	773.64
450.132	768.89
450.506	768.44
450.88	787.2
451.254	791.49
451.628	809.57
452.002	799.85
452.376	800.08
452.75	818.83
453.123	793.52
453.497	845.05
453.871	854.31
454.244	852.96
454.618	876.46
454.992	874.2
455.365	850.7
455.739	866.29
456.112	862
456.486	875.33
456.859	889.79
457.232	871.26
457.606	898.38
457.979	920.3
458.352	907.42
458.725	956.68
459.099	945.61
459.472	945.61
459.845	965.95
460.218	974.08
460.591	990.81
460.964	981.09
461.337	986.74
461.71	1025.83
462.083	1012.73
462.456	1033.52
462.829	1022.22
463.201	1036.91
463.574	1076.68
463.947	1067.87
464.32	1072.61
464.692	1105.38
465.065	1114.19
465.438	1105.83
465.81	1103.8
466.183	1137.92
466.555	1163.46
466.928	1149.45
467.3	1156.23
467.672	1183.12
468.045	1211.59
468.417	1183.8
468.789	1208.2
469.161	1260.86
469.534	1244.81
469.906	1316
470.278	1301.31
470.65	1296.56
471.022	1343.79
471.394	1339.05
471.766	1390.12
472.138	1419.27
472.51	1427.86
472.882	1445.71
473.253	1456.56
473.625	1473.28
473.997	1524.8
474.369	1488.2
474.74	1542.43
475.112	1567.06
475.484	1597.57
475.855	1627.85
476.227	1630.11
476.598	1725.7
476.97	1695.65
477.341	1738.81
477.713	1788.07
478.084	1800.5
478.455	1838.02
478.827	1880.95
479.198	1939.26
479.569	1954.17
479.94	2023.1
480.311	2023.55
480.682	2093.83
481.053	2118.01
481.424	2205.01
481.795	2237.55
482.166	2263.99
482.537	2293.37
482.908	2377.44
483.279	2366.82
483.65	2441.16
484.021	2516.19
484.391	2525.46
484.762	2563.42
485.133	2591.22
485.503	2683.64
485.874	2744.89
486.244	2761.61
486.615	2831.44
486.985	2908.27
487.356	2936.97
487.726	2992.56
488.097	3048.83
488.467	3070.07
488.837	3172.9
489.207	3223.97
489.578	3279.33
489.948	3304.42
490.318	3398.43
490.688	3402.72
491.058	3491.76
491.428	3579.44
491.798	3576.05
492.168	3694.92
492.538	3703.5
492.908	3809.04
493.278	3798.87
493.648	3841.81
494.017	3942.82
494.387	3943.5
494.757	4021.69
495.126	4073.44
495.496	4092.65
495.866	4151.63
496.235	4244.06
496.605	4268.69
496.974	4325.86
497.344	4391.17
497.713	4407.67
498.082	4474.56
498.452	4494.44
498.821	4495.8
499.19	4549.36
499.559	4616.25
499.928	4678.62
500.298	4715.23
500.667	4760.88
501.036	4701.67
501.405	4807.66
501.774	4828.9
502.143	4893.98
502.512	4889.91
502.88	4980.76
503.249	4965.84
503.618	5046.75
503.987	5052.4
504.356	5123.35
504.724	5105.28
505.093	5111.15
505.462	5200.19
505.83	5208.78
506.199	5204.93
506.567	5331.26
506.936	5366.74
507.304	5380.97
507.672	5392.27
508.041	5432.5
508.409	5458.03
508.777	5502.78
509.145	5569.67
509.514	5572.16
509.882	5606.05
510.25	5612.83
510.618	5641.08
510.986	5671.36
511.354	5737.8
511.722	5751.81
512.09	5841.08
512.458	5860.06
512.826	5900.28
513.193	5852.15
513.561	5891.47
513.929	5968.76
514.297	5980.73
514.664	6055.53
515.032	6034.97
515.4	6068.41
515.767	6067.28
516.135	6147.06
516.502	6102.76
516.869	6161.07
517.237	6247.84
517.604	6218.92
517.972	6244.68
518.339	6305.7
518.706	6275.41
519.073	6303.44
519.44	6320.61
519.808	6419.37
520.175	6415.52
520.542	6511.79
520.909	6519.48
521.276	6476.54
521.643	6609.87
522.009	6579.13
522.376	6629.76
522.743	6724.44
523.11	6721.05
523.477	6757.89
523.843	6815.29
524.21	6819.35
524.577	6891.67
524.943	6899.58
525.31	6915.62
525.676	6922.85
526.043	7001.04
526.409	7028.16
526.776	7130.76
527.142	7161.49
527.508	7163.3
527.874	7241.72
528.241	7252.79
528.607	7314.26
528.973	7346.57
529.339	7379.34
529.705	7357.65
530.071	7477.87
530.437	7502.27
530.803	7511.09
531.169	7595.83
531.535	7556.28
531.901	7557.87
532.267	7602.84
532.632	7692.1
532.998	7725.32
533.364	7707.47
533.73	7700.69
534.095	7846.45
534.461	7892.77
534.826	7906.33
535.192	7969.15
535.557	7993.56
535.923	8005.09
536.288	8008.93
536.653	8080.34
537.019	8013.9
537.384	8115.14
537.749	8149.94
538.114	8122.15
538.479	8156.27
538.845	8213.89
539.21	8233.1
539.575	8311.07
539.94	8270.84
540.305	8322.82
540.67	8325.08
541.034	8389.71
541.399	8390.61
541.764	8409.82
542.129	8538.18
542.494	8468.58
542.858	8543.6
543.223	8517.62
543.587	8662.02
543.952	8645.97
544.316	8709.02
544.681	8756.03
545.045	8781.56
545.41	8767.78
545.774	8846.42
546.138	8801.45
546.503	8925.51
546.867	8857.49
547.231	8971.84
547.595	8961.9
547.959	9037.6
548.324	9039.64
548.688	9061.1
549.052	9100.88
549.416	9144.72
549.779	9122.34
550.143	9193.3
550.507	9206.86
550.871	9246.41
551.235	9216.81
551.599	9300.65
551.962	9354.66
552.326	9385.84
552.689	9382
553.053	9457.93
553.417	9388.33
553.78	9571.82
554.143	9535.22
554.507	9591.26
554.87	9594.65
555.234	9732.72
555.597	9672.84
555.96	9684.14
556.323	9732.27
556.686	9785.83
557.05	9767.53
557.413	9843.68
557.776	9923.68
558.139	9930.01
558.502	9917.35
558.865	9949.89
559.228	10029.67
559.59	10032.6
559.953	10073.28
560.316	10165.26
560.679	10071.7
561.041	10202.99
561.404	10230.56
561.767	10207.29
562.129	10272.37
562.492	10332.93
562.854	10403.22
563.217	10321.64
563.579	10407.28
563.941	10391.69
564.304	10534.51
564.666	10494.74
565.028	10555.08
565.39	10561.86
565.753	10706.71
566.115	10681.17
566.477	10734.73
566.839	10785.8
567.201	10831.23
567.563	10736.54
567.925	10916.87
568.287	10867.61
568.648	10941.51
569.01	10930.43
569.372	11007.95
569.734	11073.25
570.095	11095.17
570.457	11168.84
570.819	11177.88
571.18	11189.41
571.542	11313.47
571.903	11300.82
572.265	11370.65
572.626	11357.31
572.987	11501.49
573.349	11534.03
573.71	11623.75
574.071	11658.1
574.432	11732.45
574.794	11856.06
575.155	11860.13
575.516	11876.4
575.877	12024.64
576.238	11991.42
576.599	12210.17
576.96	12284.52
577.32	12283.39
577.681	12444.29
578.042	12502.14
578.403	12595.93
578.763	12736.26
579.124	12849.25
579.485	12957.95
579.845	13099.42
580.206	13159.98
580.566	13267.09
580.927	13403.59
581.287	13488.78
581.648	13662.34
582.008	13793.86
582.368	13880.41
582.728	14148.43
583.089	14381.19
583.449	14461.87
583.809	14598.59
584.169	14670.22
584.529	14855.98
584.889	15191.11
585.249	15368.73
585.609	15461.39
585.969	15688.05
586.329	15897.31
586.688	16123.52
587.048	16327.81
587.408	16438.99
587.768	16868.58
588.127	16851.41
588.487	17085.3
588.846	17392.64
589.206	17584.95
589.565	17819.97
589.925	18088.44
590.284	18297.7
590.643	18513.28
591.003	18803.9
591.362	19168.18
591.721	19280.95
592.08	19620.15
592.44	19788.05
592.799	20120.25
593.158	20373.12
593.517	20567.47
593.876	20901.92
594.235	21225.08
594.593	21481.57
594.952	21770.6
595.311	21838.85
595.67	22194.54
596.029	22563.35
596.387	22798.14
596.746	23011.25
597.104	23156.55
597.463	23432.48
597.822	23843.77
598.18	23893.71
598.538	24229.52
598.897	24546.8
599.255	24538.66
599.613	25163.05
599.972	25231.53
600.33	25519.2
600.688	25654.57
601.046	25847.55
601.404	26268.56
601.762	26368.45
602.12	26722.11
602.478	27044.13
602.836	27138.37
603.194	27275.31
603.552	27617.23
603.91	27689.31
604.268	27974.73
604.625	28189.64
604.983	28398.67
605.341	28503.98
605.698	28833.69
606.056	29140.58
606.413	29066.23
606.771	29436.39
607.128	29574.01
607.485	29624.4
607.843	29936.49
608.2	30128.8
608.557	30494.44
608.914	30533.53
609.272	30693.08
609.629	31020.53
609.986	31272.5
610.343	31218.26
610.7	31652.83
611.057	31676.55
611.414	31860.5
611.771	31883.55
612.127	32196.09
612.484	32282.87
612.841	32559.92
613.198	32547.49
613.554	32670.43
613.911	32916.07
614.267	33145.44
614.624	33184.99
614.98	33250.3
615.337	33453.68
615.693	33631.98
616.05	33743.62
616.406	34028.13
616.762	33845.99
617.118	34008.92
617.475	34157.84
617.831	34397.39
618.187	34532.52
618.543	34531.62
618.899	35073.53
619.255	34867.88
619.611	35001.44
619.967	35064.26
620.323	35255.9
620.678	35258.15
621.034	35191.72
621.39	35220.64
621.746	35332.05
622.101	35859.04
622.457	35628.31
622.812	35700.18
623.168	35936.78
623.523	35892.49
623.879	36134.97
624.234	35889.78
624.589	36126.38
624.945	36160.96
625.3	36282.99
625.655	36283.89
626.01	36383.55
626.365	36471.91
626.72	36384.23
627.075	36579.93
627.43	36478.46
627.785	36475.3
628.14	36584.22
628.495	36631.45
628.85	36705.57
629.205	36679.36
629.559	36736.08
629.914	36681.39
630.269	36780.15
630.623	36739.7
630.978	36736.76
631.332	36947.15
631.687	36971.78
632.041	36870.54
632.396	36958.45
632.75	36774.5
633.104	36934.27
633.459	36780.37
633.813	36731.56
634.167	36910.31
634.521	36840.71
634.875	36901.95
635.229	36788.51
635.583	36718.46
635.937	36900.6
636.291	36840.94
636.645	36837.32
636.999	36791.67
637.352	36968.39
637.706	36740.6
638.06	36809.98
638.413	36785.57
638.767	36698.12
639.121	36770.43
639.474	36622.64
639.828	36699.7
640.181	36795.97
640.534	36690.89
640.888	36822.63
641.241	36551
641.594	36580.83
641.947	36734.5
642.301	36581.06
642.654	36765.69
643.007	36636.2
643.36	36561.62
643.713	36421.74
644.066	36544.22
644.419	36315.08
644.771	36109.43
645.124	35862.21
645.477	35704.02
645.83	35441.65
646.182	35505.83
646.535	35477.13
646.888	35575.43
647.24	35282.56
647.593	35569.11
647.945	35478.26
648.298	35323.01
648.65	35269.23
649.002	35377.7
649.355	35338.15
649.707	35353.75
650.059	35563.68
650.411	35864.01
650.763	35901.75
651.115	36318.24
651.467	36221.52
651.819	36240.28
652.171	36083.9
652.523	35931.36
652.875	35993.28
653.227	35858.14
653.578	36073.05
653.93	36064.91
654.282	35885.71
654.633	35924.58
654.985	35761.87
655.337	35917.12
655.688	35874.41
656.039	35937.01
656.391	35642.78
656.742	35787.86
657.094	35720.97
657.445	35872.6
657.796	35927.52
658.147	35718.26
658.498	35802.32
658.849	35893.62
659.2	35732.49
659.551	35652.04
659.902	35881.87
660.253	35647.07
660.604	35821.3
660.955	35598.03
661.306	35850.68
661.656	35830.8
662.007	35674.19
662.358	35704.7
662.708	35633.74
663.059	35664.02
663.409	35534.53
663.76	35645.94
664.11	35673.74
664.461	35618.82
664.811	35635.77
665.161	35690.69
665.511	35536.34
665.862	35777.69
666.212	35712.83
666.562	35651.59
666.912	35735.88
667.262	35541.09
667.612	35582.44
667.962	35548.99
668.312	35535.66
668.662	35663.34
669.011	35527.07
669.361	35617.24
669.711	35624.25
670.06	35439.17
670.41	35406.17
670.76	35424.48
671.109	35568.66
671.459	35615.89
671.808	35366.63
672.157	35379.28
672.507	35200.3
672.856	35208.44
673.205	35288.44
673.554	35425.16
673.904	35338.83
674.253	35392.61
674.602	35322.33
674.951	34842.12
675.3	34739.98
675.649	35318.72
675.998	35222.22
676.346	35255.67
676.695	35355.78
677.044	35029.46
677.393	35193.98
677.741	35133.86
678.09	35055.9
678.438	34891.84
678.787	35042.57
679.135	35042.34
679.484	34896.81
679.832	34975.9
680.181	34778.62
680.529	34841.22
680.877	34764.83
681.225	34739.75
681.573	34853.19
681.922	34646.19
682.27	34583.37
682.618	34501.79
682.966	34509.02
683.314	34515.8
683.661	34382.92
684.009	34227.45
684.357	34113.1
684.705	34211.4
685.053	34226.32
685.4	34233.78
685.748	34116.49
686.095	34112.87
686.443	33864.07
686.79	33813.45
687.138	33914.69
687.485	33942.94
687.832	33893.67
688.18	33937.29
688.527	33646.67
688.874	33594.7
689.221	33469.73
689.568	33532.1
689.915	33449.61
690.262	33450.74
690.609	33326.45
690.956	33100.92
691.303	33065.44
691.65	32996.75
691.997	32977.76
692.344	32808.95
692.69	32889.86
693.037	32805.56
693.383	32504.55
693.73	32716.98
694.077	32526.25
694.423	32475.86
694.769	32443.77
695.116	32296.88
695.462	32300.49
695.808	32185.92
696.155	32222.3
696.501	31891.01
696.847	32061.4
697.193	31747.74
697.539	31946.38
697.885	31650.79
698.231	31524.24
698.577	31505.94
698.923	31411.93
699.269	31371.7
699.614	31267.75
699.96	31175.1
700.306	31133.52
700.651	31006.29
700.997	30929.23
701.342	30934.2
701.688	30826.86
702.033	30683.81
702.379	30748.44
702.724	30559.52
703.069	30692.17
703.415	30277.49
703.76	30349.13
704.105	30298.96
704.45	30229.59
704.795	30123.6
705.14	30084.05
705.485	30008.58
705.83	29799.77
706.175	29887
706.52	29849.48
706.865	29684.06
707.209	29664.4
707.554	29656.72
707.899	29523.84
708.243	29456.27
708.588	29411.3
708.932	29209.73
709.277	29263.96
709.621	29189.39
709.966	29004.99
710.31	29219.9
710.654	28891.77
710.998	28954.37
711.342	29030.07
711.687	28882.5
712.031	28773.13
712.375	28627.14
712.719	28701.49
713.063	28713.02
713.407	28708.72
713.75	28553.02
714.094	28491.55
714.438	28324.33
714.782	28417.66
715.125	28126.14
715.469	28263.99
715.812	28180.83
716.156	27965.01
716.499	28033.26
716.843	28140.15
717.186	27835.3
717.53	28017.44
717.873	27956.2
718.216	27911.91
718.559	27884.11
718.902	27628.3
719.246	27671.91
719.589	27665.81
719.932	27507.85
720.275	27433.73
720.617	27410.9
720.96	27341.98
721.303	27504.23
721.646	27330
721.989	27114.19
722.331	27243.9
722.674	27106.96
723.016	27179.72
723.359	27201.19
723.701	27120.06
724.044	27047.75
724.386	26892.05
724.729	26995.55
725.071	26723.46
725.413	26792.16
725.755	26834.87
726.097	26695.89
726.439	26615.22
726.782	26518.27
727.124	26633.07
727.465	26488.22
727.807	26450.48
728.149	26459.52
728.491	26474.88
728.833	26434.21
729.175	26389.01
729.516	26255.68
729.858	26341.1
730.199	26372.51
730.541	26305.4
730.882	26184.04
731.224	26242.12
731.565	25984.95
731.906	26088.45
732.248	26021.34
732.589	25995.57
732.93	25744.05
733.271	25944.5
733.612	25894.56
733.953	25971.62
734.294	25769.59
734.635	25652.31
734.976	25893.2
735.317	25688.91
735.658	25689.37
735.999	25659.76
736.339	25508.13
736.68	25724.17
737.021	25642.81
737.361	25494.57
737.702	25545.42
738.042	25434.01
738.383	25365.99
738.723	25418.41
739.063	25334.12
739.404	25351.52
739.744	25381.8
740.084	25267.46
740.424	25302.48
740.764	25161.92
741.104	25345.2
741.444	25169.38
741.784	25036.73
742.124	25105.43
742.464	24937.07
742.804	25050.51
743.143	24813.46
743.483	24942.95
743.823	24858.65
744.162	24723.52
744.502	24799.22
744.841	24622.73
745.181	24754.02
745.52	24615.04
745.86	24671.77
746.199	24678.32
746.538	24687.81
746.877	24675.61
747.216	24594.25
747.556	24527.14
747.895	24570.53
748.234	24377.09
748.573	24431.55
748.911	24334.6
749.25	24380.93
749.589	24252.34
749.928	24283.3
750.267	24422.28
750.605	24243.98
750.944	24193.81
751.283	24165.11
751.621	24297.31
751.96	24051.9
752.298	24004.89
752.636	24109.52
752.975	23940.49
753.313	23824.78
753.651	23946.36
753.989	23839.47
754.327	23775.97
754.666	23686.71
755.004	23604.68
755.342	23665.24
755.679	23622.3
756.017	23564
756.355	23544.34
756.693	23398.58
757.031	23415.3
757.368	23294.18
757.706	23269.77
758.044	23281.07
758.381	23265.48
758.719	23202.2
759.056	23119.94
759.394	23116.78
759.731	23009.44
760.068	22909.55
760.405	22799.73
760.743	22816
761.08	22820.29
761.417	22681.31
761.754	22604.25
762.091	22619.84
762.428	22509.56
762.765	22407.19
763.102	22424.14
763.438	22359.28
763.775	22305.73
764.112	22300.98
764.449	22303.24
764.785	22113.64
765.122	22056.47
765.458	21975.11
765.795	21884.95
766.131	21923.82
766.467	21917.49
766.804	21726.99
767.14	21617.38
767.476	21658.51
767.812	21479.08
768.148	21613.99
768.485	21403.6
768.821	21311.63
769.157	21210.16
769.492	21253.55
769.828	21126.78
770.164	20977.63
770.5	20923.39
770.836	20910.06
771.171	20850.85
771.507	20802.94
771.842	20652.66
772.178	20613.34
772.513	20575.83
772.849	20513.46
773.184	20358.43
773.519	20432.33
773.855	20284.54
774.19	20240.7
774.525	20184.88
774.86	20079.12
775.195	20034.15
775.53	19911.21
775.865	19867.6
776.2	19729.52
776.535	19601.62
776.87	19601.39
777.205	19542.18
777.539	19376.54
777.874	19508.06
778.209	19292.02
778.543	19286.15
778.878	19198.46
779.212	19152.82
779.547	19012.25
779.881	19097.68
780.215	18923.9
780.55	18933.84
780.884	18892.48
781.218	18797.12
781.552	18793.5
781.886	18693.62
782.22	18561.64
782.554	18514.87
782.888	18294.53
783.222	18218.83
783.556	18248.66
783.889	18268.55
784.223	18060.64
784.557	18020.64
784.89	18054.31
785.224	17959.17
785.557	17860.19
785.891	17765.96
786.224	17756.47
786.558	17727.09
786.891	17639.86
787.224	17498.4
787.557	17519.41
787.891	17412.3
788.224	17341.11
788.557	17364.84
788.89	17317.38
789.223	17276.93
789.556	17111.06
789.888	17129.37
790.221	17033.78
790.554	16968.47
790.887	16956.94
791.219	16832.42
791.552	16794.69
791.884	16760.11
792.217	16660.9
792.549	16644.41
792.882	16502.72
793.214	16440.8
793.546	16421.14
793.879	16338.88
794.211	16259.56
794.543	16269.05
794.875	16197.87
795.207	16214.59
795.539	16170.52
795.871	16161.03
796.203	15911.54
796.535	15896.63
796.867	15863.86
797.198	15843.3
797.53	15875.39
797.862	15779.8
798.193	15739.57
798.525	15702.51
798.856	15661.38
799.188	15545.23
799.519	15466.58
799.85	15365.8
800.182	15396.98
800.513	15465
800.844	15196.08
801.175	15271.34
801.506	15264.78
801.837	15204.9
802.168	15149.08
802.499	15106.37
802.83	14975.07
803.161	15001.96
803.491	15015.07
803.822	14988.18
804.153	14803.55
804.483	14804.68
804.814	14662.31
805.145	14629.77
805.475	14714.97
805.805	14641.3
806.136	14672.26
806.466	14642.88
806.796	14583.67
807.126	14444.01
807.457	14425.03
807.787	14399.04
808.117	14364.24
808.447	14245.6
808.777	14332.38
809.107	14204.25
809.436	14307.75
809.766	14280.18
810.096	14163.12
810.426	14042.44
810.755	14039.5
811.085	14034.98
811.414	14072.5
811.744	13888.77
812.073	13871.82
812.403	13896
812.732	13799.74
813.061	13786.18
813.39	13761.54
813.719	13637.93
814.049	13721.09
814.378	13681.1
814.707	13626.86
815.036	13624.83
815.365	13541.66
815.693	13392.29
816.022	13476.13
816.351	13365.17
816.68	13313.87
817.008	13396.13
817.337	13288.79
817.665	13286.98
817.994	13243.82
818.322	13272.74
818.651	13186.42
818.979	13146.19
819.307	13163.59
819.636	13079.75
819.964	12959.31
820.292	13110.49
820.62	13016.03
820.948	12996.82
821.276	13060.09
821.604	12985.52
821.932	12998.4
822.259	13015.8
822.587	13037.27
822.915	12883.38
823.243	13032.52
823.57	13000.66
823.898	12955.46
824.225	12911.4
824.553	12942.58
824.88	12896.26
825.207	12943.49
825.535	12874.56
825.862	12962.24
826.189	12867.11
826.516	13036.37
826.843	12971.06
827.17	13015.12
827.497	12994.33
827.824	12905.97
828.151	12945.75
828.478	12947.78
828.805	13050.38
829.131	12904.84
829.458	12920.44
829.785	12798.63
830.111	12822.59
830.438	12889.25
830.764	12937.61
831.09	12843.83
831.417	12838.63
831.743	12833.89
832.069	12956.59
832.395	12813.32
832.722	12828.91
833.048	12758.18
833.374	12712.98
833.7	12716.6
834.026	12758.86
834.351	12793.21
834.677	12748.69
835.003	12739.2
835.329	12733.1
835.654	12661.91
835.98	12670.73
836.306	12563.61
836.631	12604.74
836.956	12646.09
837.282	12571.97
837.607	12501.92
837.932	12522.93
838.258	12579.66
838.583	12555.7
838.908	12480.45
839.233	12540.11
839.558	12449.94
839.883	12488.36
840.208	12442.71
840.533	12432.77
840.858	12357.51
841.182	12380.11
841.507	12351.64
841.832	12294.92
842.156	12236.84
842.481	12275.48
842.805	12202.26
843.13	12249.04
843.454	12237.07
843.778	12069.16
844.103	12066
844.427	12074.13
844.751	12091.31
845.075	11992.33
845.399	11978.54
845.723	11888.6
846.047	11914.81
846.371	11902.38
846.695	11861.03
847.019	11680.92
847.343	11668.27
847.666	11583.98
847.99	11601.38
848.313	11548.04
848.637	11430.08
848.96	11488.84
849.284	11433.92
849.607	11374.04
849.931	11310.08
850.254	11228.73
850.577	11204.32
850.9	11142.63
851.223	11197.09
851.546	10994.84
851.869	10986.02
852.192	11018.11
852.515	10933.82
852.838	10901.73
853.161	10925.24
853.483	10867.38
853.806	10803.43
854.129	10720.04
854.451	10741.06
854.774	10685.92
855.096	10672.81
855.419	10650.21
855.741	10598.01
856.063	10553.49
856.385	10486.38
856.708	10473.04
857.03	10438.02
857.352	10424.23
857.674	10400.5
857.996	10413.16
858.318	10293.16
858.64	10352.6
858.961	10303.78
859.283	10297.23
859.605	10172.03
859.926	10170
860.248	10217.91
860.57	10125.93
860.891	10161.41
861.212	10112.83
861.534	10030.8
861.855	10030.12
862.176	10043.9
862.498	10087.07
862.819	10026.73
863.14	10062.66
863.461	9964.36
863.782	9931.36
864.103	9964.81
864.424	9945.83
864.745	9939.05
865.065	9826.28
865.386	9827.64
865.707	9855.66
866.027	9845.72
866.348	9760.29
866.668	9814.3
866.989	9740.41
867.309	9704.48
867.63	9723.23
867.95	9657.7
868.27	9699.05
868.59	9706.74
868.91	9697.25
869.23	9687.75
869.55	9565.27
869.87	9674.65
870.19	9595.1
870.51	9626.29
870.83	9579.51
871.15	9516.91
871.469	9618.38
871.789	9510.36
872.109	9553.52
872.428	9498.83
872.748	9479.4
873.067	9441.66
873.386	9455.22
873.706	9458.16
874.025	9396.46
874.344	9360.53
874.663	9392.62
874.982	9377.03
875.301	9354.43
875.62	9283.24
875.939	9261.1
876.258	9305.62
876.577	9244.6
876.896	9225.62
877.214	9200.31
877.533	9198.5
877.852	9225.84
878.17	9198.05
878.489	9225.39
878.807	9202.12
879.125	9147.88
879.444	9220.42
879.762	9130.93
880.08	9135
880.398	9093.42
880.716	9135.68
881.034	9050.26
881.352	9063.59
881.67	9005.06
881.988	9048.45
882.306	8986.76
882.624	8960.32
882.941	8937.04
883.259	8896.59
883.577	8850.26
883.894	8867.89
884.212	8856.82
884.529	8776.82
884.846	8810.94
885.164	8805.74
885.481	8801.45
885.798	8776.59
886.115	8700.89
886.432	8759.64
886.75	8687.55
887.067	8723.71
887.383	8669.25
887.7	8655.46
888.017	8615.24
888.334	8549.03
888.651	8606.43
888.967	8562.13
889.284	8561.23
889.6	8531.85
889.917	8400.56
890.233	8413.66
890.55	8394.23
890.866	8419.31
891.182	8398.52
891.498	8400.56
891.815	8347.45
892.131	8303.61
892.447	8324.63
892.763	8229.49
893.079	8237.62
893.395	8214.35
893.71	8204.18
894.026	8141.58
894.342	8144.52
894.657	8105.2
894.973	8047.8
895.289	8094.8
895.604	8011.87
895.92	7938.65
896.235	7981.36
896.55	8007.12
896.865	7926.44
897.181	7962.15
897.496	7899.33
897.811	7838.76
898.126	7836.5
898.441	7795.15
898.756	7811.42
899.071	7746.34
899.386	7747.24
899.7	7739.1
900.015	7655.04
900.33	7608.94
900.644	7561.93
900.959	7582.95
901.273	7548.15
901.588	7595.38
901.902	7440.13
902.216	7436.29
902.531	7448.72
902.845	7421.6
903.159	7375.72
903.473	7379.11
903.787	7312.9
904.101	7269.29
904.415	7283.75
904.729	7204.43
905.042	7203.98
905.356	7206.01
905.67	7182.51
905.984	7113.36
906.297	7147.03
906.611	7046.69
906.924	7039.46
907.237	7086.92
907.551	7020.48
907.864	7000.82
908.177	6965.57
908.491	6916.08
908.804	6846.92
909.117	6818.68
909.43	6775.29
909.743	6789.07
910.056	6805.34
910.368	6766.02
910.681	6666.36
910.994	6669.53
911.307	6685.57
911.619	6643.99
911.932	6702.07
912.244	6601.51
912.557	6622.52
912.869	6539.36
913.181	6550.66
913.494	6513.6
913.806	6458.46
914.118	6410.33
914.43	6377.33
914.742	6390.67
915.054	6369.87
915.366	6348.41
915.678	6360.38
915.99	6319.03
916.302	6277.67
916.613	6229.09
916.925	6156.55
917.236	6221.63
917.548	6143.44
917.859	6159.71
918.171	6115.64
918.482	6091.01
918.794	6059.6
919.105	6014.4
919.416	6039.94
919.727	5949.77
920.038	5985.25
920.349	5930.79
920.66	5893.28
920.971	5876.78
921.282	5922.43
921.593	5853.96
921.903	5823
922.214	5823.22
922.525	5770.79
922.835	5735.77
923.146	5700.97
923.456	5686.5
923.767	5669.33
924.077	5624.36
924.387	5629.1
924.697	5626.17
925.008	5622.32
925.318	5602.66
925.628	5540.52
925.938	5571.48
926.248	5437.7
926.558	5468.43
926.867	5437.92
927.177	5415.78
927.487	5394.31
927.796	5274.54
928.106	5357.47
928.416	5373.06
928.725	5336.46
929.034	5305.95
929.344	5295.33
929.653	5234.31
929.962	5211.04
930.271	5207.87
930.581	5126.74
930.89	5100.76
931.199	5166.97
931.508	5071.38
931.817	5073.64
932.125	5087.65
932.434	5041.1
932.743	5024.83
933.051	5034.99
933.36	4967.43
933.669	4927.65
933.977	4955.22
934.286	4902.57
934.594	4929.91
934.902	4855.56
935.21	4855.11
935.519	4838.84
935.827	4782.35
936.135	4817.6
936.443	4777.83
936.751	4741.22
937.059	4717.49
937.367	4717.71
937.674	4700.09
937.982	4693.99
938.29	4627.55
938.597	4656.25
938.905	4629.81
939.213	4525.18
939.52	4591.62
939.827	4587.77
940.135	4581.67
940.442	4501.22
940.749	4508.68
941.056	4517.72
941.363	4442.02
941.67	4463.48
941.977	4427.1
942.284	4394.33
942.591	4350.72
942.898	4370.15
943.205	4353.43
943.511	4309.59
943.818	4306.2
944.125	4271.17
944.431	4246.77
944.738	4269.82
945.044	4246.09
945.35	4213.77
945.657	4212.87
945.963	4195.47
946.269	4160.89
946.575	4151.85
946.881	4143.72
947.187	4140.1
947.493	4052.42
947.799	4069.37
948.105	4066.88
948.41	4019.43
948.716	4007.45
949.022	4033.67
949.327	3996.6
949.633	3928.13
949.938	3950.05
950.244	3933.55
950.549	3942.37
950.854	3884.74
951.16	3904.63
951.465	3904.85
951.77	3860.11
952.075	3868.47
952.38	3821.92
952.685	3780.79
952.99	3827.34
953.294	3763.62
953.599	3762.03
953.904	3724.75
954.209	3717.97
954.513	3731.75
954.818	3708.93
955.122	3635.71
955.426	3688.14
955.731	3668.93
956.035	3656.27
956.339	3639.1
956.643	3619.89
956.948	3576.73
957.252	3548.25
957.556	3583.51
957.86	3530.4
958.163	3565.2
958.467	3505.32
958.771	3501.02
959.075	3494.02
959.378	3457.41
959.682	3444.08
959.985	3403.4
960.289	3415.83
960.592	3411.08
960.896	3353.68
961.199	3384.87
961.502	3367.24
961.805	3344.19
962.108	3316.4
962.411	3328.15
962.714	3260.8
963.017	3294.25
963.32	3300.58
963.623	3304.87
963.926	3261.03
964.228	3227.81
964.531	3215.16
964.833	3227.81
965.136	3185.55
965.438	3141.71
965.741	3140.13
966.043	3165.67
966.345	3160.24
966.648	3109.4
966.95	3122.73
967.252	3106.01
967.554	3041.83
967.856	3052.9
968.158	3036.4
968.46	3045.89
968.761	3009.06
969.063	3019
969.365	3026.69
969.666	3017.87
969.968	2943.75
970.269	2947.59
970.571	2962.05
970.872	2969.96
971.174	2906.01
971.475	2891.1
971.776	2916.86
972.077	2903.75
972.378	2865.56
972.679	2880.93
972.98	2853.81
973.281	2821.72
973.582	2830.31
973.883	2826.69
974.183	2830.53
974.484	2799.35
974.785	2802.29
975.085	2749.41
975.386	2784.21
975.686	2747.82
975.986	2734.72
976.287	2722.97
976.587	2676.86
976.887	2688.39
977.187	2717.54
977.487	2690.65
977.787	2671.67
978.087	2660.82
978.387	2652.46
978.687	2629.63
978.987	2598.22
979.286	2605.45
979.586	2600.93
979.885	2595.28
980.185	2597.54
980.484	2520.26
980.784	2579.24
981.083	2510.99
981.382	2546.92
981.682	2494.72
981.981	2485.23
982.28	2498.34
982.579	2475.29
982.878	2465.8
983.177	2470.09
983.475	2447.72
983.774	2458.79
984.073	2441.84
984.372	2434.84
984.67	2412.46
984.969	2416.53
985.267	2389.19
985.566	2359.58
985.864	2349.42
986.162	2341.96
986.461	2343.77
986.759	2322.07
987.057	2304.9
987.355	2309.87
987.653	2315.29
987.951	2273.03
988.249	2269.87
988.547	2245.46
988.844	2286.37
989.142	2276.2
989.44	2254.5
989.737	2237.55
990.035	2199.82
990.332	2198.23
990.63	2198.23
990.927	2234.84
991.224	2180.15
991.521	2160.04
991.819	2150.1
992.116	2148.29
992.413	2167.05
992.71	2155.3
993.006	2140.61
993.303	2134.51
993.6	2111.23
993.897	2111.23
994.193	2085.92
994.49	2083.89
994.787	2080.72
995.083	2065.81
995.379	2030.55
995.676	2048.41
995.972	2041.63
996.268	1995.53
996.565	1987.39
996.861	1973.61
997.157	1995.07
997.453	1974.51
997.749	1977.9
998.044	1954.17
998.34	1962.76
998.636	1941.52
998.932	1912.59
999.227	1901.74
999.523	1908.3
999.818	1924.12
1000.114	1884.57
1000.409	1878.02
1000.704	1899.48
1001	1869.65
1001.295	1829.88
1001.59	1856.1
1001.885	1832.37
1002.18	1842.08
1002.475	1802.76
1002.77	1815.42
1003.065	1796.21
1003.359	1781.97
1003.654	1790.33
1003.949	1744.01
1004.243	1770.67
1004.538	1720.05
1004.832	1743.33
1005.127	1749.88
1005.421	1669.21
1005.715	1693.61
1006.009	1739.94
1006.304	1682.09
1006.598	1654.29
1006.892	1639.83
1007.186	1642.77
1007.48	1667.85
1007.773	1642.32
1008.067	1619.94
1008.361	1645.03
1008.655	1644.8
1008.948	1618.14
1009.242	1585.82
1009.535	1611.58
1009.829	1581.53
1010.122	1571.36
1010.415	1579.04
1010.708	1591.92
1011.001	1551.02
1011.295	1519.38
1011.588	1560.28
1011.881	1530.23
1012.173	1529.1
1012.466	1516.44
1012.759	1504.01
1013.052	1523.22
1013.344	1488.65
1013.637	1468.08
1013.93	1498.36
1014.222	1465.6
1014.514	1470.12
1014.807	1428.99
1015.099	1447.52
1015.391	1436.45
1015.683	1421.98
1015.976	1415.43
1016.268	1421.53
1016.56	1395.32
1016.851	1370.01
1017.143	1369.55
1017.435	1389.44
1017.727	1389.89
1018.018	1385.37
1018.31	1339.27
1018.602	1323.68
1018.893	1356
1019.185	1327.52
1019.476	1338.37
1019.767	1343.11
1020.058	1311.93
1020.35	1289.56
1020.641	1306.28
1020.932	1284.81
1021.223	1254.08
1021.514	1267.41
1021.804	1251.37
1022.095	1257.24
1022.386	1217.24
1022.677	1224.47
1022.967	1240.74
1023.258	1189.45
1023.548	1200.07
1023.839	1197.36
1024.129	1159.84
1024.419	1183.8
1024.709	1177.47
1025	1189.9
1025.29	1176.57
1025.58	1147.19
1025.87	1163.68
1026.16	1134.76
1026.449	1119.84
1026.739	1122.33
1027.029	1109
1027.319	1110.13
1027.608	1100.86
1027.898	1100.63
1028.187	1081.65
1028.477	1103.35
1028.766	1063.57
1029.055	1087.75
1029.344	1086.4
1029.634	1056.12
1029.923	1049.56
1030.212	1031.48
1030.501	1054.76
1030.79	1030.13
1031.078	1025.16
1031.367	1020.86
1031.656	1028.77
1031.945	1021.09
1032.233	1005.27
1032.522	994.2
1032.81	982.45
1033.099	976.57
1033.387	996.23
1033.675	953.52
1033.963	944.93
1034.251	969.34
1034.54	946.97
1034.828	942.67
1035.116	920.75
1035.403	921.88
1035.691	927.76
1035.979	925.95
1036.267	895.67
1036.554	904.26
1036.842	898.15
1037.129	921.66
1037.417	895.89
1037.704	924.82
1037.992	917.59
1038.279	893.63
1038.566	867.65
1038.853	867.65
1039.14	867.65
