Data from hue_20_FLMS001491_22.txt Node
Date: Mon Feb 06 15:33:49 GMT 2017
User: dcchb
Spectrometer: FLMS00149
Trigger mode: 0
Integration Time (sec): 2.000000E-2
Scans to average: 10
Electric dark correction enabled: true
Nonlinearity correction enabled: false
Boxcar width: 0
XAxis mode: Wavelengths
Number of Pixels in Spectrum: 2048
>>>>>Begin Spectral Data<<<<<
341.393	-17.37
341.776	-17.37
342.16	-17.37
342.543	-76.35
342.927	-49.01
343.31	-90.36
343.693	-78.84
344.077	-63.92
344.46	-49.24
344.843	-52.85
345.226	-24.38
345.61	-42
345.993	-21.89
346.376	-2.46
346.759	20.37
347.142	25.79
347.525	51.1
347.908	54.26
348.291	78.44
348.674	82.96
349.057	113.02
349.44	137.65
349.823	154.15
350.206	167.71
350.588	204.32
350.971	214.71
351.354	215.84
351.737	249.74
352.119	258.1
352.502	286.35
352.884	271.43
353.267	299.68
353.65	299.23
354.032	309.85
354.414	307.82
354.797	320.47
355.179	307.14
355.562	327.7
355.944	328.61
356.326	338.32
356.709	332.22
357.091	338.1
357.473	351.88
357.855	359.11
358.238	346.23
358.62	347.36
359.002	345.78
359.384	350.08
359.766	332.67
360.148	342.17
360.53	343.3
360.912	336.52
361.294	352.34
361.676	356.4
362.057	334.48
362.439	354.6
362.821	351.88
363.203	326.57
363.584	317.08
363.966	310.75
364.348	320.25
364.729	341.04
365.111	335.61
365.493	341.49
365.874	340.58
366.256	315.95
366.637	351.43
367.019	310.75
367.4	352.11
367.781	317.76
368.163	314.14
368.544	326.57
368.925	326.12
369.306	306.01
369.688	313.24
370.069	309.4
370.45	312.79
370.831	335.61
371.212	310.3
371.593	335.39
371.974	299.46
372.355	327.03
372.736	323.41
373.117	312.11
373.498	341.04
373.879	313.01
374.26	342.84
374.641	310.53
375.021	315.27
375.402	320.7
375.783	327.03
376.163	340.81
376.544	338.1
376.925	317.76
377.305	336.29
377.686	329.74
378.066	329.96
378.447	331.54
378.827	312.56
379.208	345.33
379.588	320.7
379.968	319.34
380.349	292.22
380.729	330.19
381.109	335.39
381.489	340.13
381.87	325.22
382.25	347.36
382.63	339.68
383.01	353.01
383.39	335.61
383.77	348.27
384.15	353.92
384.53	354.82
384.91	352.11
385.29	337.19
385.67	362.73
386.049	369.74
386.429	355.05
386.809	330.42
387.189	355.05
387.568	360.47
387.948	369.96
388.328	355.05
388.707	352.11
389.087	366.35
389.466	381.94
389.846	352.79
390.225	362.73
390.605	376.06
390.984	379
391.363	372
391.743	364.09
392.122	366.8
392.501	381.26
392.881	373.8
393.26	361.6
393.639	385.33
394.018	397.31
394.397	392.11
394.776	376.06
395.155	387.81
395.534	364.31
395.913	374.93
396.292	373.8
396.671	360.92
397.05	396.85
397.429	392.11
397.808	376.06
398.186	364.76
398.565	394.82
398.944	411.09
399.323	376.74
399.701	394.14
400.08	400.47
400.458	384.88
400.837	397.76
401.215	388.27
401.594	411.77
401.972	393.01
402.351	398.89
402.729	413.12
403.107	400.47
403.486	406.12
403.864	404.54
404.242	400.47
404.62	438.66
404.999	398.21
405.377	389.62
405.755	432.56
406.133	435.27
406.511	416.51
406.889	426.91
407.267	430.3
407.645	417.19
408.023	438.43
408.401	446.57
408.779	411.54
409.156	445.44
409.534	438.66
409.912	434.82
410.29	457.42
410.667	445.67
411.045	436.4
411.422	458.32
411.8	459
412.178	445.44
412.555	469.85
412.933	474.82
413.31	456.74
413.687	449.96
414.065	475.04
414.442	421.49
414.819	471.88
415.197	458.77
415.574	477.98
415.951	500.35
416.328	470.52
416.705	457.64
417.082	494.93
417.46	490.41
417.837	493.57
418.214	476.85
418.591	483.18
418.967	500.81
419.344	486.8
419.721	506
420.098	499.9
420.475	500.58
420.852	485.44
421.228	506.91
421.605	507.36
421.982	521.82
422.358	511.65
422.735	500.58
423.111	522.5
423.488	536.74
423.864	522.27
424.241	540.8
424.617	537.64
424.994	518.66
425.37	526.79
425.746	548.04
426.123	569.5
426.499	526.34
426.875	557.08
427.251	531.77
427.627	567.02
428.003	570.86
428.379	571.99
428.756	593.91
429.132	604.76
429.507	579.9
429.883	574.7
430.259	588.04
430.635	581.26
431.011	565.66
431.387	593.91
431.763	603.85
432.138	603.18
432.514	616.51
432.89	586.91
433.265	613.12
433.641	614.02
434.016	621.71
434.392	644.98
434.767	641.59
435.143	649.73
435.518	658.99
435.894	654.7
436.269	648.15
436.644	661.93
437.02	662.61
437.395	685.43
437.77	668.49
438.145	673.91
438.52	684.53
438.895	702.16
439.271	705.77
439.646	696.28
440.021	708.94
440.395	726.56
440.77	694.93
441.145	709.61
441.52	720.69
441.895	720.46
442.27	711.2
442.645	700.57
443.019	742.83
443.394	724.3
443.769	746.9
444.143	737.86
444.518	723.63
444.892	754.36
445.267	757.97
445.641	757.07
446.016	751.19
446.39	746.9
446.764	750.97
447.139	760.69
447.513	763.4
447.887	782.15
448.262	767.24
448.636	785.77
449.01	783.96
449.384	783.74
449.758	793.45
450.132	809.95
450.506	835.26
450.88	824.41
451.254	802.27
451.628	819.22
452.002	805.88
452.376	835.03
452.75	840.23
453.123	837.97
453.497	847.46
453.871	850.85
454.244	861.25
454.618	865.09
454.992	893.11
455.365	884.75
455.739	887.69
456.112	877.52
456.486	921.59
456.859	914.81
457.232	916.39
457.606	922.04
457.979	936.73
458.352	934.69
458.725	1001.36
459.099	954.58
459.472	969.72
459.845	990.28
460.218	988.25
460.591	1011.08
460.964	997.06
461.337	1014.01
461.71	1047.68
462.083	1045.42
462.456	1031.41
462.829	1056.95
463.201	1078.87
463.574	1084.07
463.947	1091.75
464.32	1093.33
464.692	1091.07
465.065	1118.87
465.438	1143.28
465.81	1134.69
466.183	1182.82
466.555	1166.55
466.928	1199.54
467.3	1193.22
467.672	1198.64
468.045	1219.43
468.417	1219.43
468.789	1239.32
469.161	1269.83
469.534	1260.33
469.906	1297.85
470.278	1298.75
470.65	1335.13
471.022	1363.61
471.394	1365.19
471.766	1375.81
472.138	1413.55
472.51	1473.21
472.882	1447.67
473.253	1471.85
473.625	1489.25
473.997	1503.27
474.369	1549.37
474.74	1530.84
475.112	1583.26
475.484	1636.37
475.855	1637.27
476.227	1649.93
476.598	1722.24
476.97	1737.16
477.341	1757.72
477.713	1800.66
478.084	1818.74
478.455	1834.33
478.827	1898.28
479.198	1920.43
479.569	1957.72
479.94	1986.19
480.311	2040.65
480.682	2078.84
481.053	2128.11
481.424	2184.15
481.795	2189.8
482.166	2233.42
482.537	2265.73
482.908	2311.61
483.279	2357.71
483.65	2389.57
484.021	2417.59
484.391	2446.52
484.762	2508.66
485.133	2531.26
485.503	2609.23
485.874	2663.01
486.244	2675.66
486.615	2733.52
486.985	2760.86
487.356	2797.92
487.726	2846.28
488.097	2949.1
488.467	2920.4
488.837	3011.7
489.207	3051.47
489.578	3105.94
489.948	3149.78
490.318	3193.39
490.688	3222.99
491.058	3308.42
491.428	3327.17
491.798	3366.95
492.168	3385.7
492.538	3458.92
492.908	3473.38
493.278	3542.53
493.648	3528.75
494.017	3639.25
494.387	3657.79
494.757	3681.51
495.126	3725.58
495.496	3731.91
495.866	3760.38
496.235	3847.61
496.605	3868.63
496.974	3922.41
497.344	3982.3
497.713	3927.61
498.082	3965.57
498.452	4006.02
498.821	4062.52
499.19	4065.23
499.559	4091.45
499.928	4106.13
500.298	4179.13
500.667	4199.69
501.036	4189.75
501.405	4235.62
501.774	4262.97
502.143	4288.5
502.512	4328.73
502.88	4370.31
503.249	4336.41
503.618	4388.84
503.987	4441.04
504.356	4458.44
504.724	4439.69
505.093	4475.84
505.462	4498.67
505.83	4523.3
506.199	4548.61
506.567	4589.29
506.936	4623.64
507.304	4633.58
507.672	4627.93
508.041	4726.68
508.409	4753.58
508.777	4738.43
509.145	4775.72
509.514	4777.08
509.882	4809.62
510.25	4754.71
510.618	4807.36
510.986	4857.75
511.354	4868.83
511.722	4867.47
512.09	4931.42
512.458	4937.98
512.826	4893.91
513.193	4900.92
513.561	4969.16
513.929	5020.69
514.297	5024.75
514.664	5081.93
515.032	5043.74
515.4	5103.85
515.767	5149.27
516.135	5165.77
516.502	5111.76
516.869	5171.42
517.237	5124.87
517.604	5216.84
517.972	5203.06
518.339	5264.52
518.706	5241.25
519.073	5231.08
519.44	5278.08
519.808	5294.13
520.175	5279.21
520.542	5386.78
520.909	5392.88
521.276	5337.74
521.643	5383.62
522.009	5418.19
522.376	5442.82
522.743	5518.08
523.11	5502.48
523.477	5538.19
523.843	5520.11
524.21	5591.52
524.577	5613.44
524.943	5610.5
525.31	5642.82
525.676	5657.28
526.043	5717.62
526.409	5770.95
526.776	5830.16
527.142	5826.09
527.508	5870.38
527.874	5886.2
528.241	5896.82
528.607	5925.75
528.973	5953.77
529.339	5966.43
529.705	6044.84
530.071	6031.73
530.437	6040.55
530.803	6113.77
531.169	6132.75
531.535	6089.13
531.901	6149.92
532.267	6200.77
532.632	6190.6
532.998	6233.76
533.364	6286.87
533.73	6279.86
534.095	6255.46
534.461	6342.01
534.826	6361.44
535.192	6390.14
535.557	6454.32
535.923	6446.19
536.288	6471.27
536.653	6481.21
537.019	6492.96
537.384	6534.77
537.749	6629.01
538.114	6566.18
538.479	6594.88
538.845	6593.3
539.21	6591.95
539.575	6643.92
539.94	6711.49
540.305	6703.13
540.67	6734.77
541.034	6723.02
541.399	6837.81
541.764	6833.29
542.129	6877.36
542.494	6927.98
542.858	6934.08
543.223	6946.96
543.587	6983.35
543.952	7014.99
544.316	7062.44
544.681	6997.81
545.045	7110.8
545.41	7109.9
545.774	7135.89
546.138	7197.35
546.503	7165.72
546.867	7201.42
547.231	7217.69
547.595	7320.06
547.959	7329.1
548.324	7336.11
548.688	7270.12
549.052	7339.95
549.416	7395.31
549.779	7399.38
550.143	7407.74
550.507	7486.39
550.871	7485.71
551.235	7474.41
551.599	7587.17
551.962	7586.95
552.326	7619.71
552.689	7673.27
553.053	7639.83
553.417	7673.72
553.78	7788.3
554.143	7714.63
554.507	7716.89
554.87	7809.77
555.234	7903.32
555.597	7777.45
555.96	7825.36
556.323	7864.45
556.686	7878.24
557.05	7929.99
557.413	7898.8
557.776	7971.12
558.139	8005.47
558.502	8008.86
558.865	7995.98
559.228	8078.91
559.59	8110.32
559.953	8138.35
560.316	8159.81
560.679	8193.71
561.041	8174.05
561.404	8203.2
561.767	8333.37
562.129	8243.43
562.492	8345.57
562.854	8370.88
563.217	8296.31
563.579	8344.89
563.941	8433.25
564.304	8453.82
564.666	8562.29
565.028	8548.5
565.39	8514.38
565.753	8518.67
566.115	8614.72
566.477	8625.34
566.839	8667.6
567.201	8709.4
567.563	8768.16
567.925	8752.11
568.287	8718.22
568.648	8856.74
569.01	8907.14
569.372	8956.4
569.734	8911.21
570.095	8879.34
570.457	9020.58
570.819	9101.03
571.18	9001.6
571.542	9065.55
571.903	9139
572.265	9187.13
572.626	9237.07
572.987	9352.32
573.349	9299.44
573.71	9411.76
574.071	9403.17
574.432	9547.8
574.794	9588.02
575.155	9691.98
575.516	9633
575.877	9773.1
576.238	9847.45
576.599	9886.1
576.96	9998.64
577.32	10010.84
577.681	10167.9
578.042	10310.27
578.403	10363.82
578.763	10417.16
579.124	10537.15
579.485	10675
579.845	10779.63
580.206	10882
580.566	10991.83
580.927	11129.45
581.287	11302.78
581.648	11414.42
582.008	11557.69
582.368	11817.57
582.728	11890.11
583.089	12044.68
583.449	12312.47
583.809	12398.35
584.169	12740.26
584.529	12818.9
584.889	13113.58
585.249	13270.64
585.609	13511.09
585.969	13762.38
586.329	13971.86
586.688	14239.2
587.048	14501.57
587.408	14814.55
587.768	14968.9
588.127	15267.65
588.487	15494.54
588.846	15876.9
589.206	16074.86
589.565	16445.02
589.925	16726.37
590.284	17102.18
590.643	17409.74
591.003	17754.14
591.362	18057.63
591.721	18320
592.08	18703.04
592.44	18950.04
592.799	19377.6
593.158	19744.14
593.517	20012.16
593.876	20441.52
594.235	20774.17
594.593	21170.32
594.952	21549.74
595.311	21906.8
595.67	22261.59
596.029	22669.94
596.387	23057.95
596.746	23524.16
597.104	23652.97
597.463	24005.5
597.822	24503.79
598.18	24773.84
598.538	25086.83
598.897	25498.34
599.255	25945.79
599.613	26472.33
599.972	26628.03
600.33	27049.71
600.688	27349.59
601.046	27846.53
601.404	28315.44
601.762	28420.3
602.12	28933.28
602.478	29271.12
602.836	29562.87
603.194	29724.22
603.552	30105.9
603.91	30379.79
604.268	30827.47
604.625	31046.9
604.983	31543.83
605.341	31754.22
605.698	32166.87
606.056	32486.18
606.413	32750.81
606.771	33203.67
607.128	33474.63
607.485	33535.42
607.843	33883.43
608.2	34288.84
608.557	34576.07
608.914	34788.04
609.272	35278.65
609.629	35487.68
609.986	35843.61
610.343	35937.16
610.7	36393.87
611.057	36554.32
611.414	36627.99
611.771	37060.75
612.127	37377.35
612.484	37607.85
612.841	37879.26
613.198	37892.37
613.554	38125.81
613.911	38603.53
614.267	38711.1
614.624	38984.54
614.98	39019.79
615.337	39460.91
615.693	39567.12
616.05	39646.9
616.406	40200.1
616.762	40210.5
617.118	40321.91
617.475	40424.95
617.831	40768.67
618.187	40989.91
618.543	41172.5
618.899	41484.14
619.255	41536.56
619.611	41563.68
619.967	41835.54
620.323	42222.42
620.678	42042.99
621.034	42143.1
621.39	42320.05
621.746	42277.79
622.101	42828.73
622.457	42563.2
622.812	42761.62
623.168	43101.49
623.523	43185.56
623.879	43420.36
624.234	43117.09
624.589	43498.09
624.945	43529.28
625.3	43698.31
625.655	43625.77
626.01	43755.49
626.365	43890.63
626.72	43858.08
627.075	43937.4
627.43	44120.45
627.785	44044.07
628.14	44266.89
628.495	44402.93
628.85	44253.78
629.205	44371.97
629.559	44673.66
629.914	44475.02
630.269	44463.27
630.623	44461.68
630.978	44507.33
631.332	44720.43
631.687	44871.16
632.041	44818.74
632.396	44763.6
632.75	44718.63
633.104	44716.37
633.459	44619.42
633.813	44818.28
634.167	44764.95
634.521	44742.58
634.875	44794.78
635.229	44825.06
635.583	44647.44
635.937	44770.15
636.291	44682.47
636.645	44750.26
636.999	44817.38
637.352	44818.06
637.706	44654.67
638.06	44901.22
638.413	44763.37
638.767	44741
639.121	44746.2
639.474	44606.54
639.828	44676.59
640.181	44756.82
640.534	44779.87
640.888	44690.38
641.241	44438.86
641.594	44549.82
641.947	44747.33
642.301	44629.82
642.654	44670.27
643.007	44775.12
643.36	44626.2
643.713	44564.28
644.066	44663.26
644.419	44493.32
644.771	44243.38
645.124	43883.39
645.477	43907.12
645.83	43623.74
646.182	43580.13
646.535	43372.67
646.888	43583.29
647.24	43379.45
647.593	43598.88
647.945	43477.76
648.298	43310.08
648.65	43298.78
649.002	43167.25
649.355	43447.25
649.707	43241.15
650.059	43434.37
650.411	43895.37
650.763	43904.41
651.115	44328.58
651.467	44245.19
651.819	44269.15
652.171	44195.25
652.523	44117.96
652.875	44075.25
653.227	43927.23
653.578	44184.86
653.93	44137.85
654.282	44033.67
654.633	43842.49
654.985	44094.01
655.337	43887.24
655.688	43968.59
656.039	43939.21
656.391	43670.07
656.742	43911.42
657.094	43936.05
657.445	44007.01
657.796	43992.77
658.147	43763.85
658.498	43856.05
658.849	43898.08
659.2	43980.57
659.551	43705.32
659.902	43864.86
660.253	43819.44
660.604	43887.91
660.955	43621.25
661.306	43832.32
661.656	43929.72
662.007	43734.92
662.358	43804.07
662.708	43799.33
663.059	43624.87
663.409	43437.76
663.76	43656.73
664.11	43619.22
664.461	43834.81
664.811	43848.14
665.161	43678.88
665.511	43524.53
665.862	43665.55
666.212	43619.9
666.562	43702.38
666.912	43646.34
667.262	43574.48
667.612	43650.86
667.962	43748.93
668.312	43567.47
668.662	43841.36
669.011	43645.43
669.361	43549.62
669.711	43462.39
670.06	43481.82
670.41	43577.64
670.76	43533.8
671.109	43633.23
671.459	43566.79
671.808	43385.55
672.157	43594.36
672.507	43321.38
672.856	43258.78
673.205	43388.27
673.554	43460.81
673.904	43304.65
674.253	43500.81
674.602	43324.09
674.951	42783.08
675.3	42661.28
675.649	43292.22
675.998	43100.36
676.346	43316.4
676.695	43350.98
677.044	43164.54
677.393	43077.31
677.741	43242.51
678.09	43184.2
678.438	42961.84
678.787	43065.34
679.135	43151.21
679.484	42819.47
679.832	42970.88
680.181	42744.44
680.529	42872.57
680.877	42866.02
681.225	42687.72
681.573	42896.98
681.922	42544.67
682.27	42512.36
682.618	42424
682.966	42354.62
683.314	42505.58
683.661	42328.63
684.009	42270.56
684.357	42116.66
684.705	41898.81
685.053	42083.67
685.4	41981.07
685.748	41833.05
686.095	41792.83
686.443	41689.1
686.79	41809.78
687.138	41757.8
687.485	41775.43
687.832	41648.42
688.18	41748.99
688.527	41395.78
688.874	41245.5
689.221	41295.44
689.568	41284.14
689.915	41116.01
690.262	41228.77
690.609	41042.56
690.956	40935.22
691.303	40784.72
691.65	40662.69
691.997	40712.18
692.344	40509.47
692.69	40379.08
693.037	40459.76
693.383	40141.8
693.73	40221.8
694.077	40056.15
694.423	39977.28
694.769	39773.9
695.116	39742.94
695.462	39767.34
695.808	39641.47
696.155	39618.65
696.501	39403.74
696.847	39412.33
697.193	39133.69
697.539	39213.46
697.885	39033.58
698.231	38900.7
698.577	38863.41
698.923	38789.06
699.269	38617.77
699.614	38408.51
699.96	38407.38
700.306	38289.19
700.651	38304.56
700.997	38087.16
701.342	38133.49
701.688	38185.92
702.033	38082.42
702.379	37937.34
702.724	37713.61
703.069	37762.65
703.415	37357.92
703.76	37465.94
704.105	37550.23
704.45	37435.65
704.795	37197.92
705.14	37127.87
705.485	37157.7
705.83	36793.64
706.175	36912.96
706.52	36758.61
706.865	36655.56
707.209	36730.81
707.554	36451.95
707.899	36562.91
708.243	36322.46
708.588	36300.09
708.932	36055.58
709.277	36263.48
709.621	36155.01
709.966	35923.38
710.31	36038.18
710.654	35581.92
710.998	35814.91
711.342	35766.09
711.687	35515.25
712.031	35510.28
712.375	35471.41
712.719	35408.81
713.063	35271.19
713.407	35284.98
713.75	35132.21
714.094	35150.97
714.438	35055.38
714.782	35056.51
715.125	34800.47
715.469	34977.41
715.812	34758.44
716.156	34570.64
716.499	34609.74
716.843	34737.65
717.186	34399.35
717.53	34673.92
717.873	34694.26
718.216	34455.85
718.559	34422.4
718.902	34214.5
719.246	34293.36
719.589	34078.91
719.932	33994.39
720.275	34050.66
720.617	33971.34
720.96	33860.83
721.303	33883.66
721.646	33821.74
721.989	33687.96
722.331	33791.68
722.674	33675.53
723.016	33552.14
723.359	33566.6
723.701	33537.23
724.044	33323.9
724.386	33269.44
724.729	33434.4
725.071	33281.64
725.413	33286.16
725.755	33104.92
726.097	33074.41
726.439	32908.99
726.782	33062.21
727.124	32985.15
727.465	32858.6
727.807	32810.69
728.149	32822.89
728.491	32724.14
728.833	32701.09
729.175	32598.72
729.516	32486.86
729.858	32400.98
730.199	32449.8
730.541	32393.3
730.882	32376.35
731.224	32450.93
731.565	32178.39
731.906	32272.17
732.248	32287.54
732.589	32184.94
732.93	32063.59
733.271	31972.29
733.612	31945.4
733.953	31991.05
734.294	31982.46
734.635	31861.79
734.976	31891.62
735.317	31702.7
735.658	31753.09
735.999	31684.62
736.339	31573.44
736.68	31850.26
737.021	31561.46
737.361	31480.56
737.702	31719.87
738.042	31585.41
738.383	31448.24
738.723	31417.06
739.063	31307.23
739.404	31413.44
739.744	31220.45
740.084	31195.59
740.424	31235.37
740.764	31080.34
741.104	31194.01
741.444	31009.83
741.784	30829.5
742.124	30891.19
742.464	30784.98
742.804	30779.11
743.143	30822.72
743.483	30819.33
743.823	30678.32
744.162	30632.22
744.502	30672.22
744.841	30574.59
745.181	30556.96
745.52	30418.89
745.86	30438.1
746.199	30359.68
746.538	30499.11
746.877	30516.97
747.216	30432.45
747.556	30310.42
747.895	30343.41
748.234	30163.53
748.573	30141.61
748.911	30138.67
749.25	30204.66
749.589	29998.11
749.928	29982.97
750.267	30104.1
750.605	29856.42
750.944	29935.74
751.283	29770.77
751.621	29924.21
751.96	29643.99
752.298	29795.4
752.636	29706.37
752.975	29468.63
753.313	29501.4
753.651	29477.22
753.989	29441.97
754.327	29476.32
754.666	29281.74
755.004	29346.15
755.342	29222.08
755.679	29244.23
756.017	29048.76
756.355	29160.17
756.693	29007.85
757.031	29085.37
757.368	28887.4
757.706	28869.78
758.044	28797.01
758.381	28785.26
758.719	28588.2
759.056	28706.84
759.394	28508.21
759.731	28360.86
760.068	28345.72
760.405	28262.11
760.743	28176.46
761.08	28309.57
761.417	28050.14
761.754	28056.24
762.091	27970.82
762.428	27814.66
762.765	27699.19
763.102	27795.68
763.438	27561.11
763.775	27542.58
764.112	27587.33
764.449	27578.74
764.785	27389.14
765.122	27153.66
765.458	27149.37
765.795	26933.78
766.131	27104.17
766.467	26951.18
766.804	26912.54
767.14	26681.59
767.476	26787.35
767.812	26595.94
768.148	26645.88
768.485	26504.87
768.821	26340.8
769.157	26277.98
769.492	26226.68
769.828	26185.33
770.164	25971.55
770.5	25862.4
770.836	25877.09
771.171	25653.59
771.507	25728.39
771.842	25513.26
772.178	25605.68
772.513	25397.78
772.849	25327.5
773.184	25288.4
773.519	25255.86
773.855	25221.51
774.19	25004.79
774.525	25015.64
774.86	25032.59
775.195	24932.25
775.53	24759.83
775.865	24632.37
776.2	24432.83
776.535	24348.99
776.87	24317.13
777.205	24231.48
777.539	24117.59
777.874	24127.53
778.209	23949.91
778.543	23972.73
778.878	23779.29
779.212	23758.73
779.547	23624.49
779.881	23655.45
780.215	23463.14
780.55	23440.09
780.884	23330.71
781.218	23303.37
781.552	23212.98
781.886	23214.79
782.22	23041.91
782.554	22968.01
782.888	22614.35
783.222	22616.38
783.556	22558.31
783.889	22565.54
784.223	22336.62
784.557	22443.28
784.89	22454.81
785.224	22270.63
785.557	22190.86
785.891	22019.79
786.224	22032.9
786.558	21972.56
786.891	21680.36
787.224	21711.32
787.557	21712.68
787.891	21584.77
788.224	21530.76
788.557	21584.55
788.89	21413.7
789.223	21467.94
789.556	21237.44
789.888	21172.58
790.221	21119.02
790.554	20907.5
790.887	21012.36
791.219	20946.14
791.552	20829.54
791.884	20777.79
792.217	20729.2
792.549	20528.08
792.882	20485.82
793.214	20426.61
793.546	20431.36
793.879	20265.03
794.211	20119.95
794.543	20305.48
794.875	20063.91
795.207	20190.68
795.539	20040.18
795.871	20014.42
796.203	19887.87
796.535	19756.12
796.867	19715.89
797.198	19559.74
797.53	19644.48
797.862	19479.97
798.193	19532.62
798.525	19441.32
798.856	19436.81
799.188	19287.43
799.519	19183.03
799.85	19079.98
800.182	19059.64
800.513	19051.28
800.844	18924.95
801.175	18914.79
801.506	18933.32
801.837	18854.67
802.168	18799.76
802.499	18659.42
802.83	18625.75
803.161	18503.5
803.491	18526.32
803.822	18515.25
804.153	18359.32
804.483	18333.78
804.814	18223.5
805.145	18241.13
805.475	18255.59
805.805	18097.18
806.136	18114.35
806.466	18101.25
806.796	18017.18
807.126	17912.33
807.457	17799.11
807.787	17837.75
808.117	17780.13
808.447	17609.06
808.777	17704.2
809.107	17628.49
809.436	17650.19
809.766	17606.12
810.096	17522.73
810.426	17321.61
810.755	17433.69
811.085	17381.72
811.414	17418.1
811.744	17207.49
812.073	17203.19
812.403	17161.16
812.732	17159.58
813.061	17090.65
813.39	17000.71
813.719	16947.83
814.049	17003.2
814.378	16925.01
814.707	16846.14
815.036	16800.72
815.365	16737.22
815.693	16574.51
816.022	16677.56
816.351	16637.78
816.68	16458.58
817.008	16595.52
817.337	16418.35
817.665	16359.6
817.994	16367.06
818.322	16402.08
818.651	16242.77
818.979	16265.36
819.307	16337.9
819.636	16210.68
819.964	16092.94
820.292	16144.01
820.62	16160.28
820.948	16020.4
821.276	16123.9
821.604	16015.88
821.932	16097.46
822.259	16009.78
822.587	16085.48
822.915	15981.3
823.243	16114.41
823.57	16028.76
823.898	15983.79
824.225	16009.55
824.553	15883
824.88	15949.21
825.207	16047.97
825.535	15996.22
825.862	15964.35
826.189	15927.52
826.516	16087.06
826.843	15995.77
827.17	15983.34
827.497	16078.93
827.824	16071.47
828.151	15985.6
828.478	15926.39
828.805	16036.67
829.131	15903.79
829.458	15987.4
829.785	15809.56
830.111	15933.85
830.438	15902.89
830.764	16000.96
831.09	15992.83
831.417	15790.12
831.743	15963.9
832.069	15925.03
832.395	15820.4
832.722	15906.95
833.048	15843.23
833.374	15843.68
833.7	15710.58
834.026	15815.21
834.351	15782.21
834.677	15791.93
835.003	15784.92
835.329	15730.01
835.654	15750.57
835.98	15683.91
836.306	15640.97
836.631	15593.97
836.956	15707.64
837.282	15646.17
837.607	15518.49
837.932	15560.75
838.258	15531.37
838.583	15490.69
838.908	15461.09
839.233	15489.11
839.558	15523.46
839.883	15353.97
840.208	15276.24
840.533	15284.6
840.858	15299.06
841.182	15309.68
841.507	15263.13
841.832	15148.78
842.156	15228.33
842.481	15204.6
842.805	15089.8
843.13	15163.02
843.454	15049.8
843.778	14949.24
844.103	14975.91
844.427	14896.81
844.751	14949.47
845.075	14826.08
845.399	14845.06
845.723	14787.89
846.047	14807.32
846.371	14644.61
846.695	14612.53
847.019	14540.44
847.343	14491.17
847.666	14408.24
847.99	14315.13
848.313	14353.78
848.637	14218.86
848.96	14180.9
849.284	14232.65
849.607	14055.7
849.931	14000.11
850.254	13922.83
850.577	13849.61
850.9	13828.14
851.223	13660.01
851.546	13613.68
851.869	13544.08
852.192	13625.88
852.515	13530.07
852.838	13491.2
853.161	13532.33
853.483	13391.77
853.806	13311.09
854.129	13344.76
854.451	13249.85
854.774	13185.44
855.096	13260.24
855.419	13109.97
855.741	13151.55
856.063	13102.73
856.385	12992
856.708	12904.77
857.03	12929.63
857.352	12929.41
857.674	12886.7
857.996	12845.79
858.318	12796.08
858.64	12780.94
858.961	12717.43
859.283	12710.2
859.605	12685.12
859.926	12709.52
860.248	12612.8
860.57	12498.46
860.891	12585.91
861.212	12512.92
861.534	12433.37
861.855	12457.78
862.176	12393.15
862.498	12419.14
862.819	12330.33
863.14	12342.3
863.461	12353.83
863.782	12290.1
864.103	12312.7
864.424	12170.1
864.745	12212.36
865.065	12183.21
865.386	12131.01
865.707	12197.9
866.027	12116.55
866.348	12098.47
866.668	12048.75
866.989	12057.56
867.309	11908.87
867.63	12000.84
867.95	12010.11
868.27	11971.01
868.59	11926.27
868.91	11916.55
869.23	11838.59
869.55	11835.2
869.87	11828.64
870.19	11820.73
870.51	11770.57
870.83	11825.93
871.15	11719.04
871.469	11745.71
871.789	11889.66
872.109	11775.99
872.428	11667.52
872.748	11720.17
873.067	11701.87
873.386	11664.58
873.706	11574.19
874.025	11568.99
874.344	11540.97
874.663	11543.91
874.982	11533.51
875.301	11477.24
875.62	11448.99
875.939	11433.63
876.258	11394.76
876.577	11367.86
876.896	11376.9
877.214	11376
877.533	11448.09
877.852	11298.04
878.17	11407.41
878.489	11291.26
878.807	11293.06
879.125	11270.92
879.444	11324.25
879.762	11252.39
880.08	11201.32
880.398	11162.22
880.716	11262.33
881.034	11127.65
881.352	11211.03
881.67	11097.82
881.988	11135.1
882.306	11069.34
882.624	11062.56
882.941	10997.03
883.259	11019.4
883.577	10989.12
883.894	10962
884.212	10980.08
884.529	10895.56
884.846	10856.24
885.164	10840.42
885.481	10798.61
885.798	10838.39
886.115	10723.14
886.432	10755.23
886.75	10651.27
887.067	10746.64
887.383	10659.63
887.7	10675.23
888.017	10644.49
888.334	10608.79
888.651	10539.64
888.967	10568.34
889.284	10489.24
889.6	10482.69
889.917	10393.43
890.233	10361.79
890.55	10393.88
890.866	10367.67
891.182	10291.51
891.498	10241.34
891.815	10196.6
892.131	10188.46
892.447	10154.79
892.763	10136.26
893.079	10140.33
893.395	10109.37
893.71	10105.3
894.026	10024.85
894.342	9997.51
894.657	9980.1
894.973	9957.05
895.289	9848.81
895.604	9858.98
895.92	9851.97
896.235	9713.67
896.55	9848.13
896.865	9760.45
897.181	9704.86
897.496	9688.36
897.811	9770.84
898.126	9631.41
898.441	9562.71
898.756	9543.28
899.071	9547.12
899.386	9551.87
899.7	9526.56
900.015	9393.68
900.33	9332.66
900.644	9400.01
900.959	9390.06
901.273	9296.51
901.588	9286.79
901.902	9187.36
902.216	9166.57
902.531	9167.47
902.845	9136.06
903.159	9071.2
903.473	9065.33
903.787	9065.55
904.101	8944.88
904.415	8981.94
904.729	8932
905.042	8844.09
905.356	8849.74
905.67	8911.43
905.984	8797.99
906.297	8795.5
906.611	8754.83
906.924	8674.6
907.237	8686.58
907.551	8613.81
907.864	8606.13
908.177	8602.51
908.491	8572.01
908.804	8511.89
909.117	8487.49
909.43	8397.77
909.743	8354.16
910.056	8356.19
910.368	8358.45
910.681	8289.3
910.994	8258.79
911.307	8250.21
911.619	8150.77
911.932	8199.81
912.244	8076.2
912.557	8043.21
912.869	8050.21
913.181	8023.55
913.494	7973.6
913.806	7921.4
914.118	7921.85
914.43	7870.33
914.742	7890.44
915.054	7839.14
915.366	7752.59
915.678	7757.56
915.99	7683.44
916.302	7657.68
916.613	7594.18
916.925	7677.11
917.236	7532.26
917.548	7598.92
917.859	7561.86
918.171	7507.18
918.482	7489.55
918.794	7408.65
919.105	7423.34
919.416	7330.68
919.727	7328.42
920.038	7340.4
920.349	7276
920.66	7247.52
920.971	7245.71
921.282	7159.61
921.593	7166.85
921.903	7111.93
922.214	7071.93
922.525	7099.28
922.835	7043.01
923.146	7007.98
923.456	7024.02
923.767	6984.93
924.077	6954.42
924.387	6901.09
924.697	6886.4
925.008	6844.59
925.318	6859.73
925.628	6798.72
925.938	6761.88
926.248	6711.72
926.558	6687.76
926.867	6649.34
927.177	6614.77
927.487	6608.44
927.796	6528.67
928.106	6587.43
928.416	6516.92
928.725	6514.89
929.034	6494.09
929.344	6455.9
929.653	6455
929.962	6409.35
930.271	6398.5
930.581	6276.93
930.89	6316.7
931.199	6260.43
931.508	6226.98
931.817	6176.81
932.125	6211.39
932.434	6176.81
932.743	6138.4
933.051	6076.7
933.36	6111.51
933.669	6004.16
933.977	6039.19
934.286	5979.08
934.594	5952.19
934.902	5969.59
935.21	5866.09
935.519	5875.58
935.827	5894.56
936.135	5846.88
936.443	5819.08
936.751	5771.63
937.059	5756.04
937.367	5726.21
937.674	5740.67
937.982	5691.63
938.29	5655.92
938.597	5639.2
938.905	5576.38
939.213	5582.48
939.52	5546.32
939.827	5585.64
940.135	5528.92
940.442	5513.78
940.749	5506.55
941.056	5490.28
941.363	5426.55
941.67	5394.46
941.977	5400.34
942.284	5317.85
942.591	5335.71
942.898	5297.97
943.205	5315.37
943.511	5275.14
943.818	5281.47
944.125	5211.19
944.431	5186.33
944.738	5193.56
945.044	5137.52
945.35	5148.82
945.657	5125.09
945.963	5114.02
946.269	5057.07
946.575	5072.89
946.881	5022.27
947.187	5011.2
947.493	4972.33
947.799	4966.68
948.105	4934.36
948.41	4903.18
948.716	4867.92
949.022	4875.38
949.327	4829.96
949.633	4848.26
949.938	4794.93
950.244	4819.11
950.549	4747.02
950.854	4741.6
951.16	4700.92
951.465	4722.62
951.77	4664.54
952.075	4666.35
952.38	4600.13
952.685	4649.17
952.99	4589.06
953.294	4572.56
953.599	4559.23
953.904	4526.01
954.209	4506.12
954.513	4491.89
954.818	4467.48
955.122	4497.76
955.426	4433.81
955.731	4430.19
956.035	4397.43
956.339	4385
956.643	4383.42
956.948	4340.03
957.252	4362.63
957.556	4285.79
957.86	4257.54
958.163	4307.49
958.467	4250.76
958.771	4253.93
959.075	4185.91
959.378	4209.86
959.682	4198.56
959.985	4163.76
960.289	4143.42
960.592	4152.69
960.896	4136.19
961.199	4064.78
961.502	4056.42
961.805	4080.37
962.108	4051.45
962.411	4020.71
962.714	4023.65
963.017	3992.47
963.32	3958.79
963.623	3941.85
963.926	3978.23
964.228	3871.34
964.531	3912.69
964.833	3878.12
965.136	3902.3
965.438	3856.42
965.741	3783.21
966.043	3811.91
966.345	3817.78
966.648	3773.26
966.95	3751.12
967.252	3727.39
967.554	3752.47
967.856	3727.16
968.158	3687.39
968.46	3716.99
968.761	3707.5
969.063	3671.12
969.365	3638.8
969.666	3609.88
969.968	3582.53
970.269	3561.29
970.571	3559.71
970.872	3571.91
971.174	3538.47
971.475	3514.96
971.776	3510.9
972.077	3493.27
972.378	3498.92
972.679	3470.9
972.98	3448.98
973.281	3434.74
973.582	3433.61
973.883	3430.22
974.183	3437.45
974.484	3369.66
974.785	3317
975.085	3344.12
975.386	3294.86
975.686	3310
975.986	3297.79
976.287	3293.27
976.587	3250.79
976.887	3254.18
977.187	3248.08
977.487	3225.71
977.787	3213.96
978.087	3179.83
978.387	3132.83
978.687	3196.55
978.987	3135.31
979.286	3169.21
979.586	3126.5
979.885	3140.96
980.185	3099.16
980.484	3067.52
980.784	3085.37
981.083	3069.33
981.382	3053.06
981.682	3029.55
981.981	3031.81
982.28	3023.68
982.579	2995.2
982.878	2972.15
983.177	2982.77
983.475	2940.52
983.774	2942.55
984.073	2925.15
984.372	2909.1
984.67	2890.12
984.969	2879.95
985.267	2876.34
985.566	2867.3
985.864	2842.44
986.162	2854.87
986.461	2845.15
986.759	2796.56
987.057	2803.12
987.355	2754.53
987.653	2735.55
987.951	2767.64
988.249	2761.54
988.547	2728.77
988.844	2741.88
989.142	2685.38
989.44	2688.09
989.737	2724.02
990.035	2669.11
990.332	2652.61
990.63	2620.52
990.927	2636.34
991.224	2645.16
991.521	2635.67
991.819	2630.92
992.116	2566.29
992.413	2553.41
992.71	2521.09
993.006	2527.65
993.303	2525.61
993.6	2524.71
993.897	2531.04
994.193	2500.08
994.49	2474.09
994.787	2465.95
995.083	2498.72
995.379	2467.08
995.676	2432.05
995.972	2435.44
996.268	2410.81
996.565	2404.71
996.861	2387.31
997.157	2430.47
997.453	2392.73
997.749	2355.67
998.044	2342.11
998.34	2370.36
998.636	2346.63
998.932	2318.39
999.227	2288.1
999.523	2298.72
999.818	2290.59
1000.114	2280.87
1000.409	2197.48
1000.704	2212.4
1001	2238.84
1001.295	2193.64
1001.59	2196.81
1001.885	2187.54
1002.18	2195.9
1002.475	2146.19
1002.77	2157.26
1003.065	2125.17
1003.359	2135.57
1003.654	2125.62
1003.949	2093.08
1004.243	2085.17
1004.538	2088.56
1004.832	2105.74
1005.127	2070.71
1005.421	2031.61
1005.715	2063.48
1006.009	2043.14
1006.304	2031.16
1006.598	2006.53
1006.892	2031.39
1007.186	1966.76
1007.48	1948.68
1007.773	1941.67
1008.067	1932.18
1008.361	1933.54
1008.655	1924.27
1008.948	1911.62
1009.242	1930.6
1009.535	1910.49
1009.829	1870.71
1010.122	1866.87
1010.415	1883.14
1010.708	1835.46
1011.001	1843.82
1011.295	1837.49
1011.588	1834.33
1011.881	1832.52
1012.173	1795.24
1012.466	1771.96
1012.759	1802.24
1013.052	1753.88
1013.344	1769.25
1013.637	1763.6
1013.93	1765.63
1014.222	1720.21
1014.514	1764.95
1014.807	1706.2
1015.099	1693.09
1015.391	1679.08
1015.683	1693.09
1015.976	1687.67
1016.268	1635.69
1016.56	1651.28
1016.851	1656.03
1017.143	1642.24
1017.435	1608.8
1017.727	1602.92
1018.018	1612.19
1018.31	1589.36
1018.602	1548.46
1018.893	1573.09
1019.185	1563.6
1019.476	1547.56
1019.767	1543.72
1020.058	1551.63
1020.35	1522.93
1020.641	1527.67
1020.932	1516.15
1021.223	1503.27
1021.514	1484.96
1021.804	1466.43
1022.095	1450.61
1022.386	1446.09
1022.677	1461.01
1022.967	1428.24
1023.258	1406.77
1023.548	1412.42
1023.839	1396.38
1024.129	1411.52
1024.419	1375.36
1024.709	1376.94
1025	1342.37
1025.29	1375.36
1025.58	1348.02
1025.87	1349.37
1026.16	1336.72
1026.449	1315.7
1026.739	1322.48
1027.029	1303.5
1027.319	1305.3
1027.608	1297.62
1027.898	1259.66
1028.187	1275.25
1028.477	1257.4
1028.766	1265.76
1029.055	1273.89
1029.344	1239.32
1029.634	1214.69
1029.923	1228.92
1030.212	1215.82
1030.501	1200
1030.79	1224.18
1031.078	1206.55
1031.367	1180.34
1031.656	1178.08
1031.945	1131.98
1032.233	1159.77
1032.522	1140.79
1032.81	1128.13
1033.099	1141.24
1033.387	1147.57
1033.675	1117.06
1033.963	1130.17
1034.251	1093.56
1034.54	1108.7
1034.828	1092.2
1035.116	1110.96
1035.403	1087.68
1035.691	1050.17
1035.979	1057.4
1036.267	1041.36
1036.554	1064.63
1036.842	1070.28
1037.129	1020.11
1037.417	1028.25
1037.704	1027.8
1037.992	1016.72
1038.279	1005.88
1038.566	987.12
1038.853	987.12
1039.14	987.12
