Data from hue_180_FLMS001491_00013.txt Node
Date: Tue Feb 07 16:46:37 GMT 2017
User: dcchb
Spectrometer: FLMS00149
Trigger mode: 0
Integration Time (sec): 2.000000E-2
Scans to average: 10
Electric dark correction enabled: true
Nonlinearity correction enabled: false
Boxcar width: 0
XAxis mode: Wavelengths
Number of Pixels in Spectrum: 2048
>>>>>Begin Spectral Data<<<<<
341.393	-10.99
341.776	-10.99
342.16	-10.99
342.543	-61.61
342.927	-74.94
343.31	-64.77
343.693	-67.26
344.077	-56.18
344.46	-55.51
344.843	-52.8
345.226	-39.91
345.61	-36.98
345.993	-27.26
346.376	-6.47
346.759	10.03
347.142	12.51
347.525	51.83
347.908	64.26
348.291	63.36
348.674	93.42
349.057	111.72
349.44	124.15
349.823	143.58
350.206	173.87
350.588	184.03
350.971	226.52
351.354	207.54
351.737	240.3
352.119	259.74
352.502	251.15
352.884	277.37
353.267	264.94
353.65	286.18
354.032	314.65
354.414	311.26
354.797	298.38
355.179	316.91
355.562	303.35
355.944	321.43
356.326	306.97
356.709	326.18
357.091	333.64
357.473	321.88
357.855	327.99
358.238	335.44
358.62	345.16
359.002	354.2
359.384	334.77
359.766	323.47
360.148	331.6
360.53	335.22
360.912	338.83
361.294	339.51
361.676	328.44
362.057	325.27
362.439	329.34
362.821	306.29
363.203	311.49
363.584	319.62
363.966	307.65
364.348	337.25
364.729	325.95
365.111	320.3
365.493	304.71
365.874	308.33
366.256	324.6
366.637	322.79
367.019	302.22
367.4	308.33
367.781	312.62
368.163	309.68
368.544	318.72
368.925	320.53
369.306	334.09
369.688	316.69
370.069	292.96
370.45	325.05
370.831	290.47
371.212	334.54
371.593	322.11
371.974	306.74
372.355	321.43
372.736	302.45
373.117	307.42
373.498	297.03
373.879	317.82
374.26	334.54
374.641	320.3
375.021	321.43
375.402	322.56
375.783	319.17
376.163	310.81
376.544	316.69
376.925	327.31
377.305	330.7
377.686	313.75
378.066	304.48
378.447	326.86
378.827	332.28
379.208	331.83
379.588	329.57
379.968	319.4
380.349	329.57
380.729	325.5
381.109	331.15
381.489	338.83
381.87	338.61
382.25	334.54
382.63	346.74
383.01	347.87
383.39	339.51
383.77	317.14
384.15	350.58
384.53	344.26
384.91	342.22
385.29	362.11
385.67	350.36
386.049	351.04
386.429	341.09
386.809	351.04
387.189	367.08
387.568	355.56
387.948	360.75
388.328	352.84
388.707	372.05
389.087	358.04
389.466	361.21
389.846	342
390.225	353.52
390.605	368.66
390.984	372.28
391.363	350.13
391.743	365.72
392.122	379.51
392.501	391.03
392.881	389
393.26	369.57
393.639	374.99
394.018	387.65
394.397	388.55
394.776	390.36
395.155	366.85
395.534	403.01
395.913	373.86
396.292	376.35
396.671	399.4
397.05	368.66
397.429	378.83
397.808	383.13
398.186	389
398.565	363.01
398.944	404.82
399.323	398.72
399.701	398.04
400.08	420.64
400.458	402.33
400.837	391.26
401.215	423.35
401.594	410.47
401.972	398.49
402.351	411.37
402.729	424.03
403.107	405.05
403.486	431.26
403.864	427.19
404.242	436.46
404.62	450.24
404.999	461.99
405.377	440.98
405.755	431.94
406.133	457.02
406.511	442.56
406.889	468.77
407.267	474.2
407.645	475.33
408.023	468.55
408.401	477.36
408.779	487.76
409.156	492.28
409.534	497.7
409.912	507.19
410.29	505.83
410.667	492.5
411.045	516.23
411.422	529.11
411.8	532.95
412.178	540.18
412.555	555.78
412.933	578.15
413.31	563.23
413.687	555.55
414.065	573.4
414.442	593.52
414.819	582.89
415.197	581.09
415.574	620.63
415.951	605.49
416.328	615.44
416.705	617.02
417.082	620.86
417.46	610.92
417.837	650.46
418.214	650.46
418.591	659.5
418.967	658.37
419.344	672.61
419.721	680.52
420.098	692.72
420.475	694.3
420.852	716.45
421.228	721.42
421.605	715.55
421.982	710.35
422.358	732.95
422.735	758.48
423.111	762.78
423.488	756.22
423.864	794.19
424.241	791.48
424.617	788.76
424.994	833.96
425.37	820.4
425.746	814.53
426.123	857.92
426.499	829.22
426.875	854.07
427.251	874.41
427.627	890.46
428.003	900.17
428.379	898.59
428.756	935.2
429.132	919.61
429.507	950.79
429.883	933.85
430.259	969.32
430.635	959.38
431.011	955.54
431.387	993.96
431.763	1021.75
432.138	1034.18
432.514	1050.68
432.89	1040.06
433.265	1051.81
433.641	1075.76
434.016	1109.66
434.392	1092.03
434.767	1142.88
435.143	1174.07
435.518	1140.62
435.894	1165.93
436.269	1195.53
436.644	1203.44
437.02	1224.91
437.395	1231.69
437.77	1262.65
438.145	1291.35
438.52	1296.77
438.895	1304.01
439.271	1301.75
439.646	1340.39
440.021	1362.76
440.395	1390.78
440.77	1379.26
441.145	1399.6
441.52	1423.78
441.895	1417.22
442.27	1469.42
442.645	1478.01
443.019	1467.84
443.394	1472.36
443.769	1503.55
444.143	1492.47
444.518	1513.49
444.892	1525.92
445.267	1560.5
445.641	1562.53
446.016	1571.57
446.39	1581.51
446.764	1613.15
447.139	1587.61
447.513	1628.06
447.887	1632.81
448.262	1642.08
448.636	1673.71
449.01	1694.5
449.384	1734.95
449.758	1717.55
450.132	1742.41
450.506	1742.64
450.88	1764.11
451.254	1748.74
451.628	1771.56
452.002	1795.97
452.376	1808.17
452.75	1826.03
453.123	1852.01
453.497	1879.58
453.871	1913.93
454.244	1944.44
454.618	1972.69
454.992	1976.98
455.365	2013.82
455.739	2033.03
456.112	2046.81
456.486	2057.21
456.859	2075.51
457.232	2109.63
457.606	2132.23
457.979	2163.64
458.352	2210.65
458.725	2215.62
459.099	2233.7
459.472	2312.34
459.845	2314.6
460.218	2350.08
460.591	2348.27
460.964	2388.04
461.337	2477.76
461.71	2461.04
462.083	2475.27
462.456	2515.5
462.829	2555.95
463.201	2562.5
463.574	2572.9
463.947	2649.73
464.32	2700.35
464.692	2723.63
465.065	2757.07
465.438	2764.76
465.81	2800.01
466.183	2855.6
466.555	2894.25
466.928	2939.89
467.3	2929.27
467.672	2966.79
468.045	3115.48
468.417	3080.46
468.789	3087.24
469.161	3179.44
469.534	3262.15
469.906	3311.41
470.278	3358.19
470.65	3364.29
471.022	3431.41
471.394	3500.56
471.766	3534.46
472.138	3625.07
472.51	3685.86
472.882	3761.12
473.253	3772.41
473.625	3871.85
473.997	3924.5
474.369	3964.27
474.74	4014.67
475.112	4157.49
475.484	4175.34
475.855	4216.25
476.227	4304.83
476.598	4467.99
476.97	4490.14
477.341	4600.42
477.713	4656.23
478.084	4732.16
478.455	4829.56
478.827	4889.9
479.198	5102.1
479.569	5134.86
479.94	5195.65
480.311	5323.11
480.682	5380.73
481.053	5505.25
481.424	5644.23
481.795	5733.49
482.166	5797.67
482.537	5903.88
482.908	6004.45
483.279	6133.93
483.65	6218.23
484.021	6361.5
484.391	6479.01
484.762	6527.14
485.133	6636.29
485.503	6707.7
485.874	6843.52
486.244	6967.36
486.615	7076.51
486.985	7208.03
487.356	7301.81
487.726	7385.88
488.097	7599.21
488.467	7611.18
488.837	7791.97
489.207	7871.06
489.578	8058.86
489.948	8089.59
490.318	8169.81
490.688	8250.94
491.058	8372.52
491.428	8487.09
491.798	8644.15
492.168	8845.05
492.538	8815.45
492.908	8962.33
493.278	9039.4
493.648	9078.26
494.017	9192.16
494.387	9265.6
494.757	9350.35
495.126	9469.44
495.496	9581.75
495.866	9566.16
496.235	9676.44
496.605	9773.61
496.974	9801.63
497.344	9935.42
497.713	10024.45
498.082	10044.79
498.452	10130.44
498.821	10133.6
499.19	10152.59
499.559	10239.82
499.928	10296.76
500.298	10343.09
500.667	10480.94
501.036	10516.42
501.405	10633.03
501.774	10598
502.143	10631.44
502.512	10631.9
502.88	10714.83
503.249	10766.58
503.618	10790.54
503.987	10863.3
504.356	10851.78
504.724	10979.46
505.093	10954.37
505.462	11010.42
505.83	11005.9
506.199	11121.15
506.567	11268.72
506.936	11175.61
507.304	11422.84
507.672	11301.03
508.041	11345.78
508.409	11368.6
508.777	11402.04
509.145	11515.26
509.514	11510.06
509.882	11578.54
510.25	11565.66
510.618	11673.22
510.986	11604.07
511.354	11662.6
511.722	11739.89
512.09	11797.51
512.458	11744.18
512.826	11829.83
513.193	11840
513.561	11848.36
513.929	11840
514.297	12006.1
514.664	12038.86
515.032	11984.18
515.4	12061.46
515.767	12081.35
516.135	12061.01
516.502	11955.48
516.869	12121.12
517.237	12121.35
517.604	12053.55
517.972	12122.93
518.339	12230.5
518.706	12152.53
519.073	12141.46
519.44	12252.19
519.808	12329.48
520.175	12262.36
520.542	12324.05
520.909	12416.03
521.276	12298.07
521.643	12357.5
522.009	12363.38
522.376	12448.8
522.743	12442.47
523.11	12422.81
523.477	12558.62
523.843	12592.3
524.21	12663.71
524.577	12617.38
524.943	12622.58
525.31	12611.05
525.676	12664.61
526.043	12739.18
526.409	12707.77
526.776	12698.96
527.142	12740.09
527.508	12736.47
527.874	12825.74
528.241	12764.27
528.607	12735.57
528.973	12798.17
529.339	12755.46
529.705	12763.59
530.071	12843.36
530.437	12725.4
530.803	12737.83
531.169	12707.77
531.535	12768.56
531.901	12645.85
532.267	12581.45
532.632	12619.87
532.998	12652.86
533.364	12682.01
533.73	12596.14
534.095	12704.38
534.461	12592.75
534.826	12564.73
535.192	12543.48
535.557	12570.83
535.923	12432.98
536.288	12435.69
536.653	12464.84
537.019	12398.4
537.384	12307.33
537.749	12318.4
538.114	12246.09
538.479	12211.52
538.845	12229.37
539.21	12199.99
539.575	12176.26
539.94	12088.13
540.305	12051.52
540.67	12051.75
541.034	11997.74
541.399	11992.76
541.764	11920.45
542.129	11887.68
542.494	11840.45
542.858	11902.37
543.223	11795.03
543.587	11828.25
543.952	11655.6
544.316	11667.35
544.681	11591.42
545.045	11741.47
545.41	11546
545.774	11518.43
546.138	11462.38
546.503	11439.78
546.867	11449.28
547.231	11369.28
547.595	11416.73
547.959	11362.27
548.324	11231.65
548.688	11177.87
549.052	11109.4
549.416	11124.76
549.779	11073.47
550.143	11078.89
550.507	11084.54
550.871	11000.02
551.235	10970.19
551.599	10999.57
551.962	10873.02
552.326	10909.4
552.689	10891.1
553.053	10721.16
553.417	10774.26
553.78	10818.56
554.143	10756.64
554.507	10735.62
554.87	10708.05
555.234	10801.61
555.597	10573.37
555.96	10585.34
556.323	10594.38
556.686	10513.48
557.05	10547.38
557.413	10524.33
557.776	10513.71
558.139	10527.94
558.502	10487.04
558.865	10448.85
559.228	10531.56
559.59	10455.4
559.953	10482.07
560.316	10488.62
560.679	10444.1
561.041	10493.37
561.404	10432.35
561.767	10450.66
562.129	10446.59
562.492	10452.92
562.854	10393.26
563.217	10336.76
563.579	10444.1
563.941	10454.27
564.304	10397.33
564.666	10398.23
565.028	10382.64
565.39	10387.61
565.753	10433.48
566.115	10434.61
566.477	10459.7
566.839	10412.24
567.201	10487.94
567.563	10461.73
567.925	10472.8
568.287	10482.52
568.648	10383.09
569.01	10489.3
569.372	10528.4
569.734	10399.13
570.095	10448.85
570.457	10475.52
570.819	10479.36
571.18	10426.93
571.542	10528.4
571.903	10524.1
572.265	10542.63
572.626	10518.45
572.987	10472.8
573.349	10522.07
573.71	10525.91
574.071	10525.01
574.432	10519.81
574.794	10608.17
575.155	10580.6
575.516	10508.96
575.877	10568.39
576.238	10555.74
576.599	10512.35
576.96	10549.64
577.32	10548.73
577.681	10494.95
578.042	10564.55
578.403	10520.94
578.763	10464.67
579.124	10499.02
579.485	10528.62
579.845	10596.87
580.206	10539.47
580.566	10530.88
580.927	10517.1
581.287	10529.3
581.648	10546.02
582.008	10567.26
582.368	10517.77
582.728	10497.44
583.089	10497.89
583.449	10458.57
583.809	10441.39
584.169	10416.53
584.529	10513.03
584.889	10485.91
585.249	10438.91
585.609	10368.4
585.969	10459.02
586.329	10373.82
586.688	10444.56
587.048	10387.61
587.408	10384.44
587.768	10400.49
588.127	10327.27
588.487	10336.99
588.846	10384.67
589.206	10321.4
589.565	10326.82
589.925	10394.84
590.284	10329.08
590.643	10241.85
591.003	10349.42
591.362	10333.37
591.721	10267.84
592.08	10308.97
592.44	10318.23
592.799	10293.37
593.158	10223.32
593.517	10230.32
593.876	10267.16
594.235	10235.3
594.593	10222.41
594.952	10240.27
595.311	10173.15
595.67	10219.7
596.029	10244.56
596.387	10300.38
596.746	10273.26
597.104	10189.2
597.463	10208.86
597.822	10263.54
598.18	10156.2
598.538	10159.37
598.897	10160.5
599.255	10111.23
599.613	10242.75
599.972	10160.5
600.33	10136.54
600.688	10132.93
601.046	10137.45
601.404	10152.81
601.762	10205.92
602.12	10191.68
602.478	10219.7
602.836	10217.9
603.194	10127.95
603.552	10211.34
603.91	10046.15
604.268	10203.43
604.625	10122.08
604.983	10173.15
605.341	10137.45
605.698	10142.87
606.056	10150.33
606.413	10097.22
606.771	10169.31
607.128	10176.31
607.485	10152.81
607.843	10111.01
608.2	10213.15
608.557	10210.44
608.914	10187.84
609.272	10222.19
609.629	10220.61
609.986	10312.58
610.343	10185.13
610.7	10301.06
611.057	10283.2
611.414	10203.88
611.771	10226.71
612.127	10230.32
612.484	10264.45
612.841	10290.44
613.198	10181.51
613.554	10210.89
613.911	10306.93
614.267	10292.7
614.624	10318.23
614.98	10301.51
615.337	10342.41
615.693	10296.76
616.05	10248.63
616.406	10383.31
616.762	10312.13
617.118	10261.96
617.475	10260.38
617.831	10360.04
618.187	10318.46
618.543	10315.75
618.899	10451.79
619.255	10376.99
619.611	10322.75
619.967	10354.61
620.323	10427.38
620.678	10372.24
621.034	10283.66
621.39	10353.94
621.746	10363.43
622.101	10495.18
622.457	10378.34
622.812	10363.2
623.168	10429.19
623.523	10381.05
623.879	10458.11
624.234	10416.76
624.589	10478
624.945	10343.54
625.3	10424.67
625.655	10401.62
626.01	10423.31
626.365	10385.57
626.72	10372.69
627.075	10376.08
627.43	10364.78
627.785	10313.49
628.14	10348.06
628.495	10323.2
628.85	10389.42
629.205	10252.7
629.559	10358.91
629.914	10325.24
630.269	10354.61
630.623	10264
630.978	10286.82
631.332	10272.36
631.687	10277.78
632.041	10205.69
632.396	10225.58
632.75	10226.48
633.104	10226.48
633.459	10235.3
633.813	10217.9
634.167	10235.07
634.521	10153.49
634.875	10188.07
635.229	10169.31
635.583	10087.5
635.937	10083.89
636.291	10094.73
636.645	10101.51
636.999	10085.24
637.352	10102.42
637.706	10002.08
638.06	10053.83
638.413	10052.25
638.767	10070.78
639.121	10078.92
639.474	9960.73
639.828	9990.1
640.181	9925.93
640.534	9940.84
640.888	9940.61
641.241	9907.39
641.594	9965.47
641.947	9965.47
642.301	9939.26
642.654	9876.44
643.007	9927.73
643.36	9886.83
643.713	9835.08
644.066	9859.26
644.419	9880.95
644.771	9801.41
645.124	9651.81
645.477	9723.22
645.83	9646.61
646.182	9678.47
646.535	9559.61
646.888	9571.58
647.24	9516.9
647.593	9533.62
647.945	9550.34
648.298	9504.02
648.65	9558.48
649.002	9533.85
649.355	9538.14
649.707	9577.23
650.059	9587.86
650.411	9686.16
650.763	9702.65
651.115	9759.83
651.467	9742.43
651.819	9770
652.171	9674.86
652.523	9713.05
652.875	9722.77
653.227	9660.85
653.578	9734.74
653.93	9755.31
654.282	9723.22
654.633	9695.2
654.985	9711.24
655.337	9723.9
655.688	9773.84
656.039	9846.38
656.391	9633.73
656.742	9701.75
657.094	9757.79
657.445	9694.97
657.796	9735.65
658.147	9784.91
658.498	9816.1
658.849	9737.91
659.2	9755.53
659.551	9746.72
659.902	9745.82
660.253	9747.17
660.604	9766.38
660.955	9701.98
661.306	9792.82
661.656	9772.94
662.007	9795.08
662.358	9823.78
662.708	9784.91
663.059	9764.12
663.409	9761.64
663.76	9798.25
664.11	9746.5
664.461	9802.99
664.811	9769.77
665.161	9793.5
665.511	9702.88
665.862	9786.04
666.212	9787.4
666.562	9785.59
666.912	9810.9
667.262	9799.83
667.612	9749.66
667.962	9776.78
668.312	9815.19
668.662	9872.82
669.011	9711.02
669.361	9803.89
669.711	9803.22
670.06	9693.62
670.41	9734.74
670.76	9816.55
671.109	9786.27
671.459	9772.71
671.808	9808.19
672.157	9770
672.507	9744.46
672.856	9656.78
673.205	9682.32
673.554	9753.95
673.904	9660.62
674.253	9773.84
674.602	9688.87
674.951	9544.01
675.3	9544.47
675.649	9668.76
675.998	9610.23
676.346	9686.84
676.695	9696.78
677.044	9555.99
677.393	9673.5
677.741	9623.11
678.09	9585.82
678.438	9620.85
678.787	9610.68
679.135	9551.47
679.484	9515.99
679.832	9522.09
680.181	9417.01
680.529	9464.69
680.877	9442.1
681.225	9448.88
681.573	9504.69
681.922	9430.12
682.27	9442.55
682.618	9436.67
682.966	9370.46
683.314	9448.2
683.661	9363.68
684.009	9348.54
684.357	9214.76
684.705	9360.74
685.053	9289.56
685.4	9187.19
685.748	9218.37
686.095	9191.48
686.443	9177.02
686.79	9117.59
687.138	9186.28
687.485	9200.29
687.832	9167.08
688.18	9137.7
688.527	9052.95
688.874	9036.91
689.221	9020.64
689.568	8968.66
689.915	8988.32
690.262	8928.44
690.609	8898.83
690.956	8925.73
691.303	8908.55
691.65	8821.32
691.997	8810.93
692.344	8774.32
692.69	8735
693.037	8727.54
693.383	8712.17
693.73	8680.08
694.077	8586.75
694.423	8606.86
694.769	8603.47
695.116	8536.13
695.462	8575
695.808	8535.23
696.155	8450.48
696.501	8366.87
696.847	8364.16
697.193	8334.55
697.539	8392.86
697.885	8266.53
698.231	8308.34
698.577	8231.05
698.923	8273.77
699.269	8232.86
699.614	8215.91
699.96	8132.3
700.306	8137.27
700.651	8021.79
700.997	8081.91
701.342	8027.67
701.688	8045.3
702.033	7980.89
702.379	7988.8
702.724	7980.89
703.069	8005.07
703.415	7881.46
703.76	7840.56
704.105	7839.2
704.45	7773.67
704.795	7830.16
705.14	7732.54
705.485	7767.56
705.83	7680.79
706.175	7732.76
706.52	7615.25
706.865	7580.9
707.209	7626.78
707.554	7583.61
707.899	7535.93
708.243	7499.77
708.588	7465.88
708.932	7417.06
709.277	7443.96
709.621	7475.82
709.966	7355.37
710.31	7401.7
710.654	7351.98
710.998	7370.96
711.342	7396.73
711.687	7290.74
712.031	7234.92
712.375	7251.42
712.719	7280.8
713.063	7235.37
713.407	7237.18
713.75	7208.26
714.094	7190.86
714.438	7199.9
714.782	7202.38
715.125	7164.64
715.469	7137.3
715.812	7138.88
716.156	7065.44
716.499	7121.71
716.843	7161.25
717.186	7079.22
717.53	7130.52
717.873	7115.6
718.216	7037.19
718.559	7049.62
718.902	6963.07
719.246	7044.19
719.589	7015.95
719.932	6931.65
720.275	7029.5
720.617	6938.66
720.96	6997.64
721.303	6980.92
721.646	6979.56
721.989	6890.07
722.331	6955.38
722.674	6938.66
723.016	6918.55
723.359	6877.42
723.701	6874.71
724.044	6862.5
724.386	6858.89
724.729	6922.61
725.071	6867.47
725.413	6865.89
725.755	6864.99
726.097	6836.97
726.439	6869.28
726.782	6782.96
727.124	6835.39
727.465	6836.74
727.807	6837.65
728.149	6803.52
728.491	6801.26
728.833	6817.31
729.175	6807.36
729.516	6790.87
729.858	6784.77
730.199	6769.85
730.541	6770.08
730.882	6773.01
731.224	6779.34
731.565	6773.24
731.906	6812.11
732.248	6811.66
732.589	6784.54
732.93	6761.71
733.271	6775.27
733.612	6790.64
733.953	6776.63
734.294	6743.18
734.635	6738.66
734.976	6775.5
735.317	6717.65
735.658	6748.16
735.999	6799.68
736.339	6727.14
736.68	6828.61
737.021	6779.12
737.361	6759.23
737.702	6829.74
738.042	6754.26
738.383	6773.24
738.723	6823.86
739.063	6848.27
739.404	6850.3
739.744	6819.57
740.084	6764.65
740.424	6851.2
740.764	6777.08
741.104	6945.21
741.444	6880.81
741.784	6915.16
742.124	6940.02
742.464	6947.02
742.804	6976.85
743.143	6895.27
743.483	7006.23
743.823	6963.07
744.162	7032.22
744.502	7072.22
744.841	7076.06
745.181	7102.5
745.52	7086.45
745.86	7189.5
746.199	7225.66
746.538	7222.04
746.877	7309.95
747.216	7338.87
747.556	7359.44
747.895	7423.62
748.234	7480.57
748.573	7457.29
748.911	7493.9
749.25	7575.7
749.589	7696.83
749.928	7728.02
750.267	7827
750.605	7848.47
750.944	7938.86
751.283	7963.94
751.621	8068.57
751.96	8123.26
752.298	8204.16
752.636	8394.21
752.975	8445.29
753.313	8508.34
753.651	8612.51
753.989	8708.1
754.327	8836.24
754.666	8921.66
755.004	9025.84
755.342	9116
755.679	9231.71
756.017	9387.18
756.355	9533.17
756.693	9633.96
757.031	9794.18
757.368	9836.21
757.706	10073.94
758.044	10180.38
758.381	10348.51
758.719	10420.6
759.056	10683.65
759.394	10782.17
759.731	10846.58
760.068	11060.36
760.405	11139.45
760.743	11257.19
761.08	11451.99
761.417	11625.32
761.754	11757.74
762.091	11992.99
762.428	12155.25
762.765	12278.63
763.102	12493.77
763.438	12618.74
763.775	12781.22
764.112	12922.23
764.449	13163.81
764.785	13255.1
765.122	13381.2
765.458	13516.34
765.795	13649.22
766.131	13817.57
766.467	13979.6
766.804	14149.09
767.14	14232.25
767.476	14461.85
767.812	14515.18
768.148	14783.65
768.485	14825.23
768.821	14870.2
769.157	15106.81
769.492	15174.38
769.828	15366.23
770.164	15313.81
770.5	15419.34
770.836	15549.73
771.171	15698.66
771.507	15769.16
771.842	15904.3
772.178	15992.66
772.513	16082.15
772.849	16122.15
773.184	16304.74
773.519	16357.39
773.855	16294.8
774.19	16466.09
774.525	16595.13
774.86	16758.97
775.195	16762.58
775.53	16771.17
775.865	16803.71
776.2	16711.28
776.535	16826.76
776.87	16860.43
777.205	16951.73
777.539	16933.42
777.874	17137.26
778.209	16950.6
778.543	17011.84
778.878	17053.65
779.212	17077.83
779.547	17198.05
779.881	17276.24
780.215	17118.73
780.55	17241.44
780.884	17230.37
781.218	17139.07
781.552	17286.86
781.886	17221.78
782.22	17244.38
782.554	17182.46
782.888	17158.28
783.222	17133.19
783.556	17245.06
783.889	17206.41
784.223	17156.02
784.557	17123.7
784.89	17275.56
785.224	17118.5
785.557	17114.89
785.891	17196.69
786.224	17141.33
786.558	17158.73
786.891	17110.14
787.224	17064.72
787.557	17020.88
787.891	17073.53
788.224	17120.76
788.557	17171.16
788.89	17099.97
789.223	16991.28
789.556	16942.92
789.888	16972.75
790.221	16906.53
790.554	16881.45
790.887	16925.52
791.219	16812.98
791.552	16785.41
791.884	16718.06
792.217	16688.01
792.549	16727.78
792.882	16613.66
793.214	16607.33
793.546	16594.68
793.879	16603.49
794.211	16499.31
794.543	16553.55
794.875	16413.66
795.207	16615.24
795.539	16590.38
795.871	16464.06
796.203	16351.07
796.535	16363.72
796.867	16385.19
797.198	16259.77
797.53	16248.02
797.862	16175.03
798.193	16183.39
798.525	16213.9
798.856	16226.32
799.188	15994.24
799.519	16001.7
799.85	15949.27
800.182	15924.19
800.513	15942.94
800.844	15825.43
801.175	15966.9
801.506	15920.12
801.837	15769.61
802.168	15791.31
802.499	15737.3
802.83	15680.35
803.161	15613.46
803.491	15634.25
803.822	15642.39
804.153	15572.78
804.483	15492.11
804.814	15466.34
805.145	15464.54
805.475	15353.81
805.805	15396.06
806.136	15383.86
806.466	15376.63
806.796	15377.08
807.126	15223.19
807.457	15157.65
807.787	15221.83
808.117	15158.1
808.447	15060.25
808.777	15129.4
809.107	15026.81
809.436	14977.54
809.766	14960.82
810.096	15003.76
810.426	14884.89
810.755	14933.93
811.085	14839.02
811.414	14847.6
811.744	14728.06
812.073	14719.02
812.403	14758.34
812.732	14644.67
813.061	14713.6
813.39	14545.92
813.719	14607.38
814.049	14713.37
814.378	14512.92
814.707	14583.43
815.036	14580.72
815.365	14401.97
815.693	14314.06
816.022	14413.94
816.351	14291.01
816.68	14267.73
817.008	14335.08
817.337	14186.38
817.665	14251.91
817.994	14262.99
818.322	14220.5
818.651	14185.7
818.979	14063.22
819.307	14195.64
819.636	14086.27
819.964	13995.42
820.292	14133.95
820.62	14084.69
820.948	13999.94
821.276	14126.04
821.604	14062.99
821.932	14159.26
822.259	14012.6
822.587	14046.04
822.915	13982.99
823.243	14115.42
823.57	13977.8
823.898	14084.91
824.225	13975.99
824.553	14003.11
824.88	13969.43
825.207	14063.67
825.535	14031.13
825.862	14064.12
826.189	13994.75
826.516	14097.79
826.843	14084.69
827.17	14031.81
827.497	14067.29
827.824	14085.82
828.151	14087.85
828.478	13998.59
828.805	14086.04
829.131	14041.07
829.458	14094.63
829.785	14034.29
830.111	14053.95
830.438	14106.15
830.764	14110.9
831.09	14065.03
831.417	14012.15
831.743	14087.85
832.069	14112.03
832.395	14039.49
832.722	14034.97
833.048	13927.63
833.374	14009.89
833.7	13942.09
834.026	13928.98
834.351	14022.31
834.677	13947.51
835.003	13960.62
835.329	13973.5
835.654	13912.04
835.98	13861.19
836.306	13891.92
836.631	13802.43
836.956	13894.18
837.282	13974.18
837.607	13822.77
837.932	13780.29
838.258	13783
838.583	13758.82
838.908	13641.31
839.233	13732.61
839.558	13721.53
839.883	13572.16
840.208	13551.37
840.533	13661.87
840.858	13591.37
841.182	13581.65
841.507	13584.59
841.832	13485.83
842.156	13451.93
842.481	13494.87
842.805	13521.31
843.13	13427.08
843.454	13432.73
843.778	13334.65
844.103	13347.53
844.427	13231.38
844.751	13287.42
845.075	13257.59
845.399	13184.82
845.723	13144.82
846.047	13119.06
846.371	13058.05
846.695	13107.31
847.019	12945.28
847.343	12901.89
847.666	12842.23
847.99	12756.59
848.313	12731.5
848.637	12729.24
848.96	12648.57
849.284	12660.09
849.607	12609.24
849.931	12522.02
850.254	12425.07
850.577	12463.71
850.9	12343.26
851.223	12329.7
851.546	12177.17
851.869	12088.13
852.192	12248.35
852.515	12025.98
852.838	12068.24
853.161	12065.98
853.483	12010.39
853.806	11884.07
854.129	11872.99
854.451	11798.87
854.774	11769.94
855.096	11805.65
855.419	11696.05
855.741	11695.14
856.063	11644.52
856.385	11626.45
856.708	11609.95
857.03	11485.43
857.352	11513
857.674	11490.4
857.996	11444.08
858.318	11426.68
858.64	11376.06
858.961	11396.62
859.283	11335.38
859.605	11229.39
859.926	11246.34
860.248	11250.64
860.57	11223.07
860.891	11234.37
861.212	11197.53
861.534	11042.51
861.855	11061.71
862.176	11117.53
862.498	11071.21
862.819	11080.7
863.14	10993.47
863.461	10963.41
863.782	10957.31
864.103	11013.58
864.424	10933.13
864.745	11009.29
865.065	10817.65
865.386	10875.28
865.707	10893.81
866.027	10848.61
866.348	10872.57
866.668	10793.7
866.989	10780.59
867.309	10707.83
867.63	10748.73
867.95	10718.67
868.27	10750.31
868.59	10678.9
868.91	10670.99
869.23	10676.87
869.55	10585.8
869.87	10699.01
870.19	10607.49
870.51	10583.08
870.83	10595.96
871.15	10541.5
871.469	10620.82
871.789	10531.33
872.109	10510.77
872.428	10497.44
872.748	10492.24
873.067	10460.15
873.386	10448.62
873.706	10522.07
874.025	10389.64
874.344	10391
874.663	10386.03
874.982	10407.49
875.301	10356.87
875.62	10357.1
875.939	10311.9
876.258	10254.5
876.577	10260.15
876.896	10253.83
877.214	10194.84
877.533	10264.22
877.852	10171.12
878.17	10178.35
878.489	10211.12
878.807	10150.78
879.125	10224.9
879.444	10142.19
879.762	10135.19
880.08	10077.56
880.398	10050.44
880.716	10059.48
881.034	10073.49
881.352	10039.82
881.67	9969.99
881.988	9920.95
882.306	9949.43
882.624	9906.72
882.941	9869.88
883.259	9876.66
883.577	9815.19
883.894	9791.69
884.212	9729.55
884.529	9778.81
884.846	9723.22
885.164	9689.55
885.481	9703.11
885.798	9634.18
886.115	9623.79
886.432	9642.54
886.75	9657.91
887.067	9616.1
887.383	9570
887.7	9564.35
888.017	9525.26
888.334	9553.96
888.651	9561.42
888.967	9497.46
889.284	9446.16
889.6	9440.29
889.917	9334.98
890.233	9367.07
890.55	9322.1
890.866	9329.56
891.182	9306.28
891.498	9218.15
891.815	9186.06
892.131	9239.84
892.447	9221.76
892.763	9145.16
893.079	9134.53
893.395	9030.36
893.71	9099.28
894.026	8999.17
894.342	8966.4
894.657	8943.13
894.973	8928.66
895.289	8908.55
895.604	8926.63
895.92	8819.06
896.235	8826.75
896.55	8792.17
896.865	8761.66
897.181	8664.26
897.496	8744.49
897.811	8677.82
898.126	8670.82
898.441	8586.98
898.756	8500.88
899.071	8496.13
899.386	8579.29
899.7	8513.53
900.015	8453.65
900.33	8399.19
900.644	8417.26
900.959	8381.56
901.273	8320.54
901.588	8278.51
901.902	8306.76
902.216	8238.51
902.531	8246.87
902.845	8235.12
903.159	8106.09
903.473	8109.93
903.787	8076.71
904.101	8007.78
904.415	8027.22
904.729	7989.25
905.042	7886.21
905.356	7925.98
905.67	7925.53
905.984	7921.46
906.297	7943.38
906.611	7762.59
906.924	7796.49
907.237	7766.89
907.551	7768.02
907.864	7735.25
908.177	7653.67
908.491	7627
908.804	7592.43
909.117	7548.13
909.43	7518.98
909.743	7471.75
910.056	7427.23
910.368	7432.21
910.681	7395.37
910.994	7360.57
911.307	7343.17
911.619	7350.17
911.932	7293
912.244	7190.4
912.557	7274.47
912.869	7189.95
913.181	7144.98
913.494	7139.56
913.806	7110.18
914.118	7055.04
914.43	7062.95
914.742	7061.37
915.054	6999.45
915.366	7038.09
915.678	6931.43
915.99	6871.99
916.302	6790.41
916.613	6777.76
916.925	6855.72
917.236	6790.87
917.548	6780.02
917.859	6821.37
918.171	6720.81
918.482	6716.74
918.794	6682.17
919.105	6620.93
919.416	6615.28
919.727	6530.53
920.038	6577.76
920.349	6556.52
920.66	6484.66
920.971	6516.52
921.282	6457.99
921.593	6410.76
921.903	6431.55
922.214	6378.67
922.525	6405.57
922.835	6301.84
923.146	6298.68
923.456	6271.11
923.767	6258.9
924.077	6240.37
924.387	6224.1
924.697	6169.87
925.008	6138.68
925.318	6116.08
925.628	6100.72
925.938	6073.15
926.248	6045.8
926.558	5992.02
926.867	6029.98
927.177	5949.76
927.487	6025.01
927.796	5872.7
928.106	5892.36
928.416	5866.37
928.725	5858.91
929.034	5761.06
929.344	5834.73
929.653	5815.53
929.962	5766.26
930.271	5689.2
930.581	5681.74
930.89	5683.1
931.199	5660.5
931.508	5645.13
931.817	5675.87
932.125	5618.47
932.434	5678.13
932.743	5558.81
933.051	5531.01
933.36	5476.78
933.669	5488.08
933.977	5446.95
934.286	5450.79
934.594	5465.7
934.902	5404.69
935.21	5373.95
935.519	5318.14
935.827	5332.6
936.135	5327.4
936.443	5327.85
936.751	5283.79
937.059	5270.45
937.367	5260.51
937.674	5214.86
937.982	5224.13
938.29	5172.83
938.597	5120.85
938.905	5099.61
939.213	5070.23
939.52	5105.94
939.827	5063.23
940.135	4996.34
940.442	4966.06
940.749	4962.21
941.056	5015.77
941.363	4919.96
941.67	4905.94
941.977	4926.96
942.284	4863.01
942.591	4845.38
942.898	4851.48
943.205	4833.18
943.511	4823.91
943.818	4798.15
944.125	4790.92
944.431	4742.78
944.738	4704.82
945.044	4685.16
945.35	4700.07
945.657	4701.66
945.963	4602
946.269	4641.32
946.575	4550.7
946.881	4577.37
947.187	4571.04
947.493	4526.75
947.799	4518.84
948.105	4482.23
948.41	4492.4
948.716	4494.66
949.022	4464.15
949.327	4433.41
949.633	4409.91
949.938	4430.7
950.244	4387.54
950.549	4349.35
950.854	4331.5
951.16	4317.03
951.465	4281.33
951.77	4258.96
952.075	4290.37
952.38	4263.93
952.685	4200.2
952.99	4203.82
953.294	4190.26
953.599	4157.04
953.904	4124.04
954.209	4090.82
954.513	4151.61
954.818	4140.31
955.122	4086.3
955.426	4030.49
955.731	4031.62
956.035	4011.05
956.339	4014.22
956.643	4008.57
956.948	3966.31
957.252	3969.25
957.556	3960.88
957.86	3915.91
958.163	3895.35
958.467	3899.87
958.771	3877.95
959.075	3887.67
959.378	3838.18
959.682	3856.03
959.985	3836.37
960.289	3788.23
960.592	3721.79
960.896	3756.82
961.199	3828.68
961.502	3725.18
961.805	3719.31
962.108	3706.2
962.411	3672.53
962.714	3624.17
963.017	3619.88
963.32	3642.93
963.623	3618.97
963.926	3602.93
964.228	3591.63
964.531	3573.1
964.833	3597.96
965.136	3561.57
965.438	3505.98
965.741	3467.11
966.043	3499.88
966.345	3451.52
966.648	3467.34
966.95	3456.49
967.252	3423.72
967.554	3434.57
967.856	3412.2
968.158	3388.24
968.46	3353.67
968.761	3367.68
969.063	3356.61
969.365	3324.97
969.666	3308.02
969.968	3307.34
970.269	3296.04
970.571	3260.79
970.872	3247.68
971.174	3228.25
971.475	3265.54
971.776	3192.09
972.077	3196.61
972.378	3213.79
972.679	3197.06
972.98	3170.4
973.281	3152.77
973.582	3108.25
973.883	3104.86
974.183	3124.3
974.484	3134.92
974.785	3080.46
975.085	3039.55
975.386	3047.91
975.686	3024.19
975.986	3051.08
976.287	3035.49
976.587	3015.6
976.887	2987.58
977.187	2996.39
977.487	2955.49
977.787	2946.45
978.087	2938.09
978.387	2926.11
978.687	2933.34
978.987	2905.55
979.286	2854.25
979.586	2876.39
979.885	2851.99
980.185	2832.33
980.484	2828.94
980.784	2795.94
981.083	2803.17
981.382	2804.08
981.682	2794.36
981.981	2771.31
982.28	2762.72
982.579	2716.17
982.878	2730.63
983.177	2723.18
983.475	2702.61
983.774	2717.98
984.073	2692.44
984.372	2650.86
984.67	2629.62
984.969	2655.83
985.267	2672.1
985.566	2608.38
985.864	2597.08
986.162	2618.32
986.461	2587.81
986.759	2604.99
987.057	2568.15
987.355	2533.8
987.653	2542.62
987.951	2552.79
988.249	2510.53
988.547	2527.7
988.844	2518.66
989.142	2464.65
989.44	2498.1
989.737	2470.75
990.035	2443.86
990.332	2458.78
990.63	2411.77
990.927	2407.48
991.224	2433.69
991.521	2428.95
991.819	2396.41
992.116	2357.08
992.413	2381.04
992.71	2376.07
993.006	2374.03
993.303	2333.81
993.6	2325.45
993.897	2298.1
994.193	2308.72
994.49	2255.39
994.787	2264.66
995.083	2275.28
995.379	2253.36
995.676	2254.26
995.972	2237.09
996.268	2241.38
996.565	2233.25
996.861	2212
997.157	2203.64
997.453	2188.73
997.749	2164.32
998.044	2156.41
998.34	2137.66
998.636	2124.1
998.932	2116.19
999.227	2089.97
999.523	2106.92
999.818	2121.84
1000.114	2083.19
1000.409	2055.17
1000.704	2042.74
1001	2054.27
1001.295	2029.41
1001.59	2004.55
1001.885	2016.08
1002.18	1991.9
1002.475	1986.25
1002.77	1975.4
1003.065	1998.45
1003.359	1967.72
1003.654	1955.06
1003.949	1936.08
1004.243	1936.53
1004.538	1947.38
1004.832	1914.16
1005.127	1917.77
1005.421	1901.05
1005.715	1894.95
1006.009	1851.34
1006.304	1856.99
1006.598	1843.2
1006.892	1854.27
1007.186	1809.3
1007.48	1819.25
1007.773	1780.38
1008.067	1796.42
1008.361	1769.76
1008.655	1788.06
1008.948	1768.85
1009.242	1759.59
1009.535	1744.9
1009.829	1748.74
1010.122	1724.79
1010.415	1725.24
1010.708	1706.25
1011.001	1679.14
1011.295	1697.89
1011.588	1683.43
1011.881	1670.32
1012.173	1659.93
1012.466	1639.82
1012.759	1626.03
1013.052	1653.6
1013.344	1634.62
1013.637	1629.19
1013.93	1615.86
1014.222	1607.5
1014.514	1595.75
1014.807	1607.05
1015.099	1576.09
1015.391	1534.96
1015.683	1540.16
1015.976	1531.12
1016.268	1508.07
1016.56	1501.51
1016.851	1514.85
1017.143	1522.76
1017.435	1482.08
1017.727	1495.41
1018.018	1454.74
1018.31	1481.85
1018.602	1478.92
1018.893	1454.28
1019.185	1445.47
1019.476	1405.25
1019.767	1409.09
1020.058	1414.74
1020.35	1381.07
1020.641	1379.48
1020.932	1390.33
1021.223	1358.47
1021.514	1367.96
1021.804	1358.02
1022.095	1337.45
1022.386	1309.65
1022.677	1306.49
1022.967	1317.79
1023.258	1290.45
1023.548	1299.71
1023.839	1318.47
1024.129	1290.9
1024.419	1265.36
1024.709	1260.39
1025	1263.55
1025.29	1243.89
1025.58	1261.29
1025.87	1229.43
1026.16	1224.91
1026.449	1250.22
1026.739	1237.34
1027.029	1187.62
1027.319	1181.07
1027.608	1222.2
1027.898	1187.62
1028.187	1177.23
1028.477	1171.81
1028.766	1174.29
1029.055	1173.39
1029.344	1139.26
1029.634	1128.87
1029.923	1143.11
1030.212	1138.81
1030.501	1134.97
1030.79	1120.51
1031.078	1092.26
1031.367	1109.43
1031.656	1095.42
1031.945	1092.94
1032.233	1083.67
1032.522	1064.92
1032.81	1072.37
1033.099	1056.55
1033.387	1063.33
1033.675	1066.72
1033.963	1042.54
1034.251	1017.01
1034.54	1046.16
1034.828	996.89
1035.116	998.7
1035.403	995.09
1035.691	1027.85
1035.979	992.83
1036.267	988.08
1036.554	968.19
1036.842	972.04
1037.129	977.23
1037.417	948.76
1037.704	926.84
1037.992	937.24
1038.279	958.48
1038.566	952.83
1038.853	952.83
1039.14	952.83
