Data from hue_270_FLMS001491_00079.txt Node
Date: Tue Feb 07 15:57:41 GMT 2017
User: dcchb
Spectrometer: FLMS00149
Trigger mode: 0
Integration Time (sec): 2.000000E-2
Scans to average: 10
Electric dark correction enabled: true
Nonlinearity correction enabled: false
Boxcar width: 0
XAxis mode: Wavelengths
Number of Pixels in Spectrum: 2048
>>>>>Begin Spectral Data<<<<<
341.393	-10.61
341.776	-10.61
342.16	-10.61
342.543	-55.35
342.927	-60.1
343.31	-59.42
343.693	-79.31
344.077	-47.22
344.46	-55.13
344.843	-59.42
345.226	-55.35
345.61	-44.5
345.993	-23.94
346.376	5.66
346.759	8.15
347.142	20.58
347.525	62.16
347.908	32.33
348.291	68.49
348.674	105.55
349.057	121.37
349.44	115.72
349.823	159.33
350.206	147.81
350.588	197.75
350.971	219.9
351.354	217.86
351.737	228.48
352.119	242.95
352.502	245.43
352.884	258.54
353.267	286.79
353.65	277.75
354.032	287.92
354.414	300.12
354.797	296.73
355.179	325.88
355.562	315.49
355.944	316.62
356.326	320.01
356.709	303.51
357.091	324.75
357.473	329.72
357.855	323.17
358.238	357.29
358.62	349.84
359.002	329.5
359.384	333.79
359.766	333.34
360.148	316.62
360.53	336.5
360.912	325.66
361.294	312.32
361.676	316.62
362.057	331.3
362.439	316.16
362.821	324.98
363.203	312.55
363.584	328.82
363.966	326.56
364.348	325.66
364.729	299.44
365.111	311.87
365.493	315.26
365.874	309.16
366.256	322.27
366.637	319.78
367.019	310.51
367.4	311.64
367.781	294.92
368.163	335.37
368.544	326.79
368.925	308.48
369.306	302.61
369.688	327.24
370.069	313
370.45	323.17
370.831	316.84
371.212	309.16
371.593	309.16
371.974	311.19
372.355	285.66
372.736	322.49
373.117	317.52
373.498	319.55
373.879	298.99
374.26	317.75
374.641	309.84
375.021	304.86
375.402	314.81
375.783	316.39
376.163	316.16
376.544	327.92
376.925	325.43
377.305	299.89
377.686	337.63
378.066	311.19
378.447	332.89
378.827	318.2
379.208	296.73
379.588	337.63
379.968	339.21
380.349	330.4
380.729	332.43
381.109	334.47
381.489	317.97
381.87	356.84
382.25	337.41
382.63	329.05
383.01	320.01
383.39	326.56
383.77	336.28
384.15	354.81
384.53	345.09
384.91	351.87
385.29	365.88
385.67	335.6
386.049	353.45
386.429	365.2
386.809	369.95
387.189	352.32
387.568	375.82
387.948	339.89
388.328	377.41
388.707	346.67
389.087	370.17
389.466	363.85
389.846	356.16
390.225	383.51
390.605	378.31
390.984	370.17
391.363	368.82
391.743	361.81
392.122	374.47
392.501	367.69
392.881	392.09
393.26	375.6
393.639	386.44
394.018	387.12
394.397	367.01
394.776	389.16
395.155	388.93
395.534	406.33
395.913	395.03
396.292	392.32
396.671	387.8
397.05	393.68
397.429	392.09
397.808	378.08
398.186	388.93
398.565	392.77
398.944	409.72
399.323	416.05
399.701	396.84
400.08	393.68
400.458	403.62
400.837	422.6
401.215	397.07
401.594	444.3
401.972	407.24
402.351	414.69
402.729	416.95
403.107	426.9
403.486	436.84
403.864	435.03
404.242	427.35
404.62	462.83
404.999	447.23
405.377	440.45
405.755	442.49
406.133	451.53
406.511	468.7
406.889	470.51
407.267	466.67
407.645	472.54
408.023	480.23
408.401	458.76
408.779	499.89
409.156	475.71
409.534	503.5
409.912	515.03
410.29	506.89
410.667	513.67
411.045	513.45
411.422	519.77
411.8	507.8
412.178	558.87
412.555	544.86
412.933	551.86
413.31	562.03
413.687	574.24
414.065	596.83
414.442	589.83
414.819	573.56
415.197	576.95
415.574	602.03
415.951	625.99
416.328	637.74
416.705	588.47
417.082	636.83
417.46	628.47
417.837	629.83
418.214	649.94
418.591	665.99
418.967	642.71
419.344	665.76
419.721	653.1
420.098	670.5
420.475	665.31
420.852	705.98
421.228	709.15
421.605	711.63
421.982	697.17
422.358	740.33
422.735	742.59
423.111	762.03
423.488	746.44
423.864	759.99
424.241	789.82
424.617	800.45
424.994	790.28
425.37	808.81
425.746	805.42
426.123	851.52
426.499	851.29
426.875	859.43
427.251	837.05
427.627	877.05
428.003	879.54
428.379	890.84
428.756	886.09
429.132	915.02
429.507	906.2
429.883	952.76
430.259	924.28
430.635	952.53
431.011	950.5
431.387	965.86
431.763	984.85
432.138	993.43
432.514	1024.62
432.89	1022.36
433.265	1053.32
433.641	1054.22
434.016	1076.82
434.392	1088.35
434.767	1105.75
435.143	1097.39
435.518	1155.01
435.894	1127.44
436.269	1178.74
436.644	1180.32
437.02	1206.54
437.395	1217.61
437.77	1224.61
438.145	1253.31
438.52	1284.05
438.895	1275.46
439.271	1267.55
439.646	1301.45
440.021	1343.71
440.395	1335.8
440.77	1325.4
441.145	1381.45
441.52	1385.74
441.895	1373.99
442.27	1406.98
442.645	1414.21
443.019	1420.77
443.394	1449.02
443.769	1442.69
444.143	1439.75
444.518	1490.82
444.892	1462.8
445.267	1470.03
445.641	1497.6
446.016	1508.9
446.39	1491.95
446.764	1534.66
447.139	1522.69
447.513	1531.73
447.887	1534.89
448.262	1552.74
448.636	1570.82
449.01	1560.43
449.384	1592.29
449.758	1595
450.132	1618.05
450.506	1636.13
450.88	1620.99
451.254	1629.35
451.628	1664.83
452.002	1663.02
452.376	1681.1
452.75	1704.38
453.123	1742.34
453.497	1742.57
453.871	1730.36
454.244	1781.44
454.618	1781.21
454.992	1808.55
455.365	1796.13
455.739	1834.77
456.112	1864.37
456.486	1867.99
456.859	1871.15
457.232	1901.43
457.606	1899.17
457.979	1919.51
458.352	1975.56
458.725	1966.29
459.099	1954.31
459.472	2013.75
459.845	2036.12
460.218	2029.11
460.591	2069.56
460.964	2089.9
461.337	2087.64
461.71	2139.84
462.083	2164.03
462.456	2176.68
462.829	2163.57
463.201	2217.13
463.574	2226.4
463.947	2244.02
464.32	2256.23
464.692	2290.35
465.065	2282.89
465.438	2318.37
465.81	2375.32
466.183	2369.9
466.555	2414.64
466.928	2413.06
467.3	2420.52
467.672	2460.06
468.045	2527.41
468.417	2507.07
468.789	2521.53
469.161	2543.9
469.534	2568.08
469.906	2619.15
470.278	2634.75
470.65	2662.77
471.022	2686.05
471.394	2776.44
471.766	2752.26
472.138	2807.85
472.51	2873.16
472.882	2855.08
473.253	2896.89
473.625	2911.58
473.997	2941.63
474.369	2988.41
474.74	3009.88
475.112	3056.2
475.484	3100.27
475.855	3126.71
476.227	3171.68
476.598	3248.29
476.97	3254.84
477.341	3333.71
477.713	3333.49
478.084	3348.4
478.455	3431.56
478.827	3464.78
479.198	3484.89
479.569	3519.47
479.94	3622.29
480.311	3633.36
480.682	3679.24
481.053	3776.64
481.424	3801.72
481.795	3817.09
482.166	3925.79
482.537	3948.84
482.908	3994.49
483.279	4000.81
483.65	4043.75
484.021	4151.77
484.391	4213.69
484.762	4210.07
485.133	4255.72
485.503	4275.61
485.874	4384.98
486.244	4361.71
486.615	4417.98
486.985	4469.95
487.356	4560.57
487.726	4565.32
488.097	4640.34
488.467	4655.71
488.837	4739.78
489.207	4770.96
489.578	4833.79
489.948	4847.12
490.318	4911.75
490.688	4876.72
491.058	4922.82
491.428	5025.19
491.798	5064.06
492.168	5117.39
492.538	5124.17
492.908	5178.41
493.278	5248.01
493.648	5233.55
494.017	5284.62
494.387	5373.43
494.757	5369.14
495.126	5390.83
495.496	5384.51
495.866	5447.33
496.235	5525.07
496.605	5521.22
496.974	5547.21
497.344	5598.74
497.713	5594.22
498.082	5617.95
498.452	5680.77
498.821	5706.3
499.19	5698.4
499.559	5731.16
499.928	5803.25
500.298	5810.48
500.667	5826.98
501.036	5813.87
501.405	5900.2
501.774	5859.97
502.143	5873.08
502.512	5886.86
502.88	5984.72
503.249	5999.18
503.618	5985.85
503.987	6042.57
504.356	6043.02
504.724	6077.14
505.093	6049.8
505.462	6097.71
505.83	6081.66
506.199	6116.46
506.567	6203.69
506.936	6134.32
507.304	6262.67
507.672	6257.93
508.041	6224.03
508.409	6339.06
508.777	6268.1
509.145	6356.91
509.514	6337.02
509.882	6346.74
510.25	6381.54
510.618	6389.45
510.986	6381.09
511.354	6458.83
511.722	6421.77
512.09	6466.06
512.458	6477.81
512.826	6511.71
513.193	6562.78
513.561	6532.05
513.929	6565.04
514.297	6625.83
514.664	6609.56
515.032	6595.09
515.4	6643
515.767	6654.08
516.135	6623.57
516.502	6594.87
516.869	6754.64
517.237	6687.52
517.604	6682.32
517.972	6680.74
518.339	6766.84
518.706	6724.13
519.073	6697.92
519.44	6704.7
519.808	6778.59
520.175	6789.67
520.542	6824.47
520.909	6899.04
521.276	6832.6
521.643	6864.69
522.009	6956.89
522.376	6978.36
522.743	6904.69
523.11	6984.24
523.477	7025.59
523.843	6997.8
524.21	7094.74
524.577	7085.03
524.943	7097.68
525.31	7081.41
525.676	7210.22
526.043	7138.36
526.409	7162.31
526.776	7293.38
527.142	7257.9
527.508	7276.66
527.874	7240.05
528.241	7304
528.607	7291.35
528.973	7347.17
529.339	7342.42
529.705	7377.22
530.071	7439.59
530.437	7417.22
530.803	7469.2
531.169	7473.72
531.535	7484.11
531.901	7442.76
532.267	7439.37
532.632	7493.6
532.998	7510.1
533.364	7558.69
533.73	7511
534.095	7594.16
534.461	7565.24
534.826	7620.83
535.192	7597.1
535.557	7657.89
535.923	7614.5
536.288	7623.54
536.653	7642.75
537.019	7620.83
537.384	7632.58
537.749	7649.3
538.114	7648.63
538.479	7654.5
538.845	7647.27
539.21	7579.02
539.575	7719.36
539.94	7660.83
540.305	7729.3
540.67	7717.1
541.034	7707.16
541.399	7740.15
541.764	7718.68
542.129	7723.43
542.494	7725.46
542.858	7707.61
543.223	7746.7
543.587	7764.56
543.952	7761.39
544.316	7801.84
544.681	7777.89
545.045	7808.85
545.41	7810.66
545.774	7813.59
546.138	7787.83
546.503	7835.74
546.867	7797.32
547.231	7849.53
547.595	7866.02
547.959	7857.21
548.324	7857.43
548.688	7874.84
549.052	7913.93
549.416	7886.13
549.779	7857.89
550.143	7853.14
550.507	7896.3
550.871	7847.04
551.235	7909.41
551.599	7955.96
551.962	7943.99
552.326	7928.62
552.689	7984.44
553.053	7886.59
553.417	7903.08
553.78	8041.61
554.143	7999.8
554.507	8014.27
554.87	8019.01
555.234	8019.24
555.597	8019.01
555.96	8071.21
556.323	8059.01
556.686	8093.81
557.05	8100.14
557.413	8030.54
557.776	8152.12
558.139	8130.42
558.502	8186.92
558.865	8207.48
559.228	8201.83
559.59	8179.01
559.953	8212.68
560.316	8266.01
560.679	8238.67
561.041	8320.02
561.404	8309.85
561.767	8330.64
562.129	8316.63
562.492	8425.78
562.854	8372.9
563.217	8435.72
563.579	8444.09
563.941	8441.37
564.304	8501.71
564.666	8551.65
565.028	8548.72
565.39	8471.43
565.753	8613.8
566.115	8565.89
566.477	8617.87
566.839	8655.61
567.201	8735.38
567.563	8737.86
567.925	8703.06
568.287	8779.22
568.648	8769.28
569.01	8782.61
569.372	8870.97
569.734	8873.45
570.095	8854.47
570.457	8958.42
570.819	8994.58
571.18	8948.48
571.542	8990.51
571.903	9035.26
572.265	9051.3
572.626	9068.93
572.987	9106.22
573.349	9097.85
573.71	9157.29
574.071	9200.45
574.432	9221.24
574.794	9292.88
575.155	9270.5
575.516	9248.13
575.877	9307.57
576.238	9322.48
576.599	9371.97
576.96	9420.11
577.32	9435.02
577.681	9473.66
578.042	9499.65
578.403	9524.74
578.763	9545.3
579.124	9513.66
579.485	9628.46
579.845	9598.18
580.206	9647.67
580.566	9603.83
580.927	9742.81
581.287	9752.75
581.648	9759.31
582.008	9808.57
582.368	9810.6
582.728	9855.35
583.089	9932.63
583.449	9865.97
583.809	9975.8
584.169	9973.31
584.529	10005.85
584.889	10010.82
585.249	9971.96
585.609	10018.51
585.969	10065.06
586.329	10126.3
586.688	10180.99
587.048	10188.9
587.408	10138.05
587.768	10164.49
588.127	10265.96
588.487	10235.68
588.846	10338.5
589.206	10280.87
589.565	10277.03
589.925	10336.47
590.284	10320.42
590.643	10329.69
591.003	10457.59
591.362	10446.75
591.721	10457.14
592.08	10484.48
592.44	10547.99
592.799	10541.66
593.158	10500.75
593.517	10586.18
593.876	10597.48
594.235	10627.53
594.593	10613.97
594.952	10681.99
595.311	10667.98
595.67	10628.89
596.029	10769
596.387	10803.57
596.746	10776.91
597.104	10781.43
597.463	10780.3
597.822	10783.46
598.18	10769.45
598.538	10839.96
598.897	10879.05
599.255	10806.96
599.613	10928.31
599.972	10792.5
600.33	10917.47
600.688	10856.45
601.046	10957.24
601.404	11000.4
601.762	10990.91
602.12	11041.53
602.478	11074.98
602.836	10979.84
603.194	10980.52
603.552	11028.2
603.91	10970.12
604.268	11017.35
604.625	10947.52
604.983	11032.04
605.341	10994.08
605.698	11025.26
606.056	11094.41
606.413	11044.92
606.771	11089.44
607.128	11083.34
607.485	11111.59
607.843	11112.04
608.2	11192.49
608.557	11145.71
608.914	11166.27
609.272	11192.49
609.629	11219.61
609.986	11276.55
610.343	11197.23
610.7	11267.97
611.057	11265.48
611.414	11311.81
611.771	11248.53
612.127	11317.23
612.484	11327.63
612.841	11432.26
613.198	11354.29
613.554	11300.28
613.911	11368.98
614.267	11335.31
614.624	11348.64
614.98	11325.82
615.337	11498.02
615.693	11389.32
616.05	11400.39
616.406	11492.59
616.762	11477.45
617.118	11379.83
617.475	11443.78
617.831	11471.12
618.187	11518.81
618.543	11536.66
618.899	11566.72
619.255	11530.56
619.611	11532.14
619.967	11560.84
620.323	11601.29
620.678	11530.11
621.034	11500.05
621.39	11544.57
621.746	11532.59
622.101	11608.97
622.457	11484.68
622.812	11523.78
623.168	11597.22
623.523	11563.78
623.879	11571.46
624.234	11505.93
624.589	11651.01
624.945	11658.92
625.3	11528.98
625.655	11616.66
626.01	11542.31
626.365	11674.74
626.72	11646.26
627.075	11619.37
627.43	11519.49
627.785	11510.9
628.14	11588.41
628.495	11578.92
628.85	11535.08
629.205	11476.77
629.559	11534.17
629.914	11538.92
630.269	11519.71
630.623	11406.72
630.978	11478.81
631.332	11504.57
631.687	11425.7
632.041	11526.72
632.396	11464.8
632.75	11448.3
633.104	11442.65
633.459	11330.56
633.813	11422.31
634.167	11358.36
634.521	11324.91
634.875	11312.26
635.229	11350.68
635.583	11330.34
635.937	11250.79
636.291	11261.19
636.645	11307.29
636.999	11239.27
637.352	11291.69
637.706	11202.88
638.06	11228.42
638.413	11235.65
638.767	11174.64
639.121	11227.29
639.474	11123.11
639.828	11113.62
640.181	11157.46
640.534	11227.97
640.888	11190.45
641.241	11145.71
641.594	11168.08
641.947	11106.61
642.301	11128.31
642.654	11154.07
643.007	11091.93
643.36	11105.94
643.713	11048.09
644.066	11081.08
644.419	11102.77
644.771	11051.93
645.124	10887.86
645.477	10833.85
645.83	10867.3
646.182	10784.14
646.535	10665.5
646.888	10737.81
647.24	10687.87
647.593	10741.65
647.945	10750.92
648.298	10609.23
648.65	10667.53
649.002	10624.14
649.355	10693.52
649.707	10720.18
650.059	10731.94
650.411	10919.28
650.763	10891.03
651.115	10943.46
651.467	10930.35
651.819	10878.15
652.171	10903.46
652.523	10928.54
652.875	10904.59
653.227	10913.85
653.578	11016.22
653.93	10929.44
654.282	10903.23
654.633	10880.63
654.985	10927.41
655.337	10938.94
655.688	10941.87
656.039	10954.53
656.391	10874.08
656.742	10882.89
657.094	10916.34
657.445	10942.1
657.796	10933.51
658.147	10885.6
658.498	10849.67
658.849	10881.76
659.2	10948.43
659.551	10895.55
659.902	11009.44
660.253	10903.91
660.604	10905.49
660.955	10864.59
661.306	10890.35
661.656	10891.71
662.007	10916.34
662.358	10925.6
662.708	10941.65
663.059	10865.04
663.409	10867.98
663.76	10896.68
664.11	10942.55
664.461	10966.05
664.811	10911.82
665.161	10973.28
665.511	10920.18
665.862	10952.72
666.212	10934.87
666.562	10970.12
666.912	10976.22
667.262	10917.69
667.612	10911.82
667.962	10950.69
668.312	10888.99
668.662	10910.01
669.011	10875.89
669.361	10900.52
669.711	10889.22
670.06	10900.74
670.41	10891.48
670.76	10881.08
671.109	10888.32
671.459	10871.14
671.808	10846.28
672.157	10921.08
672.507	10714.31
672.856	10764.25
673.205	10834.08
673.554	10829.11
673.904	10765.15
674.253	10886.96
674.602	10841.99
674.951	10647.19
675.3	10634.99
675.649	10776.68
675.998	10743.69
676.346	10793.63
676.695	10786.17
677.044	10670.47
677.393	10739.39
677.741	10739.39
678.09	10788.66
678.438	10721.77
678.787	10740.07
679.135	10687.87
679.484	10627.31
679.832	10707.98
680.181	10599.74
680.529	10612.62
680.877	10639.73
681.225	10564.48
681.573	10675.21
681.922	10545.05
682.27	10505.95
682.618	10500.75
682.966	10469.8
683.314	10463.92
683.661	10462.56
684.009	10417.59
684.357	10335.79
684.705	10357.93
685.053	10383.7
685.4	10326.07
685.748	10295.79
686.095	10272.96
686.443	10293.98
686.79	10198.84
687.138	10209.24
687.485	10227.77
687.832	10150.93
688.18	10116.36
688.527	10091.73
688.874	10088.11
689.221	10026.87
689.568	10024.61
689.915	9989.36
690.262	10003.59
690.609	9972.18
690.956	9957.04
691.303	9927.44
691.65	9902.58
691.997	9884.05
692.344	9833.88
692.69	9800.21
693.037	9740.77
693.383	9686.54
693.73	9710.72
694.077	9675.47
694.423	9655.35
694.769	9669.14
695.116	9632.3
695.462	9592.3
695.808	9522.02
696.155	9526.77
696.501	9455.81
696.847	9425.08
697.193	9395.47
697.539	9332.65
697.885	9257.17
698.231	9349.15
698.577	9311.86
698.923	9281.58
699.269	9209.94
699.614	9250.39
699.96	9087.91
700.306	9159.1
700.651	9038.65
700.997	9044.07
701.342	9066.67
701.688	9040.68
702.033	9023.73
702.379	8971.3
702.724	8936.28
703.069	8977.86
703.415	8829.61
703.76	8858.54
704.105	8823.51
704.45	8763.17
704.795	8757.75
705.14	8685.44
705.485	8673.68
705.83	8596.85
706.175	8684.31
706.52	8624.19
706.865	8564.08
707.209	8570.41
707.554	8521.37
707.899	8514.59
708.243	8529.96
708.588	8455.61
708.932	8405.67
709.277	8432.79
709.621	8403.63
709.966	8366.12
710.31	8440.7
710.654	8262.85
710.998	8256.52
711.342	8318.67
711.687	8260.14
712.031	8267.14
712.375	8207.93
712.719	8211.32
713.063	8172.23
713.407	8259.46
713.75	8214.04
714.094	8144.88
714.438	8100.14
714.782	8152.34
715.125	8099.69
715.469	8063.98
715.812	8116.41
716.156	8039.12
716.499	8105.34
716.843	8040.71
717.186	8010.88
717.53	8073.47
717.873	8082.51
718.216	8021.95
718.559	7934.72
718.902	7921.39
719.246	7912.8
719.589	7888.17
719.932	7843.2
720.275	7914.16
720.617	7860.37
720.96	7901.05
721.303	7879.81
721.646	7905.79
721.989	7856.53
722.331	7892.69
722.674	7806.14
723.016	7826.02
723.359	7822.18
723.701	7764.56
724.044	7791.9
724.386	7712.35
724.729	7748.51
725.071	7772.92
725.413	7712.35
725.755	7725.01
726.097	7713.48
726.439	7704.22
726.782	7739.92
727.124	7678.68
727.465	7698.57
727.807	7699.02
728.149	7645.91
728.491	7620.83
728.833	7650.66
729.175	7626.93
729.516	7633.26
729.858	7666.25
730.199	7631.45
730.541	7667.61
730.882	7595.07
731.224	7652.92
731.565	7609.76
731.906	7559.36
732.248	7629.64
732.589	7589.65
732.93	7586.03
733.271	7602.3
733.612	7612.92
733.953	7651.11
734.294	7541.74
734.635	7543.09
734.976	7631
735.317	7563.66
735.658	7654.95
735.999	7615.41
736.339	7600.49
736.68	7582.41
737.021	7621.96
737.361	7615.18
737.702	7634.84
738.042	7629.42
738.383	7620.15
738.723	7580.83
739.063	7604.11
739.404	7656.99
739.744	7687.04
740.084	7586.71
740.424	7610.89
740.764	7617.44
741.104	7661.73
741.444	7644.33
741.784	7697.66
742.124	7736.31
742.464	7721.39
742.804	7777.44
743.143	7691.11
743.483	7754.84
743.823	7664.9
744.162	7727.27
744.502	7775.18
744.841	7786.48
745.181	7866.25
745.52	7894.5
745.86	7882.07
746.199	7958.67
746.538	7973.36
746.877	7990.76
747.216	8064.21
747.556	8039.12
747.895	8135.62
748.234	8159.12
748.573	8190.31
748.911	8197.09
749.25	8266.46
749.589	8321.83
749.928	8419.23
750.267	8440.02
750.605	8513.01
750.944	8597.53
751.283	8609.73
751.621	8721.82
751.96	8756.17
752.298	8862.38
752.636	8894.7
752.975	9057.18
753.313	9086.78
753.651	9208.36
753.989	9252.2
754.327	9356.6
754.666	9451.07
755.004	9605.64
755.342	9666.65
755.679	9840.89
756.017	9922.01
756.355	10031.61
756.693	10115.91
757.031	10315
757.368	10364.94
757.706	10538.72
758.044	10698.72
758.381	10784.82
758.719	10881.99
759.056	11056.22
759.394	11208.08
759.731	11335.54
760.068	11470
760.405	11574.63
760.743	11832.92
761.08	11868.85
761.417	12069.3
761.754	12136.42
762.091	12370.54
762.428	12481.27
762.765	12635.84
763.102	12824.99
763.438	12864.08
763.775	12986.34
764.112	13292.77
764.449	13377.29
764.785	13506.55
765.122	13654.34
765.458	13742.7
765.795	13929.37
766.131	14068.8
766.467	14189.7
766.804	14186.76
767.14	14438.05
767.476	14593.98
767.812	14709.91
768.148	14865.61
768.485	14863.8
768.821	15036
769.157	15190.58
769.492	15322.78
769.828	15459.49
770.164	15400.06
770.5	15499.72
770.836	15735.42
771.171	15772.71
771.507	15900.39
771.842	15891.57
772.178	15934.28
772.513	16100.61
772.849	16231.9
773.184	16315.52
773.519	16378.57
773.855	16332.92
774.19	16500.82
774.525	16495.63
774.86	16706.92
775.195	16644.55
775.53	16753.25
775.865	16755.96
776.2	16729.07
776.535	16727.03
776.87	16778.33
777.205	16973.81
777.539	16911.21
777.874	17003.41
778.209	16937.42
778.543	17015.16
778.878	16992.11
779.212	17106.01
779.547	17098.77
779.881	17143.29
780.215	17115.72
780.55	17204.08
780.884	17183.52
781.218	17210.86
781.552	17271.65
781.886	17220.13
782.22	17200.47
782.554	17186.23
782.888	17164.53
783.222	17117.76
783.556	17096.74
783.889	17156.85
784.223	17063.97
784.557	17111.88
784.89	17167.47
785.224	17118.43
785.557	17073.46
785.891	17168.15
786.224	17080.47
786.558	17057.87
786.891	17080.47
787.224	16955.5
787.557	16934.26
787.891	17021.71
788.224	16981.94
788.557	16943.75
788.89	16973.58
789.223	16977.42
789.556	16848.61
789.888	16821.04
790.221	16836.86
790.554	16828.27
790.887	16769.52
791.219	16820.59
791.552	16711.67
791.884	16657.66
792.217	16682.97
792.549	16617.88
792.882	16547.6
793.214	16459.24
793.546	16574.72
793.879	16515.29
794.211	16417.89
794.543	16454.72
794.875	16386.93
795.207	16421.5
795.539	16418.57
795.871	16383.09
796.203	16320.94
796.535	16135.41
796.867	16151.45
797.198	16158.69
797.53	16148.97
797.862	16020.16
798.193	16040.04
798.525	16018.35
798.856	16067.16
799.188	15977
799.519	15901.97
799.85	15807.51
800.182	15869.43
800.513	15939.26
800.844	15828.3
801.175	15833.27
801.506	15736.55
801.837	15724.8
802.168	15607.51
802.499	15563.67
802.83	15554.18
803.161	15571.13
803.491	15528.65
803.822	15561.19
804.153	15456.33
804.483	15281.65
804.814	15297.47
805.145	15300.4
805.475	15260.18
805.805	15251.36
806.136	15222.44
806.466	15171.14
806.796	15183.8
807.126	15036
807.457	15061.99
807.787	15063.57
808.117	15037.13
808.447	14943.12
808.777	14968.21
809.107	14893.86
809.436	14827.19
809.766	14823.58
810.096	14909.9
810.426	14858.38
810.755	14851.6
811.085	14805.95
811.414	14771.83
811.744	14653.64
812.073	14779.29
812.403	14718.5
812.732	14632.85
813.061	14643.02
813.39	14515.34
813.719	14516.92
814.049	14604.83
814.378	14523.02
814.707	14409.58
815.036	14488.45
815.365	14325.06
815.693	14303.59
816.022	14285.51
816.351	14268.34
816.68	14166.87
817.008	14312.18
817.337	14164.16
817.665	14001.23
817.994	14134.56
818.322	14134.11
818.651	14058.85
818.979	13989.02
819.307	14188.34
819.636	14064.96
819.964	13982.7
820.292	13986.54
820.62	14050.72
820.948	13927.78
821.276	14047.1
821.604	13909.03
821.932	13940.89
822.259	13971.17
822.587	13998.52
822.915	13922.36
823.243	13933.43
823.57	13829.71
823.898	13979.31
824.225	13896.37
824.553	13912.87
824.88	13922.81
825.207	13957.39
825.535	13890.27
825.862	13963.94
826.189	13876.03
826.516	13902.25
826.843	14051.62
827.17	13993.09
827.497	14014.11
827.824	14003.26
828.151	14083.26
828.478	13937.5
828.805	14006.88
829.131	13930.27
829.458	13939.76
829.785	13901.34
830.111	13934.34
830.438	13980.21
830.764	13887.11
831.09	14000.32
831.417	13973.21
831.743	14023.83
832.069	13970.04
832.395	13906.32
832.722	13951.96
833.048	13914.9
833.374	13873.32
833.7	13818.86
834.026	13813.21
834.351	13824.51
834.677	13817.96
835.003	13865.19
835.329	13840.55
835.654	13782.7
835.98	13659.54
836.306	13827
836.631	13719.65
836.956	13721.69
837.282	13832.19
837.607	13773.66
837.932	13621.35
838.258	13732.31
838.583	13669.26
838.908	13559.88
839.233	13583.16
839.558	13655.47
839.883	13570.05
840.208	13505.42
840.533	13424.52
840.858	13519.21
841.182	13509.49
841.507	13476.95
841.832	13364.41
842.156	13428.14
842.481	13378.19
842.805	13427.23
843.13	13358.08
843.454	13363.05
843.778	13223.62
844.103	13180.68
844.427	13220.01
844.751	13140.91
845.075	13114.02
845.399	13101.36
845.723	13002.84
846.047	13117.64
846.371	12949.96
846.695	12953.35
847.019	12872.9
847.343	12810.3
847.666	12701.38
847.99	12679.45
848.313	12749.74
848.637	12573.92
848.96	12561.04
849.284	12625.9
849.607	12425.45
849.931	12430.65
850.254	12339.8
850.577	12196.3
850.9	12075.18
851.223	12217.09
851.546	12137.1
851.869	12011.22
852.192	12099.13
852.515	11900.72
852.838	11977.1
853.161	11940.27
853.483	11803.77
853.806	11884.9
854.129	11859.14
854.451	11827.27
854.774	11720.84
855.096	11645.58
855.419	11746.82
855.741	11677.22
856.063	11560.61
856.385	11571.01
856.708	11534.63
857.03	11515.19
857.352	11454.85
857.674	11454.4
857.996	11329.43
858.318	11300.06
858.64	11213.5
858.961	11292.82
859.283	11300.28
859.605	11271.36
859.926	11186.61
860.248	11194.75
860.57	11146.39
860.891	11055.77
861.212	11098.48
861.534	11059.38
861.855	10969.9
862.176	11086.28
862.498	11042.21
862.819	11006.73
863.14	10980.29
863.461	10975.32
863.782	10931.25
864.103	10943.91
864.424	10871.82
864.745	10872.95
865.065	10813.52
865.386	10769
865.707	10756.12
866.027	10852.38
866.348	10752.73
866.668	10711.37
866.989	10669.34
867.309	10632.5
867.63	10696.68
867.95	10643.8
868.27	10579.85
868.59	10626.63
868.91	10565.39
869.23	10560.87
869.55	10476.35
869.87	10683.58
870.19	10494.65
870.51	10582.11
870.83	10503.01
871.15	10429.12
871.469	10514.77
871.789	10434.32
872.109	10520.42
872.428	10399.29
872.748	10442.23
873.067	10404.49
873.386	10427.99
873.706	10352.96
874.025	10341.66
874.344	10347.54
874.663	10386.18
874.982	10296.69
875.301	10276.35
875.62	10238.16
875.939	10251.04
876.258	10279.74
876.577	10151.61
876.896	10195.45
877.214	10172.85
877.533	10174.89
877.852	10157.49
878.17	10103.03
878.489	10113.87
878.807	10116.13
879.125	10106.19
879.444	10044.5
879.762	9994.33
880.08	10046.3
880.398	9933.76
880.716	9978.06
881.034	9995.01
881.352	10042.01
881.67	9947.32
881.988	9928.79
882.306	9919.75
882.624	9840.66
882.941	9742.36
883.259	9771.51
883.577	9696.93
883.894	9745.07
884.212	9740.32
884.529	9693.77
884.846	9733.32
885.164	9744.84
885.481	9661.91
885.798	9593.43
886.115	9558.41
886.432	9601.57
886.75	9563.6
887.067	9564.96
887.383	9489.26
887.7	9457.17
888.017	9446.09
888.334	9499.88
888.651	9371.75
888.967	9385.98
889.284	9355.25
889.6	9383.5
889.917	9263.95
890.233	9286.78
890.55	9292.65
890.866	9245.19
891.182	9251.52
891.498	9204.97
891.815	9103.73
892.131	9110.51
892.447	9107.57
892.763	9095.37
893.079	9085.88
893.395	9033.9
893.71	9034.13
894.026	8949.38
894.342	8979.67
894.657	8863.96
894.973	8915.71
895.289	8860.35
895.604	8895.37
895.92	8753.46
896.235	8738.54
896.55	8768.37
896.865	8720.91
897.181	8647.02
897.496	8664.42
897.811	8569.28
898.126	8555.95
898.441	8539.22
898.756	8498.55
899.071	8460.58
899.386	8430.53
899.7	8383.52
900.015	8390.75
900.33	8287.03
900.644	8281.38
900.959	8270.31
901.273	8259.91
901.588	8229.85
901.902	8181.04
902.216	8178.1
902.531	8169.29
902.845	8094.04
903.159	8084.32
903.473	8053.81
903.787	8008.62
904.101	7901.28
904.415	7985.11
904.729	7894.5
905.042	7816.76
905.356	7892.46
905.67	7876.87
905.984	7898.79
906.297	7794.16
906.611	7759.36
906.924	7777.44
907.237	7696.53
907.551	7732.47
907.864	7607.95
908.177	7621.28
908.491	7578.8
908.804	7498.12
909.117	7467.16
909.43	7492.02
909.743	7448.86
910.056	7387.84
910.368	7358.92
910.681	7306.71
910.994	7295.87
911.307	7300.39
911.619	7200.28
911.932	7240.28
912.244	7187.4
912.557	7139.94
912.869	7128.41
913.181	7084.57
913.494	7121.86
913.806	7057.46
914.118	7081.18
914.43	7000.06
914.742	6994.41
915.054	6932.26
915.366	6931.58
915.678	6897.23
915.99	6834.86
916.302	6820.85
916.613	6777.01
916.925	6809.33
917.236	6765.03
917.548	6694.98
917.859	6765.49
918.171	6627.64
918.482	6629.9
918.794	6577.69
919.105	6617.47
919.416	6537.24
919.727	6558.94
920.038	6505.61
920.349	6489.11
920.66	6440.3
920.971	6435.55
921.282	6417.92
921.593	6330.24
921.903	6325.27
922.214	6322.56
922.525	6287.08
922.835	6270.58
923.146	6178.61
923.456	6221.09
923.767	6201.88
924.077	6227.2
924.387	6108.33
924.697	6069.23
925.008	6103.58
925.318	6047.09
925.628	6054.54
925.938	6012.51
926.248	5993.75
926.558	6003.92
926.867	5962.34
927.177	5905.4
927.487	5873.31
927.796	5822.01
928.106	5880.54
928.416	5804.61
928.725	5823.36
929.034	5768.68
929.344	5754.44
929.653	5746.98
929.962	5669.02
930.271	5732.07
930.581	5690.03
930.89	5606.19
931.199	5572.3
931.508	5607.55
931.817	5579.98
932.125	5505.86
932.434	5566.42
932.743	5466.09
933.051	5484.39
933.36	5451.85
933.669	5406.2
933.977	5394.67
934.286	5394.45
934.594	5363.49
934.902	5334.34
935.21	5306.77
935.519	5309.03
935.827	5274.9
936.135	5203.27
936.443	5192.87
936.751	5229.71
937.059	5205.75
937.367	5157.17
937.674	5168.01
937.982	5106.77
938.29	5114.46
938.597	5027.45
938.905	4997.62
939.213	4968.25
939.52	5006.66
939.827	5025.87
940.135	4943.61
940.442	4976.15
940.749	4917.85
941.056	4896.38
941.363	4907
941.67	4860
941.977	4858.87
942.284	4787.23
942.591	4819.32
942.898	4781.13
943.205	4781.13
943.511	4697.97
943.818	4742.94
944.125	4697.97
944.431	4681.47
944.738	4682.15
945.044	4646.67
945.35	4625.66
945.657	4558.99
945.963	4620.46
946.269	4537.07
946.575	4562.61
946.881	4535.94
947.187	4485.32
947.493	4483.74
947.799	4436.96
948.105	4397.41
948.41	4470.63
948.716	4397.86
949.022	4394.7
949.327	4364.42
949.633	4335.49
949.938	4340.24
950.244	4338.43
950.549	4266.12
950.854	4266.79
951.16	4261.6
951.465	4221.82
951.77	4224.54
952.075	4243.52
952.38	4207.81
952.685	4178.21
952.99	4096.86
953.294	4174.14
953.599	4125.78
953.904	4100.25
954.209	4037.42
954.513	4060.25
954.818	4049.17
955.122	4012.79
955.426	4026.12
955.731	3973.92
956.035	3974.82
956.339	3959.46
956.643	3941.61
956.948	3920.81
957.252	3926.24
957.556	3933.02
957.86	3871.78
958.163	3850.99
958.467	3879.23
958.771	3843.3
959.075	3832.91
959.378	3806.47
959.682	3825.9
959.985	3776.64
960.289	3779.58
960.592	3739.12
960.896	3721.95
961.199	3681.5
961.502	3714.04
961.805	3688.96
962.108	3625.23
962.411	3648.73
962.714	3582.07
963.017	3625.23
963.32	3575.06
963.623	3604.44
963.926	3550.2
964.228	3538.23
964.531	3545.68
964.833	3532.12
965.136	3524.67
965.438	3478.11
965.741	3442.41
966.043	3446.03
966.345	3442.64
966.648	3415.97
966.95	3424.1
967.252	3409.87
967.554	3383.2
967.856	3351.11
968.158	3349.08
968.46	3337.55
968.761	3342.75
969.063	3326.03
969.365	3321.96
969.666	3320.38
969.968	3263.88
970.269	3260.49
970.571	3236.77
970.872	3252.81
971.174	3227.27
971.475	3223.66
971.776	3140.5
972.077	3148.41
972.378	3167.39
972.679	3136.88
972.98	3173.26
973.281	3116.77
973.582	3088.29
973.883	3081.97
974.183	3065.24
974.484	3065.7
974.785	3040.84
975.085	3047.84
975.386	3053.04
975.686	3003.1
975.986	3005.58
976.287	2997.45
976.587	2954.96
976.887	2972.82
977.187	2961.52
977.487	2912.48
977.787	2917.9
978.087	2862.99
978.387	2886.72
978.687	2856.44
978.987	2864.57
979.286	2852.14
979.586	2822.76
979.885	2821.41
980.185	2779.15
980.484	2782.99
980.784	2767.62
981.083	2759.49
981.382	2745.93
981.682	2710.45
981.981	2743.67
982.28	2703.67
982.579	2714.52
982.878	2709.32
983.177	2687.85
983.475	2686.5
983.774	2650.79
984.073	2658.25
984.372	2625.03
984.67	2641.98
984.969	2629.78
985.267	2625.71
985.566	2562.66
985.864	2601.98
986.162	2561.75
986.461	2553.62
986.759	2559.95
987.057	2533.96
987.355	2494.64
987.653	2516.11
987.951	2499.61
988.249	2518.37
988.547	2481.08
988.844	2464.13
989.142	2430.46
989.44	2406.05
989.737	2450.8
990.035	2444.47
990.332	2444.24
990.63	2393.62
990.927	2383
991.224	2365.15
991.521	2411.02
991.819	2384.13
992.116	2378.71
992.413	2348.88
992.71	2330.35
993.006	2307.98
993.303	2318.82
993.6	2321.31
993.897	2307.75
994.193	2267.3
994.49	2265.49
994.787	2252.16
995.083	2203.8
995.379	2223.68
995.676	2228.2
995.972	2170.58
996.268	2162.67
996.565	2171.48
996.861	2166.74
997.157	2177.13
997.453	2133.52
997.749	2146.17
998.044	2131.94
998.34	2105.27
998.636	2090.13
998.932	2076.8
999.227	2074.76
999.523	2066.4
999.818	2059.17
1000.114	2071.6
1000.409	2032.05
1000.704	2039.06
1001	2026.63
1001.295	1981.66
1001.59	1972.84
1001.885	1950.25
1002.18	1954.09
1002.475	1974.2
1002.77	1943.24
1003.065	1914.99
1003.359	1921.32
1003.654	1893.52
1003.949	1864.6
1004.243	1898.27
1004.538	1883.58
1004.832	1875.22
1005.127	1884.48
1005.421	1870.02
1005.715	1863.02
1006.009	1829.57
1006.304	1828.89
1006.598	1804.49
1006.892	1804.03
1007.186	1796.13
1007.48	1790.7
1007.773	1732.85
1008.067	1772.17
1008.361	1724.49
1008.655	1751.15
1008.948	1729.46
1009.242	1756.8
1009.535	1717.94
1009.829	1732.62
1010.122	1699.63
1010.415	1671.83
1010.708	1663.02
1011.001	1666.19
1011.295	1688.11
1011.588	1647.88
1011.881	1615.56
1012.173	1646.75
1012.466	1608.11
1012.759	1595.23
1013.052	1607.2
1013.344	1618.05
1013.637	1609.92
1013.93	1599.52
1014.222	1573.31
1014.514	1553.19
1014.807	1553.42
1015.099	1550.71
1015.391	1536.24
1015.683	1542.12
1015.976	1522.23
1016.268	1521.1
1016.56	1478.85
1016.851	1488.11
1017.143	1453.31
1017.435	1456.02
1017.727	1422.58
1018.018	1418.28
1018.31	1426.19
1018.602	1439.98
1018.893	1398.62
1019.185	1413.54
1019.476	1390.26
1019.767	1382.8
1020.058	1362.69
1020.35	1404.05
1020.641	1407.21
1020.932	1373.54
1021.223	1355.23
1021.514	1337.61
1021.804	1343.71
1022.095	1317.27
1022.386	1327.21
1022.677	1305.74
1022.967	1295.12
1023.258	1283.14
1023.548	1300.09
1023.839	1269.59
1024.129	1262.58
1024.419	1268.23
1024.709	1239.98
1025	1238.85
1025.29	1226.2
1025.58	1234.56
1025.87	1230.49
1026.16	1225.07
1026.449	1206.31
1026.739	1197.72
1027.029	1208.34
1027.319	1173.54
1027.608	1197.04
1027.898	1176.71
1028.187	1170.38
1028.477	1153.66
1028.766	1151.4
1029.055	1169.47
1029.344	1147.33
1029.634	1122.7
1029.923	1116.82
1030.212	1130.83
1030.501	1098.74
1030.79	1099.19
1031.078	1083.38
1031.367	1060.33
1031.656	1098.52
1031.945	1051.96
1032.233	1068.46
1032.522	1072.08
1032.81	1038.18
1033.099	1040.89
1033.387	1022.13
1033.675	1028.69
1033.963	1026.88
1034.251	998.63
1034.54	977.39
1034.828	1000.89
1035.116	992.3
1035.403	997.28
1035.691	996.37
1035.979	981.23
1036.267	977.62
1036.554	973.55
1036.842	960.67
1037.129	933.55
1037.417	936.71
1037.704	979.65
1037.992	936.49
1038.279	927.45
1038.566	911.4
1038.853	911.4
1039.14	911.4
