Data from hue_34_FLMS001491_00095.txt Node
Date: Tue Feb 07 17:26:28 GMT 2017
User: dcchb
Spectrometer: FLMS00149
Trigger mode: 0
Integration Time (sec): 2.000000E-2
Scans to average: 10
Electric dark correction enabled: true
Nonlinearity correction enabled: false
Boxcar width: 0
XAxis mode: Wavelengths
Number of Pixels in Spectrum: 2048
>>>>>Begin Spectral Data<<<<<
341.393	-19.51
341.776	-19.51
342.16	-19.51
342.543	-73.06
342.927	-63.12
343.31	-78.49
343.693	-70.13
344.077	-75.55
344.46	-69.9
344.843	-60.41
345.226	-46.62
345.61	-6.17
345.993	-32.61
346.376	1.06
346.759	9.87
347.142	27.73
347.525	34.05
347.908	64.79
348.291	86.93
348.674	106.82
349.057	108.63
349.44	119.02
349.823	137.33
350.206	158.8
350.588	198.57
350.971	225.91
351.354	222.07
351.737	230.43
352.119	246.25
352.502	252.13
352.884	284.89
353.267	277.44
353.65	313.82
354.032	295.74
354.414	317.21
354.797	320.82
355.179	306.36
355.562	325.8
355.944	317.44
356.326	336.64
356.709	320.6
357.091	340.94
357.473	345.46
357.855	352.69
358.238	343.42
358.62	343.65
359.002	359.92
359.384	342.75
359.766	349.52
360.148	342.07
360.53	345.46
360.912	354.72
361.294	346.13
361.676	333.25
362.057	339.81
362.439	311.11
362.821	338.68
363.203	338.45
363.584	325.8
363.966	327.83
364.348	312.24
364.729	292.13
365.111	323.08
365.493	340.49
365.874	337.55
366.256	305.23
366.637	315.85
367.019	319.69
367.4	335.97
367.781	305.91
368.163	318.79
368.544	322.18
368.925	306.59
369.306	329.86
369.688	312.01
370.069	293.93
370.45	305.23
370.831	319.02
371.212	340.49
371.593	325.12
371.974	324.89
372.355	316.53
372.736	304.78
373.117	319.92
373.498	296.87
373.879	319.02
374.26	295.51
374.641	319.92
375.021	334.84
375.402	311.79
375.783	340.94
376.163	339.58
376.544	332.8
376.925	333.48
377.305	334.38
377.686	319.92
378.066	307.72
378.447	325.12
378.827	328.96
379.208	336.19
379.588	345.01
379.968	337.77
380.349	340.03
380.729	338.23
381.109	333.71
381.489	337.32
381.87	319.47
382.25	363.31
382.63	342.75
383.01	331.45
383.39	352.69
383.77	352.24
384.15	337.1
384.53	347.49
384.91	341.16
385.29	342.97
385.67	343.88
386.049	354.27
386.429	350.88
386.809	358.79
387.189	349.52
387.568	342.29
387.948	358.56
388.328	355.17
388.707	369.64
389.087	338.23
389.466	369.86
389.846	357.21
390.225	393.59
390.605	357.43
390.984	358.56
391.363	359.24
391.743	395.4
392.122	358.11
392.501	371.45
392.881	366.93
393.26	383.2
393.639	381.16
394.018	375.74
394.397	380.26
394.776	383.65
395.155	375.74
395.534	372.35
395.913	368.51
396.292	360.15
396.671	407.6
397.05	373.7
397.429	387.94
397.808	389.52
398.186	390.88
398.565	383.2
398.944	397.66
399.323	377.09
399.701	382.07
400.08	386.13
400.458	396.53
400.837	390.65
401.215	393.37
401.594	385.91
401.972	400.37
402.351	412.57
402.729	422.97
403.107	393.59
403.486	402.86
403.864	419.81
404.242	418.9
404.62	400.37
404.999	406.92
405.377	400.82
405.755	406.25
406.133	427.71
406.511	406.02
406.889	418
407.267	443.08
407.645	423.42
408.023	440.6
408.401	430.2
408.779	434.04
409.156	444.89
409.534	434.04
409.912	427.49
410.29	425.23
410.667	450.99
411.045	429.07
411.422	433.59
411.8	443.76
412.178	430.43
412.555	449.41
412.933	463.19
413.31	469.52
413.687	476.98
414.065	449.86
414.442	473.82
414.819	472.69
415.197	475.62
415.574	490.09
415.951	494.38
416.328	492.8
416.705	471.78
417.082	496.19
417.46	494.38
417.837	488.05
418.214	509.29
418.591	496.19
418.967	495.28
419.344	516.53
419.721	493.02
420.098	514.49
420.475	481.95
420.852	518.56
421.228	511.33
421.605	531.89
421.982	515.85
422.358	525.11
422.735	509.29
423.111	530.99
423.488	544.77
423.864	536.64
424.241	558.33
424.617	556.98
424.994	548.16
425.37	538.45
425.746	547.26
426.123	556.07
426.499	548.84
426.875	550.2
427.251	561.04
427.627	543.87
428.003	566.47
428.379	570.76
428.756	578.45
429.132	563.53
429.507	589.97
429.883	583.42
430.259	608.95
430.635	589.29
431.011	612.57
431.387	579.35
431.763	625
432.138	624.09
432.514	635.39
432.89	641.49
433.265	643.08
433.641	660.03
434.016	642.62
434.392	649.4
434.767	665.45
435.143	679.23
435.518	659.57
435.894	643.75
436.269	665
436.644	681.49
437.02	672
437.395	683.3
437.77	692.79
438.145	708.84
438.52	696.86
438.895	733.47
439.271	709.06
439.646	691.44
440.021	739.57
440.395	723.98
440.77	726.01
441.145	740.25
441.52	737.31
441.895	724.88
442.27	731.66
442.645	741.83
443.019	754.49
443.394	734.15
443.769	730.31
444.143	758.55
444.518	750.19
444.892	765.11
445.267	743.41
445.641	778.21
446.016	779.34
446.39	749.29
446.764	780.25
447.139	798.78
447.513	801.72
447.887	806.01
448.262	816.63
448.636	802.39
449.01	794.48
449.384	819.79
449.758	814.37
450.132	817.99
450.506	812.79
450.88	820.47
451.254	848.27
451.628	848.27
452.002	879.45
452.376	839.91
452.75	851.88
453.123	861.6
453.497	889.85
453.871	866.12
454.244	904.31
454.618	915.84
454.992	921.49
455.365	931.66
455.739	925.33
456.112	947.93
456.486	927.36
456.859	988.83
457.232	967.14
457.606	970.53
457.979	978.89
458.352	1020.24
458.725	1008.72
459.099	1037.19
459.472	1019.79
459.845	1028.6
460.218	1029.51
460.591	1079.22
460.964	1048.26
461.337	1059.34
461.71	1076.06
462.083	1113.57
462.456	1103.18
462.829	1111.76
463.201	1122.61
463.574	1104.53
463.947	1183.4
464.32	1167.36
464.692	1195.38
465.065	1182.72
465.438	1212.55
465.81	1229.73
466.183	1241.25
466.555	1268.14
466.928	1264.98
467.3	1264.75
467.672	1310.4
468.045	1378.2
468.417	1335.71
468.789	1350.85
469.161	1362.15
469.534	1393.57
469.906	1421.13
470.278	1413.68
470.65	1434.24
471.022	1446.45
471.394	1484.86
471.766	1544.07
472.138	1575.03
472.51	1614.58
472.882	1599.66
473.253	1619.77
473.625	1647.12
473.997	1695.03
474.369	1723.73
474.74	1734.8
475.112	1794.91
475.484	1793.1
475.855	1893.21
476.227	1857.96
476.598	1932.76
476.97	1951.52
477.341	1999.88
477.713	2058.41
478.084	2093.43
478.455	2146.09
478.827	2190.38
479.198	2262.69
479.569	2298.17
479.94	2386.08
480.311	2399.87
480.682	2479.19
481.053	2591.27
481.424	2592.18
481.795	2655
482.166	2714.21
482.537	2767.99
482.908	2892.28
483.279	2928.44
483.65	2969.34
484.021	3085.95
484.391	3133.86
484.762	3212.27
485.133	3252.95
485.503	3351.03
485.874	3426.05
486.244	3474.87
486.615	3570.46
486.985	3672.38
487.356	3745.82
487.726	3790.56
488.097	3915.53
488.467	3959.6
488.837	4055.87
489.207	4153.72
489.578	4242.53
489.948	4311.45
490.318	4439.36
490.688	4510.32
491.058	4615.63
491.428	4694.27
491.798	4845
492.168	4900.14
492.538	4928.61
492.908	5091.77
493.278	5083.19
493.648	5177.19
494.017	5250.19
494.387	5359.11
494.757	5459.67
495.126	5560.24
495.496	5574.92
495.866	5700.34
496.235	5764.52
496.605	5842.26
496.974	5901.47
497.344	5995.03
497.713	6047.45
498.082	6130.39
498.452	6274.79
498.821	6296.71
499.19	6339.88
499.559	6400.44
499.928	6483.37
500.298	6562.92
500.667	6664.16
501.036	6684.27
501.405	6724.5
501.774	6819.86
502.143	6959.75
502.512	6925.85
502.88	6997.49
503.249	7091.04
503.618	7117.03
503.987	7166.29
504.356	7231.6
504.724	7310.92
505.093	7350.47
505.462	7392.05
505.83	7421.43
506.199	7535.1
506.567	7651.03
506.936	7609.22
507.304	7758.37
507.672	7798.82
508.041	7861.64
508.409	7926.95
508.777	7931.47
509.145	8030
509.514	8054.86
509.882	8151.13
510.25	8181.86
510.618	8245.14
510.986	8354.29
511.354	8391.57
511.722	8422.08
512.09	8470.67
512.458	8490.78
512.826	8564.9
513.193	8567.84
513.561	8625.47
513.929	8683.09
514.297	8792.92
514.664	8844.67
515.032	8772.13
515.4	8940.49
515.767	8970.31
516.135	8974.61
516.502	9024.1
516.869	9127.37
517.237	9195.17
517.604	9126.7
517.972	9265.45
518.339	9324.2
518.706	9327.82
519.073	9370.08
519.44	9398.33
519.808	9543.63
520.175	9517.42
520.542	9552.67
520.909	9644.2
521.276	9639.22
521.643	9745.89
522.009	9862.72
522.376	9867.01
522.743	9964.19
523.11	9969.16
523.477	10126.67
523.843	10055.03
524.21	10159.44
524.577	10290.51
524.943	10290.73
525.31	10391.29
525.676	10491.63
526.043	10476.04
526.409	10494.57
526.776	10688.24
527.142	10640.1
527.508	10738.86
527.874	10780.21
528.241	10790.83
528.607	10830.38
528.973	11017.49
529.339	10982.69
529.705	11098.85
530.071	11191.95
530.437	11202.57
530.803	11220.65
531.169	11341.55
531.535	11338.84
531.901	11416.8
532.267	11444.37
532.632	11604.14
532.998	11574.77
533.364	11652.28
533.73	11616.57
534.095	11767.08
534.461	11864.93
534.826	11852.95
535.192	11868.77
535.557	12085.04
535.923	11975.66
536.288	12014.53
536.653	12054.75
537.019	11983.12
537.384	12123.9
537.749	12160.29
538.114	12165.26
538.479	12180.85
538.845	12396.44
539.21	12328.42
539.575	12363.45
539.94	12490.67
540.305	12624.23
540.67	12522.76
541.034	12600.73
541.399	12694.96
541.764	12712.82
542.129	12806.37
542.494	12808.63
542.858	12952.13
543.223	12854.51
543.587	12992.36
543.952	13024.67
544.316	13036.42
544.681	13079.59
545.045	13063.09
545.41	13217.89
545.774	13233.93
546.138	13279.35
546.503	13350.76
546.867	13317.09
547.231	13504.43
547.595	13467.82
547.959	13517.31
548.324	13524.55
548.688	13544.43
549.052	13642.96
549.416	13672.34
549.779	13720.25
550.143	13720.47
550.507	13812.9
550.871	13879.34
551.235	13897.87
551.599	14042.5
551.962	14080.46
552.326	14082.72
552.689	14173.79
553.053	14071.65
553.417	14089.5
553.78	14367.46
554.143	14361.59
554.507	14335.15
554.87	14416.05
555.234	14573.78
555.597	14493.79
555.96	14574.24
556.323	14643.16
556.686	14589.38
557.05	14758.19
557.413	14788.47
557.776	14704.4
558.139	14814
558.502	14891.97
558.865	14872.08
559.228	15011.06
559.59	14965.19
559.953	15066.43
560.316	15181.23
560.679	15291.73
561.041	15313.88
561.404	15350.26
561.767	15439.98
562.129	15441.33
562.492	15573.31
562.854	15595.9
563.217	15502.8
563.579	15650.37
563.941	15739.4
564.304	15815.11
564.666	15882.9
565.028	15891.71
565.39	15811.04
565.753	16052.39
566.115	16077.7
566.477	16134.42
566.839	16278.15
567.201	16334.64
567.563	16294.42
567.925	16397.46
568.287	16484.92
568.648	16472.26
569.01	16524.24
569.372	16613.96
569.734	16686.72
570.095	16824.57
570.457	16737.12
570.819	16850.79
571.18	16848.07
571.542	17017.79
571.903	17064.34
572.265	17096.2
572.626	17127.16
572.987	17281.96
573.349	17279.25
573.71	17473.59
574.071	17512.24
574.432	17589.52
574.794	17835.39
575.155	17768.95
575.516	17836.07
575.877	17973.92
576.238	18149.96
576.599	18213.24
576.96	18309.5
577.32	18341.14
577.681	18529.61
578.042	18703.62
578.403	18744.75
578.763	18933.89
579.124	19055.93
579.485	19185.64
579.845	19393.77
580.206	19498.85
580.566	19599.19
580.927	19634.67
581.287	19859.97
581.648	20018.39
582.008	20354.2
582.368	20497.02
582.728	20623.57
583.089	20688.88
583.449	20946.27
583.809	21074.63
584.169	21367.28
584.529	21539.25
584.889	21831.67
585.249	21948.5
585.609	22061.5
585.969	22430.3
586.329	22581.71
586.688	22885.2
587.048	23049.72
587.408	23221.47
587.768	23453.78
588.127	23733.77
588.487	23744.62
588.846	24229.57
589.206	24375.56
589.565	24578.72
589.925	24960.4
590.284	25225.48
590.643	25403.33
591.003	25761.51
591.362	26016.19
591.721	26283.31
592.08	26460.93
592.44	26708.15
592.799	27115.83
593.158	27280.34
593.517	27492.54
593.876	27742.93
594.235	27945.18
594.593	28168.23
594.952	28462.91
595.311	28624.26
595.67	29015.89
596.029	29332.04
596.387	29679.15
596.746	29888.41
597.104	29978.58
597.463	30163.66
597.822	30537.66
598.18	30622.4
598.538	30936.97
598.897	31355.94
599.255	31329.28
599.613	32037.28
599.972	31924.06
600.33	32243.38
600.688	32429.13
601.046	32694.44
601.404	32955.9
601.762	32963.13
602.12	33366.96
602.478	33527.86
602.836	33770.57
603.194	33638.82
603.552	34012.59
603.91	34081.97
604.268	34507.27
604.625	34530.09
604.983	34788.17
605.341	34848.96
605.698	35119.46
606.056	35423.63
606.413	35562.16
606.771	35861.13
607.128	35944.07
607.485	35969.61
607.843	36177.74
608.2	36496.14
608.557	36718.29
608.914	36782.24
609.272	36899.3
609.629	37101.78
609.986	37334.77
610.343	37450.7
610.7	37926.16
611.057	37850.69
611.414	38005.71
611.771	38011.36
612.127	38263.33
612.484	38333.16
612.841	38658.35
613.198	38625.58
613.554	38620.61
613.911	38936.98
614.267	39101.5
614.624	39221.72
614.98	39249.97
615.337	39487.25
615.693	39562.28
616.05	39591.2
616.406	39886.34
616.762	39942.38
617.118	40053.79
617.475	40178.31
617.831	40306.21
618.187	40464.18
618.543	40436.61
618.899	40811.96
619.255	40696.03
619.611	40870.72
619.967	40865.97
620.323	41264.83
620.678	41074.56
621.034	41017.16
621.39	40997.5
621.746	41213.76
622.101	41491.95
622.457	41280.88
622.812	41378.73
623.168	41602.9
623.523	41571.72
623.879	41735.56
624.234	41481.1
624.589	41841.32
624.945	41884.48
625.3	41958.37
625.655	41933.06
626.01	42093.06
626.365	42135.32
626.72	42102.1
627.075	41990.92
627.43	42248.76
627.785	42172.83
628.14	42214.86
628.495	42286.05
628.85	42228.88
629.205	42139.39
629.559	42318.59
629.914	42191.81
630.269	42460.96
630.623	42201.53
630.978	42189.1
631.332	42472.48
631.687	42471.58
632.041	42251.93
632.396	42451.69
632.75	42307.97
633.104	42386.39
633.459	42352.94
633.813	42303
634.167	42350.91
634.521	42356.56
634.875	42382.32
635.229	42312.72
635.583	42202.21
635.937	42346.39
636.291	42184.58
636.645	42412.15
636.999	42177.13
637.352	42450.56
637.706	42088.99
638.06	42353.62
638.413	42151.36
638.767	42204.24
639.121	42195.88
639.474	42018.71
639.828	42021.65
640.181	42078.15
640.534	42126.51
640.888	41984.36
641.241	41950.01
641.594	41920.41
641.947	42038.15
642.301	41771.26
642.654	41994.31
643.007	41951.37
643.36	41836.57
643.713	41871.37
644.066	41977.58
644.419	41476.35
644.771	41520.65
645.124	41186.64
645.477	41134.89
645.83	40889.25
646.182	40761.12
646.535	40680.67
646.888	40743.94
647.24	40455.81
647.593	40893.54
647.945	40677.28
648.298	40590.95
648.65	40518.19
649.002	40500.56
649.355	40554.57
649.707	40476.83
650.059	40763.15
650.411	41170.82
650.763	41165.63
651.115	41485.39
651.467	41383.02
651.819	41315.23
652.171	41354.55
652.523	41256.92
652.875	41398.84
653.227	41207.89
653.578	41515
653.93	41286.98
654.282	41196.81
654.633	41118.85
654.985	41310.93
655.337	41173.76
655.688	41038.4
656.039	41258.28
656.391	41028
656.742	41120.88
657.094	40941.23
657.445	41221.44
657.796	41152.07
658.147	41073.2
658.498	41014.22
658.849	41290.82
659.2	41082.69
659.551	40908.91
659.902	41058.28
660.253	40969.47
660.604	41049.02
660.955	40903.26
661.306	40968.57
661.656	40814.22
662.007	40901.9
662.358	40867.56
662.708	40966.31
663.059	40885.86
663.409	40710.95
663.76	41052.86
664.11	40900.55
664.461	40961.56
664.811	40986.42
665.161	40932.86
665.511	40863.71
665.862	40859.19
666.212	40917.27
666.562	40838.86
666.912	40924.73
667.262	40596.15
667.612	40772.19
667.962	40895.13
668.312	40783.72
668.662	40886.76
669.011	40819.87
669.361	40743.72
669.711	40792.76
670.06	40618.97
670.41	40628.47
670.76	40639.31
671.109	40683.61
671.459	40626.66
671.808	40585.08
672.157	40677.73
672.507	40383.73
672.856	40568.81
673.205	40617.17
673.554	40599.54
673.904	40500.56
674.253	40761.12
674.602	40582.14
674.951	40047.69
675.3	39821.71
675.649	40419.66
675.998	40517.51
676.346	40443.61
676.695	40451.75
677.044	40146.22
677.393	40310.51
677.741	40313.9
678.09	40293.33
678.438	40175.6
678.787	40366.1
679.135	40236.39
679.484	39986
679.832	40127.46
680.181	39906.22
680.529	39954.81
680.877	39873.01
681.225	39905.32
681.573	40094.92
681.922	39869.62
682.27	39667.59
682.618	39869.39
682.966	39610.19
683.314	39802.72
683.661	39607.02
684.009	39363.19
684.357	39379.46
684.705	39367.93
685.053	39444.32
685.4	39273.25
685.748	39180.37
686.095	39088.17
686.443	39005.91
686.79	39022.41
687.138	38916.42
687.485	38997.1
687.832	38864.44
688.18	38973.59
688.527	38705.58
688.874	38725.46
689.221	38599.37
689.568	38591.91
689.915	38485.92
690.262	38425.36
690.609	38329.99
690.956	38203.44
691.303	38167.51
691.65	38026.5
691.997	38040.51
692.344	37816.11
692.69	37740.86
693.037	37854.53
693.383	37487.08
693.73	37725.72
694.077	37310.13
694.423	37381.09
694.769	37280.53
695.116	37269.46
695.462	37151.49
695.808	37099.97
696.155	37165.28
696.501	36889.35
696.847	36868.34
697.193	36589.25
697.539	36677.16
697.885	36535.69
698.231	36444.17
698.577	36457.5
698.923	36372.31
699.269	36122.82
699.614	36041.92
699.96	35952.88
700.306	35967.57
700.651	35867.01
700.997	35645.77
701.342	35646.9
701.688	35421.82
702.033	35451.65
702.379	35405.33
702.724	35353.35
703.069	35335.72
703.415	34916.07
703.76	34999.69
704.105	35019.35
704.45	34954.04
704.795	34757.43
705.14	34593.37
705.485	34583.65
705.83	34512.24
706.175	34521.73
706.52	34399.48
706.865	34237.45
707.209	34324.9
707.554	34193.15
707.899	34159.03
708.243	33980.73
708.588	33884.24
708.932	33740.96
709.277	33656.67
709.621	33793.84
709.966	33560.63
710.31	33688.54
710.654	33357.24
710.998	33447.64
711.342	33364.02
711.687	33357.02
712.031	33231.82
712.375	33069.12
712.719	33174.2
713.063	33125.84
713.407	33252.84
713.75	32873.19
714.094	32885.84
714.438	32791.61
714.782	32874.09
715.125	32630.48
715.469	32676.13
715.812	32456.93
716.156	32440.21
716.499	32389.36
716.843	32466.19
717.186	32190.04
717.53	32321.57
717.873	32449.7
718.216	32294
718.559	32036.83
718.902	31851.97
719.246	32030.73
719.589	31877.06
719.932	31787.12
720.275	31837.74
720.617	31701.24
720.96	31620.34
721.303	31729.94
721.646	31614.24
721.989	31441.81
722.331	31640.45
722.674	31479.1
723.016	31447.24
723.359	31413.11
723.701	31465.99
724.044	31190.52
724.386	31008.38
724.729	31222.16
725.071	31031.66
725.413	31100.58
725.755	31062.39
726.097	30842.28
726.439	30752.57
726.782	30771.55
727.124	30952.34
727.465	30758.89
727.807	30691.33
728.149	30639.35
728.491	30514.61
728.833	30673.02
729.175	30448.39
729.516	30449.07
729.858	30453.14
730.199	30407.94
730.541	30380.83
730.882	30256.08
731.224	30513.7
731.565	30185.12
731.906	30215.63
732.248	30125.69
732.589	30075.52
732.93	29888.18
733.271	29972.02
733.612	30033.26
733.953	29992.59
734.294	29873.49
734.635	29727.51
734.976	29827.62
735.317	29682.76
735.658	29707.62
735.999	29755.98
736.339	29572.49
736.68	29721.18
737.021	29647.74
737.361	29440.51
737.702	29467.18
738.042	29502.66
738.383	29217.01
738.723	29511.7
739.063	29383.79
739.404	29445.03
739.744	29198.71
740.084	29122.78
740.424	29169.33
740.764	29105.38
741.104	29222.66
741.444	28977.47
741.784	28984.25
742.124	28932.5
742.464	28991.94
742.804	28882.11
743.143	28877.14
743.483	28815.44
743.823	28677.37
744.162	28809.79
744.502	28614.32
744.841	28619.97
745.181	28618.16
745.52	28658.84
745.86	28614.77
746.199	28456.58
746.538	28553.53
746.877	28546.52
747.216	28353.53
747.556	28276.7
747.895	28308.11
748.234	28283.93
748.573	28060.43
748.911	28117.61
749.25	28036.93
749.589	28001.68
749.928	27957.39
750.267	28017.5
750.605	27869.48
750.944	27879.42
751.283	27831.29
751.621	27801.91
751.96	27746.32
752.298	27752.65
752.636	27741.8
752.975	27514.23
753.313	27504.29
753.651	27554.91
753.989	27415.03
754.327	27364.41
754.666	27231.98
755.004	27318.53
755.342	27271.98
755.679	27261.36
756.017	26972.33
756.355	27225.88
756.693	27019.78
757.031	27005.1
757.368	26821.37
757.706	26799.9
758.044	26668.15
758.381	26793.8
758.719	26620.47
759.056	26703.86
759.394	26499.57
759.731	26364.21
760.068	26353.36
760.405	26235.62
760.743	26139.36
761.08	26319.24
761.417	26105.01
761.754	26059.36
762.091	25946.37
762.428	25738.01
762.765	25711.34
763.102	25735.52
763.438	25650.1
763.775	25656.43
764.112	25637.22
764.449	25592.93
764.785	25487.85
765.122	25306.38
765.458	25212.83
765.795	25199.49
766.131	25088.31
766.467	24893.06
766.804	24972.15
767.14	24734.87
767.476	24794.31
767.812	24714.99
768.148	24764.02
768.485	24494.2
768.821	24326.3
769.157	24328.1
769.492	24303.25
769.828	24314.09
770.164	24048.79
770.5	24036.36
770.836	24002.91
771.171	23832.52
771.507	23809.02
771.842	23621
772.178	23665.52
772.513	23576.03
772.849	23486.09
773.184	23482.48
773.519	23457.84
773.855	23312.31
774.19	23227.57
774.525	23089.72
774.86	23108.02
775.195	22941.02
775.53	22922.72
775.865	22800.46
776.2	22775.6
776.535	22506.46
776.87	22509.17
777.205	22385.1
777.539	22339
777.874	22431.88
778.209	22078.9
778.543	22077.99
778.878	22025.34
779.212	22041.16
779.547	21838.9
779.881	21993.93
780.215	21746.25
780.55	21816.98
780.884	21513.94
781.218	21574.05
781.552	21567.95
781.886	21471.91
782.22	21349.2
782.554	21222.2
782.888	21057
783.222	20848.19
783.556	20951.92
783.889	20900.4
784.223	20680.06
784.557	20717.35
784.89	20657.47
785.224	20637.8
785.557	20420.64
785.891	20427.41
786.224	20374.08
786.558	20319.4
786.891	20151.94
787.224	20097.48
787.557	20038.27
787.891	19929.8
788.224	19969.35
788.557	19927.77
788.89	19899.75
789.223	19775.91
789.556	19612.52
789.888	19569.81
790.221	19545.86
790.554	19306.99
790.887	19387.22
791.219	19360.78
791.552	19211.4
791.884	19233.1
792.217	19109.03
792.549	18978.41
792.882	18927.79
793.214	18840.79
793.546	18848.7
793.879	18610.74
794.211	18617.74
794.543	18706.1
794.875	18637.41
795.207	18623.17
795.539	18455.49
795.871	18524.64
796.203	18375.94
796.535	18340.92
796.867	18313.12
797.198	18202.16
797.53	18203.52
797.862	18192.22
798.193	18112.22
798.525	17933.02
798.856	18060.92
799.188	17833.36
799.519	17752.91
799.85	17655.51
800.182	17657.77
800.513	17693.48
800.844	17557.66
801.175	17650.99
801.506	17499.13
801.837	17472.92
802.168	17497.55
802.499	17458.23
802.83	17303.43
803.161	17236.09
803.491	17180.72
803.822	17216.65
804.153	17108.41
804.483	16973.95
804.814	16891.46
805.145	16956.32
805.475	16832.71
805.805	16832.48
806.136	16722.65
806.466	16755.42
806.796	16715.87
807.126	16578.25
807.457	16489.89
807.787	16520.17
808.117	16418.48
808.447	16378.48
808.777	16515.43
809.107	16309.56
809.436	16236.79
809.766	16315.43
810.096	16161.54
810.426	16089.45
810.755	16125.83
811.085	16058.94
811.414	16099.39
811.744	15830.47
812.073	15971.94
812.403	15861.66
812.732	15792.96
813.061	15867.53
813.39	15701.44
813.719	15604.26
814.049	15786.41
814.378	15703.47
814.707	15539.41
815.036	15516.13
815.365	15542.12
815.693	15326.08
816.022	15395.68
816.351	15357.94
816.68	15256.03
817.008	15324.72
817.337	15088.8
817.665	15099.87
817.994	15204.05
818.322	15179.87
818.651	15045.64
818.979	15150.72
819.307	15038.63
819.636	15085.86
819.964	14861.23
820.292	14989.14
820.62	14972.19
820.948	14938.29
821.276	14930.61
821.604	14895.81
821.932	14960.44
822.259	14883.83
822.587	14862.59
822.915	14853.1
823.243	14925.64
823.57	14918.86
823.898	14825.98
824.225	14788.02
824.553	14800.44
824.88	14809.48
825.207	14889.71
825.535	14861.01
825.862	14853.1
826.189	14709.37
826.516	14844.28
826.843	14829.14
827.17	14826.21
827.497	14888.58
827.824	14824.4
828.151	14845.64
828.478	14787.79
828.805	14921.34
829.131	14802.03
829.458	14766.09
829.785	14720.45
830.111	14783.27
830.438	14804.06
830.764	14806.32
831.09	14678.19
831.417	14687
831.743	14796.15
832.069	14800.44
832.395	14710.73
832.722	14765.87
833.048	14647.68
833.374	14741.91
833.7	14618.98
834.026	14607.23
834.351	14640
834.677	14627.12
835.003	14564.97
835.329	14660.56
835.654	14637.96
835.98	14552.77
836.306	14508.47
836.631	14504.18
836.956	14519.32
837.282	14517.51
837.607	14438.65
837.932	14427.8
838.258	14371.98
838.583	14363.17
838.908	14292.43
839.233	14309.61
839.558	14229.61
839.883	14185.55
840.208	14089.28
840.533	14107.36
840.858	14158.88
841.182	14165.88
841.507	14213.79
841.832	14095.6
842.156	14052.44
842.481	14103.97
842.805	14019.22
843.13	14007.02
843.454	13941.26
843.778	13789.17
844.103	13857.42
844.427	13816.74
844.751	13842.5
845.075	13848.15
845.399	13785.1
845.723	13690.19
846.047	13672.34
846.371	13607.03
846.695	13538.1
847.019	13381.27
847.343	13414.27
847.666	13360.93
847.99	13352.12
848.313	13275.51
848.637	13166.59
848.96	13145.12
849.284	13175.85
849.607	12971.57
849.931	13080.49
850.254	12972.7
850.577	12940.38
850.9	12796.66
851.223	12819.25
851.546	12758.01
851.869	12694.51
852.192	12689.77
852.515	12639.82
852.838	12562.99
853.161	12495.65
853.483	12510.56
853.806	12429.43
854.129	12348.31
854.451	12288.42
854.774	12243
855.096	12273.5
855.419	12221.3
855.741	12215.43
856.063	12087.07
856.385	12080.97
856.708	12029.44
857.03	12037.8
857.352	11949.45
857.674	11916.23
857.996	11850.24
858.318	11857.7
858.64	11826.06
858.961	11798.26
859.283	11707.19
859.605	11655.22
859.926	11725.95
860.248	11657.02
860.57	11623.8
860.891	11686.4
861.212	11549.68
861.534	11565.73
861.855	11525.95
862.176	11494.32
862.498	11492.96
862.819	11533.86
863.14	11413.87
863.461	11407.09
863.782	11375.9
864.103	11396.01
864.424	11339.97
864.745	11360.53
865.065	11304.26
865.386	11197.6
865.707	11233.98
866.027	11208.9
866.348	11242.35
866.668	11172.74
866.989	11117.6
867.309	11095.91
867.63	11091.62
867.95	11141.78
868.27	11069.02
868.59	11036.02
868.91	11036.7
869.23	10965.52
869.55	10928.23
869.87	10987.21
870.19	10946.76
870.51	10930.49
870.83	10963.71
871.15	10883.71
871.469	10816.37
871.789	10855.46
872.109	10831.06
872.428	10851.85
872.748	10860.43
873.067	10872.19
873.386	10859.08
873.706	10840.77
874.025	10742.02
874.344	10744.28
874.663	10727.78
874.982	10700.21
875.301	10705.18
875.62	10680.1
875.939	10645.98
876.258	10602.81
876.577	10623.83
876.896	10666.77
877.214	10589.03
877.533	10547.67
877.852	10551.74
878.17	10568.24
878.489	10631.97
878.807	10567.34
879.125	10464.29
879.444	10499.09
879.762	10416.6
880.08	10464.51
880.398	10372.31
880.716	10324.18
881.034	10406.21
881.352	10326.21
881.67	10380.45
881.988	10303.84
882.306	10314.23
882.624	10302.94
882.941	10226.33
883.259	10237.85
883.577	10168.7
883.894	10145.88
884.212	10083.73
884.529	10109.95
884.846	10080.12
885.164	10080.34
885.481	10041.25
885.798	10067.46
886.115	9948.82
886.432	10009.84
886.75	9925.09
887.067	9958.54
887.383	9911.99
887.7	9895.71
888.017	9818.2
888.334	9787.92
888.651	9725.32
888.967	9801.71
889.284	9789.95
889.6	9662.95
889.917	9653.46
890.233	9687.58
890.55	9715.61
890.866	9641.94
891.182	9643.29
891.498	9598.55
891.815	9552.67
892.131	9466.8
892.447	9453.01
892.763	9415.95
893.079	9355.84
893.395	9385.9
893.71	9354.03
894.026	9306.35
894.342	9375.95
894.657	9250.99
894.973	9273.36
895.289	9212.79
895.604	9266.8
895.92	9121.05
896.235	9130.08
896.55	9058.9
896.865	9040.37
897.181	9029.75
897.496	9115.17
897.811	8991.33
898.126	8989.75
898.441	8937.32
898.756	8948.85
899.071	8806.03
899.386	8907.49
899.7	8805.12
900.015	8804.67
900.33	8690.77
900.644	8655.3
900.959	8702.07
901.273	8647.16
901.588	8678.8
901.902	8589.76
902.216	8568.07
902.531	8550.89
902.845	8508.41
903.159	8414.85
903.473	8418.01
903.787	8439.48
904.101	8276.55
904.415	8325.13
904.729	8269.09
905.042	8262.76
905.356	8272.25
905.67	8278.81
905.984	8187.74
906.297	8212.37
906.611	8077.23
906.924	8095.31
907.237	8085.14
907.551	8015.99
907.864	7961.53
908.177	7961.3
908.491	7984.58
908.804	7895.77
909.117	7864.81
909.43	7844.02
909.743	7775.77
910.056	7815.09
910.368	7742.78
910.681	7739.39
910.994	7673.17
911.307	7663
911.619	7543.46
911.932	7596.57
912.244	7541.2
912.557	7549.56
912.869	7426.85
913.181	7482.22
913.494	7460.75
913.806	7348.89
914.118	7391.37
914.43	7309.12
914.742	7315.22
915.054	7324.71
915.366	7280.19
915.678	7228.67
915.99	7192.96
916.302	7106.41
916.613	7185.28
916.925	7112.74
917.236	7088.78
917.548	6962.91
917.859	7059.86
918.171	6985.96
918.482	6941.67
918.794	6885.62
919.105	6884.27
919.416	6845.4
919.727	6790.71
920.038	6793.42
920.349	6770.82
920.66	6727.44
920.971	6724.5
921.282	6723.37
921.593	6687.21
921.903	6574.67
922.214	6579.42
922.525	6604.5
922.835	6567.44
923.146	6484.73
923.456	6487.22
923.767	6501.91
924.077	6466.43
924.387	6385.07
924.697	6369.25
925.008	6368.58
925.318	6305.07
925.628	6304.85
925.938	6287
926.248	6256.71
926.558	6237.28
926.867	6205.64
927.177	6211.97
927.487	6122.03
927.796	6094.68
928.106	6094.01
928.416	6072.76
928.725	6077.96
929.034	6031.86
929.344	6010.39
929.653	6019.88
929.962	5966.33
930.271	5923.39
930.581	5925.42
930.89	5846.1
931.199	5763.62
931.508	5854.24
931.817	5816.27
932.125	5854.46
932.434	5753.45
932.743	5710.97
933.051	5682.27
933.36	5660.8
933.669	5639.78
933.977	5669.16
934.286	5588.26
934.594	5574.02
934.902	5561.59
935.21	5505.1
935.519	5545.32
935.827	5522.95
936.135	5411.09
936.443	5390.07
936.751	5399.34
937.059	5400.01
937.367	5384.87
937.674	5364.53
937.982	5347.13
938.29	5313.24
938.597	5287.25
938.905	5229.85
939.213	5192.79
939.52	5175.61
939.827	5213.58
940.135	5176.06
940.442	5148.27
940.749	5097.87
941.056	5096.74
941.363	5056.07
941.67	5051.32
941.977	5007.93
942.284	5003.19
942.591	4992.34
942.898	4986.69
943.205	4974.26
943.511	4910.08
943.818	4942.17
944.125	4857.2
944.431	4867.37
944.738	4853.36
945.044	4830.99
945.35	4819.46
945.657	4770.43
945.963	4791.67
946.269	4687.04
946.575	4705.57
946.881	4693.37
947.187	4685.46
947.493	4650.88
947.799	4640.71
948.105	4613.82
948.41	4558.23
948.716	4579.7
949.022	4562.3
949.327	4568.85
949.633	4473.71
949.938	4468.29
950.244	4485.91
950.549	4449.98
950.854	4423.99
951.16	4424.22
951.465	4378.57
951.77	4356.65
952.075	4335.41
952.38	4368.63
952.685	4326.82
952.99	4329.99
953.294	4271.91
953.599	4257.9
953.904	4229.87
954.209	4171.35
954.513	4184.68
954.818	4196.88
955.122	4181.74
955.426	4149.2
955.731	4131.12
956.035	4139.93
956.339	4087.96
956.643	4087.28
956.948	4071.69
957.252	4011.58
957.556	4029.88
957.86	4053.16
958.163	4006.38
958.467	3966.15
958.771	3986.27
959.075	3955.31
959.378	3962.09
959.682	3949.88
959.985	3920.05
960.289	3835.31
960.592	3881.86
960.896	3860.17
961.199	3807.96
961.502	3787.63
961.805	3789.43
962.108	3787.85
962.411	3774.29
962.714	3739.49
963.017	3717.8
963.32	3744.24
963.623	3673.28
963.926	3693.62
964.228	3718.93
964.531	3656.56
964.833	3648.65
965.136	3608.65
965.438	3617.24
965.741	3570.23
966.043	3585.15
966.345	3537.01
966.648	3502.44
966.95	3519.38
967.252	3479.61
967.554	3520.74
967.856	3508.54
968.158	3422.66
968.46	3419.05
968.761	3437.58
969.063	3422.21
969.365	3463.34
969.666	3408.88
969.968	3366.17
970.269	3361.2
970.571	3342.67
970.872	3327.98
971.174	3319.84
971.475	3293.85
971.776	3301.76
972.077	3235.32
972.378	3254.99
972.679	3263.8
972.98	3301.09
973.281	3220.41
973.582	3193.07
973.883	3210.01
974.183	3149.23
974.484	3135.44
974.785	3115.55
975.085	3122.79
975.386	3091.6
975.686	3123.24
975.986	3084.82
976.287	3122.56
976.587	3079.85
976.887	3049.11
977.187	3062
977.487	3032.62
977.787	3001.88
978.087	3008.44
978.387	2977.7
978.687	3033.75
978.987	2960.08
979.286	2937.03
979.586	2944.03
979.885	2936.35
980.185	2894.77
980.484	2903.36
980.784	2906.07
981.083	2832.85
981.382	2860.19
981.682	2845.96
981.981	2853.87
982.28	2816.35
982.579	2869.68
982.878	2800.76
983.177	2748.11
983.475	2783.36
983.774	2796.92
984.073	2756.02
984.372	2747.88
984.67	2714.89
984.969	2699.97
985.267	2704.49
985.566	2659.52
985.864	2640.54
986.162	2649.35
986.461	2653.42
986.759	2627.66
987.057	2592.63
987.355	2632.4
987.653	2598.05
987.951	2558.96
988.249	2551.5
988.547	2558.05
988.844	2540.2
989.142	2542.69
989.44	2511.95
989.737	2500.43
990.035	2528.9
990.332	2480.32
990.63	2455.46
990.927	2511.05
991.224	2484.38
991.521	2454.78
991.819	2462.46
992.116	2446.87
992.413	2399.87
992.71	2380.66
993.006	2403.03
993.303	2360.55
993.6	2412.07
993.897	2378.62
994.193	2358.29
994.49	2371.39
994.787	2345.4
995.083	2335.24
995.379	2297.27
995.676	2281
995.972	2272.64
996.268	2285.74
996.565	2255.69
996.861	2229.7
997.157	2264.73
997.453	2238.06
997.749	2247.33
998.044	2192.87
998.34	2209.59
998.636	2187.22
998.932	2163.49
999.227	2155.58
999.523	2127.11
999.818	2158.29
1000.114	2114.22
1000.409	2097.73
1000.704	2095.02
1001	2074.23
1001.295	2065.86
1001.59	2080.55
1001.885	2076.94
1002.18	2042.36
1002.475	2058.18
1002.77	2025.64
1003.065	2018.63
1003.359	1985.64
1003.654	1961.91
1003.949	1977.05
1004.243	1982.93
1004.538	1951.74
1004.832	1935.02
1005.127	1928.24
1005.421	1927.79
1005.715	1929.82
1006.009	1873.55
1006.304	1918.52
1006.598	1915.36
1006.892	1901.12
1007.186	1860.9
1007.48	1894.12
1007.773	1832.65
1008.067	1848.24
1008.361	1834.23
1008.655	1814.34
1008.948	1810.05
1009.242	1797.85
1009.535	1794.68
1009.829	1795.14
1010.122	1754.69
1010.415	1742.03
1010.708	1744.29
1011.001	1746.78
1011.295	1719.43
1011.588	1738.41
1011.881	1699.09
1012.173	1708.36
1012.466	1704.97
1012.759	1667.23
1013.052	1684.18
1013.344	1661.13
1013.637	1634.24
1013.93	1668.36
1014.222	1622.03
1014.514	1650.28
1014.807	1604.41
1015.099	1612.54
1015.391	1626.1
1015.683	1566.89
1015.976	1555.14
1016.268	1606.44
1016.56	1533
1016.851	1528.02
1017.143	1546.56
1017.435	1543.84
1017.727	1520.57
1018.018	1506.56
1018.31	1523.05
1018.602	1519.44
1018.893	1474.92
1019.185	1470.17
1019.476	1461.59
1019.767	1469.95
1020.058	1427.01
1020.35	1427.01
1020.641	1445.32
1020.932	1421.36
1021.223	1393.79
1021.514	1403.96
1021.804	1382.49
1022.095	1381.81
1022.386	1357.86
1022.677	1358.09
1022.967	1358.76
1023.258	1351.98
1023.548	1318.76
1023.839	1323.06
1024.129	1333.68
1024.419	1333.68
1024.709	1303.17
1025	1294.36
1025.29	1271.53
1025.58	1257.07
1025.87	1272.44
1026.16	1262.04
1026.449	1283.96
1026.739	1267.69
1027.029	1255.04
1027.319	1213.91
1027.608	1198.09
1027.898	1206.68
1028.187	1213.23
1028.477	1220.24
1028.766	1203.74
1029.055	1218.2
1029.344	1164.42
1029.634	1173.91
1029.923	1184.31
1030.212	1144.98
1030.501	1148.37
1030.79	1111.09
1031.078	1108.37
1031.367	1121.03
1031.656	1102.27
1031.945	1111.09
1032.233	1112.22
1032.522	1083.06
1032.81	1080.58
1033.099	1077.42
1033.387	1065.21
1033.675	1064.53
1033.963	1069.51
1034.251	1052.78
1034.54	1041.71
1034.828	1052.78
1035.116	1033.12
1035.403	1020.24
1035.691	1033.12
1035.979	1017.08
1036.267	1007.13
1036.554	985.44
1036.842	1023.18
1037.129	998.55
1037.417	986.8
1037.704	973.46
1037.992	952.67
1038.279	945.22
1038.566	954.48
1038.853	954.48
1039.14	954.48
