Data from hue_30_FLMS001491_75.txt Node
Date: Mon Feb 06 15:05:56 GMT 2017
User: dcchb
Spectrometer: FLMS00149
Trigger mode: 0
Integration Time (sec): 2.000000E-2
Scans to average: 10
Electric dark correction enabled: true
Nonlinearity correction enabled: false
Boxcar width: 0
XAxis mode: Wavelengths
Number of Pixels in Spectrum: 2048
>>>>>Begin Spectral Data<<<<<
341.393	-17.53
341.776	-17.53
342.16	-17.53
342.543	-71.54
342.927	-75.15
343.31	-68.83
343.693	-102.5
344.077	-55.04
344.46	-50.75
344.843	-57.98
345.226	-42.39
345.61	-34.93
345.993	-29.05
346.376	-2.84
346.759	10.95
347.142	24.51
347.525	52.07
347.908	51.4
348.291	81
348.674	101.57
349.057	122.81
349.44	106.99
349.823	143.82
350.206	148.12
350.588	182.92
350.971	195.57
351.354	230.83
351.737	235.8
352.119	272.86
352.502	278.28
352.884	293.42
353.267	280.09
353.65	306.53
354.032	305.18
354.414	299.3
354.797	306.31
355.179	323.93
355.562	322.12
355.944	325.74
356.326	322.12
356.709	321.9
357.091	356.93
357.473	338.62
357.855	337.04
358.238	355.57
358.62	342.24
359.002	339.07
359.384	338.85
359.766	365.29
360.148	351.28
360.53	331.84
360.912	362.58
361.294	334.78
361.676	338.62
362.057	312.63
362.439	333.65
362.821	330.26
363.203	339.3
363.584	355.57
363.966	330.26
364.348	329.58
364.729	328.68
365.111	314.89
365.493	323.25
365.874	312.18
366.256	298.62
366.637	302.92
367.019	317.38
367.4	318.06
367.781	316.93
368.163	319.19
368.544	341.33
368.925	313.99
369.306	315.12
369.688	319.41
370.069	330.94
370.45	309.02
370.831	310.83
371.212	312.63
371.593	321.45
371.974	336.14
372.355	323.71
372.736	320.32
373.117	317.6
373.498	319.19
373.879	336.36
374.26	328.9
374.641	316.93
375.021	310.6
375.402	339.3
375.783	316.02
376.163	355.8
376.544	335.91
376.925	318.96
377.305	319.86
377.686	321.9
378.066	324.38
378.447	332.52
378.827	342.91
379.208	331.39
379.588	337.49
379.968	339.3
380.349	344.95
380.729	330.26
381.109	353.31
381.489	352.18
381.87	344.95
382.25	335.23
382.63	337.72
383.01	355.8
383.39	361.22
383.77	363.48
384.15	333.65
384.53	326.42
384.91	356.02
385.29	360.54
385.67	350.15
386.049	352.63
386.429	355.34
386.809	362.12
387.189	369.58
387.568	363.71
387.948	344.95
388.328	355.8
388.707	371.61
389.087	376.13
389.466	363.48
389.846	372.07
390.225	351.05
390.605	367.55
390.984	365.74
391.363	370.26
391.743	378.17
392.122	363.03
392.501	358.51
392.881	388.34
393.26	370.94
393.639	386.3
394.018	370.03
394.397	372.74
394.776	375.91
395.155	390.37
395.534	397.15
395.913	375.91
396.292	391.95
396.671	390.37
397.05	399.41
397.429	393.31
397.808	371.16
398.186	391.95
398.565	393.08
398.944	394.66
399.323	391.05
399.701	392.18
400.08	405.74
400.458	396.02
400.837	397.38
401.215	390.82
401.594	401.22
401.972	406.19
402.351	414.78
402.729	427.21
403.107	439.41
403.486	429.92
403.864	394.21
404.242	417.72
404.62	406.64
404.999	410.03
405.377	425.85
405.755	453.42
406.133	435.57
406.511	429.24
406.889	422.01
407.267	421.78
407.645	435.34
408.023	431.27
408.401	435.12
408.779	428.56
409.156	426.98
409.534	445.74
409.912	449.58
410.29	441.9
410.667	466.98
411.045	465.4
411.422	463.59
411.8	459.97
412.178	469.69
412.555	480.09
412.933	491.16
413.31	472.4
413.687	475.11
414.065	485.74
414.442	491.61
414.819	489.35
415.197	506.07
415.574	507.88
415.951	499.29
416.328	496.58
416.705	509.69
417.082	500.88
417.46	498.39
417.837	506.98
418.214	513.31
418.591	528.9
418.967	532.06
419.344	531.16
419.721	518.05
420.098	506.98
420.475	556.24
420.852	551.27
421.228	535.68
421.605	560.54
421.982	546.53
422.358	553.3
422.735	541.33
423.111	534.1
423.488	557.37
423.864	561.89
424.241	547.43
424.617	568.22
424.994	568.67
425.37	556.69
425.746	559.63
426.123	588.11
426.499	562.57
426.875	599.18
427.251	599.63
427.627	604.15
428.003	575
428.379	614.55
428.756	595.56
429.132	636.24
429.507	621.33
429.883	625.39
430.259	630.36
430.635	625.17
431.011	647.99
431.387	632.62
431.763	645.05
432.138	655.22
432.514	647.09
432.89	655
433.265	644.15
433.641	656.58
434.016	674.88
434.392	702
434.767	697.03
435.143	695.9
435.518	704.49
435.894	708.78
436.269	718.5
436.644	723.7
437.02	717.82
437.395	729.35
437.77	724.15
438.145	732.28
438.52	754.43
438.895	768.21
439.271	776.12
439.646	790.13
440.021	765.28
440.395	773.86
440.77	774.32
441.145	789.23
441.52	793.98
441.895	779.29
442.27	776.12
442.645	785.16
443.019	785.39
443.394	793.52
443.769	793.07
444.143	797.37
444.518	824.94
444.892	815.67
445.267	819.51
445.641	823.13
446.016	824.03
446.39	847.99
446.764	839.17
447.139	838.72
447.513	838.04
447.887	857.93
448.262	861.77
448.636	871.04
449.01	857.03
449.384	866.52
449.758	890.24
450.132	890.02
450.506	899.51
450.88	890.24
451.254	899.28
451.628	921.88
452.002	937.7
452.376	920.98
452.75	946.74
453.123	936.57
453.497	942.45
453.871	960.53
454.244	962.11
454.618	951.94
454.992	996.46
455.365	972.5
455.739	1009.79
456.112	1017.25
456.486	1007.08
456.859	1041.43
457.232	1027.87
457.606	1032.16
457.979	1052.05
458.352	1084.36
458.725	1063.57
459.099	1090.24
459.472	1106.28
459.845	1079.17
460.218	1117.36
460.591	1124.59
460.964	1143.12
461.337	1163.68
461.71	1179.05
462.083	1193.97
462.456	1175.89
462.829	1181.99
463.201	1210.24
463.574	1228.09
463.947	1241.2
464.32	1264.25
464.692	1282.1
465.065	1285.04
465.438	1307.86
465.81	1310.12
466.183	1337.69
466.555	1349.22
466.928	1356.67
467.3	1374.3
467.672	1374.3
468.045	1403.68
468.417	1440.96
468.789	1447.07
469.161	1470.12
469.534	1480.96
469.906	1540.17
470.278	1555.09
470.65	1528.19
471.022	1562.32
471.394	1595.54
471.766	1635.99
472.138	1636.21
472.51	1640.96
472.882	1686.61
473.253	1689.55
473.625	1746.72
473.997	1791.69
474.369	1786.94
474.74	1819.94
475.112	1858.13
475.484	1879.37
475.855	1909.43
476.227	1936.32
476.598	2026.94
476.97	2009.09
477.341	2042.53
477.713	2118.69
478.084	2148.29
478.455	2215.63
478.827	2218.12
479.198	2304.67
479.569	2286.82
479.94	2385.35
480.311	2388.06
480.682	2447.27
481.053	2536.53
481.424	2604.32
481.795	2626.47
482.166	2673.7
482.537	2744.21
482.908	2783.3
483.279	2847.48
483.65	2876.18
484.021	2979.46
484.391	3015.61
484.762	3060.58
485.133	3147.36
485.503	3133.12
485.874	3232.56
486.244	3277.75
486.615	3350.52
486.985	3429.16
487.356	3515.49
487.726	3564.52
488.097	3643.39
488.467	3649.49
488.837	3741.02
489.207	3780.11
489.578	3856.04
489.948	3893.1
490.318	4029.15
490.688	4065.75
491.058	4114.34
491.428	4199.08
491.798	4221
492.168	4345.75
492.538	4402.24
492.908	4462.81
493.278	4498.29
493.648	4553.2
494.017	4649.24
494.387	4686.76
494.757	4771.5
495.126	4856.02
495.496	4889.91
495.866	4874.32
496.235	4959.52
496.605	5018.95
496.974	5054.2
497.344	5114.31
497.713	5177.36
498.082	5264.82
498.452	5256.46
498.821	5348.21
499.19	5388.21
499.559	5477.92
499.928	5469.11
500.298	5482.89
500.667	5541.87
501.036	5584.58
501.405	5601.08
501.774	5712.04
502.143	5738.93
502.512	5750.46
502.88	5861.64
503.249	5809.89
503.618	5862.32
503.987	5947.29
504.356	5977.79
504.724	6058.02
505.093	6047.85
505.462	6036.32
505.83	6134.85
506.199	6184.8
506.567	6284
506.936	6236.32
507.304	6302.31
507.672	6355.64
508.041	6328.29
508.409	6416.43
508.777	6456.2
509.145	6547.95
509.514	6502.3
509.882	6563.32
510.25	6606.25
510.618	6735.06
510.986	6643.09
511.354	6692.35
511.722	6755.85
512.09	6872.91
512.458	6844.89
512.826	6864.1
513.193	6908.62
513.561	6953.81
513.929	7019.12
514.297	7034.94
514.664	7068.84
515.032	7132.79
515.4	7156.97
515.767	7118.33
516.135	7187.03
516.502	7210.53
516.869	7257.08
517.237	7259.12
517.604	7288.04
517.972	7377.98
518.339	7389.74
518.706	7377.98
519.073	7365.55
519.44	7387.7
519.808	7523.52
520.175	7521.48
520.542	7615.49
520.909	7649.39
521.276	7618.88
521.643	7697.52
522.009	7758.99
522.376	7784.98
522.743	7807.13
523.11	7830.63
523.477	7942.04
523.843	8019.55
524.21	8060.9
524.577	8116.27
524.943	8123.28
525.31	8152.43
525.676	8273.1
526.043	8271.29
526.409	8334.34
526.776	8381.35
527.142	8412.31
527.508	8435.36
527.874	8480.78
528.241	8546.77
528.607	8559.87
528.973	8644.17
529.339	8631.96
529.705	8758.06
530.071	8778.85
530.437	8777.5
530.803	8833.54
531.169	8932.97
531.535	8921.67
531.901	8965.29
532.267	8983.59
532.632	9056.81
532.998	9097.94
533.364	9135.45
533.73	9133.42
534.095	9200.08
534.461	9215.45
534.826	9332.96
535.192	9284.37
535.557	9401.66
535.923	9349.91
536.288	9422
536.653	9454.54
537.019	9452.28
537.384	9548.55
537.749	9563.01
538.114	9673.06
538.479	9666.74
538.845	9694.31
539.21	9659.51
539.575	9666.29
539.94	9769.11
540.305	9829.44
540.67	9818.6
541.034	9879.39
541.399	9951.48
541.764	9980.18
542.129	10012.49
542.494	10033.73
542.858	10070.12
543.223	10094.07
543.587	10234.41
543.952	10225.14
544.316	10256.78
544.681	10257.46
545.045	10331.35
545.41	10380.84
545.774	10390.33
546.138	10438.92
546.503	10414.97
546.867	10538.8
547.231	10600.05
547.595	10630.78
547.959	10590.78
548.324	10730.21
548.688	10680.5
549.052	10713.49
549.416	10766.37
549.779	10749.42
550.143	10867.84
550.507	10927.27
550.871	10834.62
551.235	10950.09
551.599	11017.66
551.962	11025.35
552.326	11052.01
552.689	11188.05
553.053	11054.72
553.417	11084.78
553.78	11240.93
554.143	11195.74
554.507	11248.39
554.87	11261.95
555.234	11474.37
555.597	11309.86
555.96	11428.95
556.323	11422.62
556.686	11460.59
557.05	11487.48
557.413	11567.25
557.776	11633.47
558.139	11692.67
558.502	11727.7
558.865	11702.16
559.228	11751.65
559.59	11889.05
559.953	11881.37
560.316	11942.61
560.679	12004.75
561.041	12088.82
561.404	12073.68
561.767	12132.21
562.129	12068.93
562.492	12218.08
562.854	12205.65
563.217	12230.96
563.579	12218.53
563.941	12288.36
564.304	12407.23
564.666	12424.86
565.028	12402.26
565.39	12444.07
565.753	12549.15
566.115	12567.9
566.477	12608.58
566.839	12665.53
567.201	12792.3
567.563	12803.38
567.925	12839.31
568.287	12820.33
568.648	12919.53
569.01	12882.47
569.372	13024.39
569.734	12974.22
570.095	13079.53
570.457	13213.54
570.819	13292.18
571.18	13258.73
571.542	13394.1
571.903	13413.98
572.265	13423.47
572.626	13477.48
572.987	13550.93
573.349	13616.69
573.71	13705.95
574.071	13776.23
574.432	13817.14
574.794	14050.12
575.155	14010.35
575.516	14038.15
575.877	14170.8
576.238	14235.66
576.599	14344.58
576.96	14422.54
577.32	14505.25
577.681	14592.71
578.042	14756.77
578.403	14778.24
578.763	14930.55
579.124	15016.43
579.485	15125.35
579.845	15341.84
580.206	15462.97
580.566	15602.63
580.927	15662.96
581.287	15993.12
581.648	16112.44
582.008	16217.75
582.368	16320.35
582.728	16512.89
583.089	16741.35
583.449	16876.04
583.809	17179.31
584.169	17307.89
584.529	17413.88
584.889	17760.54
585.249	17932.96
585.609	18076.91
585.969	18334.31
586.329	18539.72
586.688	18745.59
587.048	18998.24
587.408	19226.71
587.768	19408.4
588.127	19793.02
588.487	19998.67
588.846	20385.33
589.206	20345.78
589.565	20735.37
589.925	21022.6
590.284	21293.55
590.643	21543.49
591.003	21787.77
591.362	22129.46
591.721	22372.62
592.08	22634.31
592.44	23016.44
592.799	23268.19
593.158	23512.25
593.517	23880.15
593.876	24213.93
594.235	24354.94
594.593	24612.56
594.952	24994.7
595.311	25262.26
595.67	25535.02
596.029	25995.12
596.387	26263.82
596.746	26638.72
597.104	26748.32
597.463	26971.59
597.822	27469.66
598.18	27588.53
598.538	27863.77
598.897	28246.14
599.255	28367.94
599.613	28926.12
599.972	28978.77
600.33	29449.04
600.688	29394.81
601.046	29915.47
601.404	30275.01
601.762	30379.19
602.12	30700.99
602.478	31041.32
602.836	31264.59
603.194	31394.3
603.552	31752.03
603.91	31841.3
604.268	32175.07
604.625	32290.32
604.983	32772.8
605.341	32703.87
605.698	33135.27
606.056	33396.73
606.413	33526
606.771	33824.75
607.128	34044.18
607.485	34175.7
607.843	34263.6
608.2	34711.05
608.557	35006.64
608.914	35017.71
609.272	35412.28
609.629	35647.07
609.986	35825.6
610.343	35948.76
610.7	36344.91
611.057	36407.28
611.414	36519.14
611.771	36600.72
612.127	36901.05
612.484	37052.68
612.841	37306.24
613.198	37278.21
613.554	37449.74
613.911	37786.45
614.267	37841.36
614.624	38046.78
614.98	38221.69
615.337	38537.62
615.693	38420.33
616.05	38578.29
616.406	38911.39
616.762	38934.44
617.118	38994.55
617.475	39063.93
617.831	39267.99
618.187	39466.18
618.543	39648.77
618.899	39920.86
619.255	39992.72
619.611	39951.14
619.967	40116.33
620.323	40316.1
620.678	40411.24
621.034	40377.57
621.39	40395.19
621.746	40603.1
622.101	40957.21
622.457	40732.59
622.812	40946.82
623.168	41128.73
623.523	41099.36
623.879	41230.65
624.234	41128.06
624.589	41256.19
624.945	41344.55
625.3	41430.65
625.655	41519.01
626.01	41612.79
626.365	41583.19
626.72	41760.13
627.075	41669.51
627.43	41704.31
627.785	41644.43
628.14	41728.95
628.495	41767.59
628.85	41892.33
629.205	41904.99
629.559	42118.54
629.914	41947.24
630.269	42058.43
630.623	41914.25
630.978	41814.82
631.332	42022.27
631.687	42160.35
632.041	42048.03
632.396	42232.21
632.75	42110.18
633.104	42116.73
633.459	41977.53
633.813	42034.02
634.167	42052.55
634.521	41957.19
634.875	42156.05
635.229	42073.57
635.583	41954.25
635.937	41952.67
636.291	41980.01
636.645	42011.42
636.999	42009.62
637.352	42057.07
637.706	41900.24
638.06	42000.58
638.413	41873.8
638.767	41919
639.121	41977.75
639.474	41614.15
639.828	41799.23
640.181	41781.37
640.534	41919
640.888	41739.11
641.241	41653.47
641.594	41760.13
641.947	42009.84
642.301	41812.78
642.654	41703.86
643.007	41751.09
643.36	41751.54
643.713	41581.38
644.066	41750.41
644.419	41503.41
644.771	41249.18
645.124	40872.02
645.477	40978.91
645.83	40670.22
646.182	40458.92
646.535	40462.54
646.888	40593.61
647.24	40247.4
647.593	40472.26
647.945	40537.56
648.298	40201.75
648.65	40181.19
649.002	40267.97
649.355	40360.39
649.707	40242.2
650.059	40496.89
650.411	40939.81
650.763	40815.07
651.115	41356.07
651.467	41167.38
651.819	41091.22
652.171	41166.47
652.523	41060.71
652.875	41083.99
653.227	40848.52
653.578	41185.91
653.93	41034.05
654.282	40958.8
654.633	40812.81
654.985	40742.08
655.337	40947.04
655.688	40762.42
656.039	41039.47
656.391	40647.62
656.742	40767.16
657.094	40769.2
657.445	40780.95
657.796	40782.53
658.147	40769.2
658.498	40730.1
658.849	40820.27
659.2	40688.52
659.551	40698.24
659.902	40812.81
660.253	40729.88
660.604	40697.33
660.955	40728.29
661.306	40775.98
661.656	40720.61
662.007	40651.69
662.358	40711.57
662.708	40714.51
663.059	40725.36
663.409	40492.82
663.76	40757.45
664.11	40532.14
664.461	40748.63
664.811	40558.58
665.161	40544.57
665.511	40557.22
665.862	40608.3
666.212	40705.7
666.562	40765.81
666.912	40552.93
667.262	40493.27
667.612	40452.59
667.962	40477.45
668.312	40604.23
668.662	40733.04
669.011	40420.73
669.361	40450.33
669.711	40377.57
670.06	40428.64
670.41	40311.13
670.76	40312.26
671.109	40429.77
671.459	40354.29
671.808	40274.52
672.157	40317.68
672.507	40092.6
672.856	40147.52
673.205	40183.22
673.554	40413.95
673.904	40180.96
674.253	40337.8
674.602	40257.35
674.951	39734.2
675.3	39550.25
675.649	40206.5
675.998	40084.24
676.346	40120.85
676.695	40255.09
677.044	39967.64
677.393	40070.68
677.741	40213.05
678.09	40023.91
678.438	39866.85
678.787	40006.96
679.135	39876.34
679.484	39803.12
679.832	39801.54
680.181	39641.54
680.529	39769.45
680.877	39715.89
681.225	39613.97
681.573	39738.72
681.922	39607.19
682.27	39389.57
682.618	39328.56
682.966	39192.97
683.314	39332.62
683.661	39281.55
684.009	39019.41
684.357	39066.42
684.705	38937.83
685.053	39159.3
685.4	38950.04
685.748	38759.53
686.095	38722.7
686.443	38585.75
686.79	38594.11
687.138	38799.98
687.485	38731.96
687.832	38596.37
688.18	38528.58
688.527	38237.96
688.874	38372.88
689.221	38302.37
689.568	38140.34
689.915	38044.52
690.262	37988.03
690.609	37828.48
690.956	37840.91
691.303	37727.92
691.65	37737.86
691.997	37626.23
692.344	37452
692.69	37372
693.037	37416.29
693.383	37030.31
693.73	37266.46
694.077	37088.39
694.423	36918.9
694.769	36782.86
695.116	36769.98
695.462	36664.9
695.808	36675.97
696.155	36693.37
696.501	36461.74
696.847	36416.54
697.193	36174.97
697.539	36364.57
697.885	36000.28
698.231	35870.34
698.577	35951.02
698.923	35947.85
699.269	35650.91
699.614	35458.15
699.96	35508.54
700.306	35520.29
700.651	35388.77
700.997	35176.12
701.342	35163.24
701.688	35182.68
702.033	34968.44
702.379	34920.76
702.724	34784.04
703.069	34937.94
703.415	34601.9
703.76	34676.48
704.105	34618.17
704.45	34536.59
704.795	34437.61
705.14	34320.1
705.485	34230.16
705.83	34115.81
706.175	34122.59
706.52	34090.95
706.865	34021.58
707.209	33930.73
707.554	33850.06
707.899	33779.55
708.243	33701.13
708.588	33556.5
708.932	33346.57
709.277	33380.01
709.621	33346.34
709.966	33178.66
710.31	33257.53
710.654	32942.28
710.998	33041.72
711.342	33087.14
711.687	32894.38
712.031	32714.04
712.375	32693.25
712.719	32603.76
713.063	32667.71
713.407	32650.54
713.75	32677.21
714.094	32502.75
714.438	32233.6
714.782	32310.89
715.125	32247.39
715.469	32301.85
715.812	32032.25
716.156	31846.27
716.499	32030.9
716.843	31999.48
717.186	31735.76
717.53	31932.59
717.873	31886.27
718.216	31822.54
718.559	31700.51
718.902	31566.27
719.246	31548.65
719.589	31490.8
719.932	31372.16
720.275	31284.7
720.617	31303
720.96	31321.54
721.303	31133.52
721.646	31098.94
721.989	31047.64
722.331	31068.43
722.674	31005.39
723.016	31036.12
723.359	30956.35
723.701	30919.29
724.044	30741.21
724.386	30544.61
724.729	30772.85
725.071	30602.46
725.413	30625.06
725.755	30617.6
726.097	30452.41
726.439	30308.91
726.782	30334.22
727.124	30555.68
727.465	30280.66
727.807	30211.28
728.149	30192.98
728.491	30256.48
728.833	30211.51
729.175	29953.44
729.516	30020.1
729.858	30039.99
730.199	29993.43
730.541	29854.91
730.882	29824.85
731.224	29892.87
731.565	29669.15
731.906	29733.55
732.248	29677.51
732.589	29633.67
732.93	29481.81
733.271	29466.67
733.612	29541.92
733.953	29534.92
734.294	29414.47
734.635	29296.28
734.976	29398.42
735.317	29162.72
735.658	29243.4
735.999	29219.44
736.339	29100.12
736.68	29335.37
737.021	29132.89
737.361	28903.52
737.702	29089.28
738.042	29068.94
738.383	28893.35
738.723	29030.52
739.063	28769.06
739.404	28813.8
739.744	28856.52
740.084	28663.07
740.424	28721.15
740.764	28677.08
741.104	28648.84
741.444	28511.67
741.784	28396.87
742.124	28455.62
742.464	28432.35
742.804	28376.75
743.143	28404.32
743.483	28362.74
743.823	28172.69
744.162	28165.46
744.502	28207.04
744.841	28122.3
745.181	28082.3
745.52	28103.54
745.86	28110.32
746.199	28139.02
746.538	27948.52
746.877	28021.51
747.216	27920.72
747.556	27882.98
747.895	27960.04
748.234	27720.5
748.573	27750.1
748.911	27680.05
749.25	27690.67
749.589	27482.09
749.928	27617.23
750.267	27606.38
750.605	27520.05
750.944	27457
751.283	27331.58
751.621	27387.18
751.96	27328.87
752.298	27251.59
752.636	27160.97
752.975	27109.89
753.313	27058.6
753.651	27178.37
753.989	27091.36
754.327	27096.11
754.666	26885.27
755.004	26904.7
755.342	26794.87
755.679	26882.1
756.017	26655.22
756.355	26784.25
756.693	26644.82
757.031	26692.28
757.368	26464.94
757.706	26430.82
758.044	26475.33
758.381	26387.88
758.719	26222.69
759.056	26334.77
759.394	26153.76
759.731	26022.01
760.068	25974.33
760.405	25919.19
760.743	25726.43
761.08	25903.82
761.417	25681.23
761.754	25638.75
762.091	25621.8
762.428	25466.55
762.765	25345.65
763.102	25558.75
763.438	25380.22
763.775	25103.85
764.112	25200.79
764.449	25207.57
764.785	25022.04
765.122	24959.22
765.458	24827.02
765.795	24651.88
766.131	24662.28
766.467	24492.56
766.804	24595.61
767.14	24398.1
767.476	24413.24
767.812	24477.2
768.148	24228.61
768.485	24250.31
768.821	24029.52
769.157	24129.18
769.492	23966.47
769.828	23966.02
770.164	23751.56
770.5	23689.19
770.836	23761.73
771.171	23532.14
771.507	23536.66
771.842	23352.25
772.178	23400.16
772.513	23279.71
772.849	23270
773.184	23106.84
773.519	23099.15
773.855	22925.15
774.19	22852.15
774.525	22761.76
774.86	22802.89
775.195	22821.65
775.53	22697.81
775.865	22518.15
776.2	22355.9
776.535	22156.35
776.87	22255.33
777.205	22129.01
777.539	22090.14
777.874	22054.89
778.209	21829.58
778.543	21875
778.878	21656.7
779.212	21726.08
779.547	21601.34
779.881	21597.05
780.215	21436.37
780.55	21554.79
780.884	21271.63
781.218	21284.96
781.552	21243.16
781.886	21156.38
782.22	21024.86
782.554	21005.42
782.888	20785.77
783.222	20682.49
783.556	20564.3
783.889	20643.62
784.223	20439.56
784.557	20345.33
784.89	20406.12
785.224	20361.82
785.557	20209.06
785.891	20116.18
786.224	20111.21
786.558	20126.58
786.891	19864.21
787.224	19727.49
787.557	19732.46
787.891	19742.86
788.224	19671.9
788.557	19636.64
788.89	19566.36
789.223	19572.92
789.556	19441.17
789.888	19289.08
790.221	19301.29
790.554	19087.28
790.887	19164.79
791.219	19033.04
791.552	18950.79
791.884	18858.13
792.217	18848.19
792.549	18698.36
792.882	18684.58
793.214	18581.53
793.546	18639.83
793.879	18562.55
794.211	18491.59
794.543	18436.68
794.875	18379.28
795.207	18384.93
795.539	18303.8
795.871	18353.51
796.203	18078.95
796.535	18069.23
796.867	18045.95
797.198	17986.74
797.53	17939.06
797.862	17832.85
798.193	17878.95
798.525	17799.18
798.856	17705.85
799.188	17548.34
799.519	17577.04
799.85	17405.52
800.182	17506.53
800.513	17463.59
800.844	17316.48
801.175	17290.49
801.506	17387.66
801.837	17270.38
802.168	17136.6
802.499	17139.99
802.83	16991.74
803.161	16991.29
803.491	16928.02
803.822	16956.04
804.153	16837.85
804.483	16735.93
804.814	16655.03
805.145	16629.04
805.475	16658.42
805.805	16584.3
806.136	16616.16
806.466	16574.35
806.796	16473.11
807.126	16253
807.457	16298.2
807.787	16318.31
808.117	16147.92
808.447	16143.4
808.777	16222.5
809.107	16086
809.436	16097.98
809.766	16041.26
810.096	15981.37
810.426	15981.83
810.755	15939.11
811.085	15810.3
811.414	15811.43
811.744	15751.55
812.073	15722.62
812.403	15723.53
812.732	15579.58
813.061	15665
813.39	15499.13
813.719	15478.56
814.049	15544.1
814.378	15444.44
814.707	15487.6
815.036	15396.53
815.365	15291.67
815.693	15201.28
816.022	15214.16
816.351	15128.74
816.68	15012.81
817.008	15118.35
817.337	14985.69
817.665	14927.62
817.994	14928.07
818.322	14951.34
818.651	14920.38
818.979	14844.91
819.307	14871.57
819.636	14869.99
819.964	14791.35
820.292	14793.61
820.62	14770.56
820.948	14654.85
821.276	14675.19
821.604	14730.56
821.932	14646.04
822.259	14703.22
822.587	14656.89
822.915	14596.1
823.243	14694.18
823.57	14603.78
823.898	14700.73
824.225	14622.54
824.553	14676.55
824.88	14555.42
825.207	14578.7
825.535	14659.6
825.862	14605.82
826.189	14564.69
826.516	14653.05
826.843	14666.15
827.17	14704.57
827.497	14637.68
827.824	14554.29
828.151	14672.71
828.478	14617.57
828.805	14679.71
829.131	14534.63
829.458	14514.52
829.785	14558.36
830.111	14490.79
830.438	14571.02
830.764	14547.74
831.09	14520.17
831.417	14474.07
831.743	14552.94
832.069	14516.55
832.395	14451.7
832.722	14539.15
833.048	14540.51
833.374	14539.38
833.7	14326.73
834.026	14531.92
834.351	14386.39
834.677	14332.83
835.003	14360.63
835.329	14394.97
835.654	14368.76
835.98	14395.43
836.306	14345.71
836.631	14256.9
836.956	14326.28
837.282	14265.49
837.607	14215.77
837.932	14198.37
838.258	14239.27
838.583	14113.85
838.908	14115.66
839.233	14176.45
839.558	14103.46
839.883	14051.48
840.208	14027.75
840.533	13986.17
840.858	13988.88
841.182	13942.33
841.507	13951.14
841.832	13881.99
842.156	13904.82
842.481	13818.49
842.805	13767.65
843.13	13719.51
843.454	13761.09
843.778	13753.64
844.103	13723.13
844.427	13679.06
844.751	13694.65
845.075	13619.18
845.399	13556.35
845.723	13443.14
846.047	13469.58
846.371	13477.71
846.695	13404.49
847.019	13342.57
847.343	13259.41
847.666	13125.86
847.99	13109.58
848.313	13092.18
848.637	13021
848.96	12995.69
849.284	12991.4
849.607	12903.49
849.931	12837.73
850.254	12708.47
850.577	12737.84
850.9	12554.8
851.223	12538.98
851.546	12494.46
851.869	12444.29
852.192	12529.94
852.515	12365.65
852.838	12332.2
853.161	12265.54
853.483	12254.69
853.806	12234.58
854.129	12141.7
854.451	12124.98
854.774	11986.9
855.096	12056.51
855.419	12007.92
855.741	11997.98
856.063	11902.61
856.385	11845.66
856.708	11851.09
857.03	11852.22
857.352	11795.95
857.674	11706.68
857.996	11728.6
858.318	11664.42
858.64	11708.49
858.961	11621.26
859.283	11590.3
859.605	11568.61
859.926	11620.58
860.248	11501.27
860.57	11513.24
860.891	11452.45
861.212	11376.52
861.534	11359.35
861.855	11367.03
862.176	11375.84
862.498	11281.61
862.819	11323.87
863.14	11313.02
863.461	11294.27
863.782	11164.1
864.103	11228.96
864.424	11200.26
864.745	11242.52
865.065	11185.57
865.386	11204.32
865.707	11091.78
866.027	11090.2
866.348	11039.36
866.668	11011.56
866.989	10971.79
867.309	10915.52
867.63	11017.44
867.95	10999.58
868.27	10913.71
868.59	10896.31
868.91	10937.21
869.23	10848.85
869.55	10797.56
869.87	10849.76
870.19	10846.37
870.51	10935.4
870.83	10777.89
871.15	10821.96
871.469	10763.66
871.789	10816.31
872.109	10781.28
872.428	10657.45
872.748	10707.39
873.067	10681.85
873.386	10685.02
873.706	10649.99
874.025	10650.67
874.344	10584.68
874.663	10671.46
874.982	10595.3
875.301	10526.38
875.62	10539.93
875.939	10531.8
876.258	10473.72
876.577	10415.87
876.896	10429.43
877.214	10404.12
877.533	10436.43
877.852	10402.09
878.17	10381.29
878.489	10304.01
878.807	10414.74
879.125	10325.7
879.444	10353.27
879.762	10335.19
880.08	10244.8
880.398	10284.12
880.716	10240.28
881.034	10199.6
881.352	10173.39
881.67	10212.49
881.988	10274.86
882.306	10167.06
882.624	10153.05
882.941	10018.59
883.259	9986.5
883.577	9990.12
883.894	9982.89
884.212	9977.69
884.529	9958.03
884.846	10005.03
885.164	9980.63
885.481	9954.19
885.798	9894.08
886.115	9857.92
886.432	9784.7
886.75	9829.9
887.067	9778.82
887.383	9780.63
887.7	9724.59
888.017	9717.36
888.334	9763.46
888.651	9647.98
888.967	9620.41
889.284	9570.92
889.6	9604.59
889.917	9542.9
890.233	9564.37
890.55	9487.98
890.866	9467.42
891.182	9455.44
891.498	9410.02
891.815	9409.12
892.131	9374.54
892.447	9314.88
892.763	9336.12
893.079	9255.67
893.395	9263.58
893.71	9209.8
894.026	9198.05
894.342	9141.55
894.657	9129.8
894.973	9082.35
895.289	9131.61
895.604	9099.75
895.92	9034.66
896.235	8949.47
896.55	8982.46
896.865	8954.21
897.181	8913.99
897.496	8937.72
897.811	8878.96
898.126	8806.2
898.441	8739.08
898.756	8772.75
899.071	8731.17
899.386	8694.79
899.7	8611.62
900.015	8610.49
900.33	8573.21
900.644	8588.57
900.959	8545.18
901.273	8507.45
901.588	8447.79
901.902	8417.5
902.216	8427
902.531	8389.26
902.845	8369.37
903.159	8352.87
903.473	8226.55
903.787	8267.9
904.101	8179.54
904.415	8201.92
904.729	8229.71
905.042	8118.98
905.356	8041.24
905.67	8074.01
905.984	8040.11
906.297	8060.45
906.611	8032.66
906.924	8012.54
907.237	8013.9
907.551	7865.65
907.864	7919.66
908.177	7832.44
908.491	7809.39
908.804	7845.54
909.117	7758.99
909.43	7731.2
909.743	7672.89
910.056	7669.95
910.368	7655.94
910.681	7609.16
910.994	7612.33
911.307	7535.49
911.619	7514.7
911.932	7490.52
912.244	7450.07
912.557	7460.02
912.869	7380.02
913.181	7364.2
913.494	7356.97
913.806	7309.29
914.118	7272.68
914.43	7261.6
914.742	7182.96
915.054	7188.38
915.366	7177.99
915.678	7121.27
915.99	7013.93
916.302	7025
916.613	7026.35
916.925	6955.85
917.236	7008.05
917.548	6912.01
917.859	6901.39
918.171	6859.81
918.482	6869.07
918.794	6804.67
919.105	6770.09
919.416	6749.3
919.727	6767.15
920.038	6745.68
920.349	6669.3
920.66	6646.03
920.971	6614.84
921.282	6627.27
921.593	6541.17
921.903	6519.02
922.214	6526.93
922.525	6521.28
922.835	6437.44
923.146	6452.58
923.456	6413.49
923.767	6384.34
924.077	6346.37
924.387	6379.59
924.697	6264.11
925.008	6249.88
925.318	6217.34
925.628	6245.36
925.938	6213.49
926.248	6145.02
926.558	6129.2
926.867	6153.16
927.177	6118.36
927.487	6072.26
927.796	5987.96
928.106	6055.53
928.416	5988.64
928.725	6007.17
929.034	5948.87
929.344	5972.37
929.653	5895.76
929.962	5878.14
930.271	5910.23
930.581	5831.13
930.89	5756.78
931.199	5707.52
931.508	5749.1
931.817	5698.25
932.125	5685.83
932.434	5658.93
932.743	5640.4
933.051	5625.26
933.36	5571.93
933.669	5544.59
933.977	5583.23
934.286	5501.42
934.594	5493.51
934.902	5457.13
935.21	5446.74
935.519	5482.21
935.827	5430.92
936.135	5376.23
936.443	5326.29
936.751	5318.6
937.059	5309.11
937.367	5237.48
937.674	5266.18
937.982	5220.53
938.29	5187.99
938.597	5186.18
938.905	5145.73
939.213	5142.79
939.52	5128.1
939.827	5120.87
940.135	5107.08
940.442	5036.8
940.749	5026.41
941.056	5093.75
941.363	4981.66
941.67	4983.02
941.977	4948.22
942.284	4913.42
942.591	4914.77
942.898	4876.35
943.205	4904.38
943.511	4784.38
943.818	4842.23
944.125	4810.14
944.431	4777.83
944.738	4787.32
945.044	4748.67
945.35	4733.53
945.657	4721.1
945.963	4649.47
946.269	4664.16
946.575	4687.43
946.881	4644.95
947.187	4608.34
947.493	4592.97
947.799	4552.07
948.105	4522.47
948.41	4514.78
948.716	4531.96
949.022	4478.63
949.327	4496.25
949.633	4401.34
949.938	4432.52
950.244	4435.01
950.549	4385.29
950.854	4386.65
951.16	4355.01
951.465	4326.99
951.77	4319.99
952.075	4282.92
952.38	4262.81
952.685	4300.32
952.99	4232.53
953.294	4204.06
953.599	4198.86
953.904	4157.05
954.209	4144.62
954.513	4170.61
954.818	4139.65
955.122	4124.74
955.426	4070.73
955.731	4081.8
956.035	4059.65
956.339	4044.29
956.643	4012.65
956.948	4016.49
957.252	3949.6
957.556	3961.8
957.86	4007.23
958.163	3937.17
958.467	3912.09
958.771	3935.14
959.075	3924.06
959.378	3887.68
959.682	3886.32
959.985	3833.67
960.289	3857.4
960.592	3819.21
960.896	3802.71
961.199	3779.66
961.502	3777.4
961.805	3716.61
962.108	3690.85
962.411	3700.79
962.714	3674.13
963.017	3650.4
963.32	3677.29
963.623	3687.91
963.926	3622.83
964.228	3635.03
964.531	3596.61
964.833	3587.58
965.136	3582.38
965.438	3550.06
965.741	3558.88
966.043	3491.53
966.345	3498.76
966.648	3484.3
966.95	3458.09
967.252	3466.9
967.554	3418.99
967.856	3434.58
968.158	3434.36
968.46	3344.87
968.761	3376.06
969.063	3407.69
969.365	3344.19
969.666	3328.6
969.968	3350.52
970.269	3284.31
970.571	3335.15
970.872	3274.36
971.174	3282.27
971.475	3227.58
971.776	3202.95
972.077	3219.9
972.378	3217.87
972.679	3212.22
972.98	3182.61
973.281	3182.84
973.582	3158.89
973.883	3169.06
974.183	3160.02
974.484	3105.1
974.785	3130.86
975.085	3103.75
975.386	3084.54
975.686	3091.09
975.986	3068.27
976.287	3025.56
976.587	2993.69
976.887	3006.8
977.187	3024.88
977.487	2984.2
977.787	2953.47
978.087	2955.5
978.387	2972.22
978.687	2934.71
978.987	2932.68
979.286	2856.75
979.586	2919.57
979.885	2840.02
980.185	2863.3
980.484	2873.7
980.784	2847.71
981.083	2815.84
981.382	2779.91
981.682	2802.06
981.981	2775.39
982.28	2781.04
982.579	2761.83
982.878	2770.87
983.177	2764.09
983.475	2745.79
983.774	2713.93
984.073	2687.03
984.372	2673.93
984.67	2658.33
984.969	2687.26
985.267	2674.15
985.566	2643.42
985.864	2615.85
986.162	2627.6
986.461	2603.87
986.759	2605
987.057	2574.72
987.355	2594.38
987.653	2586.25
987.951	2540.37
988.249	2571.33
988.547	2556.64
988.844	2502.41
989.142	2497.66
989.44	2464.21
989.737	2496.98
990.035	2454.5
990.332	2482.75
990.63	2460.37
990.927	2426.7
991.224	2434.84
991.521	2447.27
991.819	2402.52
992.116	2369.75
992.413	2335.86
992.71	2366.59
993.006	2370.43
993.303	2328.17
993.6	2332.69
993.897	2299.7
994.193	2310.77
994.49	2300.6
994.787	2311
995.083	2271.9
995.379	2264.9
995.676	2279.81
995.972	2225.8
996.268	2268.51
996.565	2201.4
996.861	2247.27
997.157	2193.49
997.453	2217.22
997.749	2193.49
998.044	2169.08
998.34	2144
998.636	2139.7
998.932	2131.34
999.227	2149.87
999.523	2068.07
999.818	2096.77
1000.114	2123.88
1000.409	2106.03
1000.704	2068.52
1001	2075.52
1001.295	2046.6
1001.59	2043.89
1001.885	2005.47
1002.18	1989.2
1002.475	2019.48
1002.77	1983.32
1003.065	1993.04
1003.359	1969.99
1003.654	1991.91
1003.949	1955.75
1004.243	1941.74
1004.538	1934.96
1004.832	1932.7
1005.127	1931.8
1005.421	1921.63
1005.715	1915.08
1006.009	1875.08
1006.304	1872.37
1006.598	1843.89
1006.892	1845.02
1007.186	1832.14
1007.48	1832.82
1007.773	1809.99
1008.067	1822.2
1008.361	1802.54
1008.655	1798.02
1008.948	1789.88
1009.242	1785.81
1009.535	1797.34
1009.829	1743.56
1010.122	1732.48
1010.415	1739.49
1010.708	1739.94
1011.001	1701.75
1011.295	1691.35
1011.588	1686.83
1011.881	1685.25
1012.173	1674.63
1012.466	1661.75
1012.759	1680.05
1013.052	1643.67
1013.344	1652.26
1013.637	1641.19
1013.93	1634.63
1014.222	1593.96
1014.514	1601.86
1014.807	1598.25
1015.099	1569.55
1015.391	1564.58
1015.683	1558.93
1015.976	1545.14
1016.268	1541.53
1016.56	1517.8
1016.851	1547.63
1017.143	1532.71
1017.435	1501.98
1017.727	1464.69
1018.018	1484.13
1018.31	1483.22
1018.602	1473.96
1018.893	1492.26
1019.185	1445.71
1019.476	1446.16
1019.767	1439.16
1020.058	1438.71
1020.35	1436.45
1020.641	1407.52
1020.932	1391.7
1021.223	1395.54
1021.514	1380.4
1021.804	1367.97
1022.095	1349.67
1022.386	1366.39
1022.677	1356.45
1022.967	1335.66
1023.258	1313.28
1023.548	1312.38
1023.839	1306.73
1024.129	1320.97
1024.419	1297.47
1024.709	1295.66
1025	1287.52
1025.29	1302.21
1025.58	1261.08
1025.87	1252.72
1026.16	1230.57
1026.449	1254.08
1026.739	1219.73
1027.029	1252.95
1027.319	1219.5
1027.608	1221.08
1027.898	1221.31
1028.187	1184.02
1028.477	1190.8
1028.766	1187.86
1029.055	1143.8
1029.344	1187.41
1029.634	1138.83
1029.923	1163.23
1030.212	1124.14
1030.501	1144.02
1030.79	1116.45
1031.078	1124.36
1031.367	1111.48
1031.656	1095.44
1031.945	1111.26
1032.233	1083.01
1032.522	1088.66
1032.81	1095.44
1033.099	1046.4
1033.387	1053.86
1033.675	1059.28
1033.963	1050.01
1034.251	1048.21
1034.54	1010.02
1034.828	1010.24
1035.116	1001.65
1035.403	1033.74
1035.691	1024.93
1035.979	993.29
1036.267	987.64
1036.554	979.06
1036.842	963.92
1037.129	985.16
1037.417	955.78
1037.704	971.82
1037.992	956.23
1038.279	966.85
1038.566	943.35
1038.853	943.35
1039.14	943.35
