Data from hue_270_FLMS001491_00074.txt Node
Date: Tue Feb 07 15:57:40 GMT 2017
User: dcchb
Spectrometer: FLMS00149
Trigger mode: 0
Integration Time (sec): 2.000000E-2
Scans to average: 10
Electric dark correction enabled: true
Nonlinearity correction enabled: false
Boxcar width: 0
XAxis mode: Wavelengths
Number of Pixels in Spectrum: 2048
>>>>>Begin Spectral Data<<<<<
341.393	-37.5
341.776	-37.5
342.16	-37.5
342.543	-41.34
342.927	-50.83
343.31	-74.33
343.693	-56.93
344.077	-57.16
344.46	-62.13
344.843	-47.67
345.226	-46.54
345.61	-28.46
345.993	-13.54
346.376	-18.97
346.759	6.34
347.142	12.9
347.525	33.91
347.908	67.81
348.291	84.08
348.674	105.77
349.057	94.93
349.44	122.04
349.823	125.21
350.206	157.98
350.588	189.16
350.971	190.97
351.354	209.95
351.737	238.65
352.119	232.1
352.502	275.26
352.884	254.92
353.267	284.07
353.65	290.4
354.032	292.66
354.414	303.96
354.797	309.16
355.179	310.06
355.562	331.08
355.944	323.62
356.326	329.95
356.709	340.12
357.091	329.5
357.473	324.53
357.855	350.29
358.238	306.45
358.62	336.5
359.002	337.41
359.384	345.99
359.766	332.21
360.148	319.33
360.53	328.14
360.912	348.25
361.294	335.37
361.676	315.94
362.057	327.01
362.439	325.66
362.821	323.62
363.203	317.97
363.584	325.2
363.966	329.05
364.348	317.29
364.729	320.01
365.111	312.32
365.493	309.16
365.874	312.32
366.256	301.25
366.637	310.06
367.019	294.02
367.4	320.68
367.781	309.84
368.163	303.96
368.544	319.1
368.925	307.58
369.306	276.84
369.688	304.41
370.069	305.09
370.45	309.61
370.831	310.29
371.212	320.46
371.593	310.97
371.974	324.53
372.355	288.82
372.736	317.52
373.117	317.97
373.498	306.9
373.879	296.05
374.26	324.07
374.641	307.12
375.021	305.09
375.402	302.15
375.783	310.97
376.163	322.49
376.544	327.69
376.925	316.16
377.305	295.15
377.686	315.03
378.066	318.42
378.447	335.15
378.827	324.75
379.208	305.99
379.588	326.79
379.968	305.54
380.349	324.3
380.729	329.05
381.109	328.37
381.489	328.37
381.87	335.37
382.25	338.76
382.63	339.21
383.01	326.56
383.39	335.82
383.77	341.47
384.15	341.02
384.53	345.54
384.91	326.56
385.29	357.29
385.67	342.83
386.049	343.96
386.429	354.81
386.809	356.39
387.189	350.06
387.568	356.39
387.948	354.13
388.328	379.89
388.707	336.95
389.087	375.15
389.466	361.81
389.846	367.01
390.225	349.38
390.605	372.43
390.984	368.82
391.363	357.74
391.743	369.5
392.122	360.68
392.501	375.6
392.881	387.12
393.26	387.35
393.639	379.21
394.018	388.7
394.397	379.44
394.776	384.41
395.155	383.73
395.534	371.76
395.913	365.43
396.292	382.83
396.671	376.5
397.05	395.94
397.429	393.9
397.808	405.43
398.186	396.16
398.565	396.84
398.944	393
399.323	406.33
399.701	390.29
400.08	402.49
400.458	403.62
400.837	425.09
401.215	429.38
401.594	432.09
401.972	420.79
402.351	425.99
402.729	414.69
403.107	435.03
403.486	437.06
403.864	443.84
404.242	432.09
404.62	458.31
404.999	432.32
405.377	442.71
405.755	444.52
406.133	443.84
406.511	463.5
406.889	456.27
407.267	463.5
407.645	468.93
408.023	463.96
408.401	483.17
408.779	491.3
409.156	462.37
409.534	490.62
409.912	514.35
410.29	515.93
410.667	511.87
411.045	511.41
411.422	536.27
411.8	536.72
412.178	536.27
412.555	542.6
412.933	543.28
413.31	543.95
413.687	547.57
414.065	567.46
414.442	570.62
414.819	578.53
415.197	593.9
415.574	612.2
415.951	601.13
416.328	615.59
416.705	625.31
417.082	625.76
417.46	633.9
417.837	639.32
418.214	626.44
418.591	651.52
418.967	630.96
419.344	661.47
419.721	672.99
420.098	677.96
420.475	708.7
420.852	689.71
421.228	704.85
421.605	723.16
421.982	715.02
422.358	740.11
422.735	746.66
423.111	736.49
423.488	772.65
423.864	772.88
424.241	797.73
424.617	770.16
424.994	804.06
425.37	786.21
425.746	833.21
426.123	835.7
426.499	849.03
426.875	882.7
427.251	890.16
427.627	875.7
428.003	898.75
428.379	883.61
428.756	925.41
429.132	917.96
429.507	894.23
429.883	922.02
430.259	935.58
430.635	931.97
431.011	980.33
431.387	956.6
431.763	983.49
432.138	995.69
432.514	996.82
432.89	1019.42
433.265	1045.86
433.641	1050.16
434.016	1085.86
434.392	1084.28
434.767	1129.48
435.143	1114.79
435.518	1128.35
435.894	1144.39
436.269	1166.31
436.644	1201.11
437.02	1216.71
437.395	1206.08
437.77	1231.85
438.145	1245.86
438.52	1261.45
438.895	1272.52
439.271	1289.92
439.646	1317.27
440.021	1327.89
440.395	1307.1
440.77	1314.33
441.145	1376.02
441.52	1406.53
441.895	1386.19
442.27	1411.95
442.645	1403.82
443.019	1433.87
443.394	1433.2
443.769	1436.13
444.143	1453.08
444.518	1468.9
444.892	1452.63
445.267	1482.46
445.641	1517.26
446.016	1489.24
446.39	1527.88
446.764	1530.14
447.139	1541.22
447.513	1556.36
447.887	1553.65
448.262	1530.6
448.636	1566.53
449.01	1582.57
449.384	1593.42
449.758	1597.26
450.132	1619.86
450.506	1621.44
450.88	1620.76
451.254	1637.26
451.628	1661.89
452.002	1668.9
452.376	1682.91
452.75	1689.46
453.123	1710.03
453.497	1734.21
453.871	1729.23
454.244	1733.3
454.618	1753.41
454.992	1817.14
455.365	1793.41
455.739	1870.7
456.112	1849.01
456.486	1850.59
456.859	1874.99
457.232	1886.97
457.606	1885.16
457.979	1924.94
458.352	1963.58
458.725	1959.28
459.099	1964.26
459.472	2020.07
459.845	2045.84
460.218	2070.69
460.591	2064.14
460.964	2045.16
461.337	2093.07
461.71	2125.83
462.083	2139.62
462.456	2166.96
462.829	2169.22
463.201	2229.33
463.574	2201.09
463.947	2237.47
464.32	2283.12
464.692	2313.4
465.065	2306.62
465.438	2313.63
465.81	2382.55
466.183	2401.53
466.555	2390.23
466.928	2408.54
467.3	2446.05
467.672	2488.54
468.045	2498.25
468.417	2501.87
468.789	2544.81
469.161	2515.88
469.534	2596.33
469.906	2637.91
470.278	2676.1
470.65	2657.35
471.022	2697.34
471.394	2763.56
471.766	2734.63
472.138	2780.51
472.51	2824.8
472.882	2890.11
473.253	2856.44
473.625	2930.78
473.997	2979.82
474.369	2991.12
474.74	3020.73
475.112	3055.53
475.484	3123.32
475.855	3141.4
476.227	3150.44
476.598	3252.58
476.97	3250.32
477.341	3328.29
477.713	3324.22
478.084	3347.27
478.455	3446.48
478.827	3461.17
479.198	3545.01
479.569	3555.4
479.94	3644.21
480.311	3627.49
480.682	3707.26
481.053	3792.46
481.424	3847.6
481.795	3830.65
482.166	3896.18
482.537	3904.09
482.908	3952
483.279	3991.55
483.65	4076.07
484.021	4126.01
484.391	4172.11
484.762	4198.77
485.133	4243.52
485.503	4229.73
485.874	4389.73
486.244	4394.7
486.615	4451.65
486.985	4500.23
487.356	4537.52
487.726	4512.89
488.097	4658.42
488.467	4649.61
488.837	4754.69
489.207	4755.14
489.578	4820.23
489.948	4891.18
490.318	4928.02
490.688	4883.05
491.058	4995.81
491.428	5027.68
491.798	5054.57
492.168	5129.37
492.538	5214.57
492.908	5242.14
493.278	5284.39
493.648	5255.7
494.017	5313.55
494.387	5365.07
494.757	5425.41
495.126	5454.11
495.496	5407.78
495.866	5477.16
496.235	5506.31
496.605	5511.73
496.974	5541.56
497.344	5644.16
497.713	5592.41
498.082	5668.57
498.452	5696.36
498.821	5714.21
499.19	5676.93
499.559	5745.17
499.928	5765.06
500.298	5806.64
500.667	5895.23
501.036	5850.26
501.405	5851.61
501.774	5907.2
502.143	5954.66
502.512	5949.46
502.88	5962.12
503.249	6038.27
503.618	6001.44
503.987	6038.5
504.356	6073.75
504.724	6050.02
505.093	6128.89
505.462	6066.3
505.83	6127.54
506.199	6103.81
506.567	6221.09
506.936	6184.03
507.304	6276.23
507.672	6195.11
508.041	6303.8
508.409	6336.12
508.777	6328.89
509.145	6366.17
509.514	6334.99
509.882	6337.25
510.25	6385.38
510.618	6375.67
510.986	6394.2
511.354	6417.92
511.722	6493.4
512.09	6495.21
512.458	6442.1
512.826	6499.05
513.193	6578.37
513.561	6570.46
513.929	6581.31
514.297	6664.02
514.664	6612.04
515.032	6651.14
515.4	6640.07
515.767	6699.27
516.135	6701.76
516.502	6637.35
516.869	6728.42
517.237	6649.78
517.604	6690.69
517.972	6758.93
518.339	6790.57
518.706	6727.07
519.073	6750.57
519.44	6766.39
519.808	6845.26
520.175	6781.53
520.542	6866.05
520.909	6922.54
521.276	6894.75
521.643	6892.94
522.009	6934.07
522.376	6974.97
522.743	7009.55
523.11	7003.45
523.477	7004.12
523.843	7013.62
524.21	7125.7
524.577	7058.81
524.943	7087.51
525.31	7143.78
525.676	7218.36
526.043	7233.5
526.409	7245.25
526.776	7233.95
527.142	7298.58
527.508	7252.93
527.874	7277.34
528.241	7318.47
528.607	7282.76
528.973	7357.56
529.339	7384.45
529.705	7381.74
530.071	7410.21
530.437	7453.15
530.803	7459.7
531.169	7498.35
531.535	7435.52
531.901	7460.61
532.267	7524.11
532.632	7534.73
532.998	7483.89
533.364	7572.24
533.73	7590.32
534.095	7659.47
534.461	7563.88
534.826	7663.77
535.192	7646.37
535.557	7672.13
535.923	7678
536.288	7652.24
536.653	7618.34
537.019	7658.34
537.384	7577.67
537.749	7606.59
538.114	7703.99
538.479	7671.68
538.845	7726.59
539.21	7720.49
539.575	7693.82
539.94	7703.77
540.305	7816.76
540.67	7703.09
541.034	7711.22
541.399	7766.82
541.764	7689.3
542.129	7734.73
542.494	7783.54
542.858	7777.21
543.223	7756.65
543.587	7810.2
543.952	7742.41
544.316	7796.42
544.681	7754.39
545.045	7856.3
545.41	7834.38
545.774	7842.97
546.138	7805.46
546.503	7850.66
546.867	7822.86
547.231	7884.78
547.595	7898.11
547.959	7863.99
548.324	7852.91
548.688	7860.37
549.052	7894.72
549.416	7906.92
549.779	7883.87
550.143	7874.16
550.507	7884.55
550.871	7977.43
551.235	7864.89
551.599	7976.75
551.962	7954.61
552.326	7939.24
552.689	7997.77
553.053	7942.4
553.417	7938.79
553.78	8054.49
554.143	7948.96
554.507	8058.11
554.87	8038.45
555.234	8108.5
555.597	8014.27
555.96	8062.63
556.323	8044.32
556.686	8092.68
557.05	8075.28
557.413	8125.68
557.776	8059.92
558.139	8124.77
558.502	8150.99
558.865	8151.66
559.228	8216.52
559.59	8203.64
559.953	8249.06
560.316	8264.43
560.679	8234.6
561.041	8265.56
561.404	8305.33
561.767	8329.51
562.129	8321.83
562.492	8409.28
562.854	8406.35
563.217	8413.8
563.579	8412
563.941	8515.27
564.304	8566.12
564.666	8577.19
565.028	8560.69
565.39	8630.3
565.753	8573.12
566.115	8619.67
566.477	8684.08
566.839	8697.64
567.201	8769.05
567.563	8775.15
567.925	8861.02
568.287	8829.61
568.648	8814.02
569.01	8865.54
569.372	8880.01
569.734	8819.67
570.095	8911.19
570.457	8924.53
570.819	8994.13
571.18	8983.05
571.542	9064.63
571.903	9000.91
572.265	9201.58
572.626	9099.66
572.987	9126.78
573.349	9193.9
573.71	9192.09
574.071	9282.71
574.432	9228.7
574.794	9328.36
575.155	9284.97
575.516	9345.53
575.877	9375.81
576.238	9392.76
576.599	9438.41
576.96	9425.3
577.32	9424.17
577.681	9492.42
578.042	9536.03
578.403	9569.71
578.763	9531.97
579.124	9606.09
579.485	9632.3
579.845	9641.34
580.206	9609.93
580.566	9705.3
580.927	9811.51
581.287	9746.2
581.648	9764.5
582.008	9807.67
582.368	9771.06
582.728	9836.37
583.089	9900.77
583.449	9875.23
583.809	9935.57
584.169	9995.46
584.529	9942.58
584.889	10065.51
585.249	10079.07
585.609	10018.96
585.969	10102.8
586.329	10095.12
586.688	10160.88
587.048	10096.47
587.408	10169.46
587.768	10185.06
588.127	10239.97
588.487	10220.08
588.846	10325.84
589.206	10244.04
589.565	10370.81
589.925	10371.49
590.284	10369.01
590.643	10399.74
591.003	10515.9
591.362	10513.41
591.721	10463.69
592.08	10516.57
592.44	10571.94
592.799	10500.75
593.158	10542.56
593.517	10606.29
593.876	10602.9
594.235	10607.42
594.593	10716.12
594.952	10661.88
595.311	10691.48
595.67	10667.53
596.029	10759.28
596.387	10838.15
596.746	10818.03
597.104	10795.21
597.463	10793.63
597.822	10869.78
598.18	10840.63
598.538	10850.35
598.897	10891.25
599.255	10794.98
599.613	11014.64
599.972	10903.46
600.33	10928.31
600.688	10870.24
601.046	10951.82
601.404	11017.13
601.762	10952.49
602.12	11036.79
602.478	10993.62
602.836	11047.18
603.194	11007.18
603.552	11024.58
603.91	10973.96
604.268	11005.15
604.625	11012.61
604.983	11063.45
605.341	10980.74
605.698	11062.55
606.056	11119.95
606.413	11032.27
606.771	11135.31
607.128	11170.34
607.485	11081.98
607.843	11082.21
608.2	11234.52
608.557	11269.1
608.914	11184.35
609.272	11213.5
609.629	11253.05
609.986	11281.98
610.343	11237.68
610.7	11249.66
611.057	11277.23
611.414	11292.6
611.771	11321.3
612.127	11325.14
612.484	11346.83
612.841	11395.87
613.198	11291.92
613.554	11350.9
613.911	11435.19
614.267	11356.55
614.624	11370.56
614.98	11364.91
615.337	11458.24
615.693	11461.63
616.05	11417.12
616.406	11507.96
616.762	11500.28
617.118	11413.27
617.475	11410.56
617.831	11500.28
618.187	11534.85
618.543	11590.44
618.899	11582.31
619.255	11590.44
619.611	11617.11
619.967	11578.92
620.323	11580.27
620.678	11573.04
621.034	11526.26
621.39	11590.67
621.746	11509.32
622.101	11620.05
622.457	11551.12
622.812	11541.63
623.168	11601.07
623.523	11604.45
623.879	11624.34
624.234	11521.07
624.589	11568.75
624.945	11551.57
625.3	11582.31
625.655	11572.59
626.01	11549.99
626.365	11533.27
626.72	11662.76
627.075	11612.36
627.43	11563.1
627.785	11578.69
628.14	11582.76
628.495	11604.91
628.85	11580.5
629.205	11522.42
629.559	11556.32
629.914	11472.48
630.269	11525.36
630.623	11481.07
630.978	11479.03
631.332	11462.31
631.687	11459.6
632.041	11433.84
632.396	11521.97
632.75	11429.32
633.104	11434.06
633.459	11444.46
633.813	11388.87
634.167	11390.68
634.521	11395.19
634.875	11272.49
635.229	11413.95
635.583	11256.67
635.937	11271.36
636.291	11338.25
636.645	11291.92
636.999	11339.6
637.352	11280.85
637.706	11268.42
638.06	11209.89
638.413	11268.19
638.767	11246.95
639.121	11240.62
639.474	11169.66
639.828	11154.98
640.181	11183.45
640.534	11224.13
640.888	11192.26
641.241	11179.61
641.594	11114.07
641.947	11199.72
642.301	11116.56
642.654	11199.49
643.007	11182.77
643.36	11116.33
643.713	11128.08
644.066	11129.44
644.419	11043.34
644.771	10989.56
645.124	10938.94
645.477	10874.76
645.83	10887.41
646.182	10854.42
646.535	10728.55
646.888	10744.14
647.24	10716.12
647.593	10761.09
647.945	10761.54
648.298	10586.18
648.65	10723.57
649.002	10631.37
649.355	10747.98
649.707	10665.27
650.059	10774.65
650.411	10855.77
650.763	10852.38
651.115	11012.83
651.467	10913.17
651.819	10945.26
652.171	10928.77
652.523	10987.52
652.875	10933.29
653.227	10925.83
653.578	10999.5
653.93	10944.36
654.282	10922.44
654.633	10892.38
654.985	10969.22
655.337	10949.33
655.688	10948.2
656.039	10916.56
656.391	10885.15
656.742	10913.17
657.094	10963.79
657.445	10977.35
657.796	10935.32
658.147	10946.39
658.498	10882.44
658.849	10928.09
659.2	10883.34
659.551	10858.26
659.902	10944.81
660.253	10894.87
660.604	10928.77
660.955	10880.41
661.306	10917.47
661.656	10855.1
662.007	10908.88
662.358	10904.13
662.708	10896.45
663.059	10962.21
663.409	10919.28
663.76	10947.3
664.11	10906.39
664.461	10925.6
664.811	10943.23
665.161	10985.49
665.511	10950.69
665.862	10916.56
666.212	10991.82
666.562	10921.31
666.912	10970.8
667.262	10941.87
667.612	10962.44
667.962	10964.47
668.312	10913.63
668.662	11025.94
669.011	10920.4
669.361	10921.76
669.711	10901.87
670.06	10981.19
670.41	10884.02
670.76	10849.9
671.109	10871.37
671.459	10907.98
671.808	10899.84
672.157	10952.49
672.507	10919.05
672.856	10858.49
673.205	10954.98
673.554	10878.82
673.904	10832.72
674.253	10865.72
674.602	10918.6
674.951	10698.72
675.3	10664.59
675.649	10752.73
675.998	10817.13
676.346	10749.34
676.695	10794.08
677.044	10720.64
677.393	10797.24
677.741	10791.37
678.09	10735.78
678.438	10693.97
678.787	10765.38
679.135	10757.25
679.484	10604.71
679.832	10747.98
680.181	10600.64
680.529	10660.75
680.877	10672.5
681.225	10666.4
681.573	10677.25
681.922	10520.19
682.27	10490.59
682.618	10514.31
682.966	10417.37
683.314	10473.86
683.661	10454.43
684.009	10382.79
684.357	10362
684.705	10357.93
685.053	10320.19
685.4	10370.36
685.748	10350.7
686.095	10305.51
686.443	10212.85
686.79	10248.11
687.138	10257.15
687.485	10245.85
687.832	10183.48
688.18	10164.27
688.527	10154.32
688.874	10155
689.221	10034.78
689.568	10084.72
689.915	10010.6
690.262	10012.18
690.609	9975.57
690.956	9921.11
691.303	9898.74
691.65	9888.79
691.997	9814.67
692.344	9764.05
692.69	9768.12
693.037	9846.76
693.383	9715.92
693.73	9674.56
694.077	9652.87
694.423	9652.19
694.769	9633.21
695.116	9557.73
695.462	9517.05
695.808	9535.81
696.155	9497.84
696.501	9513.44
696.847	9425.08
697.193	9389.15
697.539	9430.95
697.885	9235.93
698.231	9238.42
698.577	9271.63
698.923	9307.34
699.269	9203.84
699.614	9233.9
699.96	9103.5
700.306	9098.08
700.651	9121.13
700.997	9073.9
701.342	9015.82
701.688	9037.52
702.033	9064.18
702.379	8978.08
702.724	8917.97
703.069	9000.91
703.415	8841.59
703.76	8841.59
704.105	8822.38
704.45	8790.74
704.795	8745.77
705.14	8718.65
705.485	8689.28
705.83	8638.66
706.175	8709.16
706.52	8622.61
706.865	8595.27
707.209	8624.19
707.554	8597.75
707.899	8604.08
708.243	8483.63
708.588	8563.63
708.932	8461.71
709.277	8414.26
709.621	8415.39
709.966	8347.14
710.31	8395.05
710.654	8318.89
710.998	8307.59
711.342	8330.64
711.687	8315.73
712.031	8245.45
712.375	8249.29
712.719	8239.12
713.063	8285.22
713.407	8232.57
713.75	8191.44
714.094	8174.04
714.438	8145.79
714.782	8195.96
715.125	8135.85
715.469	8118.9
715.812	8121.83
716.156	8059.69
716.499	8099.24
716.843	8090.42
717.186	8060.37
717.53	7996.87
717.873	8075.96
718.216	7962.97
718.559	8012.68
718.902	7940.37
719.246	7950.09
719.589	7961.61
719.932	7920.26
720.275	7956.64
720.617	7917.55
720.96	7936.53
721.303	7916.87
721.646	7921.16
721.989	7811.79
722.331	7851.56
722.674	7768.17
723.016	7871.22
723.359	7819.47
723.701	7796.19
724.044	7768.62
724.386	7766.36
724.729	7803.42
725.071	7768.62
725.413	7743.54
725.755	7732.92
726.097	7754.84
726.439	7648.63
726.782	7687.72
727.124	7768.85
727.465	7648.85
727.807	7665.58
728.149	7702.64
728.491	7710.09
728.833	7749.87
729.175	7678
729.516	7648.17
729.858	7644.33
730.199	7705.8
730.541	7675.52
730.882	7694.73
731.224	7661.73
731.565	7608.4
731.906	7647.95
732.248	7598.46
732.589	7598.46
732.93	7558.01
733.271	7654.5
733.612	7591.9
733.953	7635.97
734.294	7606.14
734.635	7599.36
734.976	7671
735.317	7601.17
735.658	7597.33
735.999	7606.37
736.339	7565.24
736.68	7669.64
737.021	7650.43
737.361	7600.04
737.702	7692.69
738.042	7625.35
738.383	7660.15
738.723	7604.56
739.063	7628.06
739.404	7655.63
739.744	7596.65
740.084	7633.26
740.424	7753.93
740.764	7694.73
741.104	7795.74
741.444	7723.88
741.784	7712.35
742.124	7708.96
742.464	7666.93
742.804	7731.79
743.143	7809.3
743.483	7809.53
743.823	7778.11
744.162	7747.16
744.502	7891.56
744.841	7809.07
745.181	7872.8
745.52	7861.28
745.86	7968.62
746.199	7962.74
746.538	7975.4
746.877	8033.25
747.216	8026.7
747.556	8158.67
747.895	8119.8
748.234	8162.96
748.573	8214.71
748.911	8184.43
749.25	8270.98
749.589	8357.76
749.928	8403.86
750.267	8528.15
750.605	8545.33
750.944	8638.21
751.283	8622.39
751.621	8717.75
751.96	8753.91
752.298	8854.7
752.636	8954.35
752.975	9024.41
753.313	9083.62
753.651	9263.95
753.989	9292.65
754.327	9300.11
754.666	9513.66
755.004	9623.94
755.342	9794.78
755.679	9856.7
756.017	9851.05
756.355	10047.66
756.693	10110.03
757.031	10339.4
757.368	10388.22
757.706	10571.94
758.044	10707.08
758.381	10802.22
758.719	10906.17
759.056	11185.48
759.394	11266.61
759.731	11325.37
760.068	11472.48
760.405	11657.79
760.743	11740.04
761.08	11897.1
761.417	12047.83
761.754	12184.55
762.091	12381.38
762.428	12472.45
762.765	12573.92
763.102	12839.45
763.438	12945.44
763.775	13057.52
764.112	13302.49
764.449	13388.81
764.785	13510.85
765.122	13703.16
765.458	13723.72
765.795	13934.56
766.131	14087.1
766.467	14267.89
766.804	14326.19
767.14	14438.28
767.476	14628.78
767.812	14637.6
768.148	14868.55
768.485	14993.29
768.821	15015.66
769.157	15174.53
769.492	15286.62
769.828	15435.31
770.164	15482.77
770.5	15507.63
770.836	15736.32
771.171	15795.31
771.507	15932.02
771.842	15911.01
772.178	16027.16
772.513	16169.76
772.849	16284.78
773.184	16327.04
773.519	16432.35
773.855	16430.32
774.19	16413.37
774.525	16480.94
774.86	16675.06
775.195	16747.6
775.53	16767.03
775.865	16696.75
776.2	16707.15
776.535	16734.94
776.87	16940.13
777.205	17022.17
777.539	16945.56
777.874	17108.26
778.209	16945.11
778.543	17005.44
778.878	17013.35
779.212	17150.07
779.547	17115.04
779.881	17223.97
780.215	17177.42
780.55	17306.9
780.884	17281.37
781.218	17161.6
781.552	17278.66
781.886	17237.3
782.22	17254.02
782.554	17213.35
782.888	17212.67
783.222	17077.98
783.556	17111.65
783.889	17128.6
784.223	17106.23
784.557	17130.86
784.89	17252.44
785.224	17119.56
785.557	17127.93
785.891	17090.86
786.224	17200.47
786.558	17210.64
786.891	17059.23
787.224	16998.44
787.557	16998.66
787.891	17024.43
788.224	16991.66
788.557	16962.73
788.89	17044.76
789.223	17030.3
789.556	16896.07
789.888	16909.17
790.221	16827.82
790.554	16729.74
790.887	16704.66
791.219	16773.81
791.552	16710.31
791.884	16745.11
792.217	16738.11
792.549	16651.55
792.882	16561.16
793.214	16462.18
793.546	16572.23
793.879	16499.92
794.211	16393.26
794.543	16451.11
794.875	16309.19
795.207	16508.51
795.539	16423.54
795.871	16464.44
796.203	16314.61
796.535	16235.29
796.867	16145.8
797.198	16122.98
797.53	16174.05
797.862	16083.66
798.193	16121.85
798.525	16029.2
798.856	16198.46
799.188	15957.33
799.519	15924.57
799.85	15877.56
800.182	15861.74
800.513	15946.04
800.844	15713.73
801.175	15793.72
801.506	15874.17
801.837	15801.63
802.168	15657.91
802.499	15630.34
802.83	15591.47
803.161	15577.68
803.491	15592.82
803.822	15485.93
804.153	15473.05
804.483	15381.3
804.814	15359.84
805.145	15290.69
805.475	15223.79
805.805	15253.17
806.136	15208.2
806.466	15243.91
806.796	15201.65
807.126	15121.88
807.457	15102.22
807.787	15061.99
808.117	15081.43
808.447	14980.64
808.777	15010.69
809.107	14928.66
809.436	14924.14
809.766	14972.95
810.096	14937.02
810.426	14888.44
810.755	14884.59
811.085	14818.83
811.414	14763.69
811.744	14706.97
812.073	14658.16
812.403	14636.24
812.732	14566.18
813.061	14717.82
813.39	14530.93
813.719	14559.86
814.049	14543.81
814.378	14515.34
814.707	14473.08
815.036	14465.17
815.365	14446.41
815.693	14283.03
816.022	14385.4
816.351	14243.26
816.68	14179.08
817.008	14301.33
817.337	14122.81
817.665	14089.14
817.994	14188.79
818.322	14143.15
818.651	14054.79
818.979	14025.41
819.307	14072.64
819.636	14070.15
819.964	13982.25
820.292	14041.68
820.62	14057.95
820.948	13921.46
821.276	14026.31
821.604	13967.33
821.932	13932.76
822.259	13990.15
822.587	13935.24
822.915	13960.55
823.243	13922.59
823.57	13909.03
823.898	13931.4
824.225	13968.91
824.553	13946.54
824.88	13921.46
825.207	14002.36
825.535	13939.53
825.862	13962.58
826.189	13933.89
826.516	13978.86
826.843	14009.59
827.17	14039.19
827.497	14050.49
827.824	13993.77
828.151	14058.63
828.478	14008.69
828.805	14085.29
829.131	13995.58
829.458	13992.87
829.785	13942.7
830.111	13975.01
830.438	14064.05
830.764	13973.88
831.09	13998.06
831.417	13935.24
831.743	14019.08
832.069	13931.4
832.395	13955.81
832.722	13972.75
833.048	13859.08
833.374	13916.71
833.7	13953.55
834.026	13880.78
834.351	13870.38
834.677	13888.24
835.003	13903.38
835.329	13905.19
835.654	13807.79
835.98	13725.08
836.306	13805.07
836.631	13732.08
836.956	13826.77
837.282	13824.51
837.607	13717.39
837.932	13728.01
838.258	13665.64
838.583	13681.46
838.908	13583.39
839.233	13625.64
839.558	13513.11
839.883	13551.52
840.208	13494.8
840.533	13520.34
840.858	13548.81
841.182	13435.14
841.507	13439.89
841.832	13363.05
842.156	13414.35
842.481	13458.64
842.805	13364.63
843.13	13343.17
843.454	13344.07
843.778	13254.13
844.103	13208.25
844.427	13216.84
844.751	13221.14
845.075	13109.95
845.399	13135.71
845.723	13005.1
846.047	13093
846.371	12942.72
846.695	12944.53
847.019	12809.39
847.343	12839.68
847.666	12800.13
847.99	12693.47
848.313	12652.34
848.637	12641.49
848.96	12543.87
849.284	12559.68
849.607	12437.88
849.931	12436.98
850.254	12320.37
850.577	12262.52
850.9	12201.05
851.223	12216.42
851.546	12129.64
851.869	12072.01
852.192	12100.26
852.515	11982.3
852.838	11880.83
853.161	11966.93
853.483	11902.53
853.806	11853.26
854.129	11858.01
854.451	11737.56
854.774	11693.49
855.096	11699.37
855.419	11603.1
855.741	11604.23
856.063	11531.91
856.385	11520.16
856.708	11552.93
857.03	11496.44
857.352	11478.36
857.674	11408.08
857.996	11359.72
858.318	11295.08
858.64	11377.79
858.961	11300.73
859.283	11262.54
859.605	11241.3
859.926	11256.22
860.248	11220.06
860.57	11129.89
860.891	11146.39
861.212	11130.12
861.534	11054.64
861.855	11083.34
862.176	11052.83
862.498	10978.48
862.819	11027.29
863.14	10982.1
863.461	10982.55
863.782	10924.25
864.103	10933.29
864.424	10836.11
864.745	10844.7
865.065	10858.26
865.386	10836.57
865.707	10736.91
866.027	10801.31
866.348	10792.05
866.668	10816.9
866.989	10783.23
867.309	10662.33
867.63	10745.27
867.95	10613.52
868.27	10618.49
868.59	10700.52
868.91	10614.2
869.23	10552.51
869.55	10591.6
869.87	10562
870.19	10527.42
870.51	10582.79
870.83	10533.97
871.15	10421.44
871.469	10455.33
871.789	10489.23
872.109	10490.59
872.428	10449.91
872.748	10470.47
873.067	10376.24
873.386	10403.58
873.706	10404.71
874.025	10323.36
874.344	10251.95
874.663	10352.06
874.982	10277.03
875.301	10270.03
875.62	10257.82
875.939	10249.91
876.258	10258.28
876.577	10229.8
876.896	10231.84
877.214	10192.97
877.533	10198.84
877.852	10175.11
878.17	10197.03
878.489	10124.95
878.807	10108.67
879.125	10133.53
879.444	10107.77
879.762	10098.05
880.08	10056.25
880.398	9999.53
880.716	10063.25
881.034	9958.17
881.352	9965.18
881.67	9947.55
881.988	9980.99
882.306	9980.77
882.624	9842.24
882.941	9845.63
883.259	9850.6
883.577	9811.28
883.894	9772.86
884.212	9822.81
884.529	9703.04
884.846	9693.09
885.164	9672.08
885.481	9611.74
885.798	9677.05
886.115	9620.33
886.432	9603.83
886.75	9576.03
887.067	9571.29
887.383	9495.13
887.7	9517.96
888.017	9455.13
888.334	9462.36
888.651	9422.14
888.967	9343.72
889.284	9447.68
889.6	9340.33
889.917	9279.54
890.233	9254.01
890.55	9285.87
890.866	9229.6
891.182	9204.07
891.498	9162.49
891.815	9138.53
892.131	9163.84
892.447	9103.5
892.763	9112.77
893.079	9077.97
893.395	8989.83
893.71	9010.62
894.026	8958.65
894.342	8973.56
894.657	8889.95
894.973	8833.23
895.289	8864.19
895.604	8885.2
895.92	8812.21
896.235	8771.53
896.55	8784.87
896.865	8708.94
897.181	8693.34
897.496	8656.28
897.811	8601.14
898.126	8590.75
898.441	8554.82
898.756	8500.36
899.071	8431.43
899.386	8467.81
899.7	8425.1
900.015	8423.75
900.33	8291.1
900.644	8362.28
900.959	8355.5
901.273	8212.23
901.588	8242.96
901.902	8217.43
902.216	8191.44
902.531	8130.65
902.845	8160.03
903.159	8030.99
903.473	8068.95
903.787	7978.34
904.101	7910.31
904.415	7961.61
904.729	7918.22
905.042	7874.16
905.356	7860.37
905.67	7863.31
905.984	7846.81
906.297	7805.68
906.611	7728.85
906.924	7791
907.237	7736.31
907.551	7701.51
907.864	7644.56
908.177	7634.39
908.491	7605.24
908.804	7504.22
909.117	7546.93
909.43	7475.75
909.743	7425.81
910.056	7455.19
910.368	7421.06
910.681	7353.49
910.994	7358.92
911.307	7299.94
911.619	7205.7
911.932	7276.66
912.244	7210.67
912.557	7202.76
912.869	7172.48
913.181	7126.61
913.494	7063.56
913.806	7041.41
914.118	7005.71
914.43	6951.92
914.742	6927.74
915.054	6956.89
915.366	6953.96
915.678	6852.94
915.99	6860.17
916.302	6829.89
916.613	6773.4
916.925	6745.6
917.236	6798.03
917.548	6690.01
917.859	6699.05
918.171	6671.93
918.482	6638.03
918.794	6593.29
919.105	6606.62
919.416	6539.73
919.727	6535.66
920.038	6450.47
920.349	6489.34
920.66	6485.27
920.971	6494.53
921.282	6429.68
921.593	6408.66
921.903	6294.09
922.214	6310.58
922.525	6250.47
922.835	6276.91
923.146	6237.36
923.456	6205.5
923.767	6220.19
924.077	6216.12
924.387	6205.73
924.697	6129.12
925.008	6092.96
925.318	6116.92
925.628	6066.75
925.938	6051.61
926.248	6042.57
926.558	5942.23
926.867	5977.48
927.177	5917.37
927.487	5925.51
927.796	5853.65
928.106	5838.96
928.416	5829.69
928.725	5875.79
929.034	5779.07
929.344	5752.63
929.653	5776.59
929.962	5721.9
930.271	5647.1
930.581	5645.29
930.89	5656.36
931.199	5593.77
931.508	5560.32
931.817	5586.53
932.125	5541.79
932.434	5532.98
932.743	5496.14
933.051	5499.3
933.36	5458.18
933.669	5438.06
933.977	5419.08
934.286	5368.01
934.594	5339.99
934.902	5357.84
935.21	5277.16
935.519	5315.58
935.827	5313.09
936.135	5274.68
936.443	5216.83
936.751	5198.75
937.059	5191.97
937.367	5185.19
937.674	5200.33
937.982	5158.75
938.29	5128.01
938.597	5125.98
938.905	5050.73
939.213	5037.4
939.52	5011.86
939.827	4996.49
940.135	5018.87
940.442	4960.56
940.749	4946.1
941.056	4961.01
941.363	4836.05
941.67	4850.28
941.977	4840.56
942.284	4797.63
942.591	4806.22
942.898	4781.58
943.205	4793.33
943.511	4760.11
943.818	4771.87
944.125	4724.86
944.431	4724.18
944.738	4630.17
945.044	4630.63
945.35	4650.06
945.657	4557.18
945.963	4580.01
946.269	4581.36
946.575	4526.45
946.881	4523.74
947.187	4513.57
947.493	4462.04
947.799	4452.78
948.105	4506.34
948.41	4437.41
948.716	4441.71
949.022	4351.09
949.327	4399.67
949.633	4347.7
949.938	4298.88
950.244	4330.3
950.549	4335.04
950.854	4281.71
951.16	4255.5
951.465	4289.39
951.77	4236.51
952.075	4220.92
952.38	4180.02
952.685	4179.79
952.99	4154.03
953.294	4109.28
953.599	4128.49
953.904	4128.27
954.209	4071.09
954.513	4103.41
954.818	4048.27
955.122	4041.72
955.426	4006.01
955.731	4019.12
956.035	4011.43
956.339	3963.3
956.643	3927.37
956.948	3960.81
957.252	3948.38
957.556	3912.23
957.86	3875.39
958.163	3876.52
958.467	3882.85
958.771	3832.46
959.075	3806.47
959.378	3805.79
959.682	3808.28
959.985	3757.43
960.289	3752.91
960.592	3740.03
960.896	3725.79
961.199	3677.43
961.502	3702.97
961.805	3664.1
962.108	3656.64
962.411	3647.6
962.714	3603.54
963.017	3643.99
963.32	3627.94
963.623	3591.78
963.926	3614.38
964.228	3527.83
964.531	3522.18
964.833	3553.82
965.136	3490.54
965.438	3531.22
965.741	3452.13
966.043	3452.35
966.345	3446.93
966.648	3446.48
966.95	3394.28
967.252	3402.86
967.554	3394.28
967.856	3372.58
968.158	3340.04
968.46	3354.73
968.761	3321.06
969.063	3281.51
969.365	3261.85
969.666	3299.81
969.968	3242.19
970.269	3221.62
970.571	3257.56
970.872	3224.56
971.174	3186.82
971.475	3201.74
971.776	3219.14
972.077	3172.36
972.378	3153.83
972.679	3136.43
972.98	3140.95
973.281	3131.01
973.582	3093.49
973.883	3096.2
974.183	3053.72
974.484	3052.14
974.785	3025.02
975.085	3031.57
975.386	3020.95
975.686	3007.62
975.986	3017.56
976.287	2968.98
976.587	2969.43
976.887	2959.94
977.187	2985.92
977.487	2960.39
977.787	2949.99
978.087	2913.16
978.387	2868.19
978.687	2876.32
978.987	2855.53
979.286	2834.74
979.586	2853.05
979.885	2808.75
980.185	2828.87
980.484	2804.46
980.784	2795.87
981.083	2778.47
981.382	2763.11
981.682	2716.78
981.981	2732.6
982.28	2700.73
982.579	2714.07
982.878	2686.95
983.177	2696.67
983.475	2698.02
983.774	2655.99
984.073	2638.59
984.372	2644.46
984.67	2641.75
984.969	2639.94
985.267	2592.94
985.566	2579.16
985.864	2589.32
986.162	2594.07
986.461	2569.66
986.759	2530.12
987.057	2564.69
987.355	2492.38
987.653	2518.59
987.951	2514.98
988.249	2477.24
988.547	2468.42
988.844	2471.81
989.142	2433.85
989.44	2444.24
989.737	2440.63
990.035	2428.65
990.332	2402.44
990.63	2416.9
990.927	2379.84
991.224	2397.01
991.521	2366.96
991.819	2375.09
992.116	2321.99
992.413	2339.84
992.71	2312.5
993.006	2310.01
993.303	2321.31
993.6	2284.7
993.897	2285.6
994.193	2260.97
994.49	2240.41
994.787	2280.41
995.083	2243.57
995.379	2236.57
995.676	2227.3
995.972	2207.64
996.268	2213.74
996.565	2203.57
996.861	2168.32
997.157	2143.01
997.453	2096.23
997.749	2153.18
998.044	2130.81
998.34	2124.93
998.636	2085.83
998.932	2070.92
999.227	2052.62
999.523	2072.95
999.818	2055.55
1000.114	2040.41
1000.409	2026.18
1000.704	2021.43
1001	2027.08
1001.295	1995.67
1001.59	1984.82
1001.885	1980.75
1002.18	1998.83
1002.475	1979.85
1002.77	1971.26
1003.065	1946.86
1003.359	1918.61
1003.654	1921.55
1003.949	1933.3
1004.243	1930.58
1004.538	1903.24
1004.832	1852.39
1005.127	1871.6
1005.421	1888.55
1005.715	1886.52
1006.009	1827.08
1006.304	1815.11
1006.598	1819.63
1006.892	1812.62
1007.186	1788.67
1007.48	1832.06
1007.773	1787.76
1008.067	1722
1008.361	1755.67
1008.655	1778.5
1008.948	1755
1009.242	1734.21
1009.535	1739.18
1009.829	1707.31
1010.122	1687.65
1010.415	1697.14
1010.708	1693.75
1011.001	1698.73
1011.295	1685.85
1011.588	1657.6
1011.881	1648.56
1012.173	1636.36
1012.466	1617.37
1012.759	1621.89
1013.052	1605.4
1013.344	1612.63
1013.637	1567.66
1013.93	1579.86
1014.222	1562.91
1014.514	1545.06
1014.807	1554.78
1015.099	1534.66
1015.391	1542.57
1015.683	1521.1
1015.976	1522.23
1016.268	1501.67
1016.56	1529.01
1016.851	1510.03
1017.143	1482.01
1017.435	1458.28
1017.727	1459.86
1018.018	1440.88
1018.31	1433.2
1018.602	1440.65
1018.893	1447.21
1019.185	1417.83
1019.476	1406.3
1019.767	1409.02
1020.058	1375.8
1020.35	1386.42
1020.641	1360.88
1020.932	1386.64
1021.223	1335.35
1021.514	1363.37
1021.804	1305.52
1022.095	1309.58
1022.386	1333.09
1022.677	1319.98
1022.967	1289.7
1023.258	1305.74
1023.548	1291.51
1023.839	1270.26
1024.129	1276.82
1024.419	1269.13
1024.709	1235.46
1025	1251.28
1025.29	1225.29
1025.58	1239.76
1025.87	1218.97
1026.16	1206.99
1026.449	1182.36
1026.739	1216.71
1027.029	1175.8
1027.319	1183.71
1027.608	1194.11
1027.898	1173.54
1028.187	1155.46
1028.477	1151.17
1028.766	1144.84
1029.055	1147.55
1029.344	1146.65
1029.634	1123.83
1029.923	1107.33
1030.212	1129.48
1030.501	1083.83
1030.79	1087.22
1031.078	1053.55
1031.367	1061
1031.656	1069.36
1031.945	1051.06
1032.233	1060.1
1032.522	1043.83
1032.81	1067.56
1033.099	1053.55
1033.387	1022.36
1033.675	1017.39
1033.963	1014.22
1034.251	1000.67
1034.54	1004.51
1034.828	992.98
1035.116	997.28
1035.403	990.5
1035.691	975.36
1035.979	986.43
1036.267	959.54
1036.554	917.5
1036.842	981.01
1037.129	948.46
1037.417	931.97
1037.704	951.18
1037.992	915.47
1038.279	944.4
1038.566	920.22
1038.853	920.22
1039.14	920.22
