Data from hue_340_FLMS001491_36.txt Node
Date: Mon Feb 06 15:43:02 GMT 2017
User: dcchb
Spectrometer: FLMS00149
Trigger mode: 0
Integration Time (sec): 2.000000E-2
Scans to average: 10
Electric dark correction enabled: true
Nonlinearity correction enabled: false
Boxcar width: 0
XAxis mode: Wavelengths
Number of Pixels in Spectrum: 2048
>>>>>Begin Spectral Data<<<<<
341.393	-14.22
341.776	-14.22
342.16	-14.22
342.543	-75.69
342.927	-54.67
343.31	-52.19
343.693	-72.75
344.077	-88.35
344.46	-55.58
344.843	-66.42
345.226	-21.68
345.61	-32.53
345.993	-7.44
346.376	-24.62
346.759	6.79
347.142	38.21
347.525	44.53
347.908	59.22
348.291	78.88
348.674	99.67
349.057	94.25
349.44	101.03
349.823	148.71
350.206	157.52
350.588	188.48
350.971	216.51
351.354	206.34
351.737	235.94
352.119	232.1
352.502	252.44
352.884	281.36
353.267	287.46
353.65	288.14
354.032	288.37
354.414	310.74
354.797	289.95
355.179	303.28
355.562	310.97
355.944	320.46
356.326	322.27
356.709	304.64
357.091	293.34
357.473	327.46
357.855	328.14
358.238	326.11
358.62	333.56
359.002	348.25
359.384	319.1
359.766	332.66
360.148	352.55
360.53	332.89
360.912	347.12
361.294	311.64
361.676	322.94
362.057	327.69
362.439	327.92
362.821	317.97
363.203	324.53
363.584	318.2
363.966	326.11
364.348	330.63
364.729	335.37
365.111	341.7
365.493	318.65
365.874	315.71
366.256	307.35
366.637	288.14
367.019	293.57
367.4	316.16
367.781	308.03
368.163	303.73
368.544	283.62
368.925	306.67
369.306	317.29
369.688	291.31
370.069	304.19
370.45	281.59
370.831	289.27
371.212	308.71
371.593	302.83
371.974	292.21
372.355	307.8
372.736	313
373.117	305.09
373.498	311.64
373.879	324.75
374.26	303.06
374.641	318.65
375.021	318.88
375.402	320.01
375.783	311.64
376.163	323.62
376.544	307.58
376.925	310.97
377.305	301.93
377.686	306.9
378.066	308.71
378.447	319.33
378.827	322.72
379.208	299.44
379.588	329.05
379.968	320.91
380.349	339.21
380.729	315.94
381.109	333.34
381.489	309.84
381.87	323.4
382.25	312.77
382.63	319.78
383.01	325.66
383.39	348.03
383.77	354.13
384.15	325.66
384.53	324.3
384.91	335.6
385.29	326.11
385.67	336.73
386.049	328.37
386.429	338.54
386.809	338.76
387.189	330.4
387.568	364.98
387.948	331.08
388.328	334.92
388.707	360.23
389.087	357.97
389.466	337.86
389.846	343.51
390.225	348.25
390.605	355.03
390.984	369.27
391.363	337.18
391.743	338.99
392.122	350.29
392.501	333.11
392.881	360
393.26	370.17
393.639	374.24
394.018	342.83
394.397	344.86
394.776	359.1
395.155	333.34
395.534	364.98
395.913	360.46
396.292	373.79
396.671	376.5
397.05	372.66
397.429	364.52
397.808	374.47
398.186	359.78
398.565	380.8
398.944	362.94
399.323	367.91
399.701	370.4
400.08	359.1
400.458	376.05
400.837	390.06
401.215	371.76
401.594	383.73
401.972	379.21
402.351	396.84
402.729	401.36
403.107	379.44
403.486	402.26
403.864	395.26
404.242	378.31
404.62	393.45
404.999	387.57
405.377	409.04
405.755	393
406.133	384.86
406.511	413.34
406.889	410.85
407.267	408.36
407.645	410.4
408.023	426.22
408.401	422.38
408.779	414.47
409.156	419.21
409.534	444.75
409.912	447.91
410.29	447.91
410.667	442.26
411.045	437.97
411.422	447.69
411.8	445.2
412.178	452.66
412.555	483.39
412.933	484.75
413.31	464.63
413.687	443.39
414.065	468.7
414.442	468.7
414.819	484.3
415.197	494.69
415.574	498.08
415.951	479.78
416.328	517.97
416.705	507.12
417.082	484.07
417.46	528.14
417.837	514.58
418.214	521.58
418.591	539.89
418.967	521.81
419.344	539.21
419.721	534.92
420.098	532.2
420.475	528.14
420.852	541.92
421.228	562.49
421.605	559.77
421.982	559.77
422.358	589.6
422.735	562.71
423.111	552.54
423.488	583.28
423.864	572.65
424.241	583.95
424.617	600.45
424.994	580.34
425.37	609.04
425.746	587.8
426.123	607.68
426.499	596.61
426.875	616.04
427.251	596.16
427.627	635.93
428.003	624.63
428.379	633.22
428.756	625.31
429.132	636.61
429.507	651.3
429.883	651.3
430.259	685.42
430.635	638.64
431.011	676.83
431.387	673.44
431.763	688.36
432.138	690.17
432.514	692.65
432.89	698.75
433.265	718.64
433.641	728.36
434.016	723.16
434.392	727.45
434.767	733.78
435.143	745.53
435.518	734.23
435.894	751.18
436.269	753.89
436.644	774.68
437.02	757.28
437.395	776.26
437.77	794.57
438.145	797.51
438.52	792.76
438.895	796.83
439.271	824.63
439.646	821.46
440.021	808.13
440.395	799.77
440.77	843.16
441.145	838.86
441.52	837.96
441.895	848.81
442.27	849.71
442.645	851.74
443.019	862.36
443.394	881.12
443.769	861.46
444.143	841.8
444.518	875.25
444.892	861.23
445.267	882.02
445.641	863.49
446.016	888.58
446.39	870.05
446.764	875.25
447.139	898.52
447.513	883.61
447.887	919.09
448.262	924.74
448.636	879.54
449.01	910.72
449.384	911.63
449.758	931.74
450.132	935.81
450.506	945.07
450.88	936.26
451.254	936.94
451.628	924.96
452.002	969.25
452.376	941.68
452.75	942.81
453.123	960.67
453.497	973.1
453.871	990.72
454.244	987.78
454.618	995.92
454.992	995.24
455.365	991.63
455.739	1008.35
456.112	1045.86
456.486	1046.77
456.859	1054.45
457.232	1054.68
457.606	1058.52
457.979	1057.84
458.352	1075.92
458.725	1076.14
459.099	1074.79
459.472	1096.71
459.845	1112.08
460.218	1112.3
460.591	1105.75
460.964	1118.4
461.337	1170.15
461.71	1179.87
462.083	1194.11
462.456	1172.41
462.829	1170.38
463.201	1159.76
463.574	1225.52
463.947	1201.11
464.32	1212.64
464.692	1221.68
465.065	1246.08
465.438	1244.5
465.81	1271.85
466.183	1319.08
466.555	1297.61
466.928	1281.34
467.3	1317.27
467.672	1320.66
468.045	1352.97
468.417	1359.98
468.789	1352.75
469.161	1365.4
469.534	1368.57
469.906	1418.28
470.278	1406.76
470.65	1460.31
471.022	1449.02
471.394	1482.46
471.766	1506.64
472.138	1498.73
472.51	1493.31
472.882	1538.73
473.253	1583.48
473.625	1572.18
473.997	1572.4
474.369	1594.32
474.74	1634.1
475.112	1682.23
475.484	1696.69
475.855	1675.9
476.227	1710.03
476.598	1745.73
476.97	1763.58
477.341	1813.07
477.713	1822.34
478.084	1801.1
478.455	1862.34
478.827	1895.56
479.198	1932.17
479.569	1931.94
479.94	1954.09
480.311	1943.92
480.682	2029.79
481.053	2071.82
481.424	2076.12
481.795	2095.1
482.166	2138.49
482.537	2160.86
482.908	2196.11
483.279	2230.92
483.65	2270.46
484.021	2283.57
484.391	2317.02
484.762	2337.35
485.133	2370.12
485.503	2417.13
485.874	2425.04
486.244	2455.99
486.615	2487.18
486.985	2537.35
487.356	2551.81
487.726	2592.49
488.097	2641.07
488.467	2620.06
488.837	2690.79
489.207	2724.24
489.578	2758.59
489.948	2740.06
490.318	2813.73
490.688	2814.63
491.058	2842.65
491.428	2884.68
491.798	2924.46
492.168	2988.18
492.538	2978.69
492.908	2970.33
493.278	3062.31
493.648	3069.09
494.017	3082.42
494.387	3098.24
494.757	3131.23
495.126	3150.89
495.496	3197.67
495.866	3185.92
496.235	3206.94
496.605	3259.14
496.974	3220.49
497.344	3269.98
497.713	3314.5
498.082	3314.73
498.452	3349.08
498.821	3357.21
499.19	3379.81
499.559	3380.72
499.928	3407.38
500.298	3427.72
500.667	3420.49
501.036	3455.97
501.405	3507.27
501.774	3529.86
502.143	3500.94
502.512	3530.09
502.88	3558.11
503.249	3589.3
503.618	3566.93
503.987	3623.87
504.356	3636.53
504.724	3635.17
505.093	3642.18
505.462	3652.12
505.83	3683.31
506.199	3714.94
506.567	3737.32
506.936	3746.58
507.304	3768.5
507.672	3766.69
508.041	3794.72
508.409	3807.37
508.777	3813.7
509.145	3832.91
509.514	3827.71
509.882	3892.79
510.25	3888.95
510.618	3882.62
510.986	3888.05
511.354	3897.54
511.722	3923.75
512.09	3972.57
512.458	3973.02
512.826	3974.6
513.193	3993.36
513.561	4010.08
513.929	4036.74
514.297	4043.75
514.664	4063.86
515.032	4097.08
515.4	4127.59
515.767	4140.02
516.135	4114.48
516.502	4119.23
516.869	4171.66
517.237	4139.34
517.604	4168.94
517.972	4194.71
518.339	4220.02
518.706	4191.77
519.073	4225.21
519.44	4277.42
519.808	4285.55
520.175	4196.51
520.542	4300.92
520.909	4297.98
521.276	4284.65
521.643	4282.39
522.009	4325.55
522.376	4358.09
522.743	4364.65
523.11	4423.63
523.477	4437.64
523.843	4481.03
524.21	4507.69
524.577	4490.52
524.943	4540.46
525.31	4526.45
525.676	4554.47
526.043	4610.06
526.409	4546.56
526.776	4637.86
527.142	4663.62
527.508	4664.3
527.874	4703.39
528.241	4697.52
528.607	4686.9
528.973	4787.91
529.339	4745.65
529.705	4850.96
530.071	4869.04
530.437	4877.4
530.803	4870.39
531.169	4898.42
531.535	4879.89
531.901	4877.85
532.267	4933.67
532.632	4996.04
532.998	4971.41
533.364	5018.87
533.73	4970.5
534.095	5031.75
534.461	5090.28
534.826	5104.74
535.192	5084.4
535.557	5147.22
535.923	5128.92
536.288	5193.55
536.653	5193.55
537.019	5195.36
537.384	5214.11
537.749	5264.96
538.114	5195.58
538.479	5272.42
538.845	5262.25
539.21	5278.07
539.575	5309.93
539.94	5314.9
540.305	5374.79
540.67	5399.19
541.034	5416.82
541.399	5446.42
541.764	5457.72
542.129	5451.85
542.494	5497.72
542.858	5567.78
543.223	5552.64
543.587	5555.57
543.952	5583.82
544.316	5630.37
544.681	5639.87
545.045	5622.47
545.41	5679.64
545.774	5669.47
546.138	5678.28
546.503	5716.93
546.867	5774.78
547.231	5799.41
547.595	5826.75
547.959	5821.56
548.324	5861.55
548.688	5845.06
549.052	5909.69
549.416	5875.79
549.779	5902.01
550.143	5869.92
550.507	6030.36
550.871	6026.75
551.235	5956.02
551.599	6048.67
551.962	6029.01
552.326	6056.35
552.689	6115.33
553.053	6023.58
553.417	6060.42
553.78	6153.75
554.143	6112.62
554.507	6168.67
554.87	6221.77
555.234	6237.14
555.597	6213.64
555.96	6197.14
556.323	6179.51
556.686	6293.86
557.05	6304.03
557.413	6291.15
557.776	6351.94
558.139	6341.54
558.502	6335.21
558.865	6407.98
559.228	6438.49
559.59	6408.66
559.953	6420.18
560.316	6491.14
560.679	6465.61
561.041	6543.12
561.404	6543.12
561.767	6569.33
562.129	6530.01
562.492	6658.14
562.854	6600.29
563.217	6636.45
563.579	6606.62
563.941	6680.74
564.304	6676.67
564.666	6719.16
565.028	6758.48
565.39	6722.1
565.753	6809.1
566.115	6812.94
566.477	6803.68
566.839	6868.53
567.201	6922.09
567.563	6852.49
567.925	6896.1
568.287	6957.35
568.648	6957.12
569.01	7028.98
569.372	7061.52
569.734	7064.01
570.095	7064.24
570.457	7126.83
570.819	7154.85
571.18	7165.25
571.542	7254.06
571.903	7235.98
572.265	7268.52
572.626	7334.06
572.987	7319.14
573.349	7378.13
573.71	7447.05
574.071	7475.3
574.432	7519.59
574.794	7581.51
575.155	7638.91
575.516	7630.55
575.877	7717.33
576.238	7786.48
576.599	7865.8
576.96	7858.79
577.32	7932.69
577.681	8006.81
578.042	8103.3
578.403	8101.72
578.763	8244.32
579.124	8339.46
579.485	8342.62
579.845	8568.15
580.206	8544.65
580.566	8710.75
580.927	8812.89
581.287	8909.38
581.648	8995.48
582.008	9131.3
582.368	9343.5
582.728	9409.26
583.089	9535.13
583.449	9679.53
583.809	9822.35
584.169	9958.4
584.529	10078.17
584.889	10295.34
585.249	10380.08
585.609	10558.83
585.969	10836.34
586.329	10977.8
586.688	11157.46
587.048	11391.13
587.408	11451.46
587.768	11703.89
588.127	11909.31
588.487	12154.5
588.846	12410.76
589.206	12503.64
589.565	12827.7
589.925	13040.8
590.284	13258.2
590.643	13537.06
591.003	13797.84
591.362	14058.63
591.721	14189.02
592.08	14485.73
592.44	14799.17
592.799	15013.63
593.158	15243.46
593.517	15477.35
593.876	15815.19
594.235	16031.01
594.593	16326.14
594.952	16581.5
595.311	16874.6
595.67	17080.24
596.029	17537.41
596.387	17811.75
596.746	18047.9
597.104	18306.43
597.463	18503.71
597.822	18875.45
598.18	19012.17
598.538	19329
598.897	19696.67
599.255	19803.79
599.613	20325.13
599.972	20422.98
600.33	20730.09
600.688	20975.96
601.046	21208.27
601.404	21699.1
601.762	21837.41
602.12	22225.64
602.478	22353.78
602.836	22636.03
603.194	22813.65
603.552	23076.24
603.91	23184.49
604.268	23516.46
604.625	23764.81
604.983	24157.35
605.341	24299.94
605.698	24501.97
606.056	24837.1
606.413	24986.48
606.771	25185.79
607.128	25510.53
607.485	25701.49
607.843	25822.61
608.2	26259.44
608.557	26336.95
608.914	26578.52
609.272	26752.76
609.629	27093.54
609.986	27370.59
610.343	27434.55
610.7	27765.61
611.057	27839.73
611.414	27970.13
611.771	28283.79
612.127	28460.28
612.484	28678.36
612.841	28870.44
613.198	28913.38
613.554	29187.95
613.911	29353.37
614.267	29577.09
614.624	29551.33
614.98	29829.74
615.337	30018.21
615.693	30156.06
616.05	30307.92
616.406	30526.22
616.762	30528.7
617.118	30754.23
617.475	30875.59
617.831	31085.98
618.187	31113.09
618.543	31422.01
618.899	31625.85
619.255	31606.41
619.611	31666.3
619.967	31949
620.323	32079.62
620.678	31843.24
621.034	32050.47
621.39	32238.94
621.746	32236.23
622.101	32675.99
622.457	32458.82
622.812	32730
623.168	32808.19
623.523	32866.49
623.879	33195.07
624.234	32967.73
624.589	33105.81
624.945	33305.58
625.3	33422.41
625.655	33289.53
626.01	33552.13
626.365	33478
626.72	33611.56
627.075	33507.16
627.43	33734.49
627.785	33642.97
628.14	33851.78
628.495	33842.97
628.85	33831.67
629.205	33815.85
629.559	33977.2
629.914	33911.44
630.269	33986.24
630.623	33953.7
630.978	33945.56
631.332	34084.54
631.687	34230.98
632.041	34045.22
632.396	34180.58
632.75	34195.95
633.104	34263.07
633.459	34070.3
633.813	34239.79
634.167	34065.56
634.521	34116.41
634.875	34326.12
635.229	34367.25
635.583	34172
635.937	34287.25
636.291	34239.11
636.645	34275.5
636.999	34133.58
637.352	34293.8
637.706	34052.68
638.06	34337.19
638.413	34277.08
638.767	34064.88
639.121	34156.63
639.474	34112.79
639.828	34139.46
640.181	34268.72
640.534	34195.95
640.888	34194.82
641.241	34043.41
641.594	34107.59
641.947	34249.96
642.301	34122.05
642.654	34095.84
643.007	34255.16
643.36	34143.3
643.713	34100.36
644.066	34257.42
644.419	33907.37
644.771	33853.14
645.124	33568.85
645.477	33440.94
645.83	33349.42
646.182	33118.69
646.535	33108.3
646.888	33171.8
647.24	32915.53
647.593	33198.69
647.945	33080.73
648.298	32931.58
648.65	32952.14
649.002	32811.13
649.355	33067.39
649.707	32928.41
650.059	33010.22
650.411	33463.99
650.763	33461.06
651.115	33870.76
651.467	33731.56
651.819	33763.65
652.171	33747.38
652.523	33694.5
652.875	33669.86
653.227	33600.49
653.578	33792.35
653.93	33661.05
654.282	33518.68
654.633	33467.61
654.985	33591.67
655.337	33608.17
655.688	33518
656.039	33651.78
656.391	33429.87
656.742	33513.94
657.094	33431.68
657.445	33455.63
657.796	33402.75
658.147	33475.52
658.498	33423.54
658.849	33603.2
659.2	33495.18
659.551	33482.75
659.902	33589.19
660.253	33380.83
660.604	33552.8
660.955	33292.7
661.306	33510.77
661.656	33337.67
662.007	33358.69
662.358	33376.99
662.708	33487.72
663.059	33332.02
663.409	33161.85
663.76	33419.25
664.11	33372.47
664.461	33461.28
664.811	33345.58
665.161	33375.41
665.511	33302.64
665.862	33208.63
666.212	33341.06
666.562	33305.58
666.912	33245.02
667.262	33256.54
667.612	33190.55
667.962	33221.74
668.312	33313.04
668.662	33409.76
669.011	33159.59
669.361	33116.88
669.711	33052.25
670.06	33191.91
670.41	33148.07
670.76	33032.82
671.109	33214.06
671.459	33061.52
671.808	33019.03
672.157	33181.29
672.507	32917.11
672.856	32958.92
673.205	33054.51
673.554	33222.64
673.904	32855.65
674.253	33297.44
674.602	33040.73
674.951	32593.51
675.3	32457.69
675.649	32955.31
675.998	32910.79
676.346	32936.1
676.695	33017.23
677.044	32845.7
677.393	32902.65
677.741	32941.29
678.09	32772.94
678.438	32728.19
678.787	32809.09
679.135	32770.9
679.484	32583.79
679.832	32702.21
680.181	32496.56
680.529	32710.11
680.877	32456.79
681.225	32516.22
681.573	32567.52
681.922	32587.41
682.27	32351.03
682.618	32298.83
682.966	32175.44
683.314	32312.38
683.661	32261.31
684.009	32058.61
684.357	32051.6
684.705	32041.21
685.053	32080.98
685.4	32029.91
685.748	31894.77
686.095	31795.34
686.443	31673.08
686.79	31554.66
687.138	31710.59
687.485	31719.63
687.832	31597.38
688.18	31722.34
688.527	31491.16
688.874	31514.89
689.221	31375.69
689.568	31279.64
689.915	31252.3
690.262	31141.12
690.609	31178.63
690.956	31046.66
691.303	31060.89
691.65	30852.31
691.997	30858.86
692.344	30735.93
692.69	30747
693.037	30734.57
693.383	30450.29
693.73	30556.95
694.077	30461.81
694.423	30395.83
694.769	30269.27
695.116	30229.28
695.462	30160.35
695.808	29986.12
696.155	30177.98
696.501	29872.9
696.847	29755.16
697.193	29764.66
697.539	29742.06
697.885	29691.44
698.231	29410.99
698.577	29460.93
698.923	29377.09
699.269	29225.91
699.614	29174.61
699.96	29115.63
700.306	29110.21
700.651	28968.29
700.997	28938.01
701.342	28776.43
701.688	28743.89
702.033	28709.54
702.379	28778.69
702.724	28625.93
703.069	28705.25
703.415	28328.53
703.76	28445.14
704.105	28394.75
704.45	28357.69
704.795	28128.31
705.14	28030.69
705.485	28056.68
705.83	27981.43
706.175	27975.78
706.52	27853.52
706.865	27850.81
707.209	27736.91
707.554	27684.94
707.899	27747.53
708.243	27543.92
708.588	27515.67
708.932	27293.99
709.277	27314.78
709.621	27338.28
709.966	27182.12
710.31	27298.73
710.654	26947.33
710.998	27063.71
711.342	27005.86
711.687	26977.38
712.031	26814.9
712.375	26829.14
712.719	26846.99
713.063	26767.22
713.407	26849.93
713.75	26666.21
714.094	26627.79
714.438	26465.76
714.782	26453.33
715.125	26398.87
715.469	26439.32
715.812	26217.18
716.156	26173.56
716.499	26253.11
716.843	26339.66
717.186	26109.38
717.53	26154.13
717.873	26137.86
718.216	26128.59
718.559	26166.56
718.902	25738.09
719.246	25938.09
719.589	25910.97
719.932	25623.3
720.275	25746
720.617	25634.82
720.96	25619.68
721.303	25641.37
721.646	25697.19
721.989	25364.32
722.331	25561.38
722.674	25431.89
723.016	25418.33
723.359	25430.08
723.701	25347.82
724.044	25254.04
724.386	25177.66
724.729	25314.15
725.071	25064.67
725.413	25063.54
725.755	25180.59
726.097	24899.02
726.439	24894.5
726.782	24913.03
727.124	24983.99
727.465	24783.09
727.807	24781.28
728.149	24722.53
728.491	24679.59
728.833	24768.85
729.175	24515.98
729.516	24626.26
729.858	24500.61
730.199	24572.02
730.541	24491.35
730.882	24471.01
731.224	24486.6
731.565	24370.22
731.906	24348.53
732.248	24406.38
732.589	24277.79
732.93	24236.89
733.271	24240.51
733.612	24224.69
733.953	24369.09
734.294	24158.47
734.635	24140.85
734.976	24025.37
735.317	23985.6
735.658	24037.57
735.999	23986.28
736.339	23856.79
736.68	24117.35
737.021	24057.69
737.361	23855.43
737.702	24021.08
738.042	23874.41
738.383	23826.05
738.723	23872.38
739.063	23656.34
739.404	23683.91
739.744	23652.5
740.084	23619.05
740.424	23548.77
740.764	23509.9
741.104	23669.67
741.444	23492.05
741.784	23441.43
742.124	23489.79
742.464	23304.49
742.804	23358.27
743.143	23371.83
743.483	23427.42
743.823	23156.92
744.162	23205.96
744.502	23165.51
744.841	23163.7
745.181	23175
745.52	23132.74
745.86	23124.38
746.199	23039.41
746.538	23068.56
746.877	23038.73
747.216	22961.9
747.556	22940.2
747.895	23003.25
748.234	22812.3
748.573	22920.99
748.911	22862.46
749.25	22825.85
749.589	22634.45
749.928	22711.73
750.267	22855.91
750.605	22648.91
750.944	22648.01
751.283	22555.58
751.621	22596.48
751.96	22465.64
752.298	22448.69
752.636	22456.15
752.975	22305.64
753.313	22225.87
753.651	22271.52
753.989	22190.62
754.327	22169.15
754.666	22121.69
755.004	22189.26
755.342	22093.67
755.679	22009.38
756.017	21881.7
756.355	22042.15
756.693	21842.6
757.031	21876.05
757.368	21742.04
757.706	21760.57
758.044	21674.92
758.381	21691.65
758.719	21605.1
759.056	21498.66
759.394	21440.13
759.731	21324.88
760.068	21285.56
760.405	21215.73
760.743	21202.17
761.08	21163.98
761.417	21057.31
761.754	21068.61
762.091	21168.05
762.428	20904.32
762.765	20856.87
763.102	20892.35
763.438	20756.3
763.775	20606.93
764.112	20683.31
764.449	20782.07
764.785	20599.7
765.122	20392.92
765.458	20350.21
765.795	20342.76
766.131	20352.93
766.467	20210.56
766.804	20240.61
767.14	20040.62
767.476	20091.01
767.812	19965.82
768.148	19960.85
768.485	19813.73
768.821	19848.76
769.157	19723.11
769.492	19747.29
769.828	19733.96
770.164	19479.95
770.5	19482.89
770.836	19456.9
771.171	19404.7
771.507	19339.84
771.842	19145.73
772.178	19213.52
772.513	19046.97
772.849	19056.91
773.184	18982.79
773.519	18917.26
773.855	18848.33
774.19	18799.07
774.525	18719.52
774.86	18626.19
775.195	18671.16
775.53	18585.06
775.865	18401.56
776.2	18268.01
776.535	18264.84
776.87	18261.68
777.205	18133.77
777.539	18056.49
777.874	18062.82
778.209	17923.61
778.543	17930.16
778.878	17747.57
779.212	17765.65
779.547	17747.34
779.881	17704.41
780.215	17603.39
780.55	17616.95
780.884	17451.76
781.218	17459.22
781.552	17433
781.886	17311.88
782.22	17259.45
782.554	17166.12
782.888	17083.18
783.222	16957.76
783.556	16998.44
783.889	16857.2
784.223	16755.51
784.557	16701.95
784.89	16745.79
785.224	16648.16
785.557	16607.94
785.891	16565.68
786.224	16496.53
786.558	16526.81
786.891	16299.47
787.224	16252.92
787.557	16230.55
787.891	16205.01
788.224	16193.03
788.557	16240.49
788.89	16055.19
789.223	16040.04
789.556	15862.2
789.888	15885.92
790.221	15775.42
790.554	15654.07
790.887	15684.12
791.219	15714.86
791.552	15691.58
791.884	15577.91
792.217	15488.19
792.549	15544.24
792.882	15438.7
793.214	15318.26
793.546	15299.27
793.879	15193.51
794.211	15157.58
794.543	15162.1
794.875	15052.05
795.207	15144.93
795.539	15014.08
795.871	14926.63
796.203	14892.05
796.535	14831.49
796.867	14843.92
797.198	14734.77
797.53	14709.01
797.862	14603.7
798.193	14607.77
798.525	14607.09
798.856	14599.4
799.188	14427.21
799.519	14402.57
799.85	14316.93
800.182	14379.75
800.513	14233.31
800.844	14130.72
801.175	14265.63
801.506	14189.7
801.837	14031.96
802.168	14115.35
802.499	14029.93
802.83	13936.6
803.161	13991.74
803.491	13794.68
803.822	13931.85
804.153	13827.9
804.483	13745.19
804.814	13685.08
805.145	13678.98
805.475	13588.81
805.805	13541.13
806.136	13644.18
806.466	13532.09
806.796	13484.18
807.126	13435.14
807.457	13425.65
807.787	13371.64
808.117	13339.32
808.447	13311.08
808.777	13260.91
809.107	13196.28
809.436	13213.45
809.766	13189.95
810.096	13165.32
810.426	13023.63
810.755	13091.42
811.085	13040.8
811.414	13013.23
811.744	12926.91
812.073	12907.7
812.403	12868.15
812.732	12851.65
813.061	12770.98
813.39	12779.34
813.719	12711.77
814.049	12789.28
814.378	12704.09
814.707	12698.66
815.036	12675.84
815.365	12564.66
815.693	12507.93
816.022	12478.33
816.351	12483.53
816.68	12385.23
817.008	12475.62
817.337	12341.61
817.665	12329.63
817.994	12318.33
818.322	12320.82
818.651	12217.55
818.979	12128.51
819.307	12295.51
819.636	12213.93
819.964	12119.7
820.292	12201.5
820.62	12151.33
820.948	12074.5
821.276	12110.2
821.604	11982.75
821.932	12041.73
822.259	12037.66
822.587	12013.48
822.915	12013.26
823.243	12049.87
823.57	11987.72
823.898	11950.66
824.225	11953.6
824.553	12034.5
824.88	11999.7
825.207	12020.04
825.535	12038.12
825.862	12068.85
826.189	11889.87
826.516	12034.5
826.843	12090.09
827.17	12127.83
827.497	12045.8
827.824	11956.08
828.151	12090.54
828.478	11998.79
828.805	12074.72
829.131	11994.05
829.458	12025.23
829.785	11843.32
830.111	11959.47
830.438	11954.95
830.764	11995.18
831.09	12003.54
831.417	11937.33
831.743	11945.24
832.069	11938.46
832.395	11868.18
832.722	11906.14
833.048	11844.22
833.374	11927.38
833.7	11845.13
834.026	11854.17
834.351	11881.06
834.677	11769.65
835.003	11871.11
835.329	11832.7
835.654	11853.71
835.98	11792.92
836.306	11806.03
836.631	11790.66
836.956	11747.5
837.282	11756.32
837.607	11726.03
837.932	11662.98
838.258	11726.94
838.583	11734.85
838.908	11587.73
839.233	11678.8
839.558	11578.92
839.883	11560.61
840.208	11464.8
840.533	11562.2
840.858	11539.15
841.182	11588.86
841.507	11529.43
841.832	11433.84
842.156	11424.57
842.481	11409.43
842.805	11439.71
843.13	11281.53
843.454	11327.17
843.778	11281.75
844.103	11207.18
844.427	11231.36
844.751	11196.56
845.075	11231.36
845.399	11174.86
845.723	11097.35
846.047	11126.28
846.371	11047.18
846.695	11060.06
847.019	10962.44
847.343	10817.13
847.666	10772.61
847.99	10743.91
848.313	10750.69
848.637	10653.07
848.96	10644.71
849.284	10658.49
849.607	10600.19
849.931	10564.71
850.254	10479.51
850.577	10474.31
850.9	10337.6
851.223	10365.62
851.546	10328.78
851.869	10220.08
852.192	10327.2
852.515	10156.13
852.838	10127.88
853.161	10148.67
853.483	10029.81
853.806	10065.96
854.129	10081.78
854.451	9982.12
854.774	9971.73
855.096	9935.35
855.419	9913.43
855.741	9905.06
856.063	9826.42
856.385	9788.23
856.708	9760.66
857.03	9728.57
857.352	9683.83
857.674	9638.86
857.996	9645.18
858.318	9582.14
858.64	9598.86
858.961	9563.15
859.283	9557.73
859.605	9514.34
859.926	9459.65
860.248	9478.63
860.57	9463.49
860.891	9469.6
861.212	9422.59
861.534	9434.12
861.855	9386.21
862.176	9395.93
862.498	9390.5
862.819	9367.23
863.14	9274.8
863.461	9315.93
863.782	9232.54
864.103	9280.9
864.424	9191.64
864.745	9236.61
865.065	9168.36
865.386	9126.55
865.707	9110.06
866.027	9176.04
866.348	9105.76
866.668	9170.85
866.989	9080.45
867.309	9031.64
867.63	9001.59
867.95	9014.92
868.27	9008.59
868.59	9026.67
868.91	8982.6
869.23	9011.3
869.55	8939.21
869.87	8931.3
870.19	8902.83
870.51	8948.03
870.83	8915.49
871.15	8852.44
871.469	8876.62
871.789	8941.7
872.109	8849.5
872.428	8785.32
872.748	8890.18
873.067	8845.43
873.386	8806.11
873.706	8786
874.025	8747.13
874.344	8684.53
874.663	8752.1
874.982	8656.06
875.301	8751.42
875.62	8703.74
875.939	8698.77
876.258	8654.25
876.577	8647.7
876.896	8685.21
877.214	8564.31
877.533	8638.21
877.852	8608.15
878.17	8621.93
878.489	8519.11
878.807	8536.74
879.125	8520.24
879.444	8555.72
879.762	8461.71
880.08	8567.47
880.398	8444.54
880.716	8459.68
881.034	8433.01
881.352	8387.59
881.67	8436.4
881.988	8380.58
882.306	8380.36
882.624	8332.9
882.941	8352.56
883.259	8246.12
883.577	8264.2
883.894	8244.77
884.212	8169.74
884.529	8236.18
884.846	8160.03
885.164	8201.15
885.481	8117.99
885.798	8119.12
886.115	8079.8
886.432	8098.78
886.75	8127.71
887.067	8126.13
887.383	8019.69
887.7	8136.98
888.017	8049.29
888.334	8066.24
888.651	7996.87
888.967	7917.55
889.284	7921.61
889.6	7885.46
889.917	7861.95
890.233	7919.81
890.55	7856.53
890.866	7928.17
891.182	7803.65
891.498	7786.02
891.815	7776.31
892.131	7680.94
892.447	7746.03
892.763	7706.25
893.079	7671.45
893.395	7686.37
893.71	7588.97
894.026	7650.66
894.342	7569.08
894.657	7525.92
894.973	7431.68
895.289	7519.36
895.604	7518.91
895.92	7436.43
896.235	7392.36
896.55	7384.9
896.865	7338.58
897.181	7346.71
897.496	7365.24
897.811	7316.21
898.126	7294.29
898.441	7301.07
898.756	7193.95
899.071	7239.37
899.386	7189.2
899.7	7221.52
900.015	7113.95
900.33	7066.04
900.644	7043.67
900.959	7082.77
901.273	7075.31
901.588	6966.84
901.902	7021.52
902.216	6948.98
902.531	6911.24
902.845	6919.38
903.159	6881.64
903.473	6854.3
903.787	6854.3
904.101	6826.05
904.415	6789.67
904.729	6773.4
905.042	6704.47
905.356	6689.56
905.67	6697.47
905.984	6701.53
906.297	6643.68
906.611	6597.35
906.924	6592.16
907.237	6520.29
907.551	6537.47
907.864	6511.03
908.177	6467.87
908.491	6509.22
908.804	6431.71
909.117	6380.64
909.43	6346.51
909.743	6380.41
910.056	6338.83
910.368	6327.53
910.681	6272.84
910.994	6286.85
911.307	6238.04
911.619	6180.19
911.932	6208.21
912.244	6143.81
912.557	6163.02
912.869	6113.98
913.181	6084.6
913.494	6127.99
913.806	6030.59
914.118	6020.19
914.43	6004.15
914.742	6014.55
915.054	5928.45
915.366	5935.9
915.678	5905.62
915.99	5872.4
916.302	5792.4
916.613	5845.06
916.925	5844.15
917.236	5824.49
917.548	5754.44
917.859	5779.75
918.171	5706.53
918.482	5695.23
918.794	5620.21
919.105	5667.89
919.416	5619.3
919.727	5610.04
920.038	5637.38
920.349	5516.03
920.66	5550.83
920.971	5483.03
921.282	5493.65
921.593	5458.18
921.903	5416.82
922.214	5408.69
922.525	5405.97
922.835	5371.17
923.146	5318.07
923.456	5300.67
923.767	5276.49
924.077	5335.02
924.387	5259.76
924.697	5248.92
925.008	5182.25
925.318	5203.95
925.628	5177.28
925.938	5171.18
926.248	5114
926.558	5044.18
926.867	5051.86
927.177	5062.71
927.487	5042.14
927.796	4977.28
928.106	5005.31
928.416	4981.58
928.725	4997.17
929.034	4904.29
929.344	4928.02
929.653	4921.47
929.962	4878.3
930.271	4827.46
930.581	4834.92
930.89	4824.52
931.199	4735.03
931.508	4758.76
931.817	4780.45
932.125	4737.29
932.434	4715.14
932.743	4678.99
933.051	4650.29
933.36	4630.63
933.669	4597.86
933.977	4620.68
934.286	4567.8
934.594	4555.37
934.902	4571.19
935.21	4511.53
935.519	4516.05
935.827	4539.78
936.135	4464.76
936.443	4470.18
936.751	4413.23
937.059	4443.06
937.367	4417.75
937.674	4427.02
937.982	4406
938.29	4382.95
938.597	4357.19
938.905	4271.54
939.213	4333.69
939.52	4285.33
939.827	4290.3
940.135	4235.38
940.442	4216.63
940.749	4209.85
941.056	4216.85
941.363	4160.81
941.67	4171.88
941.977	4134.82
942.284	4097.53
942.591	4123.07
942.898	4083.3
943.205	4106.8
943.511	4079.45
943.818	4003.98
944.125	4022.06
944.431	3969.4
944.738	3995.39
945.044	3976.86
945.35	3989.74
945.657	3910.19
945.963	3916.3
946.269	3933.47
946.575	3855.96
946.881	3831.55
947.187	3879.23
947.493	3818.22
947.799	3809.63
948.105	3813.02
948.41	3777.99
948.716	3750.65
949.022	3777.09
949.327	3717.88
949.633	3730.09
949.938	3695.96
950.244	3692.35
950.549	3674.27
950.854	3676.53
951.16	3632.24
951.465	3620.26
951.77	3636.98
952.075	3603.99
952.38	3554.5
952.685	3578.23
952.99	3530.09
953.294	3560.6
953.599	3513.37
953.904	3488.28
954.209	3492.13
954.513	3514.27
954.818	3465.91
955.122	3418.23
955.426	3443.31
955.731	3432.92
956.035	3420.49
956.339	3407.16
956.643	3365.58
956.948	3336.65
957.252	3315.86
957.556	3302.07
957.86	3330.55
958.163	3313.6
958.467	3295.52
958.771	3273.37
959.075	3272.02
959.378	3255.07
959.682	3239.93
959.985	3229.99
960.289	3202.87
960.592	3216.43
960.896	3160.83
961.199	3166.03
961.502	3134.17
961.805	3118.35
962.108	3113.15
962.411	3091.91
962.714	3118.58
963.017	3078.35
963.32	3083.32
963.623	3071.8
963.926	3065.7
964.228	3041.97
964.531	3037
964.833	3005.13
965.136	2999.03
965.438	2989.09
965.741	2982.53
966.043	2936.66
966.345	2933.27
966.648	2928.3
966.95	2944.8
967.252	2890.33
967.554	2894.4
967.856	2876.55
968.158	2839.26
968.46	2831.13
968.761	2865.02
969.063	2815.53
969.365	2813.73
969.666	2754.74
969.968	2748.87
970.269	2796.1
970.571	2763.78
970.872	2724.24
971.174	2759.72
971.475	2711.36
971.776	2776.89
972.077	2685.59
972.378	2703.22
972.679	2691.02
972.98	2712.03
973.281	2638.14
973.582	2663.45
973.883	2639.49
974.183	2638.14
974.484	2643.11
974.785	2584.35
975.085	2603.34
975.386	2624.8
975.686	2573.73
975.986	2574.64
976.287	2567.63
976.587	2546.16
976.887	2523.79
977.187	2548.65
977.487	2510.46
977.787	2558.82
978.087	2491.7
978.387	2494.64
978.687	2464.13
978.987	2461.87
979.286	2426.17
979.586	2414.64
979.885	2412.15
980.185	2453.28
980.484	2433.17
980.784	2400.85
981.083	2405.37
981.382	2378.71
981.682	2369.67
981.981	2355.43
982.28	2343.68
982.579	2336
982.878	2339.16
983.177	2320.86
983.475	2351.82
983.774	2287.86
984.073	2263.46
984.372	2270.01
984.67	2273.4
984.969	2244.47
985.267	2256.9
985.566	2254.42
985.864	2241.09
986.162	2220.75
986.461	2220.52
986.759	2177.13
987.057	2182.56
987.355	2171.26
987.653	2176.23
987.951	2118.6
988.249	2145.49
988.547	2163.8
988.844	2104.14
989.142	2134.42
989.44	2117.47
989.737	2098.26
990.035	2112.05
990.332	2112.27
990.63	2110.69
990.927	2093.52
991.224	2039.28
991.521	2049.23
991.819	2025.27
992.116	2021.2
992.413	2007.87
992.71	2033.86
993.006	1997.7
993.303	2007.42
993.6	2000.64
993.897	1976.01
994.193	1978.72
994.49	1941.88
994.787	1964.26
995.083	1913.86
995.379	1938.04
995.676	1926.52
995.972	1907.08
996.268	1907.76
996.565	1910.7
996.861	1876.35
997.157	1886.29
997.453	1884.71
997.749	1858.72
998.044	1851.26
998.34	1876.12
998.636	1841.32
998.932	1823.92
999.227	1792.51
999.523	1808.33
999.818	1804.26
1000.114	1781.89
1000.409	1787.99
1000.704	1785.05
1001	1776.24
1001.295	1782.11
1001.59	1727.65
1001.885	1752.06
1002.18	1703.7
1002.475	1723.81
1002.77	1712.51
1003.065	1646.07
1003.359	1715.22
1003.654	1667.99
1003.949	1683.81
1004.243	1706.18
1004.538	1619.18
1004.832	1646.98
1005.127	1663.02
1005.421	1604.27
1005.715	1594.1
1006.009	1611.72
1006.304	1614.21
1006.598	1622.34
1006.892	1592.74
1007.186	1597.49
1007.48	1574.89
1007.773	1554.32
1008.067	1558.84
1008.361	1547.32
1008.655	1536.47
1008.948	1510.26
1009.242	1512.52
1009.535	1493.53
1009.829	1503.25
1010.122	1522.46
1010.415	1478.62
1010.708	1489.69
1011.001	1455.34
1011.295	1462.35
1011.588	1461.9
1011.881	1402.01
1012.173	1444.04
1012.466	1454.67
1012.759	1460.77
1013.052	1397.72
1013.344	1417.38
1013.637	1395.23
1013.93	1402.46
1014.222	1384.38
1014.514	1366.08
1014.807	1388.9
1015.099	1353.88
1015.391	1361.56
1015.683	1366.31
1015.976	1350.04
1016.268	1329.47
1016.56	1323.82
1016.851	1313.88
1017.143	1298.51
1017.435	1300.09
1017.727	1265.97
1018.018	1299.64
1018.31	1287.21
1018.602	1306.42
1018.893	1279.53
1019.185	1278.17
1019.476	1254.44
1019.767	1270.26
1020.058	1246.54
1020.35	1243.15
1020.641	1215.8
1020.932	1197.5
1021.223	1202.24
1021.514	1211.06
1021.804	1204.5
1022.095	1182.81
1022.386	1203.37
1022.677	1158.4
1022.967	1177.38
1023.258	1151.17
1023.548	1167.22
1023.839	1145.07
1024.129	1157.5
1024.419	1145.97
1024.709	1121.11
1025	1142.81
1025.29	1104.39
1025.58	1082.47
1025.87	1078.86
1026.16	1072.75
1026.449	1096.93
1026.739	1078.4
1027.029	1090.38
1027.319	1045.18
1027.608	1031.17
1027.898	1036.15
1028.187	1051.51
1028.477	1026.43
1028.766	1037.73
1029.055	1055.35
1029.344	1002.93
1029.634	1031.17
1029.923	999.99
1030.212	1004.96
1030.501	987.11
1030.79	978.52
1031.078	974.9
1031.367	977.84
1031.656	976.26
1031.945	943.49
1032.233	988.69
1032.522	938.75
1032.81	941.91
1033.099	936.03
1033.387	942.81
1033.675	931.29
1033.963	915.02
1034.251	922.48
1034.54	947.79
1034.828	913.66
1035.116	892.87
1035.403	888.35
1035.691	885.41
1035.979	888.8
1036.267	872.53
1036.554	872.08
1036.842	878.41
1037.129	855.36
1037.417	861.23
1037.704	868.92
1037.992	870.95
1038.279	837.28
1038.566	831.63
1038.853	831.63
1039.14	831.63
