Data from hue_180_FLMS001491_00084.txt Node
Date: Tue Feb 07 16:47:36 GMT 2017
User: dcchb
Spectrometer: FLMS00149
Trigger mode: 0
Integration Time (sec): 2.000000E-2
Scans to average: 10
Electric dark correction enabled: true
Nonlinearity correction enabled: false
Boxcar width: 0
XAxis mode: Wavelengths
Number of Pixels in Spectrum: 2048
>>>>>Begin Spectral Data<<<<<
341.393	-18.64
341.776	-18.64
342.16	-18.64
342.543	-65.65
342.927	-72.88
343.31	-77.63
343.693	-48.02
344.077	-100.22
344.46	-77.4
344.843	-58.64
345.226	-36.95
345.61	-22.26
345.993	-21.36
346.376	-3.28
346.759	5.31
347.142	34.69
347.525	51.41
347.908	56.38
348.291	79.21
348.674	104.97
349.057	113.78
349.44	138.64
349.823	161.46
350.206	158.75
350.588	193.1
350.971	215.02
351.354	243.95
351.737	241.24
352.119	264.74
352.502	267.22
352.884	269.48
353.267	257.28
353.65	286.43
354.032	273.78
354.414	300.22
354.797	296.6
355.179	332.99
355.562	323.49
355.944	323.49
356.326	330.27
356.709	325.08
357.091	327.79
357.473	323.04
357.855	344.06
358.238	338.41
358.62	333.66
359.002	341.8
359.384	348.58
359.766	347.67
360.148	334.57
360.53	326.66
360.912	322.82
361.294	338.64
361.676	329.6
362.057	321.01
362.439	321.91
362.821	330.73
363.203	316.94
363.584	326.21
363.966	326.43
364.348	340.89
364.729	321.23
365.111	322.82
365.493	324.17
365.874	316.26
366.256	313.1
366.637	301.12
367.019	329.6
367.4	294.57
367.781	320.56
368.163	334.79
368.544	339.77
368.925	308.81
369.306	311.74
369.688	290.05
370.069	323.27
370.45	299.09
370.831	309.48
371.212	316.49
371.593	304.96
371.974	318.3
372.355	336.83
372.736	327.56
373.117	322.59
373.498	320.78
373.879	318.52
374.26	328.92
374.641	298.86
375.021	316.71
375.402	325.98
375.783	318.07
376.163	306.77
376.544	322.36
376.925	323.95
377.305	332.08
377.686	324.4
378.066	314
378.447	328.47
378.827	323.49
379.208	333.89
379.588	323.95
379.968	331.18
380.349	318.75
380.729	325.75
381.109	349.26
381.489	337.28
381.87	328.24
382.25	331.18
382.63	331.63
383.01	349.93
383.39	345.19
383.77	357.62
384.15	327.79
384.53	352.42
384.91	343.83
385.29	333.89
385.67	352.87
386.049	328.24
386.429	342.48
386.809	339.31
387.189	359.65
387.568	344.74
387.948	333.44
388.328	353.78
388.707	361.23
389.087	359.65
389.466	362.82
389.846	378.18
390.225	350.84
390.605	364.17
390.984	349.03
391.363	341.57
391.743	361.46
392.122	357.62
392.501	405.3
392.881	382.7
393.26	372.08
393.639	377.96
394.018	355.58
394.397	380.67
394.776	378.18
395.155	354.68
395.534	366.66
395.913	380.89
396.292	397.62
396.671	391.29
397.05	385.19
397.429	408.46
397.808	421.12
398.186	391.52
398.565	385.64
398.944	407.56
399.323	405.98
399.701	400.1
400.08	408.92
400.458	409.37
400.837	426.54
401.215	400.78
401.594	417.5
401.972	401.46
402.351	431.06
402.729	399.88
403.107	400.1
403.486	408.46
403.864	425.64
404.242	421.57
404.62	444.62
404.999	433.1
405.377	434
405.755	445.98
406.133	432.87
406.511	436.49
406.889	444.85
407.267	469.93
407.645	448.69
408.023	461.8
408.401	475.35
408.779	479.65
409.156	472.87
409.534	486.2
409.912	498.86
410.29	497.73
410.667	495.24
411.045	508.35
411.422	525.97
411.8	539.99
412.178	533.66
412.555	556.03
412.933	537.27
413.31	546.09
413.687	565.07
414.065	560.78
414.442	555.13
414.819	565.97
415.197	599.87
415.574	606.88
415.951	591.06
416.328	607.1
416.705	591.51
417.082	625.63
417.46	607.1
417.837	619.53
418.214	657.72
418.591	626.76
418.967	654.33
419.344	677.84
419.721	675.35
420.098	686.42
420.475	693.65
420.852	707.44
421.228	702.24
421.605	724.16
421.982	723.03
422.358	731.17
422.735	754.67
423.111	737.95
423.488	754.44
423.864	765.29
424.241	784.73
424.617	804.84
424.994	809.81
425.37	833.54
425.746	798.96
426.123	827.44
426.499	817.04
426.875	851.16
427.251	856.36
427.627	885.97
428.003	885.51
428.379	906.98
428.756	926.87
429.132	902.46
429.507	944.49
429.883	929.35
430.259	939.75
430.635	962.12
431.011	986.75
431.387	981.56
431.763	1021.56
432.138	1017.49
432.514	1035.57
432.89	1040.54
433.265	1060.88
433.641	1059.75
434.016	1075.56
434.392	1102.68
434.767	1122.8
435.143	1137.71
435.518	1163.25
435.894	1175.68
436.269	1173.64
436.644	1204.38
437.02	1202.34
437.395	1241.21
437.77	1262.23
438.145	1290.47
438.52	1299.06
438.895	1322.79
439.271	1302.45
439.646	1327.54
440.021	1362.79
440.395	1376.12
440.77	1380.87
441.145	1364.82
441.52	1424.03
441.895	1420.19
442.27	1422
442.645	1457.7
443.019	1469
443.394	1477.14
443.769	1500.41
444.143	1515.33
444.518	1545.84
444.892	1541.09
445.267	1514.88
445.641	1558.94
446.016	1573.18
446.39	1613.4
446.764	1602.1
447.139	1583.12
447.513	1649.34
447.887	1630.13
448.262	1651.14
448.636	1658.15
449.01	1662.22
449.384	1695.44
449.758	1723.23
450.132	1735.43
450.506	1722.1
450.88	1762.33
451.254	1767.07
451.628	1782.89
452.002	1812.04
452.376	1819.27
452.75	1836.67
453.123	1861.08
453.497	1876
453.871	1905.83
454.244	1946.05
454.618	1953.28
454.992	1967.07
455.365	1966.39
455.739	2042.55
456.112	2064.92
456.486	2032.15
456.859	2054.3
457.232	2145.82
457.606	2088.42
457.979	2128.64
458.352	2194.18
458.725	2176.1
459.099	2247.29
459.472	2267.85
459.845	2297.45
460.218	2298.58
460.591	2325.02
460.964	2346.49
461.337	2428.98
461.71	2437.11
462.083	2453.16
462.456	2474.85
462.829	2494.28
463.201	2563.21
463.574	2555.75
463.947	2630.55
464.32	2678.01
464.692	2673.49
465.065	2689.08
465.438	2720.27
465.81	2776.09
466.183	2860.15
466.555	2898.79
466.928	2908.74
467.3	2931.11
467.672	2980.6
468.045	3068.51
468.417	3098.79
468.789	3063.08
469.161	3139.47
469.534	3223.08
469.906	3278.44
470.278	3296.07
470.65	3366.35
471.022	3452.68
471.394	3460.81
471.766	3498.1
472.138	3513.24
472.51	3650.86
472.882	3685.44
473.253	3764.99
473.625	3778.54
473.997	3844.31
474.369	3931.76
474.74	3967.69
475.112	4039.78
475.484	4148.03
475.855	4223.5
476.227	4272.99
476.598	4357.29
476.97	4421.69
477.341	4542.59
477.713	4601.8
478.084	4616.49
478.455	4792.76
478.827	4828.69
479.198	4945.97
479.569	4982.13
479.94	5151.16
480.311	5195.23
480.682	5275
481.053	5446.75
481.424	5545.96
481.795	5614.88
482.166	5710.25
482.537	5776.01
482.908	5964.7
483.279	6004.02
483.65	6165.83
484.021	6281.76
484.391	6347.74
484.762	6406.95
485.133	6499.38
485.503	6563.56
485.874	6775.3
486.244	6876.09
486.615	7022.3
486.985	7091.68
487.356	7188.85
487.726	7272.92
488.097	7462.06
488.467	7452.57
488.837	7611.89
489.207	7726.24
489.578	7873.13
489.948	7946.34
490.318	8026.34
490.688	8129.39
491.058	8289.39
491.428	8314.7
491.798	8471.3
492.168	8613.22
492.538	8657.51
492.908	8720.34
493.278	8957.17
493.648	8921.91
494.017	9034.23
494.387	9109.03
494.757	9124.17
495.126	9269.25
495.496	9346.08
495.866	9406.42
496.235	9518.05
496.605	9650.03
496.974	9612.29
497.344	9780.65
497.713	9758.05
498.082	9897.03
498.452	9972.51
498.821	9918.27
499.19	9988.78
499.559	10114.42
499.928	10172.95
500.298	10184.25
500.667	10276.9
501.036	10334.08
501.405	10341.31
501.774	10388.77
502.143	10460.85
502.512	10570
502.88	10580.63
503.249	10578.14
503.618	10636.22
503.987	10660.17
504.356	10678.7
504.724	10768.19
505.093	10774.07
505.462	10811.81
505.83	10953.72
506.199	10982.65
506.567	10983.78
506.936	11001.41
507.304	11102.87
507.672	11102.87
508.041	11182.19
508.409	11240.95
508.777	11218.35
509.145	11308.29
509.514	11303.32
509.882	11344.45
510.25	11404.11
510.618	11379.47
510.986	11405.91
511.354	11536.98
511.722	11511.22
512.09	11614.04
512.458	11527.95
512.826	11566.59
513.193	11628.51
513.561	11588.96
513.929	11814.04
514.297	11758
514.664	11792.35
515.032	11779.24
515.4	11861.27
515.767	11827.6
516.135	11932.68
516.502	11734.49
516.869	11891.33
517.237	11952.12
517.604	11789.41
517.972	11883.87
518.339	11990.08
518.706	11968.61
519.073	12034.82
519.44	12027.59
519.808	12065.33
520.175	12040.02
520.542	12113.01
520.909	12104.65
521.276	12129.74
521.643	12178.1
522.009	12142.62
522.376	12137.65
522.743	12212.45
523.11	12332.22
523.477	12373.57
523.843	12238.21
524.21	12299
524.577	12339.22
524.943	12344.42
525.31	12331.31
525.676	12430.97
526.043	12400.24
526.409	12465.55
526.776	12477.98
527.142	12393.23
527.508	12433.01
527.874	12481.82
528.241	12430.52
528.607	12493.57
528.973	12506.68
529.339	12414.25
529.705	12438.43
530.071	12439.33
530.437	12452.21
530.803	12443.85
531.169	12440.92
531.535	12409.05
531.901	12388.71
532.267	12401.59
532.632	12399.11
532.998	12357.08
533.364	12310.3
533.73	12391.43
534.095	12346.46
534.461	12220.58
534.826	12417.19
535.192	12341.94
535.557	12297.87
535.923	12251.99
536.288	12181.94
536.653	12138.78
537.019	12016.29
537.384	12047.03
537.749	12037.54
538.114	11991.44
538.479	11898.33
538.845	11941.72
539.21	11803.19
539.575	11871.44
539.94	11785.79
540.305	11767.26
540.67	11562.07
541.034	11681.84
541.399	11587.83
541.764	11594.16
542.129	11509.41
542.494	11514.39
542.858	11455.86
543.223	11414.73
543.587	11372.24
543.952	11316.88
544.316	11332.02
544.681	11246.14
545.045	11262.64
545.41	11252.7
545.774	11195.07
546.138	11129.54
546.503	11049.99
546.867	10969.54
547.231	11011.35
547.595	11009.09
547.959	10935.64
548.324	10917.34
548.688	10896.1
549.052	10871.01
549.416	10723.22
549.779	10665.37
550.143	10628.53
550.507	10610.91
550.871	10617.46
551.235	10517.35
551.599	10551.25
551.962	10497.01
552.326	10382.89
552.689	10402.78
553.053	10300.18
553.417	10342.44
553.78	10375.66
554.143	10285.04
554.507	10204.14
554.87	10183.57
555.234	10270.13
555.597	10087.53
555.96	10155.55
556.323	10154.2
556.686	10050.24
557.05	10092.28
557.413	10032.39
557.776	10039.62
558.139	10034.65
558.502	10000.75
558.865	9972.05
559.228	9970.25
559.59	9944.94
559.953	9877.82
560.316	9926.18
560.679	9936.57
561.041	9946.07
561.404	9798.27
561.767	9891.15
562.129	9821.78
562.492	9901.1
562.854	9820.19
563.217	9887.99
563.579	9762.34
563.941	9777.71
564.304	9889.12
564.666	9843.02
565.028	9863.58
565.39	9781.1
565.753	9832.17
566.115	9839.85
566.477	9901.1
566.839	9790.59
567.201	9866.52
567.563	9716.92
567.925	9821.32
568.287	9828.56
568.648	9880.53
569.01	9807.99
569.372	9816.58
569.734	9711.04
570.095	9827.43
570.457	9911.72
570.819	9838.72
571.18	9811.83
571.542	9902.45
571.903	9812.06
572.265	9816.35
572.626	9836.69
572.987	9767.77
573.349	9767.77
573.71	9856.8
574.071	9870.14
574.432	9797.82
574.794	9853.64
575.155	9830.14
575.516	9813.19
575.877	9868.55
576.238	9883.02
576.599	9848.22
576.96	9890.93
577.32	9832.62
577.681	9855
578.042	9839.63
578.403	9842.57
578.763	9799.18
579.124	9801.89
579.485	9803.7
579.845	9859.06
580.206	9840.08
580.566	9752.62
580.927	9787.2
581.287	9805.96
581.648	9761.66
582.008	9811.38
582.368	9762.57
582.728	9824.71
583.089	9777.93
583.449	9760.08
583.809	9750.59
584.169	9724.38
584.529	9725.06
584.889	9767.54
585.249	9716.47
585.609	9664.27
585.969	9730.48
586.329	9666.98
586.688	9664.94
587.048	9675.34
587.408	9645.28
587.768	9589.01
588.127	9611.16
588.487	9598.73
588.846	9653.87
589.206	9618.39
589.565	9614.1
589.925	9617.94
590.284	9517.38
590.643	9610.71
591.003	9625.4
591.362	9566.42
591.721	9572.06
592.08	9559.64
592.44	9568.67
592.799	9554.21
593.158	9556.47
593.517	9523.03
593.876	9506.53
594.235	9552.4
594.593	9523.48
594.952	9473.54
595.311	9447.77
595.67	9495.23
596.029	9468.56
596.387	9475.8
596.746	9488.23
597.104	9473.54
597.463	9469.47
597.822	9419.53
598.18	9478.28
598.538	9430.37
598.897	9486.87
599.255	9368.45
599.613	9536.13
599.972	9424.05
600.33	9397.61
600.688	9390.15
601.046	9442.35
601.404	9382.69
601.762	9421.79
602.12	9416.14
602.478	9375.91
602.836	9469.92
603.194	9353.09
603.552	9381.11
603.91	9345.63
604.268	9373.65
604.625	9371.62
604.983	9355.57
605.341	9406.19
605.698	9367.78
606.056	9395.12
606.413	9324.16
606.771	9407.55
607.128	9395.8
607.485	9312.18
607.843	9397.15
608.2	9408.23
608.557	9370.94
608.914	9409.58
609.272	9417.49
609.629	9443.71
609.986	9483.93
610.343	9439.19
610.7	9481.9
611.057	9406.87
611.414	9422.69
611.771	9394.89
612.127	9462.01
612.484	9403.93
612.841	9470.37
613.198	9451.84
613.554	9514.44
613.911	9477.38
614.267	9457.04
614.624	9482.12
614.98	9488.23
615.337	9498.62
615.693	9453.65
616.05	9489.13
616.406	9554.44
616.762	9457.04
617.118	9474.67
617.475	9520.09
617.831	9516.25
618.187	9582.01
618.543	9562.35
618.899	9563.25
619.255	9558.73
619.611	9586.3
619.967	9569.35
620.323	9542.46
620.678	9543.14
621.034	9565.51
621.39	9578.17
621.746	9562.8
622.101	9622.46
622.457	9564.16
622.812	9563.93
623.168	9569.8
623.523	9539.52
623.879	9565.29
624.234	9551.95
624.589	9592.63
624.945	9594.21
625.3	9579.75
625.655	9550.82
626.01	9569.13
626.365	9527.55
626.72	9544.04
627.075	9524.83
627.43	9555.34
627.785	9505.85
628.14	9525.06
628.495	9496.81
628.85	9535.23
629.205	9461.79
629.559	9529.81
629.914	9524.16
630.269	9442.8
630.623	9471.05
630.978	9470.6
631.332	9462.92
631.687	9490.71
632.041	9407.78
632.396	9383.37
632.75	9477.6
633.104	9397.38
633.459	9369.36
633.813	9409.58
634.167	9352.18
634.521	9410.71
634.875	9348.79
635.229	9349.92
635.583	9335.46
635.937	9241
636.291	9243.71
636.645	9253.88
636.999	9248.91
637.352	9244.39
637.706	9218.85
638.06	9229.93
638.413	9230.83
638.767	9207.55
639.121	9206.65
639.474	9179.08
639.828	9127.78
640.181	9206.88
640.534	9160.32
640.888	9116.48
641.241	9117.84
641.594	9135.69
641.947	9185.18
642.301	9142.47
642.654	9205.29
643.007	9141.79
643.36	9116.26
643.713	9085.52
644.066	9177.05
644.419	9095.47
644.771	9032.19
645.124	8920.1
645.477	8933.66
645.83	8881.01
646.182	8856.6
646.535	8819.99
646.888	8821.58
647.24	8753.33
647.593	8837.39
647.945	8843.27
648.298	8759.2
648.65	8778.41
649.002	8714.23
649.355	8814.34
649.707	8797.85
650.059	8899.77
650.411	8911.29
650.763	9025.64
651.115	9004.85
651.467	9008.92
651.819	9013.44
652.171	9054.56
652.523	9051.4
652.875	8959.43
653.227	8951.97
653.578	9007.33
653.93	8987.45
654.282	9005.98
654.633	9017.28
654.985	9066.99
655.337	9001.46
655.688	8968.24
656.039	9104.28
656.391	8976.6
656.742	8997.84
657.094	8993.1
657.445	9016.6
657.796	9037.62
658.147	9029.93
658.498	9007.56
658.849	9024.51
659.2	9038.29
659.551	9034.23
659.902	9030.16
660.253	8992.19
660.604	9038.07
660.955	9055.02
661.306	9105.86
661.656	9065.41
662.007	9063.38
662.358	9042.81
662.708	9097.5
663.059	9113.32
663.409	9019.08
663.76	9118.52
664.11	9147.67
664.461	9106.31
664.811	9154.45
665.161	9166.43
665.511	9072.64
665.862	9101.34
666.212	9040.55
666.562	9129.14
666.912	9038.52
667.262	9119.65
667.612	9114.45
667.962	9077.61
668.312	9078.74
668.662	9120.55
669.011	9088.69
669.361	9074.68
669.711	9100.44
670.06	9081
670.41	9046.88
670.76	9046.65
671.109	9060.21
671.459	9070.61
671.808	9064.51
672.157	9037.84
672.507	9031.74
672.856	8973.44
673.205	9054.34
673.554	9035.81
673.904	9016.37
674.253	9001.23
674.602	9048.24
674.951	8875.13
675.3	8865.42
675.649	8923.27
675.998	8948.58
676.346	8981.12
676.695	8996.94
677.044	8904.06
677.393	8931.4
677.741	8885.53
678.09	8955.36
678.438	8909.03
678.787	8853.89
679.135	8878.98
679.484	8885.76
679.832	8830.16
680.181	8834.46
680.529	8830.16
680.877	8794.01
681.225	8813.21
681.573	8832.2
681.922	8758.75
682.27	8730.28
682.618	8770.5
682.966	8699.09
683.314	8750.17
683.661	8711.3
684.009	8663.16
684.357	8618.87
684.705	8614.58
685.053	8612.54
685.4	8617.74
685.748	8583.84
686.095	8543.62
686.443	8500.91
686.79	8506.78
687.138	8541.81
687.485	8525.99
687.832	8481.7
688.18	8462.04
688.527	8391.08
688.874	8388.82
689.221	8368.71
689.568	8332.78
689.915	8330.74
690.262	8345.2
690.609	8320.12
690.956	8248.71
691.303	8305.66
691.65	8201.48
691.997	8171.2
692.344	8136.17
692.69	8089.62
693.037	8080.8
693.383	8051.2
693.73	8041.48
694.077	8013.46
694.423	7951.54
694.769	7910.19
695.116	7966.46
695.462	7914.93
695.808	7919.9
696.155	7842.17
696.501	7780.7
696.847	7803.3
697.193	7737.08
697.539	7705.67
697.885	7725.33
698.231	7634.94
698.577	7686.24
698.923	7691.21
699.269	7553.36
699.614	7577.77
699.96	7501.61
700.306	7556.52
700.651	7459.58
700.997	7354.27
701.342	7367.6
701.688	7420.71
702.033	7343.2
702.379	7345
702.724	7305.46
703.069	7335.74
703.415	7206.7
703.76	7242.18
704.105	7207.83
704.45	7177.55
704.795	7147.04
705.14	7103.88
705.485	7138.46
705.83	7112.92
706.175	7123.77
706.52	7100.04
706.865	7067.95
707.209	6999.93
707.554	6984.34
707.899	6990.44
708.243	6971.23
708.588	6950.66
708.932	6858.46
709.277	6921.74
709.621	6842.87
709.966	6882.42
710.31	6875.64
710.654	6752.48
710.998	6772.14
711.342	6771.69
711.687	6746.83
712.031	6712.25
712.375	6731.24
712.719	6694.85
713.063	6720.39
713.407	6703.21
713.75	6641.52
714.094	6586.83
714.438	6609.66
714.782	6664.12
715.125	6589.09
715.469	6587.96
715.812	6594.29
716.156	6572.14
716.499	6582.31
716.843	6562.2
717.186	6498.47
717.53	6516.33
717.873	6561.07
718.216	6565.59
718.559	6502.77
718.902	6454.41
719.246	6436.55
719.589	6482.65
719.932	6439.27
720.275	6397.46
720.617	6444.46
720.96	6441.3
721.303	6387.52
721.646	6458.7
721.989	6370.34
722.331	6401.98
722.674	6440.4
723.016	6456.67
723.359	6431.13
723.701	6401.75
724.044	6372.37
724.386	6386.61
724.729	6375.31
725.071	6425.03
725.413	6361.98
725.755	6386.84
726.097	6321.08
726.439	6307.52
726.782	6364.69
727.124	6364.24
727.465	6309.1
727.807	6331.25
728.149	6312.26
728.491	6317.69
728.833	6353.17
729.175	6289.67
729.516	6345.03
729.858	6293.96
730.199	6331.25
730.541	6335.09
730.882	6295.54
731.224	6350.23
731.565	6314.52
731.906	6350.23
732.248	6317.24
732.589	6287.41
732.93	6334.86
733.271	6271.59
733.612	6297.57
733.953	6333.96
734.294	6328.76
734.635	6292.38
734.976	6355.2
735.317	6245.6
735.658	6324.69
735.999	6334.18
736.339	6324.01
736.68	6380.74
737.021	6308.65
737.361	6324.69
737.702	6383.9
738.042	6361.75
738.383	6345.26
738.723	6356.33
739.063	6375.09
739.404	6391.13
739.744	6416.89
740.084	6419.61
740.424	6420.51
740.764	6405.14
741.104	6457.34
741.444	6427.29
741.784	6473.16
742.124	6469.55
742.464	6513.61
742.804	6528.53
743.143	6534.18
743.483	6539.15
743.823	6522.43
744.162	6541.18
744.502	6645.36
744.841	6628.19
745.181	6660.95
745.52	6679.26
745.86	6714.51
746.199	6795.64
746.538	6755.19
746.877	6892.14
747.216	6903.66
747.556	6903.43
747.895	7001.28
748.234	6984.11
748.573	7051.23
748.911	7141.39
749.25	7215.29
749.589	7276.08
749.928	7293.25
750.267	7372.57
750.605	7469.97
750.944	7477.88
751.283	7631.1
751.621	7663.64
751.96	7742.96
752.298	7804.88
752.636	7961.26
752.975	8016.4
753.313	8051.2
753.651	8169.62
753.989	8253.68
754.327	8379.78
754.666	8514.92
755.004	8641.47
755.342	8864.06
755.679	8860.67
756.017	8958.3
756.355	9184.73
756.693	9322.35
757.031	9375.69
757.368	9471.28
757.706	9667.43
758.044	9826.97
758.381	9984.03
758.719	10135.21
759.056	10272.39
759.394	10440.06
759.731	10497.01
760.068	10732.49
760.405	10805.03
760.743	10994.4
761.08	11199.59
761.417	11342.41
761.754	11523.65
762.091	11693.59
762.428	11833.25
762.765	12019.68
763.102	12170.87
763.438	12344.87
763.775	12544.87
764.112	12652.89
764.449	12845.88
764.785	12992.09
765.122	13152.31
765.458	13255.36
765.795	13437.05
766.131	13513.66
766.467	13766.53
766.804	13849.47
767.14	13955.9
767.476	14159.51
767.812	14248.33
768.148	14465.72
768.485	14608.54
768.821	14607.41
769.157	14764.24
769.492	14906.61
769.828	15041.75
770.164	14958.82
770.5	15199.94
770.836	15445.36
771.171	15382.99
771.507	15516.09
771.842	15559.93
772.178	15668.85
772.513	15827.72
772.849	15857.55
773.184	15960.82
773.519	16056.64
773.855	16159.01
774.19	16191.78
774.525	16269.52
774.86	16438.1
775.195	16443.97
775.53	16486.23
775.865	16516.74
776.2	16504.54
776.535	16507.25
776.87	16648.71
777.205	16674.25
777.539	16566.46
777.874	16719
778.209	16707.7
778.543	16780.69
778.878	16702.95
779.212	16850.74
779.547	16838.99
779.881	16928.48
780.215	16904.08
780.55	16972.1
780.884	17011.64
781.218	16964.41
781.552	16996.5
781.886	17045.31
782.22	17000.8
782.554	17026.78
782.888	16884.19
783.222	16903.85
783.556	16897.07
783.889	16961.47
784.223	16804.42
784.557	16927.13
784.89	16939.1
785.224	16928.03
785.557	16872.66
785.891	16865.88
786.224	16878.31
786.558	16953.79
786.891	16808.03
787.224	16847.81
787.557	16765.1
787.891	16882.83
788.224	16881.25
788.557	16787.92
788.89	16794.93
789.223	16858.43
789.556	16745.89
789.888	16671.54
790.221	16699.33
790.554	16568.72
790.887	16595.16
791.219	16544.99
791.552	16518.77
791.884	16467.93
792.217	16387.93
792.549	16486.01
792.882	16457.99
793.214	16389.51
793.546	16442.84
793.879	16349.97
794.211	16221.83
794.543	16443.97
794.875	16387.93
795.207	16332.79
795.539	16249.4
795.871	16276.75
796.203	16214.83
796.535	16082.85
796.867	16093.02
797.198	16017.54
797.53	15965.57
797.862	15888.28
798.193	16065.91
798.525	15834.72
798.856	15925.12
799.188	15742.52
799.519	15704.11
799.85	15755.63
800.182	15680.83
800.513	15850.54
800.844	15633.6
801.175	15701.62
801.506	15740.04
801.837	15506.15
802.168	15555.64
802.499	15558.57
802.83	15498.46
803.161	15547.5
803.491	15448.97
803.822	15321.74
804.153	15403.55
804.483	15196.1
804.814	15205.14
805.145	15230.22
805.475	15266.38
805.805	15115.2
806.136	15164.91
806.466	15182.99
806.796	15075.2
807.126	15001.98
807.457	14988.65
807.787	15074.29
808.117	14912.94
808.447	14953.62
808.777	14936.22
809.107	14872.26
809.436	14896.22
809.766	14820.97
810.096	14828.42
810.426	14695.55
810.755	14657.35
811.085	14742.55
811.414	14646.96
811.744	14547.98
812.073	14590.24
812.403	14526.74
812.732	14453.97
813.061	14606.96
813.39	14369.45
813.719	14368.1
814.049	14458.94
814.378	14389.34
814.707	14334.88
815.036	14347.08
815.365	14261.66
815.693	14161.1
816.022	14189.12
816.351	14116.13
816.68	14057.82
817.008	14177.14
817.337	14009.46
817.665	13994.55
817.994	14039.29
818.322	13973.3
818.651	13951.38
818.979	13873.42
819.307	14031.16
819.636	13995.45
819.964	13866.64
820.292	13942.57
820.62	13933.98
820.948	13864.38
821.276	13914.78
821.604	13891.05
821.932	13913.42
822.259	13858.28
822.587	13889.47
822.915	13854.66
823.243	13913.42
823.57	13838.62
823.898	13853.31
824.225	13866.42
824.553	13793.42
824.88	13834.55
825.207	13902.35
825.535	13802.46
825.862	13851.5
826.189	13879.3
826.516	13898.73
826.843	13915.68
827.17	13877.49
827.497	13929.46
827.824	13919.97
828.151	13966.07
828.478	13912.97
828.805	13926.75
829.131	13878.17
829.458	13934.89
829.785	13846.08
830.111	13898.73
830.438	13935.34
830.764	13854.66
831.09	13945.28
831.417	13824.16
831.743	13908.22
832.069	13876.36
832.395	13772.86
832.722	13868.45
833.048	13820.31
833.374	13891.05
833.7	13761.33
834.026	13829.13
834.351	13825.51
834.677	13844.04
835.003	13794.1
835.329	13768.56
835.654	13740.32
835.98	13700.32
836.306	13755.23
836.631	13648.12
836.956	13706.42
837.282	13696.93
837.607	13653.31
837.932	13562.92
838.258	13545.75
838.583	13609.92
838.908	13545.52
839.233	13475.46
839.558	13511.62
839.883	13526.31
840.208	13444.96
840.533	13400.89
840.858	13463.49
841.182	13424.39
841.507	13391.63
841.832	13345.07
842.156	13296.94
842.481	13262.82
842.805	13309.59
843.13	13244.06
843.454	13169.94
843.778	13102.37
844.103	13070.05
844.427	13085.19
844.751	13063.27
845.075	13028.02
845.399	12991.86
845.723	12869.61
846.047	12937.17
846.371	12865.31
846.695	12872.99
847.019	12689.5
847.343	12699.89
847.666	12772.43
847.99	12611.08
848.313	12601.82
848.637	12512.33
848.96	12550.07
849.284	12486.34
849.607	12399.11
849.931	12376.28
850.254	12339
850.577	12197.76
850.9	12127.7
851.223	12196.18
851.546	12089.29
851.869	11995.28
852.192	12037.08
852.515	11957.31
852.838	11852.46
853.161	11878.44
853.483	11860.37
853.806	11779.24
854.129	11723.42
854.451	11709.41
854.774	11665.79
855.096	11656.76
855.419	11610.43
855.741	11549.64
856.063	11559.36
856.385	11479.59
856.708	11466.48
857.03	11360.27
857.352	11339.7
857.674	11436.65
857.996	11299.02
858.318	11268.74
858.64	11245.69
858.961	11220.38
859.283	11219.48
859.605	11156.66
859.926	11209.54
860.248	11108.75
860.57	11049.77
860.891	11089.31
861.212	11015.19
861.534	11017
861.855	10968.64
862.176	11004.57
862.498	10969.99
862.819	10948.3
863.14	10859.49
863.461	10914.63
863.782	10812.26
864.103	10842.77
864.424	10836.89
864.745	10828.98
865.065	10744.24
865.386	10728.19
865.707	10736.55
866.027	10714.63
866.348	10706.5
866.668	10701.53
866.989	10666.73
867.309	10624.24
867.63	10606.84
867.95	10567.74
868.27	10581.3
868.59	10554.41
868.91	10559.61
869.23	10517.35
869.55	10508.54
869.87	10509.89
870.19	10462.44
870.51	10483
870.83	10457.92
871.15	10499.5
871.469	10419.5
871.789	10433.96
872.109	10477.8
872.428	10364.59
872.748	10311.25
873.067	10380.41
873.386	10300.63
873.706	10301.31
874.025	10232.84
874.344	10246.4
874.663	10300.41
874.982	10231.48
875.301	10240.52
875.62	10161.88
875.939	10121.2
876.258	10209.56
876.577	10185.16
876.896	10073.75
877.214	10123.69
877.533	10142.22
877.852	10072.39
878.17	10093.18
878.489	10101.54
878.807	10113.52
879.125	10080.98
879.444	10018.38
879.762	9970.92
880.08	9999.85
880.398	10020.19
880.716	10006.86
881.034	9943.35
881.352	9967.53
881.67	9903.36
881.988	9865.39
882.306	9859.06
882.624	9780.19
882.941	9805.28
883.259	9755.79
883.577	9793.75
883.894	9660.65
884.212	9734.77
884.529	9744.26
884.846	9638.05
885.164	9629.24
885.481	9575.68
885.798	9582.91
886.115	9552.18
886.432	9568.9
886.75	9479.64
887.067	9512.18
887.383	9515.57
887.7	9515.79
888.017	9433.31
888.334	9498.17
888.651	9398.51
888.967	9353.99
889.284	9321.68
889.6	9338.62
889.917	9301.34
890.233	9206.2
890.55	9279.19
890.866	9241.68
891.182	9233.77
891.498	9171.4
891.815	9139.99
892.131	9131.62
892.447	9085.3
892.763	9021.57
893.079	9005.07
893.395	9028.8
893.71	9015.92
894.026	8934.57
894.342	8893.66
894.657	8782.93
894.973	8889.37
895.289	8845.08
895.604	8813.44
895.92	8727.12
896.235	8650.28
896.55	8741.13
896.865	8657.51
897.181	8607.8
897.496	8629.04
897.811	8560.11
898.126	8578.64
898.441	8539.1
898.756	8495.03
899.071	8434.02
899.386	8447.8
899.7	8327.35
900.015	8370.29
900.33	8317.41
900.644	8314.02
900.959	8319.22
901.273	8274.02
901.588	8197.86
901.902	8151.54
902.216	8165.32
902.531	8161.25
902.845	8109.96
903.159	8062.95
903.473	8020.47
903.787	8042.61
904.101	7935.5
904.415	7994.71
904.729	7920.81
905.042	7909.06
905.356	7813.92
905.67	7864.09
905.984	7855.05
906.297	7756.07
906.611	7744.32
906.924	7710.87
907.237	7666.8
907.551	7739.57
907.864	7641.27
908.177	7565.79
908.491	7558.11
908.804	7518.33
909.117	7426.36
909.43	7408.05
909.743	7425.23
910.056	7402.86
910.368	7336.87
910.681	7314.5
910.994	7325.8
911.307	7283.76
911.619	7207.16
911.932	7260.04
912.244	7215.06
912.557	7194.5
912.869	7109.98
913.181	7066.37
913.494	7111.56
913.806	6992.7
914.118	6992.02
914.43	6995.18
914.742	6939.82
915.054	6898.01
915.366	6949.53
915.678	6825.47
915.99	6813.49
916.302	6813.72
916.613	6795.64
916.925	6759.03
917.236	6769.2
917.548	6727.85
917.859	6658.02
918.171	6629.09
918.482	6623.22
918.794	6578.47
919.105	6562.88
919.416	6505.03
919.727	6552.48
920.038	6532.6
920.349	6444.24
920.66	6423.9
920.971	6422.54
921.282	6470.45
921.593	6376.67
921.903	6325.6
922.214	6301.64
922.525	6317.46
922.835	6231.14
923.146	6238.14
923.456	6240.63
923.767	6174.41
924.077	6176.22
924.387	6140.74
924.697	6096.68
925.008	6138.93
925.318	6024.81
925.628	6030.91
925.938	6040.18
926.248	5964.25
926.558	5967.41
926.867	5934.19
927.177	5980.97
927.487	5877.47
927.796	5873.86
928.106	5827.08
928.416	5818.27
928.725	5799.28
929.034	5746.4
929.344	5784.14
929.653	5746.63
929.962	5757.7
930.271	5717.25
930.581	5688.55
930.89	5634.09
931.199	5607.88
931.508	5587.99
931.817	5544.83
932.125	5561.55
932.434	5580.98
932.743	5500.53
933.051	5435.22
933.36	5457.6
933.669	5426.41
933.977	5420.31
934.286	5401.78
934.594	5390.71
934.902	5271.39
935.21	5301.44
935.519	5338.05
935.827	5264.61
936.135	5246.08
936.443	5204.04
936.751	5202.46
937.059	5180.32
937.367	5135.8
937.674	5123.14
937.982	5167.21
938.29	5119.53
938.597	5116.36
938.905	5061.67
939.213	5035.01
939.52	5006.76
939.827	5021
940.135	4973.32
940.442	4945.75
940.749	4937.61
941.056	4907.55
941.363	4878.85
941.67	4878.18
941.977	4843.6
942.284	4824.39
942.591	4806.99
942.898	4781
943.205	4825.3
943.511	4756.15
943.818	4756.15
944.125	4691.29
944.431	4675.24
944.738	4630.73
945.044	4635.7
945.35	4635.25
945.657	4660.33
945.963	4603.61
946.269	4536.94
946.575	4534.91
946.881	4475.48
947.187	4488.36
947.493	4504.85
947.799	4440.22
948.105	4444.06
948.41	4443.39
948.716	4413.56
949.022	4390.96
949.327	4373.78
949.633	4348.02
949.938	4349.6
950.244	4344.41
950.549	4316.16
950.854	4320
951.16	4222.6
951.465	4240
951.77	4269.15
952.075	4221.02
952.38	4242.71
952.685	4189.61
952.99	4184.86
953.294	4100.8
953.599	4130.63
953.904	4133.79
954.209	4084.07
954.513	4072.1
954.818	4031.87
955.122	4016.96
955.426	4043.17
955.731	3994.13
956.035	4028.71
956.339	3980.35
956.643	3920.01
956.948	3936.05
957.252	3948.03
957.556	3887.02
957.86	3887.02
958.163	3860.8
958.467	3844.98
958.771	3849.96
959.075	3858.32
959.378	3767.92
959.682	3791.88
959.985	3802.27
960.289	3735.61
960.592	3696.51
960.896	3748.94
961.199	3691.32
961.502	3698.09
961.805	3657.87
962.108	3635.05
962.411	3667.36
962.714	3621.49
963.017	3550.53
963.32	3624.65
963.623	3564.09
963.926	3577.42
964.228	3550.08
964.531	3556.18
964.833	3511.66
965.136	3499.46
965.438	3507.14
965.741	3478.44
966.043	3484.77
966.345	3417.42
966.648	3395.5
966.95	3410.19
967.252	3384.66
967.554	3406.35
967.856	3349.4
968.158	3345.11
968.46	3327.48
968.761	3321.61
969.063	3353.02
969.365	3280.48
969.666	3314.6
969.968	3231.67
970.269	3254.94
970.571	3276.86
970.872	3254.49
971.174	3195.51
971.475	3198.67
971.776	3165.91
972.077	3120.03
972.378	3169.75
972.679	3142.18
972.98	3160.71
973.281	3129.07
973.582	3125.23
973.883	3088.39
974.183	3042.07
974.484	3054.04
974.785	3082.52
975.085	3066.7
975.386	3058.56
975.686	3021.5
975.986	2976.98
976.287	2984.44
976.587	2925.23
976.887	2965.46
977.187	2939.24
977.487	2941.5
977.787	2913.48
978.087	2867.16
978.387	2904.67
978.687	2880.72
978.987	2871.22
979.286	2833.48
979.586	2834.16
979.885	2845.91
980.185	2846.14
980.484	2771.34
980.784	2775.18
981.083	2784.67
981.382	2770.44
981.682	2764.33
981.981	2763.66
982.28	2769.53
982.579	2721.4
982.878	2737.44
983.177	2693.6
983.475	2696.09
983.774	2653.38
984.073	2640.27
984.372	2644.79
984.67	2655.86
984.969	2621.96
985.267	2622.87
985.566	2611.8
985.864	2593.49
986.162	2581.06
986.461	2599.59
986.759	2555.3
987.057	2501.06
987.355	2536.54
987.653	2502.87
987.951	2559.37
988.249	2511.01
988.547	2516.21
988.844	2470.78
989.142	2491.57
989.44	2458.13
989.737	2430.11
990.035	2431.46
990.332	2464.45
990.63	2405.25
990.927	2408.64
991.224	2406.38
991.521	2348.53
991.819	2368.41
992.116	2357.57
992.413	2346.94
992.71	2350.79
993.006	2329.77
993.303	2321.86
993.6	2320.28
993.897	2309.66
994.193	2276.44
994.49	2296.78
994.787	2264.01
995.083	2266.27
995.379	2214.52
995.676	2198.7
995.972	2188.98
996.268	2206.38
996.565	2168.42
996.861	2215.42
997.157	2153.05
997.453	2171.81
997.749	2198.47
998.044	2123.45
998.34	2135.88
998.636	2102.43
998.932	2127.51
999.227	2101.53
999.523	2074.63
999.818	2090.45
1000.114	2085.03
1000.409	2066.5
1000.704	2014.52
1001	2008.42
1001.295	2026.05
1001.59	1992.38
1001.885	1985.82
1002.18	2007.74
1002.475	1981.76
1002.77	1972.26
1003.065	1987.63
1003.359	1945.82
1003.654	1941.53
1003.949	1907.41
1004.243	1895.66
1004.538	1906.5
1004.832	1869.89
1005.127	1903.34
1005.421	1831.25
1005.715	1876
1006.009	1856.79
1006.304	1819.5
1006.598	1806.62
1006.892	1791.93
1007.186	1784.7
1007.48	1787.64
1007.773	1826.96
1008.067	1787.41
1008.361	1759.84
1008.655	1771.37
1008.948	1774.98
1009.242	1735.43
1009.535	1720.75
1009.829	1712.61
1010.122	1682.55
1010.415	1688.66
1010.708	1692.5
1011.001	1673.74
1011.295	1670.35
1011.588	1695.66
1011.881	1658.37
1012.173	1645.72
1012.466	1640.52
1012.759	1609.79
1013.052	1636.23
1013.344	1605.49
1013.637	1612.05
1013.93	1576.79
1014.222	1571.6
1014.514	1578.15
1014.807	1565.27
1015.099	1560.52
1015.391	1580.18
1015.683	1526.63
1015.976	1539.73
1016.268	1510.81
1016.56	1500.41
1016.851	1492.28
1017.143	1469.45
1017.435	1472.16
1017.727	1488.89
1018.018	1463.8
1018.31	1452.05
1018.602	1437.82
1018.893	1440.3
1019.185	1409.79
1019.476	1441.21
1019.767	1404.37
1020.058	1402.79
1020.35	1393.52
1020.641	1382
1020.932	1344.03
1021.223	1391.26
1021.514	1345.16
1021.804	1351.49
1022.095	1337.48
1022.386	1314.2
1022.677	1342.9
1022.967	1310.59
1023.258	1306.97
1023.548	1285.5
1023.839	1297.71
1024.129	1279.63
1024.419	1270.59
1024.709	1261.55
1025	1283.02
1025.29	1249.12
1025.58	1234.43
1025.87	1252.51
1026.16	1228.1
1026.449	1219.06
1026.739	1167.09
1027.029	1221.32
1027.319	1175
1027.608	1176.81
1027.898	1188.33
1028.187	1161.21
1028.477	1192.62
1028.766	1146.75
1029.055	1164.6
1029.344	1153.53
1029.634	1123.02
1029.923	1125.73
1030.212	1142.68
1030.501	1142.23
1030.79	1076.92
1031.078	1083.25
1031.367	1081.21
1031.656	1089.35
1031.945	1070.14
1032.233	1082.12
1032.522	1062.68
1032.81	1052.06
1033.099	1055.23
1033.387	1040.31
1033.675	1034.21
1033.963	1039.18
1034.251	1022.23
1034.54	1036.47
1034.828	1035.79
1035.116	1009.13
1035.403	1014.32
1035.691	976.81
1035.979	994.44
1036.267	981.1
1036.554	981.56
1036.842	962.35
1037.129	970.26
1037.417	956.92
1037.704	958.05
1037.992	942.46
1038.279	935.91
1038.566	916.02
1038.853	916.02
1039.14	916.02
