Data from hue_22_FLMS001491_00040.txt Node
Date: Tue Feb 07 17:10:02 GMT 2017
User: dcchb
Spectrometer: FLMS00149
Trigger mode: 0
Integration Time (sec): 2.000000E-2
Scans to average: 10
Electric dark correction enabled: true
Nonlinearity correction enabled: false
Boxcar width: 0
XAxis mode: Wavelengths
Number of Pixels in Spectrum: 2048
>>>>>Begin Spectral Data<<<<<
341.393	-15.95
341.776	-15.95
342.16	-15.95
342.543	-71.54
342.927	-81.48
343.31	-63.85
343.693	-78.77
344.077	-78.32
344.46	-56.62
344.843	-51.88
345.226	-29.05
345.61	-39
345.993	15.92
346.376	-5.32
346.759	-2.16
347.142	24.51
347.525	41.91
347.908	64.28
348.291	81.68
348.674	79.64
349.057	97.05
349.44	134.56
349.823	162.13
350.206	176.59
350.588	193.54
350.971	185.18
351.354	216.59
351.737	244.84
352.119	254.33
352.502	285.97
352.884	274.22
353.267	291.16
353.65	290.49
354.032	305.85
354.414	328
354.797	321.45
355.179	332.75
355.562	330.71
355.944	317.38
356.326	321.67
356.709	327.32
357.091	350.37
357.473	358.51
357.855	337.04
358.238	338.17
358.62	332.52
359.002	359.41
359.384	342.01
359.766	345.85
360.148	347.66
360.53	326.19
360.912	330.94
361.294	326.64
361.676	325.06
362.057	339.75
362.439	312.63
362.821	327.32
363.203	316.02
363.584	297.94
363.966	335.68
364.348	329.81
364.729	331.84
365.111	335.01
365.493	321.67
365.874	312.41
366.256	327.77
366.637	336.59
367.019	328.68
367.4	304.72
367.781	323.71
368.163	311.05
368.544	300.43
368.925	303.59
369.306	319.86
369.688	324.61
370.069	333.2
370.45	317.38
370.831	310.83
371.212	312.63
371.593	288.9
371.974	327.32
372.355	305.18
372.736	326.42
373.117	321.67
373.498	321.45
373.879	327.1
374.26	324.84
374.641	324.38
375.021	317.15
375.402	327.55
375.783	335.23
376.163	342.24
376.544	335.68
376.925	334.1
377.305	324.61
377.686	337.27
378.066	310.15
378.447	340.43
378.827	322.35
379.208	330.49
379.588	341.78
379.968	326.64
380.349	323.71
380.729	347.66
381.109	335.68
381.489	348.56
381.87	338.4
382.25	346.76
382.63	342.46
383.01	347.21
383.39	352.86
383.77	329.81
384.15	338.4
384.53	364.38
384.91	359.64
385.29	355.34
385.67	349.24
386.049	350.37
386.429	370.48
386.809	350.15
387.189	372.29
387.568	360.09
387.948	377.72
388.328	336.81
388.707	365.96
389.087	362.8
389.466	359.19
389.846	370.94
390.225	353.08
390.605	363.93
390.984	351.73
391.363	376.13
391.743	390.15
392.122	380.43
392.501	351.73
392.881	361.22
393.26	372.29
393.639	355.8
394.018	383.82
394.397	387.43
394.776	380.2
395.155	388.56
395.534	372.97
395.913	371.84
396.292	381.78
396.671	391.95
397.05	388.11
397.429	396.7
397.808	384.27
398.186	380.88
398.565	408.22
398.944	397.83
399.323	405.51
399.701	412.52
400.08	395.79
400.458	407.77
400.837	417.49
401.215	407.55
401.594	397.15
401.972	423.36
402.351	431.05
402.729	409.58
403.107	424.72
403.486	407.77
403.864	412.97
404.242	426.75
404.62	428.34
404.999	418.39
405.377	440.09
405.755	429.69
406.133	433.31
406.511	445.51
406.889	447.54
407.267	433.76
407.645	429.01
408.023	431.73
408.401	434.44
408.779	450.93
409.156	442.8
409.534	467.66
409.912	469.24
410.29	447.77
410.667	450.48
411.045	474.66
411.422	474.89
411.8	451.61
412.178	464.72
412.555	480.54
412.933	485.51
413.31	461.33
413.687	483.25
414.065	488
414.442	482.12
414.819	497.94
415.197	503.59
415.574	503.81
415.951	504.04
416.328	519.63
416.705	525.73
417.082	511.27
417.46	509.92
417.837	518.05
418.214	532.51
418.591	494.32
418.967	519.18
419.344	530.48
419.721	516.92
420.098	527.09
420.475	558.05
420.852	519.41
421.228	535.45
421.605	542.01
421.982	541.33
422.358	548.33
422.735	571.16
423.111	566.86
423.488	572.74
423.864	553.98
424.241	568.67
424.617	585.85
424.994	559.18
425.37	574.77
425.746	575
426.123	587.43
426.499	570.71
426.875	601.21
427.251	607.54
427.627	586.3
428.003	617.71
428.379	617.94
428.756	616.81
429.132	606.18
429.507	615.68
429.883	612.06
430.259	616.13
430.635	632.85
431.011	659.97
431.387	632.85
431.763	634.88
432.138	657.93
432.514	679.18
432.89	670.14
433.265	684.37
433.641	693.87
434.016	706.29
434.392	690.25
434.767	721.21
435.143	704.49
435.518	708.78
435.894	689.35
436.269	720.98
436.644	751.04
437.02	728.22
437.395	755.33
437.77	743.81
438.145	755.33
438.52	777.25
438.895	757.82
439.271	786.29
439.646	786.74
440.021	797.37
440.395	774.32
440.77	775.22
441.145	812.05
441.52	770.7
441.895	767.99
442.27	791.26
442.645	817.48
443.019	821.32
443.394	807.54
443.769	822.9
444.143	824.03
444.518	824.48
444.892	831.26
445.267	829.68
445.641	842.79
446.016	849.12
446.39	827.87
446.764	824.03
447.139	888.89
447.513	889.57
447.887	855.9
448.262	890.02
448.636	857.93
449.01	901.32
449.384	902.67
449.758	890.7
450.132	911.94
450.506	932.28
450.88	903.13
451.254	899.28
451.628	917.81
452.002	920.07
452.376	934.09
452.75	926.18
453.123	954.65
453.497	978.15
453.871	978.15
454.244	962.79
454.618	977.02
454.992	984.48
455.365	1021.77
455.739	1036.91
456.112	1021.99
456.486	1033.74
456.859	1038.49
457.232	1078.94
457.606	1067.42
457.979	1069.9
458.352	1095.66
458.725	1100.63
459.099	1116.91
459.472	1125.72
459.845	1123.01
460.218	1132.72
460.591	1127.07
460.964	1167.98
461.337	1145.83
461.71	1209.56
462.083	1188.54
462.456	1217.47
462.829	1190.58
463.201	1232.38
463.574	1257.47
463.947	1277.35
464.32	1268.99
464.692	1266.51
465.065	1308.99
465.438	1331.82
465.81	1316.67
466.183	1364.13
466.555	1388.31
466.928	1370.46
467.3	1392.38
467.672	1385.83
468.045	1449.1
468.417	1419.04
468.789	1431.7
469.161	1465.82
469.534	1504.01
469.906	1540.4
470.278	1532.26
470.65	1548.08
471.022	1559.15
471.394	1607.51
471.766	1636.21
472.138	1633.28
472.51	1659.04
472.882	1665.37
473.253	1696.1
473.625	1706.95
473.997	1781.07
474.369	1789.66
474.74	1809.54
475.112	1830.79
475.484	1880.28
475.855	1909.2
476.227	1935.19
476.598	2003.44
476.97	1978.35
477.341	2020.16
477.713	2082.08
478.084	2095.86
478.455	2131.79
478.827	2187.16
479.198	2198.91
479.569	2245.01
479.94	2297.21
480.311	2313.48
480.682	2393.93
481.053	2459.24
481.424	2467.6
481.795	2530.43
482.166	2572.46
482.537	2578.79
482.908	2659.24
483.279	2641.61
483.65	2725.45
484.021	2795.96
484.391	2855.39
484.762	2862.85
485.133	2873.02
485.503	2932.23
485.874	3007.7
486.244	3004.99
486.615	3058.78
486.985	3115.5
487.356	3212.9
487.726	3202.27
488.097	3263.74
488.467	3275.49
488.837	3370.86
489.207	3448.6
489.578	3448.82
489.948	3535.6
490.318	3562.49
490.688	3612.43
491.058	3673.45
491.428	3747.12
491.798	3780.34
492.168	3824.63
492.538	3856.49
492.908	3901.69
493.278	3968.36
493.648	3967.68
494.017	4007.68
494.387	4046.32
494.757	4142.59
495.126	4167.67
495.496	4200.44
495.866	4195.69
496.235	4261.46
496.605	4317.27
496.974	4368.12
497.344	4369.93
497.713	4390.04
498.082	4432.52
498.452	4500.55
498.821	4495.57
499.19	4531.73
499.559	4564.5
499.928	4611.05
500.298	4631.39
500.667	4689.92
501.036	4669.35
501.405	4734.66
501.774	4748.22
502.143	4819.41
502.512	4790.93
502.88	4834.1
503.249	4862.12
503.618	4901.44
503.987	4910.25
504.356	4943.7
504.724	4912.96
505.093	5010.14
505.462	5051.49
505.83	5050.59
506.199	5108.67
506.567	5161.32
506.936	5190.47
507.304	5198.15
507.672	5223.46
508.041	5189.11
508.409	5243.8
508.777	5327.87
509.145	5340.3
509.514	5341.88
509.882	5333.52
510.25	5414.87
510.618	5449
510.986	5399.96
511.354	5461.65
511.722	5520.41
512.09	5574.64
512.458	5563.34
512.826	5630.23
513.193	5663
513.561	5622.55
513.929	5698.93
514.297	5755.2
514.664	5737.12
515.032	5778.03
515.4	5767.86
515.767	5840.4
516.135	5868.65
516.502	5813.05
516.869	5895.76
517.237	5956.1
517.604	5918.81
517.972	5990
518.339	6035.87
518.706	6004.23
519.073	5997
519.44	6035.19
519.808	6102.76
520.175	6107.96
520.542	6218.01
520.909	6218.01
521.276	6246.26
521.643	6233.38
522.009	6269.09
522.376	6278.58
522.743	6344.34
523.11	6371.23
523.477	6429.99
523.843	6461.85
524.21	6529.64
524.577	6552.47
524.943	6572.13
525.31	6631.34
525.676	6649.64
526.043	6742.52
526.409	6761.5
526.776	6779.81
527.142	6761.95
527.508	6841.05
527.874	6907.26
528.241	6850.99
528.607	6951.33
528.973	7016.64
529.339	7014.38
529.705	6999.91
530.071	7119.23
530.437	7158.33
530.803	7171.89
531.169	7241.72
531.535	7220.93
531.901	7248.5
532.267	7286.69
532.632	7320.36
532.998	7394.03
533.364	7404.88
533.73	7402.62
534.095	7469.96
534.461	7489.85
534.826	7513.8
535.192	7594.25
535.557	7636.73
535.923	7580.69
536.288	7642.16
536.653	7720.8
537.019	7598.32
537.384	7733.23
537.749	7796.05
538.114	7758.31
538.479	7785.2
538.845	7791.08
539.21	7852.77
539.575	7814.58
539.94	7931.64
540.305	7923.96
540.67	8005.54
541.034	8043.05
541.399	8023.39
541.764	8071.07
542.129	8163.27
542.494	8118.98
542.858	8168.7
543.223	8169.6
543.587	8238.75
543.952	8175.48
544.316	8298.86
544.681	8336.38
545.045	8356.72
545.41	8379.99
545.774	8379.09
546.138	8438.52
546.503	8458.41
546.867	8420.44
547.231	8551.06
547.595	8542.93
547.959	8616.6
548.324	8568.91
548.688	8616.82
549.052	8704.95
549.416	8644.17
549.779	8668.12
550.143	8716.48
550.507	8780.43
550.871	8819.98
551.235	8791.05
551.599	8893.2
551.962	8856.59
552.326	8905.85
552.689	8979.52
553.053	8970.48
553.417	9006.87
553.78	9063.82
554.143	9082.57
554.507	9107.66
554.87	9109.92
555.234	9228.1
555.597	9174.32
555.96	9239.86
556.323	9260.87
556.686	9265.39
557.05	9363.92
557.413	9376.12
557.776	9419.51
558.139	9473.3
558.502	9436.69
558.865	9517.81
559.228	9520.98
559.59	9586.74
559.953	9545.38
560.316	9669.68
560.679	9652.5
561.041	9650.24
561.404	9747.64
561.767	9857.92
562.129	9776.34
562.492	9822.89
562.854	9812.5
563.217	9878.48
563.579	9988.99
563.941	9970.91
564.304	9983.57
564.666	10106.5
565.028	10054.98
565.39	10110.34
565.753	10148.76
566.115	10194.86
566.477	10243.22
566.839	10266.04
567.201	10344.23
567.563	10319.15
567.925	10374.29
568.287	10408.64
568.648	10421.52
569.01	10461.97
569.372	10524.57
569.734	10479.37
570.095	10617.9
570.457	10636.66
570.819	10702.64
571.18	10697.9
571.542	10805.69
571.903	10839.14
572.265	10929.98
572.626	10988.51
572.987	11006.59
573.349	11031.22
573.71	11069.19
574.071	11146.92
574.432	11157.55
574.794	11396.41
575.155	11314.15
575.516	11293.14
575.877	11416.75
576.238	11545.56
576.599	11499.01
576.96	11605.44
577.32	11677.53
577.681	11751.88
578.042	11873.91
578.403	11877.53
578.763	12014.02
579.124	12020.35
579.485	12188.03
579.845	12301.47
580.206	12309.83
580.566	12444.07
580.927	12661.46
581.287	12723.15
581.648	12744.62
582.008	13034.33
582.368	13105.29
582.728	13289.47
583.089	13445.85
583.449	13482.91
583.809	13659.63
584.169	13805.16
584.529	13993.4
584.889	14199.95
585.249	14456.89
585.609	14453.5
585.969	14767.39
586.329	14868.86
586.688	15094.62
587.048	15243.31
587.408	15501.39
587.768	15696.18
588.127	15940.92
588.487	16082.39
588.846	16485.99
589.206	16641.02
589.565	16775.03
589.925	17212.53
590.284	17399.87
590.643	17699.07
591.003	18015.9
591.362	18369.33
591.721	18507.86
592.08	18767.29
592.44	19166.15
592.799	19404.33
593.158	19583.09
593.517	19859.24
593.876	20385.55
594.235	20450.63
594.593	20751.19
594.952	21094.91
595.311	21267.79
595.67	21768.79
596.029	22103.02
596.387	22487.19
596.746	22727.64
597.104	22900.97
597.463	23206.27
597.822	23606.71
598.18	23802.64
598.538	24163.98
598.897	24535.5
599.255	24649.17
599.613	25328.25
599.972	25470.62
600.33	25776.37
600.688	26079.41
601.046	26443.92
601.404	26818.38
601.762	26977.69
602.12	27526.61
602.478	27685.7
602.836	27897.22
603.194	28083.65
603.552	28350.99
603.91	28561.16
604.268	29058.09
604.625	29201.59
604.983	29630.51
605.341	29841.35
605.698	30098.06
606.056	30546.41
606.413	30848.78
606.771	31101.88
607.128	31316.56
607.485	31508.65
607.843	31837.23
608.2	32103.89
608.557	32455.97
608.914	32684.89
609.272	33070.42
609.629	33302.27
609.986	33570.74
610.343	33570.06
610.7	34043.05
611.057	34160.1
611.414	34170.27
611.771	34632.63
612.127	34930.48
612.484	34974.32
612.841	35395.55
613.198	35386.97
613.554	35698.14
613.911	36047.51
614.267	36175.64
614.624	36296.32
614.98	36518.69
615.337	36773.14
615.693	37042.51
616.05	37145.56
616.406	37489.06
616.762	37389.4
617.118	37623.52
617.475	37839.1
617.831	38067.57
618.187	38180.79
618.543	38423.72
618.899	38669.14
619.255	38842.24
619.611	38781.9
619.967	39213.98
620.323	39280.2
620.678	39366.97
621.034	39293.3
621.39	39600.41
621.746	39569.68
622.101	40097.35
622.457	39858.03
622.812	40122.89
623.168	40242.43
623.523	40385.7
623.879	40548.41
624.234	40282.66
624.589	40625.02
624.945	40610.1
625.3	40836.54
625.655	40792.7
626.01	40877.44
626.365	40996.08
626.72	41136.87
627.075	41194.95
627.43	41173.71
627.785	41163.76
628.14	41365.11
628.495	41401.95
628.85	41576.86
629.205	41472.91
629.559	41793.35
629.914	41643.98
630.269	41799.9
630.623	41669.29
630.978	41692.79
631.332	41835.38
631.687	42000.35
632.041	41935.95
632.396	42107.47
632.75	41867.02
633.104	41912.67
633.459	41940.92
633.813	42015.27
634.167	41927.81
634.521	42082.16
634.875	42172.1
635.229	42038.99
635.583	41767.59
635.937	42036.06
636.291	41982.5
636.645	41998.77
636.999	41914.93
637.352	42144.75
637.706	41933.01
638.06	42195.15
638.413	41903.63
638.767	41996.51
639.121	42087.58
639.474	42016.17
639.828	41987.92
640.181	41989.73
640.534	41961.71
640.888	42033.8
641.241	41836.29
641.594	41927.36
641.947	41986.34
642.301	42058.65
642.654	42020.46
643.007	41958.09
643.36	42001.93
643.713	41989.28
644.066	42231.53
644.419	41763.97
644.771	41658.89
645.124	41272.01
645.477	41060.26
645.83	41080.37
646.182	40890.78
646.535	40882.64
646.888	40891
647.24	40740.04
647.593	41034.27
647.945	40799.03
648.298	40653.49
648.65	40618.69
649.002	40555.42
649.355	40620.73
649.707	40745.02
650.059	40923.54
650.411	41192.46
650.763	41180.03
651.115	41627.93
651.467	41573.92
651.819	41535.96
652.171	41478.33
652.523	41446.01
652.875	41446.92
653.227	41272.91
653.578	41696.86
653.93	41558.78
654.282	41317.2
654.633	41323.98
654.985	41511.78
655.337	41461.61
655.688	41359.46
656.039	41603.98
656.391	41300.26
656.742	41275.62
657.094	41352.68
657.445	41435.39
657.796	41318.79
658.147	41239.92
658.498	41364.43
658.849	41345
659.2	41188.85
659.551	41128.06
659.902	41350.2
660.253	41287.83
660.604	41343.87
660.955	41270.43
661.306	41314.94
661.656	41347.71
662.007	41214.16
662.358	41243.08
662.708	41214.16
663.059	41181.84
663.409	41015.52
663.76	41300.48
664.11	41325.34
664.461	41363.08
664.811	41287.83
665.161	41159.92
665.511	41074.27
665.862	41214.83
666.212	41220.48
666.562	41284.21
666.912	41045.57
667.262	41103.88
667.612	41096.87
667.962	41156.3
668.312	41011.9
668.662	41263.65
669.011	41179.36
669.361	41005.12
669.711	41088.74
670.06	41043.77
670.41	40964.9
670.76	40962.64
671.109	41130.77
671.459	40887.39
671.808	40938.68
672.157	41134.61
672.507	40858.46
672.856	40817.33
673.205	40901.85
673.554	41002.41
673.904	40935.29
674.253	41086.93
674.602	40902.98
674.951	40407.85
675.3	40190.68
675.649	40837.67
675.998	40655.3
676.346	40802.87
676.695	40863.88
677.044	40726.94
677.393	40722.87
677.741	40794.28
678.09	40711.12
678.438	40669.09
678.787	40695.98
679.135	40590.22
679.484	40298.02
679.832	40506.6
680.181	40252.83
680.529	40474.97
680.877	40312.94
681.225	40236.78
681.573	40465.7
681.922	40267.97
682.27	40017.8
682.618	40154.3
682.966	39959.05
683.314	40131.47
683.661	39955.66
684.009	39848.54
684.357	39743.91
684.705	39690.81
685.053	39822.55
685.4	39771.48
685.748	39498.95
686.095	39495.78
686.443	39328.78
686.79	39399.29
687.138	39531.94
687.485	39425.28
687.832	39272.74
688.18	39311.61
688.527	39066.64
688.874	39074.78
689.221	38992.52
689.568	38895.8
689.915	38795.46
690.262	39011.28
690.609	38634.11
690.956	38547.33
691.303	38517.05
691.65	38343.5
691.997	38495.36
692.344	38098.76
692.69	38199.77
693.037	38111.87
693.383	37953.9
693.73	38002.04
694.077	37725.66
694.423	37844.08
694.769	37638.66
695.116	37586.91
695.462	37514.37
695.808	37455.84
696.155	37373.13
696.501	37273.02
696.847	37281.15
697.193	36943.08
697.539	37058.33
697.885	36820.37
698.231	36687.72
698.577	36761.84
698.923	36641.85
699.269	36485.24
699.614	36341.06
699.96	36226.94
700.306	36301.74
700.651	36106.72
700.997	36039.38
701.342	35941.75
701.688	35813.85
702.033	35816.33
702.379	35788.31
702.724	35726.39
703.069	35641.65
703.415	35360.98
703.76	35300.19
704.105	35358.94
704.45	35421.54
704.795	35169.8
705.14	34977.03
705.485	34758.96
705.83	34995.11
706.175	34832.86
706.52	34786.3
706.865	34769.58
707.209	34610.49
707.554	34583.37
707.899	34575.69
708.243	34379.76
708.588	34404.39
708.932	34181.35
709.277	34101.58
709.621	34095.47
709.966	33895.25
710.31	34086.43
710.654	33687.35
710.998	33826.1
711.342	33806.44
711.687	33669.72
712.031	33355.83
712.375	33403.97
712.719	33507.24
713.063	33479.22
713.407	33438.77
713.75	33326
714.094	33281.94
714.438	32990.19
714.782	33118.55
715.125	33048.95
715.469	33046.24
715.812	32901.83
716.156	32724.44
716.499	32828.16
716.843	32695.28
717.186	32499.58
717.53	32685.12
717.873	32742.74
718.216	32657.09
718.559	32536.87
718.902	32281.74
719.246	32308.18
719.589	32171.46
719.932	32110.44
720.275	32138.01
720.617	32164
720.96	31989.54
721.303	32104.34
721.646	32041.29
721.989	31811.69
722.331	31946.15
722.674	31772.82
723.016	31882.88
723.359	31675.65
723.701	31750.9
724.044	31553.17
724.386	31352.27
724.729	31562.66
725.071	31466.39
725.413	31430.91
725.755	31321.76
726.097	31126.74
726.439	31075.21
726.782	31102.33
727.124	31166.29
727.465	31006.06
727.807	30901.43
728.149	30945.27
728.491	30984.59
728.833	30948.44
729.175	30677.26
729.516	30811.94
729.858	30747.54
730.199	30808.1
730.541	30623.93
730.882	30520.88
731.224	30777.59
731.565	30543.93
731.906	30488.79
732.248	30595
732.589	30372.86
732.93	30282.47
733.271	30212.86
733.612	30295.8
733.953	30272.98
734.294	30178.74
734.635	30208.12
734.976	30233.65
735.317	30002.47
735.658	30132.41
735.999	30075.24
736.339	30001.8
736.68	30113.88
737.021	29826.89
737.361	29798.19
737.702	29964.96
738.042	29773.1
738.383	29677.06
738.723	29765.64
739.063	29638.87
739.404	29707.11
739.744	29536.72
740.084	29550.96
740.424	29537.4
740.764	29520.68
741.104	29589.38
741.444	29402.49
741.784	29330.4
742.124	29317.07
742.464	29383.51
742.804	29286.33
743.143	29202.49
743.483	29277.07
743.823	29173.57
744.162	29037.75
744.502	29131.54
744.841	28903.29
745.181	29092.22
745.52	28980.35
745.86	28875.05
746.199	28819.45
746.538	28730.42
746.877	28882.96
747.216	28915.5
747.556	28830.98
747.895	28769.96
748.234	28598.22
748.573	28527.03
748.911	28614.04
749.25	28553.25
749.589	28468.05
749.928	28547.37
750.267	28459.92
750.605	28489.29
750.944	28333.82
751.283	28232.58
751.621	28284.55
751.96	28139.7
752.298	28054.73
752.636	28182.41
752.975	28021.51
753.313	27946.93
753.651	27979.48
753.989	27879.82
754.327	27744.91
754.666	27734.51
755.004	27789.2
755.342	27772.25
755.679	27640.73
756.017	27465.14
756.355	27587.4
756.693	27507.62
757.031	27581.29
757.368	27310.12
757.706	27206.62
758.044	27236.67
758.381	27264.01
758.719	27174.3
759.056	27172.49
759.394	27121.19
759.731	26988.32
760.068	26881.88
760.405	26696.35
760.743	26763.24
761.08	26866.06
761.417	26527.31
761.754	26599.4
762.091	26511.72
762.428	26520.53
762.765	26196.92
763.102	26430.59
763.438	26146.53
763.775	26118.06
764.112	26041
764.449	26189.47
764.785	25897.27
765.122	25682.36
765.458	25758.52
765.795	25658.86
766.131	25645.07
766.467	25615.92
766.804	25497.96
767.14	25388.81
767.476	25265.2
767.812	25255.71
768.148	25210.06
768.485	25027.01
768.821	24944.75
769.157	24986.56
769.492	24822.72
769.828	24909.5
770.164	24669.28
770.5	24574.37
770.836	24626.34
771.171	24458.21
771.507	24294.83
771.842	24279.01
772.178	24262.96
772.513	24136.87
772.849	24058.68
773.184	23942.07
773.519	24036.98
773.855	23851.68
774.19	23770.1
774.525	23637.67
774.86	23658.46
775.195	23662.08
775.53	23459.37
775.865	23375.98
776.2	23099.38
776.535	23087.4
776.87	22968.31
777.205	23017.57
777.539	22832.72
777.874	22955.43
778.209	22663.91
778.543	22543.01
778.878	22559.05
779.212	22451.03
779.547	22399.28
779.881	22493.52
780.215	22174.88
780.55	22244.71
780.884	22148.44
781.218	22138.05
781.552	21940.31
781.886	21975.11
782.22	21853.54
782.554	21740.32
782.888	21629.81
783.222	21574.9
783.556	21423.94
783.889	21461.91
784.223	21296.49
784.557	21211.07
784.89	21270.05
785.224	21007
785.557	20999.32
785.891	20909.61
786.224	20868.93
786.558	20800.23
786.891	20538.54
787.224	20552.1
787.557	20607.69
787.891	20522.27
788.224	20461.03
788.557	20425.32
788.89	20334.48
789.223	20332.22
789.556	20136.52
789.888	20167.25
790.221	20006.13
790.554	19910.54
790.887	19875.06
791.219	19841.39
791.552	19831.22
791.884	19644.55
792.217	19647.49
792.549	19600.04
792.882	19412.02
793.214	19313.49
793.546	19460.83
793.879	19337.44
794.211	19133.83
794.543	19207.5
794.875	19127.96
795.207	19134.74
795.539	18924.8
795.871	18983.55
796.203	18764.35
796.535	18746.05
796.867	18670.57
797.198	18660.17
797.53	18593.96
797.862	18458.6
798.193	18544.24
798.525	18427.64
798.856	18400.52
799.188	18184.25
799.519	18180.19
799.85	18173.18
800.182	18060.64
800.513	18094.76
800.844	17940.19
801.175	18047.76
801.506	17995.11
801.837	17902
802.168	17812.06
802.499	17779.74
802.83	17622.69
803.161	17604.16
803.491	17555.34
803.822	17615.45
804.153	17524.16
804.483	17331.17
804.814	17291.85
805.145	17343.6
805.475	17268.8
805.805	17205.75
806.136	17212.75
806.466	17212.75
806.796	17165.75
807.126	17041.68
807.457	16996.26
807.787	16998.75
808.117	16862.48
808.447	16797.4
808.777	16767.12
809.107	16854.8
809.436	16754.01
809.766	16689.83
810.096	16579.78
810.426	16581.13
810.755	16504.52
811.085	16458.65
811.414	16474.47
811.744	16369.16
812.073	16357.86
812.403	16284.87
812.732	16233.12
813.061	16121.26
813.39	16098.21
813.719	16079.9
814.049	16140.69
814.378	16044.87
814.707	16004.88
815.036	16005.1
815.365	15899.79
815.693	15753.13
816.022	15823.41
816.351	15728.72
816.68	15720.59
817.008	15677.2
817.337	15501.61
817.665	15549.07
817.994	15583.19
818.322	15506.36
818.651	15414.61
818.979	15463.2
819.307	15421.84
819.636	15451.9
819.964	15245.57
820.292	15363.31
820.62	15355.4
820.948	15290.77
821.276	15372.58
821.604	15316.98
821.932	15301.17
822.259	15291.22
822.587	15199.47
822.915	15167.84
823.243	15366.25
823.57	15135.97
823.898	15222.07
824.225	15147.72
824.553	15224.56
824.88	15202.41
825.207	15297.55
825.535	15110.66
825.862	15286.02
826.189	15158.57
826.516	15246.93
826.843	15218.68
827.17	15262.07
827.497	15204.22
827.824	15237.21
828.151	15188.63
828.478	15116.09
828.805	15194.05
829.131	15219.81
829.458	15195.86
829.785	15040.83
830.111	15117.22
830.438	15254.61
830.764	15106.14
831.09	15208.06
831.417	15116.99
831.743	15151.11
832.069	15040.16
832.395	15102.53
832.722	15130.77
833.048	15071.12
833.374	14999.48
833.7	14962.42
834.026	14946.37
834.351	14988.41
834.677	15012.59
835.003	14956.32
835.329	14974.17
835.654	15022.75
835.98	14881.06
836.306	14956.32
836.631	14883.32
836.956	14842.42
837.282	14967.16
837.607	14786.38
837.932	14791.57
838.258	14846.04
838.583	14767.62
838.908	14671.8
839.233	14638.81
839.558	14690.11
839.883	14540.06
840.208	14589.55
840.533	14564.46
840.858	14529.43
841.182	14614.18
841.507	14591.35
841.832	14432.94
842.156	14363.79
842.481	14419.15
842.805	14454.41
843.13	14375.31
843.454	14331.47
843.778	14352.26
844.103	14258.26
844.427	14154.98
844.751	14222.1
845.075	14125.38
845.399	14080.86
845.723	13988.88
846.047	14087.64
846.371	13926.51
846.695	13897.13
847.019	13901.65
847.343	13775.78
847.666	13670.02
847.99	13568.1
848.313	13623.7
848.637	13485.85
848.96	13502.12
849.284	13555.67
849.607	13385.74
849.931	13314.55
850.254	13287.89
850.577	13235.68
850.9	13034.11
851.223	13116.36
851.546	13067.33
851.869	12957.72
852.192	12983.03
852.515	12865.98
852.838	12770.16
853.161	12896.03
853.483	12747.79
853.806	12698.3
854.129	12613.1
854.451	12626.21
854.774	12578.75
855.096	12533.78
855.419	12538.98
855.741	12476.61
856.063	12409.04
856.385	12411.52
856.708	12366.78
857.03	12380.56
857.352	12334.24
857.674	12278.87
857.996	12274.58
858.318	12154.36
858.64	12160.23
858.961	12120.68
859.283	12089.95
859.605	11992.1
859.926	12032.1
860.248	11918.43
860.57	11963.63
860.891	11910.52
861.212	11848.15
861.534	11827.81
861.855	11844.76
862.176	11821.71
862.498	11745.1
862.819	11756.85
863.14	11740.13
863.461	11776.29
863.782	11643.41
864.103	11717.08
864.424	11609.51
864.745	11653.13
865.065	11595.73
865.386	11513.24
865.707	11509.4
866.027	11517.54
866.348	11470.08
866.668	11445.9
866.989	11477.09
867.309	11400.03
867.63	11488.84
867.95	11372.68
868.27	11353.02
868.59	11307.37
868.91	11364.77
869.23	11336.75
869.55	11218.11
869.87	11300.14
870.19	11232.8
870.51	11325.68
870.83	11221.72
871.15	11192.8
871.469	11170.2
871.789	11207.04
872.109	11120.71
872.428	11117.77
872.748	11164.33
873.067	11079.36
873.386	11053.37
873.706	11041.16
874.025	10945.8
874.344	11023.31
874.663	10974.5
874.982	10950.09
875.301	10905.35
875.62	10907.83
875.939	10911.45
876.258	10875.52
876.577	10810.66
876.896	10826.25
877.214	10833.03
877.533	10902.19
877.852	10821.51
878.17	10767.27
878.489	10772.02
878.807	10805.69
879.125	10748.29
879.444	10787.39
879.762	10670.55
880.08	10742.42
880.398	10651.57
880.716	10681.85
881.034	10638.92
881.352	10660.61
881.67	10638.92
881.988	10639.37
882.306	10557.34
882.624	10548.07
882.941	10375.87
883.259	10459.71
883.577	10404.12
883.894	10423.78
884.212	10429.43
884.529	10433.72
884.846	10354.18
885.164	10323.9
885.481	10270.79
885.798	10328.19
886.115	10250
886.432	10212.03
886.75	10211.58
887.067	10152.83
887.383	10163.9
887.7	10129.78
888.017	10094.97
888.334	10156.89
888.651	10085.94
888.967	10027.18
889.284	9989.44
889.6	9936.33
889.917	9897.47
890.233	9895.21
890.55	9857.01
890.866	9890.69
891.182	9874.42
891.498	9751.25
891.815	9728.88
892.131	9697.47
892.447	9692.05
892.763	9678.94
893.079	9659.51
893.395	9587.87
893.71	9620.41
894.026	9554.88
894.342	9570.47
894.657	9507.42
894.973	9517.81
895.289	9470.58
895.604	9423.81
895.92	9339.29
896.235	9319.63
896.55	9319.4
896.865	9353.3
897.181	9300.19
897.496	9245.51
897.811	9203.25
898.126	9247.99
898.441	9186.07
898.756	9144.04
899.071	8995.57
899.386	9098.39
899.7	8972.07
900.015	8971.84
900.33	8883.03
900.644	8883.93
900.959	8924.61
901.273	8897.49
901.588	8804.61
901.902	8767.55
902.216	8753.99
902.531	8669.48
902.845	8742.69
903.159	8690.27
903.473	8627.89
903.787	8562.36
904.101	8596.71
904.415	8539.08
904.729	8570.49
905.042	8480.78
905.356	8455.92
905.67	8415.02
905.984	8360.11
906.297	8382.48
906.611	8259.32
906.924	8326.66
907.237	8257.51
907.551	8255.02
907.864	8232.2
908.177	8180.45
908.491	8115.59
908.804	8079.89
909.117	8078.53
909.43	8025.42
909.743	7916.95
910.056	8020.45
910.368	7925.54
910.681	7910.63
910.994	7857.75
911.307	7926.22
911.619	7747.92
911.932	7759.44
912.244	7730.74
912.557	7693.68
912.869	7665.21
913.181	7583.63
913.494	7629.73
913.806	7520.13
914.118	7522.61
914.43	7495.04
914.742	7485.33
915.054	7508.15
915.366	7404.2
915.678	7394.48
915.99	7327.36
916.302	7346.35
916.613	7281.72
916.925	7303.41
917.236	7286.01
917.548	7216.86
917.859	7189.29
918.171	7156.52
918.482	7091.21
918.794	7116.3
919.105	7074.26
919.416	7029.29
919.727	7040.82
920.038	6988.84
920.349	6953.59
920.66	6908.62
920.971	6909.07
921.282	6895.51
921.593	6801.5
921.903	6792.91
922.214	6777.55
922.525	6756.31
922.835	6726.48
923.146	6651
923.456	6630.88
923.767	6655.97
924.077	6573.49
924.387	6493.04
924.697	6510.66
925.008	6474.05
925.318	6483.77
925.628	6448.29
925.938	6407.84
926.248	6382.98
926.558	6380.27
926.867	6369.87
927.177	6318.12
927.487	6354.73
927.796	6228.64
928.106	6248.52
928.416	6174.17
928.725	6262.76
929.034	6168.3
929.344	6154.74
929.653	6099.15
929.962	6044.46
930.271	6041.52
930.581	6004.69
930.89	6022.99
931.199	5945.93
931.508	5990.45
931.817	5938.7
932.125	5921.3
932.434	5915.2
932.743	5873.39
933.051	5853.28
933.36	5744.13
933.669	5775.09
933.977	5778.03
934.286	5726.95
934.594	5754.98
934.902	5646.73
935.21	5695.32
935.519	5685.37
935.827	5610.35
936.135	5634.08
936.443	5535.55
936.751	5547.3
937.059	5571.93
937.367	5486.73
937.674	5502.78
937.982	5410.58
938.29	5416
938.597	5446.28
938.905	5354.53
939.213	5369
939.52	5298.94
939.827	5303.46
940.135	5284.03
940.442	5275.89
940.749	5268.21
941.056	5301.88
941.363	5157.93
941.67	5181.43
941.977	5145.95
942.284	5131.49
942.591	5072.96
942.898	5055.79
943.205	5040.87
943.511	5062.11
943.818	5023.7
944.125	5054.2
944.431	5003.81
944.738	4960.19
945.044	4947.31
945.35	4910.93
945.657	4921.78
945.963	4905.96
946.269	4839.52
946.575	4862.12
946.881	4863.47
947.187	4807.43
947.493	4744.15
947.799	4758.84
948.105	4717.94
948.41	4711.61
948.716	4679.98
949.022	4660.77
949.327	4644.72
949.633	4626.87
949.938	4616.93
950.244	4586.42
950.549	4571.5
950.854	4527.89
951.16	4481.56
951.465	4450.15
951.77	4503.48
952.075	4408.57
952.38	4452.64
952.685	4385.52
952.99	4451.73
953.294	4363.6
953.599	4319.31
953.904	4341.45
954.209	4327.89
954.513	4303.26
954.818	4271.85
955.122	4242.47
955.426	4238.18
955.731	4200.21
956.035	4181.46
956.339	4253.55
956.643	4170.61
956.948	4153.44
957.252	4112.53
957.556	4152.53
957.86	4120.89
958.163	4101.23
958.467	4090.61
958.771	4049.71
959.075	4075.92
959.378	4031.41
959.682	4011.29
959.985	4003.38
960.289	3957.96
960.592	3956.83
960.896	3912.99
961.199	3897.85
961.502	3893.1
961.805	3855.59
962.108	3847.46
962.411	3877.96
962.714	3843.39
963.017	3814.46
963.32	3828.7
963.623	3779.21
963.926	3740.34
964.228	3748.47
964.531	3736.27
964.833	3720.45
965.136	3685.2
965.438	3650.62
965.741	3650.4
966.043	3652.66
966.345	3624.64
966.648	3644.75
966.95	3623.05
967.252	3596.84
967.554	3557.29
967.856	3558.2
968.158	3536.96
968.46	3519.33
968.761	3498.31
969.063	3504.19
969.365	3480.01
969.666	3484.08
969.968	3445.66
970.269	3386.9
970.571	3422.16
970.872	3414.7
971.174	3374.25
971.475	3382.83
971.776	3381.48
972.077	3347.81
972.378	3345.32
972.679	3310.97
972.98	3310.75
973.281	3264.19
973.582	3257.87
973.883	3270.97
974.183	3215.83
974.484	3261.03
974.785	3207.25
975.085	3243.18
975.386	3211.31
975.686	3182.84
975.986	3151.88
976.287	3143.07
976.587	3135.84
976.887	3119.34
977.187	3106.23
977.487	3113.24
977.787	3089.06
978.087	3055.16
978.387	3045.89
978.687	3021.49
978.987	3035.27
979.286	3000.02
979.586	2995.05
979.885	2955.5
980.185	2969.06
980.484	2965.22
980.784	2901.04
981.083	2892.45
981.382	2888.84
981.682	2892.68
981.981	2879.35
982.28	2879.8
982.579	2864.43
982.878	2843.64
983.177	2812.91
983.475	2853.58
983.774	2817.2
984.073	2802.96
984.372	2748.28
984.67	2774.04
984.969	2758.22
985.267	2779.23
985.566	2752.79
985.864	2734.94
986.162	2728.61
986.461	2706.92
986.759	2713.7
987.057	2672.8
987.355	2656.3
987.653	2666.24
987.951	2641.61
988.249	2593.48
988.547	2607.71
988.844	2625.79
989.142	2615.17
989.44	2589.64
989.737	2560.26
990.035	2554.83
990.332	2555.96
990.63	2565.23
990.927	2473.03
991.224	2476.42
991.521	2497.43
991.819	2508.96
992.116	2459.47
992.413	2470.54
992.71	2436.87
993.006	2442.07
993.303	2470.77
993.6	2409.08
993.897	2424.22
994.193	2388.96
994.49	2397.55
994.787	2362.75
995.083	2386.93
995.379	2342.41
995.676	2321.17
995.972	2322.07
996.268	2331.11
996.565	2306.03
996.861	2291.56
997.157	2307.61
997.453	2264.67
997.749	2287.27
998.044	2275.07
998.34	2235.07
998.636	2226.48
998.932	2198.01
999.227	2240.94
999.523	2188.97
999.818	2151.45
1000.114	2169.08
1000.409	2171.79
1000.704	2148.97
1001	2136.54
1001.295	2139.03
1001.59	2098.57
1001.885	2128.18
1002.18	2127.73
1002.475	2099.93
1002.77	2077.11
1003.065	2066.03
1003.359	2041.18
1003.654	2023.32
1003.949	2013.61
1004.243	2014.96
1004.538	2001.18
1004.832	2017.22
1005.127	1990.1
1005.421	1986.04
1005.715	1977.22
1006.009	1941.06
1006.304	1958.69
1006.598	1913.04
1006.892	1878.69
1007.186	1897.9
1007.48	1911.24
1007.773	1886.15
1008.067	1868.98
1008.361	1840.95
1008.655	1861.52
1008.948	1831.24
1009.242	1857
1009.535	1829.2
1009.829	1835.3
1010.122	1800.96
1010.415	1801.41
1010.708	1770.67
1011.001	1778.81
1011.295	1767.51
1011.588	1771.58
1011.881	1737
1012.173	1723.44
1012.466	1726.16
1012.759	1713.5
1013.052	1696.55
1013.344	1682.09
1013.637	1701.3
1013.93	1669.43
1014.222	1671.47
1014.514	1657.23
1014.807	1656.55
1015.099	1629.43
1015.391	1636.67
1015.683	1616.33
1015.976	1619.94
1016.268	1582.2
1016.56	1590.79
1016.851	1589.66
1017.143	1580.4
1017.435	1567.29
1017.727	1542.88
1018.018	1542.43
1018.31	1519.15
1018.602	1513.28
1018.893	1519.15
1019.185	1499.49
1019.476	1467.18
1019.767	1463.56
1020.058	1446.61
1020.35	1476.44
1020.641	1462.21
1020.932	1441.87
1021.223	1422.43
1021.514	1416.78
1021.804	1408.88
1022.095	1381.98
1022.386	1404.58
1022.677	1403
1022.967	1368.2
1023.258	1360.74
1023.548	1353.51
1023.839	1337.69
1024.129	1341.98
1024.419	1340.4
1024.709	1325.26
1025	1298.14
1025.29	1296.79
1025.58	1295.88
1025.87	1309.67
1026.16	1278.48
1026.449	1274.42
1026.739	1264.7
1027.029	1229.67
1027.319	1251.14
1027.608	1252.95
1027.898	1255.21
1028.187	1230.12
1028.477	1232.61
1028.766	1195.32
1029.055	1196.68
1029.344	1195.55
1029.634	1188.09
1029.923	1191.48
1030.212	1172.95
1030.501	1163.46
1030.79	1148.32
1031.078	1166.17
1031.367	1134.76
1031.656	1159.39
1031.945	1125.27
1032.233	1130.92
1032.522	1112.84
1032.81	1113.74
1033.099	1111.93
1033.387	1095.44
1033.675	1055.89
1033.963	1070.13
1034.251	1074.87
1034.54	1062.22
1034.828	1040.3
1035.116	1026.51
1035.403	1066.96
1035.691	1008.21
1035.979	1042.11
1036.267	1031.03
1036.554	1021.31
1036.842	1006.63
1037.129	994.87
1037.417	1009.11
1037.704	983.12
1037.992	988.55
1038.279	949.68
1038.566	975.89
1038.853	975.89
1039.14	975.89
