Data from hue_310_FLMS001491_41.txt Node
Date: Mon Feb 06 15:49:44 GMT 2017
User: dcchb
Spectrometer: FLMS00149
Trigger mode: 0
Integration Time (sec): 2.000000E-2
Scans to average: 10
Electric dark correction enabled: true
Nonlinearity correction enabled: false
Boxcar width: 0
XAxis mode: Wavelengths
Number of Pixels in Spectrum: 2048
>>>>>Begin Spectral Data<<<<<
341.393	-7.74
341.776	-7.74
342.16	-7.74
342.543	-65.59
342.927	-85.03
343.31	-54.97
343.693	-85.48
344.077	-66.5
344.46	-58.36
344.843	-49.77
345.226	-29.43
345.61	-27.4
345.993	-18.81
346.376	-7.74
346.759	0.62
347.142	21.41
347.525	40.85
347.908	52.6
348.291	62.99
348.674	94.86
349.057	125.14
349.44	126.49
349.823	140.73
350.206	185.48
350.588	214.63
350.971	220.95
351.354	236.1
351.737	217.34
352.119	255.76
352.502	262.08
352.884	265.47
353.267	267.06
353.65	283.33
354.032	294.4
354.414	291.69
354.797	296.88
355.179	324.45
355.562	335.75
355.944	324.68
356.326	326.71
356.709	357.45
357.091	340.5
357.473	342.31
357.855	339.14
358.238	325.13
358.62	321.07
359.002	349.31
359.384	344.57
359.766	333.49
360.148	331.23
360.53	336.66
360.912	333.72
361.294	321.52
361.676	338.92
362.057	340.73
362.439	321.74
362.821	322.87
363.203	329.43
363.584	348.18
363.966	318.35
364.348	323.78
364.729	323.1
365.111	305.02
365.493	319.94
365.874	342.76
366.256	316.09
366.637	315.87
367.019	298.24
367.4	310.22
367.781	291.91
368.163	298.92
368.544	318.13
368.925	302.08
369.306	320.16
369.688	303.44
370.069	305.47
370.45	292.59
370.831	326.04
371.212	319.26
371.593	320.39
371.974	311.57
372.355	305.47
372.736	333.72
373.117	316.09
373.498	302.53
373.879	302.08
374.26	302.53
374.641	315.19
375.021	327.17
375.402	319.71
375.783	319.03
376.163	332.59
376.544	338.69
376.925	300.73
377.305	310.67
377.686	313.61
378.066	313.38
378.447	336.88
378.827	338.01
379.208	328.97
379.588	335.98
379.968	321.52
380.349	328.52
380.729	342.76
381.109	310.22
381.489	329.88
381.87	351.35
382.25	341.63
382.63	336.21
383.01	343.89
383.39	325.13
383.77	351.12
384.15	352.7
384.53	343.89
384.91	338.47
385.29	331.46
385.67	346.83
386.049	365.36
386.429	353.83
386.809	332.59
387.189	354.74
387.568	342.31
387.948	358.35
388.328	355.87
388.707	378.69
389.087	366.94
389.466	356.09
389.846	344.34
390.225	339.82
390.605	355.87
390.984	352.02
391.363	333.27
391.743	372.59
392.122	371.91
392.501	358.58
392.881	364
393.26	385.02
393.639	363.32
394.018	370.78
394.397	376.66
394.776	376.2
395.155	382.53
395.534	390.22
395.913	364
396.292	386.37
396.671	410.1
397.05	392.48
397.429	388.63
397.808	378.01
398.186	396.32
398.565	405.36
398.944	393.83
399.323	401.74
399.701	389.31
400.08	420.27
400.458	407.62
400.837	399.93
401.215	394.06
401.594	424.79
401.972	410.1
402.351	392.25
402.729	436.77
403.107	418.69
403.486	418.01
403.864	424.79
404.242	419.82
404.62	442.19
404.999	418.92
405.377	433.83
405.755	433.83
406.133	426.15
406.511	432.25
406.889	432.02
407.267	462.3
407.645	469.99
408.023	481.96
408.401	470.21
408.779	465.02
409.156	451.23
409.534	468.63
409.912	480.38
410.29	485.13
410.667	500.27
411.045	494.62
411.422	492.13
411.8	507.05
412.178	495.52
412.555	541.62
412.933	505.92
413.31	547.73
413.687	533.71
414.065	527.61
414.442	564.9
414.819	553.83
415.197	572.58
415.574	581.62
415.951	583.21
416.328	594.5
416.705	593.6
417.082	619.59
417.46	602.41
417.837	618.91
418.214	614.16
418.591	625.46
418.967	650.77
419.344	652.36
419.721	655.07
420.098	648.97
420.475	655.29
420.852	676.76
421.228	693.48
421.605	677.67
421.982	682.64
422.358	692.81
422.735	718.57
423.111	709.3
423.488	726.48
423.864	752.01
424.241	754.73
424.617	754.5
424.994	764.9
425.37	767.61
425.746	783.43
426.123	798.57
426.499	812.13
426.875	814.39
427.251	796.98
427.627	845.35
428.003	834.05
428.379	822.07
428.756	819.13
429.132	847.83
429.507	870.66
429.883	864.78
430.259	899.81
430.635	892.8
431.011	888.28
431.387	898.45
431.763	919.92
432.138	934.16
432.514	948.39
432.89	926.47
433.265	971.44
433.641	964.66
434.016	979.35
434.392	1008.96
434.767	1008.96
435.143	1010.31
435.518	1025.23
435.894	1055.06
436.269	1028.84
436.644	1029.29
437.02	1074.72
437.395	1068.62
437.77	1117.88
438.145	1088.28
438.52	1138.44
438.895	1120.82
439.271	1118.56
439.646	1172.34
440.021	1143.42
440.395	1161.72
440.77	1126.92
441.145	1124.66
441.52	1169.86
441.895	1159.24
442.27	1174.15
442.645	1213.02
443.019	1218.89
443.394	1197.43
443.769	1223.87
444.143	1219.8
444.518	1220.25
444.892	1193.13
445.267	1231.32
445.641	1226.13
446.016	1241.49
446.39	1232.91
446.764	1237.65
447.139	1221.83
447.513	1244.66
447.887	1241.94
448.262	1273.58
448.636	1266.58
449.01	1311.32
449.384	1304.99
449.758	1271.77
450.132	1299.57
450.506	1282.4
450.88	1289.18
451.254	1312
451.628	1349.74
452.002	1334.6
452.376	1338.67
452.75	1330.3
453.123	1325.11
453.497	1326.69
453.871	1352.68
454.244	1377.08
454.618	1370.53
454.992	1422.96
455.365	1356.07
455.739	1430.41
456.112	1427.48
456.486	1422.5
456.859	1417.08
457.232	1461.83
457.606	1411.21
457.979	1463.18
458.352	1483.75
458.725	1523.97
459.099	1498.44
459.472	1534.59
459.845	1505.44
460.218	1532.33
460.591	1516.29
460.964	1524.88
461.337	1569.17
461.71	1565.78
462.083	1618.21
462.456	1601.26
462.829	1589.05
463.201	1633.12
463.574	1634.93
463.947	1686.45
464.32	1662.72
464.692	1669.96
465.065	1686
465.438	1706.11
465.81	1685.32
466.183	1697.98
466.555	1751.08
466.928	1749.73
467.3	1764.87
467.672	1782.72
468.045	1794.7
468.417	1798.77
468.789	1794.47
469.161	1824.08
469.534	1838.31
469.906	1847.35
470.278	1865.43
470.65	1876.5
471.022	1914.24
471.394	1967.8
471.766	1950.4
472.138	1954.47
472.51	1972.55
472.882	2017.74
473.253	2013.45
473.625	2051.87
473.997	2082.6
474.369	2060.68
474.74	2076.5
475.112	2122.15
475.484	2163.95
475.855	2205.08
476.227	2194.01
476.598	2228.13
476.97	2229.49
477.341	2257.51
477.713	2272.65
478.084	2325.76
478.455	2344.51
478.827	2320.11
479.198	2408.02
479.569	2431.74
479.94	2455.25
480.311	2479.43
480.682	2470.61
481.053	2550.84
481.424	2551.06
481.795	2599.42
482.166	2613.43
482.537	2643.26
482.908	2652.76
483.279	2653.21
483.65	2680.33
484.021	2730.04
484.391	2758.74
484.762	2773.66
485.133	2776.82
485.503	2821.79
485.874	2870.15
486.244	2836.03
486.615	2882.35
486.985	2940.88
487.356	3006.87
487.726	2982.46
488.097	3060.65
488.467	3010.03
488.837	3122.57
489.207	3133.65
489.578	3158.05
489.948	3215.68
490.318	3193.76
490.688	3213.87
491.058	3278.05
491.428	3289.8
491.798	3316.92
492.168	3347.65
492.538	3318.95
492.908	3326.64
493.278	3406.18
493.648	3417.48
494.017	3447.76
494.387	3462
494.757	3488.67
495.126	3510.13
495.496	3542.45
495.866	3527.31
496.235	3548.78
496.605	3588.55
496.974	3632.39
497.344	3619.51
497.713	3657.93
498.082	3636.91
498.452	3706.51
498.821	3660.19
499.19	3695.67
499.559	3735.66
499.928	3739.51
500.298	3725.95
500.667	3777.7
501.036	3800.3
501.405	3784.48
501.774	3803.23
502.143	3811.37
502.512	3813.4
502.88	3856.34
503.249	3864.7
503.618	3900.41
503.987	3903.34
504.356	3944.92
504.724	3936.56
505.093	3939.95
505.462	3939.5
505.83	3935.89
506.199	4011.59
506.567	4003.68
506.936	4018.82
507.304	4023.34
507.672	4067.41
508.041	4029.89
508.409	4039.61
508.777	4046.84
509.145	4116.22
509.514	4092.72
509.882	4144.24
510.25	4094.53
510.618	4134.98
510.986	4139.27
511.354	4193.73
511.722	4214.75
512.09	4227.63
512.458	4170.46
512.826	4198.25
513.193	4246.16
513.561	4230.34
513.929	4245.93
514.297	4274.41
514.664	4330.23
515.032	4311.47
515.4	4319.83
515.767	4276.44
516.135	4382.88
516.502	4309.89
516.869	4374.29
517.237	4349.21
517.604	4354.41
517.972	4389.21
518.339	4397.12
518.706	4361.64
519.073	4359.15
519.44	4425.82
519.808	4403.67
520.175	4425.82
520.542	4484.12
520.909	4514.85
521.276	4486.15
521.643	4518.47
522.009	4560.95
522.376	4522.99
522.743	4555.3
523.11	4572.03
523.477	4641.86
523.843	4636.21
524.21	4623.55
524.577	4718.46
524.943	4654.06
525.31	4715.07
525.676	4718.24
526.043	4751.46
526.409	4761.85
526.776	4782.64
527.142	4808.63
527.508	4818.12
527.874	4854.96
528.241	4865.13
528.607	4912.81
528.973	4918.68
529.339	4952.36
529.705	4965.24
530.071	4990.55
530.437	5045.46
530.803	5055.4
531.169	5085.69
531.535	5018.57
531.901	5085.91
532.267	5099.47
532.632	5153.03
532.998	5190.54
533.364	5185.12
533.73	5195.06
534.095	5231.67
534.461	5266.92
534.826	5259.24
535.192	5268.28
535.557	5322.06
535.923	5329.07
536.288	5347.6
536.653	5383.53
537.019	5302.4
537.384	5435.28
537.749	5408.61
538.114	5470.99
538.479	5461.04
538.845	5465.79
539.21	5504.66
539.575	5525.45
539.94	5524.09
540.305	5548.95
540.67	5535.39
541.034	5601.38
541.399	5626.69
541.764	5651.32
542.129	5617.42
542.494	5649.51
542.858	5688.83
543.223	5739.91
543.587	5805.89
543.952	5780.36
544.316	5786.68
544.681	5834.37
545.045	5868.72
545.41	5888.6
545.774	5915.95
546.138	5893.12
546.503	5915.27
546.867	5987.36
547.231	6036.17
547.595	6051.54
547.959	6027.36
548.324	6040.46
548.688	6041.82
549.052	6066.22
549.416	6115.04
549.779	6109.84
550.143	6124.3
550.507	6133.79
550.871	6204.07
551.235	6135.83
551.599	6289.5
551.962	6273
552.326	6205.2
552.689	6315.71
553.053	6288.82
553.417	6271.19
553.78	6384.18
554.143	6371.3
554.507	6451.75
554.87	6370.85
555.234	6450.17
555.597	6395.93
555.96	6450.62
556.323	6476.38
556.686	6457.4
557.05	6536.72
557.413	6475.25
557.776	6532.88
558.139	6560.9
558.502	6570.39
558.865	6610.17
559.228	6668.02
559.59	6603.84
559.953	6677.51
560.316	6700.11
560.679	6685.42
561.041	6728.35
561.404	6746.43
561.767	6787.34
562.129	6799.99
562.492	6818.52
562.854	6826.2
563.217	6784.17
563.579	6846.09
563.941	6870.95
564.304	6912.3
564.666	6981.91
565.028	6931.06
565.39	6973.55
565.753	6995.01
566.115	7035.92
566.477	7040.44
566.839	7042.02
567.201	7122.47
567.563	7153.2
567.925	7188.91
568.287	7198.85
568.648	7197.27
569.01	7204.5
569.372	7303.93
569.734	7266.42
570.095	7320.2
570.457	7339.19
570.819	7392.29
571.18	7401.33
571.542	7413.53
571.903	7479.52
572.265	7488.33
572.626	7513.64
572.987	7635.45
573.349	7632.51
573.71	7735.33
574.071	7663.47
574.432	7737.59
574.794	7863.69
575.155	7891.94
575.516	7896.46
575.877	7940.07
576.238	8063.46
576.599	8139.16
576.96	8213.29
577.32	8280.63
577.681	8323.79
578.042	8380.74
578.403	8506.84
578.763	8571.7
579.124	8640.39
579.485	8883.1
579.845	8890.56
580.206	9048.97
580.566	9080.16
580.927	9270.66
581.287	9404.89
581.648	9509.98
582.008	9648.96
582.368	9759.46
582.728	9916.07
583.089	10077.64
583.449	10166.68
583.809	10371.2
584.169	10546.33
584.529	10678.53
584.889	10954.01
585.249	11058.86
585.609	11236.94
585.969	11490.49
586.329	11695.23
586.688	11920.31
587.048	12175.22
587.408	12377.25
587.768	12546.73
588.127	12821.75
588.487	13049.54
588.846	13420.16
589.206	13522.98
589.565	13835.51
589.925	14122.06
590.284	14339.68
590.643	14659.22
591.003	14878.42
591.362	15200.45
591.721	15462.14
592.08	15724.28
592.44	16028.22
592.799	16312.06
593.158	16441.55
593.517	16827.75
593.876	17193.16
594.235	17451.24
594.593	17740.04
594.952	18048.28
595.311	18239.01
595.67	18617.76
596.029	18902.27
596.387	19368.25
596.746	19612.31
597.104	19773.21
597.463	20113.76
597.822	20464.94
598.18	20674.2
598.538	20978.6
598.897	21304.02
599.255	21437.8
599.613	22042.53
599.972	22119.36
600.33	22528.84
600.688	22644.55
601.046	23075.95
601.404	23376.96
601.762	23621.24
602.12	23899.88
602.478	24295.58
602.836	24451.28
603.194	24598.62
603.552	24909.12
603.91	25125.38
604.268	25380.75
604.625	25674.52
604.983	25922.88
605.341	26108.86
605.698	26506.14
606.056	26812.12
606.413	26892.57
606.771	27213.47
607.128	27533.46
607.485	27681.93
607.843	27887.12
608.2	28316.04
608.557	28449.36
608.914	28509.25
609.272	28869.01
609.629	29153.08
609.986	29427.42
610.343	29444.82
610.7	29907.18
611.057	30040.74
611.414	30179.71
611.771	30381.74
612.127	30748.29
612.484	30730.66
612.841	31086.81
613.198	30997.09
613.554	31222.17
613.911	31507.14
614.267	31676.85
614.624	31843.17
614.98	32034.36
615.337	32336.04
615.693	32383.05
616.05	32536.26
616.406	32662.59
616.762	32774
617.118	32846.31
617.475	33044.5
617.831	33319.97
618.187	33513.19
618.543	33464.6
618.899	33967.86
619.255	33921.76
619.611	34061.42
619.967	34207.18
620.323	34260.74
620.678	34252.15
621.034	34526.72
621.39	34531.24
621.746	34719.48
622.101	35053.94
622.457	34911.12
622.812	35115.18
623.168	35323.99
623.523	35277.43
623.879	35487.6
624.234	35270.2
624.589	35567.82
624.945	35595.84
625.3	35741.83
625.655	35757.65
626.01	35877.64
626.365	36006.45
626.72	36010.97
627.075	36131.87
627.43	36105.43
627.785	36117.19
628.14	36175.26
628.495	36399.89
628.85	36307.69
629.205	36279.89
629.559	36543.16
629.914	36461.58
630.269	36558.76
630.623	36585.42
630.978	36478.76
631.332	36666.32
631.687	36718.07
632.041	36686.89
632.396	36815.47
632.75	36545.65
633.104	36777.96
633.459	36583.84
633.813	36706.1
634.167	36769.82
634.521	36822.7
634.875	36846.66
635.229	36809.82
635.583	36692.31
635.937	36697.28
636.291	36721.46
636.645	36708.81
636.999	36768.47
637.352	36958.07
637.706	36712.88
638.06	36828.81
638.413	36692.54
638.767	36602.82
639.121	36775.47
639.474	36573.67
639.828	36691.18
640.181	36786.77
640.534	36835.36
640.888	36660
641.241	36602.6
641.594	36851.4
641.947	36645.76
642.301	36798.75
642.654	36567.12
643.007	36645.08
643.36	36651.86
643.713	36630.62
644.066	36763.5
644.419	36492.32
644.771	36316.05
645.124	35857.31
645.477	36004.42
645.83	35766.46
646.182	35689.17
646.535	35503.87
646.888	35715.16
647.24	35501.83
647.593	35850.07
647.945	35589.52
648.298	35466.13
648.65	35516.3
649.002	35326.7
649.355	35511.55
649.707	35521.95
650.059	35497.77
650.411	36056.4
650.763	35989.28
651.115	36474.46
651.467	36336.39
651.819	36366.44
652.171	36368.7
652.523	36234.92
652.875	36157.18
653.227	36152.89
653.578	36473.56
653.93	36304.98
654.282	36236.5
654.633	36056.17
654.985	36144.76
655.337	36187.92
655.688	36159.44
656.039	36323.51
656.391	35871.77
656.742	36019.56
657.094	36142.95
657.445	36170.07
657.796	36065.66
658.147	36132.55
658.498	36006.23
658.849	36043.29
659.2	35947.25
659.551	35841.04
659.902	36069.5
660.253	35957.19
660.604	36088.94
660.955	35918.77
661.306	36072.22
661.656	35942.5
662.007	35909.06
662.358	35951.77
662.708	36017.3
663.059	35883.52
663.409	35748.38
663.76	35949.05
664.11	36001.03
664.461	36002.39
664.811	35941.82
665.161	36015.72
665.511	35902.28
665.862	35881.94
666.212	36015.04
666.562	35974.36
666.912	35976.4
667.262	35997.42
667.612	35979.56
667.962	35985.44
668.312	35832.9
668.662	36181.82
669.011	36069.73
669.361	35890.53
669.711	35902.05
670.06	35842.39
670.41	35698.21
670.76	35803.97
671.109	35872.45
671.459	35759.46
671.808	35754.03
672.157	35912.67
672.507	35655.5
672.856	35657.99
673.205	35626.8
673.554	35690.53
673.904	35646.69
674.253	35902.05
674.602	35738.21
674.951	35176.42
675.3	34947.05
675.649	35565.11
675.998	35592.68
676.346	35556.3
676.695	35662.51
677.044	35427.94
677.393	35598.1
677.741	35606.24
678.09	35421.61
678.438	35398.79
678.787	35397.2
679.135	35488.5
679.484	35209.64
679.832	35389.75
680.181	35120.38
680.529	35319.92
680.877	35298.22
681.225	35168.96
681.573	35232.92
681.922	35065.69
682.27	35008.97
682.618	34894.17
682.966	34858.24
683.314	34968.97
683.661	34795.86
684.009	34710.9
684.357	34663.66
684.705	34593.16
685.053	34652.82
685.4	34599.49
685.748	34438.81
686.095	34558.58
686.443	34408.76
686.79	34254.41
687.138	34341.41
687.485	34344.58
687.832	34235.65
688.18	34138.71
688.527	34090.57
688.874	34075.21
689.221	33997.47
689.568	33917.47
689.915	33894.65
690.262	33773.29
690.609	33667.76
690.956	33662.11
691.303	33611.94
691.65	33406.52
691.997	33410.36
692.344	33265.28
692.69	33221.44
693.037	33257.83
693.383	33085.4
693.73	33120.2
694.077	32905.74
694.423	32915.69
694.769	32788.46
695.116	32687.9
695.462	32739.65
695.808	32630.72
696.155	32701.91
696.501	32411.29
696.847	32487.9
697.193	32245.88
697.539	32381.69
697.885	32201.58
698.231	32068.93
698.577	32011.08
698.923	32031.19
699.269	31811.08
699.614	31751.43
699.96	31613.12
700.306	31611.99
700.651	31404.54
700.997	31492
701.342	31492.9
701.688	31364.99
702.033	31185.79
702.379	31195.06
702.724	31073.02
703.069	31151.44
703.415	30825.8
703.76	30873.26
704.105	30767.27
704.45	30722.75
704.795	30589.42
705.14	30458.58
705.485	30463.55
705.83	30323.89
706.175	30306.94
706.52	30230.11
706.865	29994.41
707.209	30052.26
707.554	29884.81
707.899	30112.82
708.243	29883.68
708.588	29843.23
708.932	29682.1
709.277	29693.4
709.621	29685.26
709.966	29497.47
710.31	29609.56
710.654	29299.51
710.998	29415.67
711.342	29436.46
711.687	29200.08
712.031	29215.45
712.375	29049.12
712.719	29089.8
713.063	29099.52
713.407	29104.04
713.75	29008.67
714.094	29071.5
714.438	28937.94
714.782	28967.54
715.125	28738.17
715.469	28730.49
715.812	28513.09
716.156	28410.95
716.499	28560.1
716.843	28559.19
717.186	28412.98
717.53	28462.7
717.873	28366.43
718.216	28386.77
718.559	28280.78
718.902	28156.49
719.246	28067.45
719.589	28099.09
719.932	27947.68
720.275	27971.19
720.617	27947.91
720.96	27866.1
721.303	27883.28
721.646	27812.55
721.989	27650.06
722.331	27706.33
722.674	27660.91
723.016	27770.51
723.359	27613.45
723.701	27558.99
724.044	27499.33
724.386	27258.89
724.729	27400.58
725.071	27354.93
725.413	27407.81
725.755	27288.27
726.097	27185.44
726.439	27128.5
726.782	27018.67
727.124	27108.84
727.465	27008.05
727.807	27062.28
728.149	26951.78
728.491	26865.9
728.833	26876.3
729.175	26825.68
729.516	26880.14
729.858	26609.64
730.199	26793.59
730.541	26635.4
730.882	26650.77
731.224	26746.13
731.565	26555.63
731.906	26597.44
732.248	26603.76
732.589	26469.53
732.93	26312.7
733.271	26286.03
733.612	26504.11
733.953	26320.16
734.294	26360.15
734.635	26190.22
734.976	26244
735.317	26097.56
735.658	26121.06
735.999	26084.91
736.339	26022.08
736.68	26088.75
737.021	26046.04
737.361	25873.61
737.702	25971.69
738.042	25877.91
738.383	25834.29
738.723	25847.85
739.063	25706.61
739.404	25768.76
739.744	25771.92
740.084	25628.42
740.424	25628.2
740.764	25665.26
741.104	25696.22
741.444	25497.35
741.784	25463.23
742.124	25472.04
742.464	25393.4
742.804	25353.85
743.143	25359.73
743.483	25379.16
743.823	25165.84
744.162	25179.62
744.502	25312.27
744.841	25124.93
745.181	25079.96
745.52	25200.64
745.86	25079.06
746.199	25038.38
746.538	25024.82
746.877	25004.03
747.216	24933.07
747.556	24957.93
747.895	24935.33
748.234	24788.9
748.573	24742.34
748.911	24673.42
749.25	24735.11
749.589	24565.17
749.928	24568.34
750.267	24614.89
750.605	24505.29
750.944	24555.91
751.283	24312.07
751.621	24502.12
751.96	24283.6
752.298	24245.86
752.636	24268.91
752.975	24171.96
753.313	24112.98
753.651	24135.35
753.989	24059.42
754.327	23973.1
754.666	23800.45
755.004	23894.91
755.342	23878.64
755.679	23879.54
756.017	23726.78
756.355	23717.06
756.693	23558.65
757.031	23649.04
757.368	23511.87
757.706	23537.86
758.044	23267.81
758.381	23397.97
758.719	23285.21
759.056	23315.49
759.394	23314.81
759.731	23096.96
760.068	23129.28
760.405	23030.75
760.743	22937.19
761.08	22978.55
761.417	22873.01
761.754	22755.73
762.091	22769.97
762.428	22639.35
762.765	22426.02
763.102	22687.71
763.438	22385.34
763.775	22381.5
764.112	22305.8
764.449	22341.05
764.785	22191.45
765.122	22101.06
765.458	22000.04
765.795	21953.26
766.131	21957.78
766.467	21853.15
766.804	21765.25
767.14	21601.41
767.476	21725.02
767.812	21539.49
768.148	21567.51
768.485	21504.69
768.821	21300.17
769.157	21287.29
769.492	21222.66
769.828	21208.43
770.164	21130.91
770.5	20995.55
770.836	20877.59
771.171	20771.6
771.507	20878.04
771.842	20539.97
772.178	20624.71
772.513	20516.47
772.849	20447.09
773.184	20440.08
773.519	20460.87
773.855	20342.01
774.19	20229.92
774.525	20248.22
774.86	20219.75
775.195	20039.87
775.53	20022.02
775.865	19822.47
776.2	19750.61
776.535	19687.11
776.87	19675.36
777.205	19524.4
777.539	19497.74
777.874	19431.52
778.209	19461.58
778.543	19303.84
778.878	19205.31
779.212	19215.26
779.547	19062.04
779.881	19180
780.215	19016.17
780.55	19010.29
780.884	18934.59
781.218	18779.34
781.552	18774.14
781.886	18710.19
782.22	18656.85
782.554	18505.45
782.888	18463.86
783.222	18392.23
783.556	18258.45
783.889	18290.99
784.223	18060.71
784.557	18020.49
784.89	18182.97
785.224	17893.94
785.557	17998.11
785.891	17843.54
786.224	17818.46
786.558	17747.27
786.891	17637.9
787.224	17538.01
787.557	17454.17
787.891	17452.82
788.224	17544.34
788.557	17425.93
788.89	17386.38
789.223	17375.53
789.556	17092.83
789.888	17100.74
790.221	17091.92
790.554	16950.68
790.887	16936.67
791.219	17008.99
791.552	16880.18
791.884	16780.29
792.217	16664.36
792.549	16633.18
792.882	16468.89
793.214	16450.13
793.546	16529.23
793.879	16369.68
794.211	16231.38
794.543	16197.26
794.875	16159.29
795.207	16268.22
795.539	16088.56
795.871	16162.46
796.203	16048.34
796.535	15923.37
796.867	15926.3
797.198	15866.19
797.53	15855.57
797.862	15677.05
798.193	15751.39
798.525	15636.37
798.856	15639.31
799.188	15499.2
799.519	15479.08
799.85	15382.36
800.182	15452.64
800.513	15364.96
800.844	15297.62
801.175	15352.53
801.506	15365.42
801.837	15195.25
802.168	15157.29
802.499	15086.78
802.83	15055.59
803.161	14983.05
803.491	14969.72
803.822	14876.61
804.153	14865.32
804.483	14748.03
804.814	14713.23
805.145	14683.17
805.475	14751.19
805.805	14689.27
806.136	14698.09
806.466	14662.16
806.796	14517.53
807.126	14522.73
807.457	14379.68
807.787	14448.6
808.117	14375.84
808.447	14284.54
808.777	14375.16
809.107	14195.95
809.436	14181.72
809.766	14207.25
810.096	14191.66
810.426	14106.92
810.755	14070.53
811.085	14080.93
811.414	13998.45
811.744	13893.59
812.073	13912.57
812.403	13834.61
812.732	13802.52
813.061	13777.66
813.39	13670.09
813.719	13702.63
814.049	13724.78
814.378	13683.65
814.707	13607.72
815.036	13573.15
815.365	13537.67
815.693	13493.15
816.022	13374.28
816.351	13498.8
816.68	13319.59
817.008	13405.92
817.337	13153.27
817.665	13183.55
817.994	13264.91
818.322	13251.12
818.651	13154.85
818.979	13144.68
819.307	13207.96
819.636	13133.38
819.964	13034.4
820.292	13088.64
820.62	13040.05
820.948	13019.26
821.276	13066.27
821.604	13009.32
821.932	12927.97
822.259	12952.6
822.587	13046.83
822.915	12927.29
823.243	13038.7
823.57	12921.19
823.898	12951.92
824.225	12941.07
824.553	12885.25
824.88	12890.9
825.207	12914.41
825.535	12959.38
825.862	12954.86
826.189	12861.07
826.516	12932.71
826.843	12877.12
827.17	12882.77
827.497	12937.91
827.824	12925.03
828.151	12839.61
828.478	12982.43
828.805	12957.34
829.131	12863.79
829.458	12836.44
829.785	12795.99
830.111	12908.76
830.438	12952.15
830.764	12837.12
831.09	12837.35
831.417	12866.5
831.743	12806.61
832.069	12822.66
832.395	12767.07
832.722	12871.92
833.048	12774.52
833.374	12825.37
833.7	12679.84
834.026	12692.49
834.351	12879.6
834.677	12867.18
835.003	12860.62
835.329	12781.75
835.654	12808.87
835.98	12727.97
836.306	12676.45
836.631	12609.33
836.956	12702.89
837.282	12661.53
837.607	12580.4
837.932	12565.49
838.258	12570.91
838.583	12592.83
838.908	12422.89
839.233	12539.95
839.558	12473.29
839.883	12370.01
840.208	12402.1
840.533	12407.3
840.858	12438.94
841.182	12481.65
841.507	12328.66
841.832	12276
842.156	12246.4
842.481	12216.35
842.805	12235.1
843.13	12169.79
843.454	12197.14
843.778	12056.35
844.103	12137.25
844.427	12066.07
844.751	12099.96
845.075	12089.12
845.399	12006.63
845.723	11872.85
846.047	11933.87
846.371	11903.13
846.695	11859.29
847.019	11750.59
847.343	11769.58
847.666	11724.38
847.99	11575.91
848.313	11546.31
848.637	11567.55
848.96	11491.39
849.284	11495.46
849.607	11321
849.931	11270.83
850.254	11303.83
850.577	11181.34
850.9	11175.47
851.223	11124.62
851.546	11174.79
851.869	11015.93
852.192	11074.23
852.515	11006.89
852.838	10876.27
853.161	10895.7
853.483	10882.37
853.806	10803.73
854.129	10750.62
854.451	10714.01
854.774	10735.25
855.096	10683.73
855.419	10680.79
855.741	10593.11
856.063	10566.9
856.385	10573
856.708	10527.35
857.03	10521.25
857.352	10490.97
857.674	10433.57
857.996	10392.44
858.318	10297.75
858.64	10313.57
858.961	10358.99
859.283	10247.13
859.605	10151.32
859.926	10265.89
860.248	10226.12
860.57	10195.61
860.891	10167.13
861.212	10040.81
861.534	10079.45
861.855	10084.42
862.176	10048.49
862.498	10044.2
862.819	10093.92
863.14	10014.37
863.461	9994.93
863.782	9951.55
864.103	10006.91
864.424	9903.19
864.745	9914.94
865.065	9821.61
865.386	9819.12
865.707	9857.09
866.027	9877.65
866.348	9803.08
866.668	9804.43
866.989	9784.54
867.309	9717.88
867.63	9709.07
867.95	9675.4
868.27	9607.37
868.59	9682.4
868.91	9678.79
869.23	9650.31
869.55	9570.31
869.87	9676.07
870.19	9575.51
870.51	9595.62
870.83	9614.15
871.15	9523.08
871.469	9544.55
871.789	9550.43
872.109	9533.25
872.428	9485.8
872.748	9559.47
873.067	9421.16
873.386	9461.62
873.706	9480.6
874.025	9450.09
874.344	9448.51
874.663	9457.32
874.982	9426.81
875.301	9379.81
875.62	9301.39
875.939	9332.35
876.258	9321.28
876.577	9270.21
876.896	9218.68
877.214	9245.58
877.533	9306.37
877.852	9239.93
878.17	9244.45
878.489	9209.19
878.807	9228.18
879.125	9246.48
879.444	9140.04
879.762	9121.96
880.08	9170.32
880.398	9157.44
880.716	9087.84
881.034	9047.84
881.352	9070.44
881.67	9045.81
881.988	9054.39
882.306	9061.85
882.624	8943.44
882.941	8946.15
883.259	8988.86
883.577	8910.44
883.894	8844.23
884.212	8886.26
884.529	8885.13
884.846	8805.14
885.164	8804.46
885.481	8782.09
885.798	8809.2
886.115	8761.07
886.432	8711.13
886.75	8768.98
887.067	8720.39
887.383	8626.38
887.7	8625.93
888.017	8566.5
888.334	8630
888.651	8674.97
888.967	8574.41
889.284	8531.24
889.6	8467.29
889.917	8452.83
890.233	8378.71
890.55	8391.14
890.866	8443.34
891.182	8396.11
891.498	8419.16
891.815	8331.7
892.131	8295.77
892.447	8315.21
892.763	8248.77
893.079	8222.1
893.395	8260.97
893.71	8227.07
894.026	8198.6
894.342	8159.5
894.657	8147.3
894.973	8061.43
895.289	8098.26
895.604	8102.56
895.92	8020.75
896.235	7976
896.55	7983.69
896.865	7973.97
897.181	7941.66
897.496	7953.41
897.811	7858.27
898.126	7817.37
898.441	7796.35
898.756	7781.43
899.071	7771.94
899.386	7784.15
899.7	7689.46
900.015	7667.09
900.33	7692.4
900.644	7595.68
900.959	7605.62
901.273	7562.91
901.588	7566.98
901.902	7490.14
902.216	7501.89
902.531	7478.16
902.845	7448.79
903.159	7415.12
903.473	7343.03
903.787	7345.97
904.101	7334.89
904.415	7277.04
904.729	7257.15
905.042	7192.07
905.356	7239.3
905.67	7200.66
905.984	7201.34
906.297	7110.27
906.611	7090.6
906.924	7071.4
907.237	7023.49
907.551	7027.78
907.864	6990.04
908.177	7045.86
908.491	6965.86
908.804	6947.33
909.117	6917.28
909.43	6852.87
909.743	6857.39
910.056	6788.92
910.368	6773.55
910.681	6760.67
910.994	6751.18
911.307	6655.14
911.619	6630.5
911.932	6632.54
912.244	6578.08
912.557	6656.04
912.869	6494.01
913.181	6545.53
913.494	6548.7
913.806	6491.3
914.118	6485.65
914.43	6391.64
914.742	6369.04
915.054	6378.31
915.366	6357.74
915.678	6308.7
915.99	6291.98
916.302	6184.19
916.613	6244.3
916.925	6245.65
917.236	6174.92
917.548	6171.53
917.859	6144.64
918.171	6162.95
918.482	6064.42
918.794	6079.11
919.105	6095.83
919.416	6044.3
919.727	5991.88
920.038	6037.3
920.349	5953.46
920.66	5928.38
920.971	5929.51
921.282	5844.08
921.593	5802.5
921.903	5794.37
922.214	5819.45
922.525	5790.3
922.835	5750.3
923.146	5710.53
923.456	5713.92
923.767	5664.65
924.077	5646.57
924.387	5562.28
924.697	5552.57
925.008	5599.57
925.318	5573.13
925.628	5547.37
925.938	5529.06
926.248	5447.26
926.558	5462.4
926.867	5403.87
927.177	5381.5
927.487	5430.08
927.796	5349.63
928.106	5335.85
928.416	5353.7
928.725	5323.19
929.034	5291.78
929.344	5226.02
929.653	5229.86
929.962	5180.82
930.271	5208.85
930.581	5136.76
930.89	5136.31
931.199	5103.31
931.508	5124.33
931.817	5098.57
932.125	5092.24
932.434	5085.69
932.743	5010.43
933.051	5002.98
933.36	5032.58
933.669	4961.17
933.977	4932.47
934.286	4953.71
934.594	4872.13
934.902	4852.7
935.21	4851.34
935.519	4874.62
935.827	4819.03
936.135	4776.99
936.443	4686.6
936.751	4780.61
937.059	4735.64
937.367	4731.12
937.674	4666.71
937.982	4636.88
938.29	4672.59
938.597	4626.04
938.905	4569.54
939.213	4586.72
939.52	4610.44
939.827	4623.32
940.135	4513.95
940.442	4486.61
940.749	4509.66
941.056	4508.53
941.363	4462.2
941.67	4435.31
941.977	4456.1
942.284	4454.29
942.591	4398.7
942.898	4398.25
943.205	4363.67
943.511	4302.66
943.818	4338.59
944.125	4278.02
944.431	4284.58
944.738	4240.96
945.044	4240.96
945.35	4217.69
945.657	4176.56
945.963	4170.23
946.269	4187.18
946.575	4194.64
946.881	4125.94
947.187	4134.98
947.493	4086.84
947.799	4089.33
948.105	4055.43
948.41	4046.16
948.716	4013.85
949.022	4030.8
949.327	3984.92
949.633	3960.07
949.938	3963.46
950.244	3964.36
950.549	3914.42
950.854	3876.23
951.16	3857.92
951.465	3876.45
951.77	3847.98
952.075	3842.1
952.38	3812.95
952.685	3818.37
952.99	3781.76
953.294	3746.74
953.599	3771.6
953.904	3754.2
954.209	3714.42
954.513	3706.06
954.818	3694.76
955.122	3688.43
955.426	3665.38
955.731	3675.1
956.035	3611.83
956.339	3586.74
956.643	3646.4
956.948	3585.61
957.252	3569.57
957.556	3549.23
957.86	3569.34
958.163	3487.31
958.467	3487.54
958.771	3557.82
959.075	3506.52
959.378	3465.84
959.682	3469
959.985	3455.9
960.289	3385.39
960.592	3399.18
960.896	3428.78
961.199	3354.88
961.502	3367.31
961.805	3326.64
962.108	3335.9
962.411	3386.3
962.714	3342.91
963.017	3275.34
963.32	3264.26
963.623	3279.86
963.926	3277.6
964.228	3221.55
964.531	3212.51
964.833	3226.53
965.136	3194.66
965.438	3160.31
965.741	3167.09
966.043	3137.94
966.345	3153.53
966.648	3140.65
966.95	3136.58
967.252	3092.52
967.554	3070.15
967.856	3089.81
968.158	3069.92
968.46	3052.97
968.761	3059.75
969.063	3038.96
969.365	3014.55
969.666	3031.73
969.968	2985.63
970.269	2996.7
970.571	2956.7
970.872	2959.64
971.174	2919.19
971.475	2940.43
971.776	2917.15
972.077	2880.55
972.378	2865.18
972.679	2894.1
972.98	2847.78
973.281	2862.02
973.582	2851.85
973.883	2807.1
974.183	2801.68
974.484	2782.92
974.785	2803.03
975.085	2803.03
975.386	2802.36
975.686	2757.16
975.986	2738.85
976.287	2727.1
976.587	2692.3
976.887	2682.13
977.187	2670.16
977.487	2683.49
977.787	2648.24
978.087	2652.53
978.387	2691.4
978.687	2625.64
978.987	2603.94
979.286	2589.71
979.586	2589.48
979.885	2589.71
980.185	2603.49
980.484	2565.75
980.784	2561.01
981.083	2546.54
981.382	2508.8
981.682	2531.4
981.981	2520.56
982.28	2493.66
982.579	2477.62
982.878	2487.34
983.177	2451.63
983.475	2459.77
983.774	2443.72
984.073	2435.36
984.372	2389.49
984.67	2413.89
984.969	2409.6
985.267	2395.36
985.566	2386.55
985.864	2370.05
986.162	2359.2
986.461	2336.38
986.759	2347.23
987.057	2312.43
987.355	2311.52
987.653	2319.43
987.951	2290.96
988.249	2304.29
988.547	2294.8
988.844	2273.1
989.142	2275.59
989.44	2265.42
989.737	2244.86
990.035	2235.59
990.332	2205.76
990.63	2195.14
990.927	2212.09
991.224	2157.17
991.521	2177.51
991.819	2157.63
992.116	2189.04
992.413	2150.62
992.71	2136.38
993.006	2140
993.303	2109.94
993.6	2118.98
993.897	2126.89
994.193	2107.68
994.49	2079.66
994.787	2065.88
995.083	2060.23
995.379	2058.87
995.676	2058.87
995.972	2044.64
996.268	2009.61
996.565	2035.37
996.861	2012.09
997.157	1988.14
997.453	1991.76
997.749	1984.75
998.044	1946.56
998.34	1938.65
998.636	1984.3
998.932	1946.78
999.227	1922.6
999.523	1905.66
999.818	1896.84
1000.114	1854.13
1000.409	1895.03
1000.704	1867.92
1001	1853.45
1001.295	1861.14
1001.59	1849.39
1001.885	1834.92
1002.18	1826.11
1002.475	1828.82
1002.77	1836.73
1003.065	1792.44
1003.359	1816.84
1003.654	1797.64
1003.949	1794.02
1004.243	1751.08
1004.538	1786.11
1004.832	1751.54
1005.127	1777.98
1005.421	1741.59
1005.715	1728.03
1006.009	1725.1
1006.304	1711.31
1006.598	1680.58
1006.892	1681.03
1007.186	1642.39
1007.48	1653.01
1007.773	1654.14
1008.067	1651.43
1008.361	1640.58
1008.655	1647.58
1008.948	1627.25
1009.242	1599.9
1009.535	1575.27
1009.829	1588.38
1010.122	1569.39
1010.415	1564.42
1010.708	1585.66
1011.001	1580.69
1011.295	1537.53
1011.588	1560.35
1011.881	1537.3
1012.173	1531.2
1012.466	1535.27
1012.759	1497.76
1013.052	1504.08
1013.344	1480.81
1013.637	1498.44
1013.93	1500.47
1014.222	1448.72
1014.514	1486.46
1014.807	1474.93
1015.099	1437.87
1015.391	1427.93
1015.683	1409.17
1015.976	1391.09
1016.268	1395.16
1016.56	1375.05
1016.851	1370.75
1017.143	1390.19
1017.435	1385.67
1017.727	1378.21
1018.018	1349.51
1018.31	1366.24
1018.602	1332.79
1018.893	1315.84
1019.185	1350.19
1019.476	1322.39
1019.767	1328.95
1020.058	1303.64
1020.35	1271.77
1020.641	1288.5
1020.932	1273.36
1021.223	1247.59
1021.514	1279.46
1021.804	1248.05
1022.095	1239.01
1022.386	1213.24
1022.677	1216.86
1022.967	1231.78
1023.258	1202.62
1023.548	1206.24
1023.839	1232.23
1024.129	1210.53
1024.419	1200.36
1024.709	1175.96
1025	1159.01
1025.29	1177.99
1025.58	1128.73
1025.87	1140.7
1026.16	1149.74
1026.449	1115.85
1026.739	1120.37
1027.029	1100.71
1027.319	1123.53
1027.608	1095.28
1027.898	1074.72
1028.187	1081.05
1028.477	1097.32
1028.766	1089.41
1029.055	1062.51
1029.344	1079.69
1029.634	1073.14
1029.923	1039.69
1030.212	1053.93
1030.501	1054.15
1030.79	1053.93
1031.078	1009.41
1031.367	1023.65
1031.656	1006.7
1031.945	1028.84
1032.233	1006.24
1032.522	999.01
1032.81	984.55
1033.099	976.64
1033.387	986.36
1033.675	958.56
1033.963	975.06
1034.251	972.35
1034.54	954.49
1034.828	948.39
1035.116	958.34
1035.403	947.72
1035.691	941.39
1035.979	902.52
1036.267	937.55
1036.554	922.41
1036.842	904.33
1037.129	898.68
1037.417	885.57
1037.704	903.2
1037.992	869.3
1038.279	895.29
1038.566	899.58
1038.853	899.58
1039.14	899.58
