Data from hue_24_FLMS001491_00062.txt Node
Date: Tue Feb 07 17:12:35 GMT 2017
User: dcchb
Spectrometer: FLMS00149
Trigger mode: 0
Integration Time (sec): 2.000000E-2
Scans to average: 10
Electric dark correction enabled: true
Nonlinearity correction enabled: false
Boxcar width: 0
XAxis mode: Wavelengths
Number of Pixels in Spectrum: 2048
>>>>>Begin Spectral Data<<<<<
341.393	-36.11
341.776	-36.11
342.16	-36.11
342.543	-79.73
342.927	-66.17
343.31	-63.23
343.693	-61.88
344.077	-69.33
344.46	-55.1
344.843	-38.83
345.226	-18.49
345.61	-31.6
345.993	-21.2
346.376	-5.38
346.759	2.08
347.142	26.48
347.525	27.61
347.908	59.48
348.291	58.12
348.674	79.81
349.057	111.45
349.44	136.31
349.823	135.63
350.206	161.17
350.588	203.88
350.971	213.82
351.354	221.96
351.737	241.17
352.119	253.14
352.502	260.15
352.884	280.94
353.267	299.02
353.65	310.99
354.032	304.44
354.414	304.44
354.797	338.34
355.179	309.19
355.562	337.66
355.944	348.28
356.326	353.25
356.709	352.8
357.091	348.51
357.473	340.15
357.855	354.61
358.238	369.3
358.62	357.77
359.002	340.82
359.384	339.69
359.766	346.25
360.148	359.35
360.53	356.42
360.912	331.79
361.294	356.87
361.676	357.55
362.057	325.46
362.439	352.8
362.821	348.28
363.203	304.67
363.584	329.53
363.966	347.6
364.348	320.26
364.729	346.25
365.111	320.03
365.493	324.1
365.874	318.45
366.256	341.95
366.637	311.67
367.019	333.82
367.4	338.11
367.781	322.29
368.163	319.13
368.544	320.71
368.925	332.91
369.306	282.75
369.688	328.62
370.069	315.51
370.45	326.59
370.831	328.4
371.212	311.45
371.593	329.3
371.974	315.06
372.355	335.4
372.736	325.01
373.117	329.75
373.498	342.86
373.879	333.59
374.26	325.01
374.641	339.47
375.021	317.77
375.402	331.56
375.783	346.25
376.163	345.34
376.544	343.99
376.925	353.48
377.305	358
377.686	331.79
378.066	342.18
378.447	364.78
378.827	363.65
379.208	360.71
379.588	362.74
379.968	359.13
380.349	349.86
380.729	363.2
381.109	354.84
381.489	363.87
381.87	371.56
382.25	346.02
382.63	348.06
383.01	373.37
383.39	364.55
383.77	350.77
384.15	378.56
384.53	369.98
384.91	372.01
385.29	388.51
385.67	363.65
386.049	373.14
386.429	383.99
386.809	377.66
387.189	376.53
387.568	373.59
387.948	385.12
388.328	386.25
388.707	369.52
389.087	357.77
389.466	408.17
389.846	402.97
390.225	398.22
390.605	397.77
390.984	398.45
391.363	385.79
391.743	426.47
392.122	413.36
392.501	413.59
392.881	408.39
393.26	399.35
393.639	421.5
394.018	406.13
394.397	410.43
394.776	417.43
395.155	430.54
395.534	408.17
395.913	411.56
396.292	420.82
396.671	440.26
397.05	431.9
397.429	430.31
397.808	447.49
398.186	424.21
398.565	432.57
398.944	422.4
399.323	430.99
399.701	430.31
400.08	419.92
400.458	423.31
400.837	438
401.215	434.61
401.594	445.91
401.972	436.64
402.351	456.3
402.729	444.32
403.107	443.19
403.486	468.5
403.864	474.38
404.242	452.23
404.62	456.53
404.999	471.22
405.377	464.44
405.755	481.16
406.133	454.04
406.511	473.48
406.889	502.85
407.267	482.29
407.645	499.69
408.023	493.81
408.401	506.7
408.779	516.41
409.156	526.36
409.534	494.94
409.912	510.99
410.29	507.37
410.667	524.55
411.045	518.45
411.422	514.38
411.8	517.77
412.178	548.28
412.555	535.85
412.933	532.91
413.31	562.06
413.687	534.49
414.065	546.02
414.442	553.93
414.819	571.55
415.197	560.71
415.574	562.29
415.951	572.91
416.328	563.87
416.705	585.56
417.082	576.98
417.46	568.39
417.837	595.05
418.214	600.03
418.591	602.74
418.967	598.9
419.344	611.1
419.721	615.62
420.098	618.11
420.475	605
420.852	624.21
421.228	647.26
421.605	626.92
421.982	614.94
422.358	638.9
422.735	640.7
423.111	656.97
423.488	659.01
423.864	655.84
424.241	667.37
424.617	644.77
424.994	682.51
425.37	666.47
425.746	681.38
426.123	667.37
426.499	689.97
426.875	670.53
427.251	713.24
427.627	699.68
428.003	706.92
428.379	698.78
428.756	754.37
429.132	728.38
429.507	744.88
429.883	728.16
430.259	739.91
430.635	747.59
431.011	756.63
431.387	763.19
431.763	773.81
432.138	781.94
432.514	796.63
432.89	797.31
433.265	803.41
433.641	823.75
434.016	816.97
434.392	833.92
434.767	834.14
435.143	858.55
435.518	846.12
435.894	868.72
436.269	872.79
436.644	900.58
437.02	890.19
437.395	894.03
437.77	897.87
438.145	907.36
438.52	932.45
438.895	915.5
439.271	902.84
439.646	929.28
440.021	956.63
440.395	958.44
440.77	928.61
441.145	934.03
441.52	965.44
441.895	963.86
442.27	970.41
442.645	974.03
443.019	1017.64
443.394	994.14
443.769	1000.02
444.143	1015.61
444.518	1016.51
444.892	1006.57
445.267	1036.85
445.641	1040.69
446.016	1041.6
446.39	1045.21
446.764	1067.36
447.139	1056.06
447.513	1058.32
447.887	1069.17
448.262	1057.87
448.636	1056.96
449.01	1090.18
449.384	1079.11
449.758	1095.15
450.132	1089.51
450.506	1132.67
450.88	1127.02
451.254	1143.29
451.628	1131.31
452.002	1108.71
452.376	1159.79
452.75	1165.66
453.123	1168.37
453.497	1195.72
453.871	1200.91
454.244	1235.26
454.618	1230.29
454.992	1238.2
455.365	1262.16
455.739	1307.8
456.112	1291.99
456.486	1282.95
456.859	1310.52
457.232	1330.18
457.606	1340.8
457.979	1337.41
458.352	1357.29
458.725	1377.18
459.099	1383.06
459.472	1400.01
459.845	1408.59
460.218	1403.85
460.591	1460.79
460.964	1446.11
461.337	1461.92
461.71	1516.84
462.083	1530.62
462.456	1514.35
462.829	1538.08
463.201	1542.6
463.574	1557.52
463.947	1589.61
464.32	1639.55
464.692	1649.94
465.065	1668.02
465.438	1684.97
465.81	1701.47
466.183	1687.68
466.555	1742.6
466.928	1784.85
467.3	1773.78
467.672	1769.94
468.045	1838.19
468.417	1832.08
468.789	1887.9
469.161	1857.85
469.534	1915.47
469.906	1921.12
470.278	1938.3
470.65	2014.23
471.022	2017.84
471.394	2050.61
471.766	2090.38
472.138	2121.34
472.51	2131.06
472.882	2157.73
473.253	2174
473.625	2250.38
473.997	2287.67
474.369	2323.15
474.74	2351.62
475.112	2421.67
475.484	2425.74
475.855	2474.1
476.227	2483.37
476.598	2563.36
476.97	2581.9
477.341	2667.09
477.713	2683.36
478.084	2722.23
478.455	2791.16
478.827	2798.61
479.198	2918.16
479.569	2931.49
479.94	2990.25
480.311	3021.21
480.682	3129.23
481.053	3191.6
481.424	3209.45
481.795	3273.4
482.166	3356.79
482.537	3392.27
482.908	3442.89
483.279	3535.32
483.65	3616.9
484.021	3648.99
484.391	3680.4
484.762	3789.32
485.133	3856.66
485.503	3864.8
485.874	3989.99
486.244	3983.21
486.615	4108.86
486.985	4177.33
487.356	4236.32
487.726	4258.46
488.097	4369.87
488.467	4438.57
488.837	4516.99
489.207	4583.88
489.578	4648.96
489.948	4690.31
490.318	4761.95
490.688	4789.52
491.058	4915.39
491.428	5007.14
491.798	5088.04
492.168	5154.48
492.538	5146.35
492.908	5269.06
493.278	5339.56
493.648	5373.69
494.017	5360.58
494.387	5495.72
494.757	5549.95
495.126	5599.44
495.496	5624.98
495.866	5658.42
496.235	5763.73
496.605	5837.18
496.974	5836.5
497.344	5927.12
497.713	5951.98
498.082	5979.09
498.452	6062.03
498.821	6134.34
499.19	6133.89
499.559	6226.77
499.928	6221.35
500.298	6317.84
500.667	6369.82
501.036	6383.6
501.405	6408.46
501.774	6467.44
502.143	6482.58
502.512	6537.72
502.88	6581.79
503.249	6604.61
503.618	6650.04
503.987	6677.61
504.356	6766.87
504.724	6796.25
505.093	6799.19
505.462	6856.81
505.83	6940.65
506.199	6958.96
506.567	7011.84
506.936	7003.25
507.304	7134.32
507.672	7154.2
508.041	7208.44
508.409	7213.64
508.777	7264.94
509.145	7309.45
509.514	7353.97
509.882	7343.8
510.25	7444.59
510.618	7430.13
510.986	7450.92
511.354	7565.72
511.722	7614.76
512.09	7633.97
512.458	7582.89
512.826	7666.73
513.193	7777.24
513.561	7803.45
513.929	7811.81
514.297	7931.13
514.664	7931.36
515.032	7944.24
515.4	8027.63
515.767	8066.04
516.135	8083.22
516.502	8010.68
516.869	8185.82
517.237	8171.58
517.604	8169.77
517.972	8270.11
518.339	8227.85
518.706	8338.81
519.073	8362.08
519.44	8408.63
519.808	8496.99
520.175	8513.94
520.542	8582.64
520.909	8576.31
521.276	8548.29
521.643	8668.97
522.009	8716.42
522.376	8779.47
522.743	8754.84
523.11	8853.82
523.477	8887.04
523.843	8962.29
524.21	9071.44
524.577	9174.04
524.943	9186.92
525.31	9195.73
525.676	9279.12
526.043	9331.32
526.409	9364.77
526.776	9517.31
527.142	9466.91
527.508	9524.99
527.874	9580.58
528.241	9660.58
528.607	9679.56
528.973	9762.05
529.339	9719.33
529.705	9827.81
530.071	9907.8
530.437	9971.76
530.803	10003.62
531.169	10056.5
531.535	10050.63
531.901	10083.62
532.267	10145.76
532.632	10208.36
532.998	10177.63
533.364	10306.89
533.73	10407.9
534.095	10458.07
534.461	10468.69
534.826	10484.51
535.192	10613.32
535.557	10704.39
535.923	10614.68
536.288	10703.49
536.653	10708.24
537.019	10755.47
537.384	10751.17
537.749	10841.57
538.114	10949.81
538.479	10920.89
538.845	10992.07
539.21	10924.27
539.575	11011.28
539.94	11094.21
540.305	11197.04
540.67	11112.74
541.034	11163.36
541.399	11258.05
541.764	11287.43
542.129	11343.92
542.494	11410.59
542.858	11439.29
543.223	11441.1
543.587	11521.55
543.952	11535.78
544.316	11634.54
544.681	11641.77
545.045	11684.71
545.41	11738.49
545.774	11816
546.138	11853.06
546.503	11806.74
546.867	11863.91
547.231	11939.62
547.595	11875.66
547.959	12063.68
548.324	12048.54
548.688	12095.09
549.052	12079.95
549.416	12297.8
549.779	12317.46
550.143	12256.44
550.507	12402.88
550.871	12440.62
551.235	12355.65
551.599	12427.29
551.962	12489.66
552.326	12540.05
552.689	12581.18
553.053	12588.64
553.417	12580.28
553.78	12769.42
554.143	12736.43
554.507	12838.8
554.87	12804
555.234	12919.02
555.597	12896.88
555.96	12995.63
556.323	13019.14
556.686	13014.84
557.05	13099.13
557.413	13171.22
557.776	13204.89
558.139	13196.98
558.502	13304.55
558.865	13361.95
559.228	13374.61
559.59	13382.06
559.953	13491.21
560.316	13673.58
560.679	13638.55
561.041	13673.13
561.404	13695.73
561.767	13818.89
562.129	13789.74
562.492	13910.41
562.854	13788.15
563.217	13900.47
563.579	13995.61
563.941	13992.22
564.304	13973.01
564.666	14194.25
565.028	14149.95
565.39	14239.67
565.753	14348.14
566.115	14349.5
566.477	14394.01
566.839	14368.48
567.201	14548.59
567.563	14561.92
567.925	14618.64
568.287	14584.97
568.648	14726.43
569.01	14763.95
569.372	14895.7
569.734	14806.66
570.095	14916.49
570.457	15062.92
570.819	15089.59
571.18	15104.5
571.542	15174.33
571.903	15236.25
572.265	15346.08
572.626	15290.49
572.987	15471.05
573.349	15485.06
573.71	15563.02
574.071	15678.27
574.432	15643.92
574.794	15829.91
575.155	15877.14
575.516	15805.28
575.877	16017.25
576.238	16048.89
576.599	16190.58
576.96	16275.32
577.32	16277.58
577.681	16419.5
578.042	16598.48
578.403	16613.16
578.763	16792.6
579.124	16899.71
579.485	17064
579.845	17244.79
580.206	17272.36
580.566	17441.62
580.927	17629.41
581.287	17762.74
581.648	17846.13
582.008	18126.12
582.368	18198.43
582.728	18438.88
583.089	18554.81
583.449	18736.5
583.809	18870.51
584.169	19195.24
584.529	19254.23
584.889	19588
585.249	19699.64
585.609	19838.16
585.969	20226.63
586.329	20479.05
586.688	20708.65
587.048	20932.37
587.408	20999.26
587.768	21389.76
588.127	21641.06
588.487	21838.56
588.846	22332.79
589.206	22463.41
589.565	22711.08
589.925	23210.05
590.284	23256.15
590.643	23679.42
591.003	24006.64
591.362	24454.09
591.721	24614.76
592.08	24837.13
592.44	25326.83
592.799	25674.85
593.158	25917.78
593.517	26132.91
593.876	26608.38
594.235	26868.04
594.593	27207.69
594.952	27602.03
595.311	27761.8
595.67	28224.61
596.029	28750.7
596.387	29042.22
596.746	29450.57
597.104	29540.96
597.463	29907.5
597.822	30230.89
598.18	30511.1
598.538	30898.21
598.897	31356.05
599.255	31463.62
599.613	32259.08
599.972	32231.06
600.33	32707.2
600.688	32848.9
601.046	33251.37
601.404	33693.17
601.762	33934.52
602.12	34489.53
602.478	34732.01
602.836	35067.59
603.194	35214.48
603.552	35365.67
603.91	35749.16
604.268	36146.66
604.625	36247.68
604.983	36714.56
605.341	36875
605.698	37359.96
606.056	37745.04
606.413	37840.18
606.771	38113.84
607.128	38509.31
607.485	38610.33
607.843	38884.67
608.2	39331.44
608.557	39605.1
608.914	39797.41
609.272	40052.77
609.629	40350.39
609.986	40914.67
610.343	40757.39
610.7	41298.62
611.057	41392.17
611.414	41484.38
611.771	41662.9
612.127	42011.14
612.484	42232.6
612.841	42552.37
613.198	42577
613.554	42734.51
613.911	43158.46
614.267	43224.22
614.624	43431.44
614.98	43541.27
615.337	43881.6
615.693	43904.88
616.05	44342.15
616.406	44533.33
616.762	44587.34
617.118	44694.23
617.475	44854.23
617.831	45010.61
618.187	45210.83
618.543	45419.64
618.899	45746.18
619.255	45745.73
619.611	45909.57
619.967	46064.82
620.323	46324.25
620.678	46201.54
621.034	46236.79
621.39	46439.95
621.746	46588.42
622.101	46895.76
622.457	46684.69
622.812	46964.01
623.168	47020.27
623.523	47189.76
623.879	47299.36
624.234	47100.5
624.589	47392.92
624.945	47383.88
625.3	47591.33
625.655	47587.94
626.01	47721.5
626.365	47715.62
626.72	47874.94
627.075	47766.92
627.43	47930.31
627.785	47845.34
628.14	47969.63
628.495	48036.52
628.85	48083.75
629.205	48059.57
629.559	48238.55
629.914	48069.96
630.269	48261.82
630.623	48123.3
630.978	48104.54
631.332	48373.91
631.687	48441.03
632.041	48253.69
632.396	48277.19
632.75	48285.55
633.104	48430.18
633.459	48252.78
633.813	48384.08
634.167	48446.9
634.521	48437.41
634.875	48451.65
635.229	48435.15
635.583	48377.53
635.937	48381.6
636.291	48324.87
636.645	48432.22
636.999	48342.05
637.352	48483.06
637.706	48325.1
638.06	48547.01
638.413	48361.03
638.767	48264.54
639.121	48399
639.474	48241.26
639.828	48260.24
640.181	48306.34
640.534	48308.15
640.888	48228.38
641.241	48097.53
641.594	48086.24
641.947	48335.72
642.301	48197.19
642.654	48261.37
643.007	48300.47
643.36	48161.94
643.713	48110.19
644.066	48286.91
644.419	47988.16
644.771	47878.11
645.124	47496.42
645.477	47508.62
645.83	47153.6
646.182	47105.02
646.535	47022.76
646.888	47124.23
647.24	46952.71
647.593	47239.93
647.945	47086.94
648.298	46949.99
648.65	46891.01
649.002	46815.76
649.355	46935.53
649.707	46916.77
650.059	47287.84
650.411	47601.95
650.763	47566.93
651.115	48037.88
651.467	47832.01
651.819	47759.92
652.171	47738.9
652.523	47598.34
652.875	47781.61
653.227	47461.17
653.578	47827.71
653.93	47826.36
654.282	47401.51
654.633	47472.01
654.985	47401.51
655.337	47500.71
655.688	47547.72
656.039	47603.54
656.391	47319.7
656.742	47387.5
657.094	47349.53
657.445	47481.51
657.796	47626.36
658.147	47514.27
658.498	47443.77
658.849	47541.84
659.2	47461.62
659.551	47246.94
659.902	47448.29
660.253	47528.51
660.604	47509.08
660.955	47214.17
661.306	47491.67
661.656	47472.92
662.007	47462.52
662.358	47428.17
662.708	47312.92
663.059	47324.9
663.409	47207.39
663.76	47526.25
664.11	47353.37
664.461	47350.21
664.811	47340.94
665.161	47417.78
665.511	47269.76
665.862	47314.5
666.212	47461.85
666.562	47346.37
666.912	47343.88
667.262	47237.22
667.612	47284
667.962	47393.37
668.312	47295.3
668.662	47358.12
669.011	47244
669.361	47279.48
669.711	47173.04
670.06	47082.65
670.41	47183.66
670.76	46986.83
671.109	47210.55
671.459	47028.64
671.808	46929.2
672.157	47150.22
672.507	46956.32
672.856	46936.21
673.205	46976.66
673.554	47044.23
673.904	47024.34
674.253	47103.44
674.602	46868.19
674.951	46494.41
675.3	46182.1
675.649	46910.9
675.998	46906.38
676.346	46808.98
676.695	46971.46
677.044	46662.09
677.393	46806.04
677.741	46808.08
678.09	46813.5
678.438	46620.06
678.787	46695.99
679.135	46706.38
679.484	46523.11
679.832	46648.76
680.181	46346.17
680.529	46498.71
680.877	46413.06
681.225	46328.77
681.573	46536.9
681.922	46259.17
682.27	46189.56
682.618	46218.94
682.966	46102.78
683.314	46144.82
683.661	46045.84
684.009	45895.56
684.357	45837.71
684.705	45818.05
685.053	45845.16
685.4	45728.56
685.748	45340.09
686.095	45393.2
686.443	45390.71
686.79	45326.99
687.138	45357.49
687.485	45441.11
687.832	45129.48
688.18	45287.67
688.527	45115.69
688.874	45179.42
689.221	44976.03
689.568	44891.52
689.915	44717.28
690.262	44785.31
690.609	44607.91
690.956	44477.29
691.303	44520.68
691.65	44249.73
691.997	44306.67
692.344	44155.04
692.69	44120.46
693.037	44036.4
693.383	43665.33
693.73	43834.14
694.077	43599.35
694.423	43661.04
694.769	43470.31
695.116	43423.99
695.462	43507.37
695.808	43293.82
696.155	43302.63
696.501	43019.02
696.847	43085.01
697.193	42745.81
697.539	42921.85
697.885	42656.32
698.231	42536.78
698.577	42514.4
698.923	42492.03
699.269	42214.53
699.614	42116.45
699.96	41929.11
700.306	42048.43
700.651	41882.1
700.997	41842.11
701.342	41616.12
701.688	41643.02
702.033	41534.32
702.379	41463.13
702.724	41313.53
703.069	41330.71
703.415	40916.48
703.76	41044.84
704.105	41016.82
704.45	40911.28
704.795	40556.04
705.14	40646.88
705.485	40525.53
705.83	40427
706.175	40464.52
706.52	40275.59
706.865	40189.95
707.209	40029.27
707.554	39975.49
707.899	40095.26
708.243	39783.4
708.588	39937.98
708.932	39613.46
709.277	39709.51
709.621	39597.87
709.966	39450.76
710.31	39520.59
710.654	39199.92
710.998	39227.03
711.342	39302.06
711.687	39200.82
712.031	38945.01
712.375	38634.05
712.719	38936.87
713.063	38823.88
713.407	38841.51
713.75	38575.75
714.094	38609.42
714.438	38441.52
714.782	38595.86
715.125	38289.43
715.469	38449.65
715.812	38175.54
716.156	38106.39
716.499	37910.23
716.843	38153.62
717.186	37813.29
717.53	37991.59
717.873	37957.69
718.216	37708.43
718.559	37678.83
718.902	37484.25
719.246	37621.88
719.589	37481.77
719.932	37275.67
720.275	37358.38
720.617	37150.48
720.96	37179.86
721.303	37224.15
721.646	37090.59
721.989	36889.24
722.331	37126.75
722.674	36951.61
723.016	36956.13
723.359	36886.53
723.701	36932.18
724.044	36624.16
724.386	36528.8
724.729	36613.77
725.071	36552.53
725.413	36538.29
725.755	36637.05
726.097	36228.47
726.439	36218.3
726.782	36050.62
727.124	36267.79
727.465	36048.36
727.807	36136.27
728.149	35882.26
728.491	35900.34
728.833	35902.15
729.175	35695.37
729.516	35776.95
729.858	35805.65
730.199	35743.74
730.541	35567.69
730.882	35566.56
731.224	35673
731.565	35505.55
731.906	35543.51
732.248	35408.38
732.589	35258.78
732.93	35267.14
733.271	35150.3
733.612	35128.84
733.953	35280.7
734.294	35164.77
734.635	34999.57
734.976	35034.83
735.317	34818.11
735.658	34887.49
735.999	34820.37
736.339	34886.13
736.68	34739.47
737.021	34725.68
737.361	34661.28
737.702	34759.13
738.042	34691.79
738.383	34621.28
738.723	34572.24
739.063	34491.79
739.404	34579.7
739.744	34367.5
740.084	34326.6
740.424	34334.96
740.764	34245.7
741.104	34307.39
741.444	34045.93
741.784	34083.89
742.124	34187.39
742.464	34134.96
742.804	33924.8
743.143	33907.63
743.483	33842.77
743.823	33715.31
744.162	33712.15
744.502	33804.8
744.841	33661.08
745.181	33748.31
745.52	33549.67
745.86	33677.8
746.199	33535.43
746.538	33618.14
746.877	33636.9
747.216	33669.44
747.556	33471.25
747.895	33379.05
748.234	33256.57
748.573	33131.37
748.911	33158.94
749.25	33225.16
749.589	33116.01
749.928	33022.68
750.267	33136.12
750.605	32861.78
750.944	32994.43
751.283	32743.59
751.621	33024.26
751.96	32669.24
752.298	32795.79
752.636	32705.85
752.975	32617.04
753.313	32413.88
753.651	32588.79
753.989	32488.23
754.327	32281.68
754.666	32206.65
755.004	32216.82
755.342	32228.35
755.679	32254.11
756.017	32076.71
756.355	32054.57
756.693	31893.89
757.031	31968.24
757.368	31809.38
757.706	31730.06
758.044	31637.63
758.381	31649.83
758.719	31589.27
759.056	31528.25
759.394	31492.55
759.731	31333
760.068	31194.7
760.405	31090.3
760.743	31070.64
761.08	31125.33
761.417	30853.69
761.754	30900.92
762.091	30790.65
762.428	30757.65
762.765	30502.52
763.102	30644.89
763.438	30422.07
763.775	30388.85
764.112	30398.11
764.449	30363.76
764.785	30025.47
765.122	29879.93
765.458	29845.13
765.795	29787.06
766.131	29803.55
766.467	29594.07
766.804	29506.84
767.14	29431.36
767.476	29491.02
767.812	29298.93
768.148	29392.26
768.485	29091.71
768.821	28925.84
769.157	28983.24
769.492	28778.04
769.828	28812.84
770.164	28563.36
770.5	28515.45
770.836	28508.67
771.171	28334.21
771.507	28217.83
771.842	28097.16
772.178	28028.91
772.513	27978.97
772.849	27829.82
773.184	27790.95
773.519	27765.87
773.855	27509.83
774.19	27577.85
774.525	27411.3
774.86	27381.24
775.195	27257.86
775.53	27109.84
775.865	27075.04
776.2	26925.44
776.535	26797.76
776.87	26730.86
777.205	26695.61
777.539	26504.43
777.874	26593.02
778.209	26386.02
778.543	26160.94
778.878	26173.82
779.212	26104.21
779.547	26002.52
779.881	26054.95
780.215	25851.11
780.55	25845.24
780.884	25644.11
781.218	25518.69
781.552	25612.02
781.886	25516.21
782.22	25317.34
782.554	25206.39
782.888	25079.83
783.222	24947.63
783.556	24812.95
783.889	24846.85
784.223	24556.68
784.557	24626.74
784.89	24612.5
785.224	24324.6
785.557	24384.71
785.891	24282.57
786.224	24202.8
786.558	24215.9
786.891	23990.82
787.224	23982.91
787.557	23962.12
787.891	23769.13
788.224	23767.78
788.557	23738.18
788.89	23629.03
789.223	23664.28
789.556	23471.97
789.888	23316.04
790.221	23303.38
790.554	23137.29
790.887	23059.32
791.219	22939.1
791.552	22937.97
791.884	22788.82
792.217	22705.43
792.549	22709.95
792.882	22537.3
793.214	22528.94
793.546	22467.25
793.879	22287.82
794.211	22211.44
794.543	22206.01
794.875	22168.95
795.207	22300.02
795.539	22132.57
795.871	22078.56
796.203	21842.41
796.535	21712.69
796.867	21652.58
797.198	21658.68
797.53	21571.45
797.862	21474.73
798.193	21539.14
798.525	21300.95
798.856	21386.37
799.188	21075.65
799.519	20985.93
799.85	20964.91
800.182	20919.72
800.513	20987.51
800.844	20750.46
801.175	20918.59
801.506	20815.77
801.837	20711.14
802.168	20530.35
802.499	20511.37
802.83	20441.99
803.161	20341.43
803.491	20405.83
803.822	20444.48
804.153	20276.57
804.483	20112.06
804.814	20126.97
805.145	20095.33
805.475	20136.01
805.805	19919.52
806.136	20017.14
806.466	19946.18
806.796	19918.84
807.126	19767.66
807.457	19606.08
807.787	19740.99
808.117	19531.73
808.447	19613.54
808.777	19494.45
809.107	19367.89
809.436	19380.55
809.766	19320.21
810.096	19292.64
810.426	19259.42
810.755	19182.36
811.085	19138.07
811.414	19219.42
811.744	19052.87
812.073	19002.93
812.403	18908.25
812.732	18891.98
813.061	18888.81
813.39	18703.05
813.719	18706.22
814.049	18824.86
814.378	18644.75
814.707	18595.71
815.036	18560.91
815.365	18417.41
815.693	18259.9
816.022	18288.38
816.351	18179
816.68	18197.98
817.008	18238.21
817.337	18105.78
817.665	17995.28
817.994	18155.27
818.322	18031.43
818.651	17963.41
818.979	17976.07
819.307	17996.18
819.636	17886.13
819.964	17918.89
820.292	17901.49
820.62	17868.27
820.948	17790.99
821.276	17769.07
821.604	17676.19
821.932	17780.37
822.259	17715.51
822.587	17736.3
822.915	17694.72
823.243	17723.64
823.57	17709.86
823.898	17677.09
824.225	17626.02
824.553	17564.1
824.88	17624.89
825.207	17776.75
825.535	17618.56
825.862	17659.69
826.189	17582.86
826.516	17619.24
826.843	17670.76
827.17	17701.27
827.497	17646.13
827.824	17628.05
828.151	17676.64
828.478	17670.76
828.805	17710.54
829.131	17623.99
829.458	17663.31
829.785	17584.89
830.111	17614.04
830.438	17748.95
830.764	17631.67
831.09	17679.8
831.417	17507.6
831.743	17548.51
832.069	17533.59
832.395	17506.02
832.722	17468.96
833.048	17423.54
833.374	17477.77
833.7	17259.25
834.026	17340.6
834.351	17466.02
834.677	17381.73
835.003	17405.69
835.329	17332.92
835.654	17315.75
835.98	17265.58
836.306	17227.16
836.631	17255.18
836.956	17335.41
837.282	17309.19
837.607	17282.75
837.932	17198.23
838.258	17216.31
838.583	17163.66
838.908	17137.9
839.233	17055.87
839.558	16955.08
839.883	16939.03
840.208	16823.1
840.533	16965.47
840.858	16913.27
841.182	16824.01
841.507	16861.75
841.832	16716.21
842.156	16782.2
842.481	16693.39
842.805	16676.44
843.13	16623.11
843.454	16598.25
843.778	16519.16
844.103	16433.06
844.427	16466.05
844.751	16559.83
845.075	16460.17
845.399	16347.18
845.723	16259.05
846.047	16301.53
846.371	16175.21
846.695	16168.66
847.019	16066.74
847.343	16011.15
847.666	15802.79
847.99	15773.86
848.313	15760.76
848.637	15747.88
848.96	15589.46
849.284	15633.08
849.607	15414.78
849.931	15455.23
850.254	15345.4
850.577	15292.3
850.9	15224.27
851.223	15150.83
851.546	15060.89
851.869	15028.57
852.192	15075.13
852.515	14925.53
852.838	14837.17
853.161	14858.18
853.483	14834.91
853.806	14718.98
854.129	14669.04
854.451	14665.65
854.774	14490.51
855.096	14487.12
855.419	14530.51
855.741	14485.99
856.063	14465.42
856.385	14334.58
856.708	14284.64
857.03	14320.34
857.352	14264.53
857.674	14306.33
857.996	14163.51
858.318	14100.91
858.64	14064.98
858.961	14074.02
859.283	13976.17
859.605	13965.78
859.926	14004.65
860.248	13867.47
860.57	13908.38
860.891	13834.71
861.212	13753.35
861.534	13728.04
861.855	13750.19
862.176	13748.38
862.498	13754.48
862.819	13700.7
863.14	13659.57
863.461	13589.74
863.782	13535.96
864.103	13579.57
864.424	13513.13
864.745	13486.02
865.065	13453.02
865.386	13371.67
865.707	13413.25
866.027	13417.77
866.348	13324.66
866.668	13281.95
866.989	13336.19
867.309	13212.8
867.63	13262.74
867.95	13192.69
868.27	13211.9
868.59	13139.36
868.91	13095.52
869.23	13130.32
869.55	12985.46
869.87	13168.06
870.19	13057.78
870.51	13046.48
870.83	13079.92
871.15	12971.68
871.469	12995.86
871.789	13088.51
872.109	12977.1
872.428	12810.78
872.748	12893.04
873.067	12847.39
873.386	12902.08
873.706	12852.59
874.025	12698.92
874.344	12698.01
874.663	12757.22
874.982	12716.09
875.301	12719.03
875.62	12677.45
875.939	12681.06
876.258	12698.92
876.577	12630.22
876.896	12609.43
877.214	12535.76
877.533	12614.63
877.852	12523.33
878.17	12510.45
878.489	12413.05
878.807	12446.95
879.125	12486.27
879.444	12472.03
879.762	12416.44
880.08	12377.8
880.398	12350.68
880.716	12380.28
881.034	12321.07
881.352	12349.1
881.67	12224.58
881.988	12287.4
882.306	12199.04
882.624	12152.94
882.941	12074.75
883.259	12086.5
883.577	12093.74
883.894	12064.81
884.212	12041.99
884.529	12069.33
884.846	12021.87
885.164	11964.25
885.481	11933.06
885.798	11925.83
886.115	11828.88
886.432	11815.78
886.75	11861.88
887.067	11741.88
887.383	11764.25
887.7	11797.92
888.017	11726.74
888.334	11710.92
888.651	11692.84
888.967	11632.73
889.284	11593.18
889.6	11577.14
889.917	11554.09
890.233	11476.58
890.55	11466.63
890.866	11552.96
891.182	11428.44
891.498	11413.3
891.815	11376.24
892.131	11278.16
892.447	11252.63
892.763	11316.81
893.079	11170.37
893.395	11209.69
893.71	11104.38
894.026	11118.85
894.342	11134.44
894.657	10968.79
894.973	10957.04
895.289	11029.13
895.604	11001.79
895.92	10852.86
896.235	10756.37
896.55	10798.18
896.865	10782.36
897.181	10793.66
897.496	10755.01
897.811	10675.92
898.126	10689.03
898.441	10596.15
898.756	10588.92
899.071	10520.44
899.386	10567.45
899.7	10467.11
900.015	10345.08
900.33	10316.38
900.644	10337.62
900.959	10306.89
901.273	10333.33
901.588	10182.15
901.902	10162.26
902.216	10109.38
902.531	10163.16
902.845	10110.06
903.159	10039.1
903.473	9985.77
903.787	10028.93
904.101	9913.45
904.415	9894.02
904.729	9878.2
905.042	9847.92
905.356	9772.44
905.67	9754.36
905.984	9734.7
906.297	9677.53
906.611	9621.03
906.924	9548.49
907.237	9600.24
907.551	9519.34
907.864	9478.21
908.177	9500.81
908.491	9451.77
908.804	9372.23
909.117	9305.56
909.43	9283.64
909.743	9265.34
910.056	9245.9
910.368	9217.88
910.681	9154.15
910.994	9103.76
911.307	9148.5
911.619	9034.38
911.932	9041.84
912.244	8960.94
912.557	8966.81
912.869	8897.44
913.181	8834.39
913.494	8873.26
913.806	8787.83
914.118	8772.47
914.43	8711
914.742	8729.76
915.054	8684.33
915.366	8622.19
915.678	8601.4
915.99	8539.25
916.302	8502.64
916.613	8494.73
916.925	8499.48
917.236	8410.22
917.548	8377.9
917.859	8398.01
918.171	8224.46
918.482	8293.38
918.794	8222.43
919.105	8197.57
919.416	8140.85
919.727	8098.36
920.038	8125.7
920.349	8084.12
920.66	8051.36
920.971	8063.33
921.282	7929.1
921.593	7980.4
921.903	7866.73
922.214	7871.02
922.525	7821.98
922.835	7829.22
923.146	7709.67
923.456	7714.87
923.767	7666.96
924.077	7691.59
924.387	7611.14
924.697	7593.97
925.008	7579.73
925.318	7497.02
925.628	7441.65
925.938	7447.53
926.248	7378.38
926.558	7367.98
926.867	7395.78
927.177	7337.25
927.487	7282.79
927.796	7195.11
928.106	7218.16
928.416	7174.32
928.725	7157.59
929.034	7098.16
929.344	7077.82
929.653	7078.05
929.962	7009.8
930.271	7004.38
930.581	6986.75
930.89	6899.97
931.199	6904.72
931.508	6861.78
931.817	6855
932.125	6803.03
932.434	6785.17
932.743	6719.87
933.051	6741.56
933.36	6678.96
933.669	6679.64
933.977	6670.38
934.286	6671.05
934.594	6640.09
934.902	6550.38
935.21	6519.42
935.519	6531.17
935.827	6500.66
936.135	6502.47
936.443	6400.1
936.751	6439.2
937.059	6363.26
937.367	6325.53
937.674	6339.99
937.982	6303.61
938.29	6280.56
938.597	6248.01
938.905	6164.17
939.213	6131.41
939.52	6162.82
939.827	6127.11
940.135	6163.27
940.442	6077.85
940.749	6044.63
941.056	6076.72
941.363	5957.85
941.67	5976.83
941.977	5956.04
942.284	5899.32
942.591	5892.09
942.898	5893.67
943.205	5829.27
943.511	5805.77
943.818	5802.6
944.125	5803.51
944.431	5725.99
944.738	5767.8
945.044	5655.49
945.35	5686.67
945.657	5638.76
945.963	5631.76
946.269	5556.51
946.575	5601.03
946.881	5554.25
947.187	5529.16
947.493	5470.18
947.799	5472.44
948.105	5443.52
948.41	5409.39
948.716	5401.71
949.022	5406
949.327	5365.33
949.633	5324.87
949.938	5306.8
950.244	5234.48
950.549	5237.42
950.854	5236.74
951.16	5217.53
951.465	5180.25
951.77	5193.13
952.075	5143.18
952.38	5115.84
952.685	5083.3
952.99	5048.72
953.294	5073.36
953.599	5026.35
953.904	4983.87
954.209	4974.83
954.513	4977.76
954.818	4923.75
955.122	4907.94
955.426	4870.42
955.731	4901.83
956.035	4858.22
956.339	4836.75
956.643	4876.75
956.948	4766.02
957.252	4776.87
957.556	4738.67
957.86	4705
958.163	4722.63
958.467	4672.91
958.771	4656.19
959.075	4681.95
959.378	4630.2
959.682	4639.69
959.985	4590.88
960.289	4554.72
960.592	4519.7
960.896	4522.18
961.199	4544.1
961.502	4505.91
961.805	4499.13
962.108	4410.32
962.411	4380.49
962.714	4385.24
963.017	4329.42
963.32	4363.32
963.623	4345.46
963.926	4323.09
964.228	4304.56
964.531	4301.62
964.833	4264.11
965.136	4222.76
965.438	4215.3
965.741	4204.45
966.043	4202.42
966.345	4140.05
966.648	4182.98
966.95	4145.7
967.252	4095.3
967.554	4117.67
967.856	4070.44
968.158	4098.47
968.46	4013.72
968.761	4037.22
969.063	4032.48
969.365	3976.66
969.666	3972.59
969.968	3950
970.269	3910.67
970.571	3948.64
970.872	3924.23
971.174	3906.61
971.475	3898.7
971.776	3850.11
972.077	3841.98
972.378	3808.53
972.679	3840.17
972.98	3800.62
973.281	3759.94
973.582	3779.38
973.883	3766.05
974.183	3722.88
974.484	3690.34
974.785	3660.29
975.085	3687.4
975.386	3679.04
975.686	3622.77
975.986	3636.78
976.287	3605.6
976.587	3599.5
976.887	3583.9
977.187	3571.25
977.487	3537.35
977.787	3493.51
978.087	3491.02
978.387	3486.73
978.687	3484.92
978.987	3430.01
979.286	3461.42
979.586	3448.99
979.885	3390.69
980.185	3400.63
980.484	3368.54
980.784	3409.9
981.083	3358.82
981.382	3321.31
981.682	3312.05
981.981	3326.73
982.28	3323.57
982.579	3311.37
982.878	3327.86
983.177	3214.87
983.475	3238.15
983.774	3283.35
984.073	3182.78
984.372	3154.99
984.67	3143.46
984.969	3163.58
985.267	3215.1
985.566	3147.76
985.864	3168.55
986.162	3128.1
986.461	3057.36
986.759	3058.04
987.057	3071.37
987.355	3047.65
987.653	3057.59
987.951	3016.46
988.249	3035.89
988.547	2992.73
988.844	3003.13
989.142	3031.83
989.44	2959.51
989.737	2918.38
990.035	2872.51
990.332	2878.16
990.63	2929.46
990.927	2843.13
991.224	2863.24
991.521	2901.66
991.819	2869.35
992.116	2866.86
992.413	2813.75
992.71	2788.67
993.006	2777.14
993.303	2792.74
993.6	2771.95
993.897	2771.49
994.193	2788.44
994.49	2719.97
994.787	2705.73
995.083	2706.86
995.379	2667.54
995.676	2676.81
995.972	2639.07
996.268	2652.18
996.565	2653.98
996.861	2603.14
997.157	2620.09
997.453	2590.93
997.749	2576.02
998.044	2543.7
998.34	2539.86
998.636	2531.28
998.932	2523.37
999.227	2518.39
999.523	2512.07
999.818	2497.15
1000.114	2478.85
1000.409	2452.86
1000.704	2447.44
1001	2451.28
1001.295	2446.98
1001.59	2443.82
1001.885	2410.6
1002.18	2376.7
1002.475	2330.6
1002.77	2353.65
1003.065	2333.09
1003.359	2330.38
1003.654	2340.55
1003.949	2310.49
1004.243	2275.01
1004.538	2277.27
1004.832	2282.69
1005.127	2250.15
1005.421	2261.9
1005.715	2249.02
1006.009	2211.06
1006.304	2211.74
1006.598	2194.33
1006.892	2171.06
1007.186	2148.91
1007.48	2152.08
1007.773	2126.77
1008.067	2118.18
1008.361	2106.43
1008.655	2086.77
1008.948	2066.88
1009.242	2051.29
1009.535	2094.9
1009.829	2056.49
1010.122	2045.86
1010.415	2060.33
1010.708	2000.89
1011.001	2035.02
1011.295	2014
1011.588	2013.32
1011.881	1994.34
1012.173	1946.21
1012.466	1962.48
1012.759	1959.54
1013.052	1921.57
1013.344	1904.63
1013.637	1931.07
1013.93	1875.25
1014.222	1879.99
1014.514	1854.68
1014.807	1853.78
1015.099	1824.18
1015.391	1826.89
1015.683	1790.5
1015.976	1795.93
1016.268	1815.81
1016.56	1792.76
1016.851	1769.04
1017.143	1774.23
1017.435	1754.35
1017.727	1700.79
1018.018	1729.26
1018.31	1703.27
1018.602	1711.86
1018.893	1735.14
1019.185	1667.12
1019.476	1676.83
1019.767	1684.74
1020.058	1661.24
1020.35	1674.12
1020.641	1637.97
1020.932	1605.2
1021.223	1623.5
1021.514	1618.53
1021.804	1630.28
1022.095	1602.49
1022.386	1572.88
1022.677	1558.42
1022.967	1573.56
1023.258	1528.59
1023.548	1524.75
1023.839	1512.09
1024.129	1529.27
1024.419	1512.77
1024.709	1503.96
1025	1484.75
1025.29	1483.62
1025.58	1457.86
1025.87	1477.97
1026.16	1463.96
1026.449	1436.61
1026.739	1447.01
1027.029	1412.89
1027.319	1397.29
1027.608	1411.3
1027.898	1398.65
1028.187	1384.41
1028.477	1365.88
1028.766	1348.93
1029.055	1326.79
1029.344	1339.89
1029.634	1325.88
1029.923	1321.14
1030.212	1311.87
1030.501	1325.21
1030.79	1297.18
1031.078	1289.27
1031.367	1259.67
1031.656	1270.97
1031.945	1264.42
1032.233	1237.3
1032.522	1251.99
1032.81	1238.65
1033.099	1233.46
1033.387	1199.33
1033.675	1201.14
1033.963	1208.37
1034.251	1202.72
1034.54	1175.15
1034.828	1167.02
1035.116	1199.78
1035.403	1160.24
1035.691	1167.02
1035.979	1132.89
1036.267	1110.07
1036.554	1153.68
1036.842	1124.53
1037.129	1099.9
1037.417	1131.99
1037.704	1122.95
1037.992	1091.31
1038.279	1113.46
1038.566	1084.76
1038.853	1084.76
1039.14	1084.76
