Data from hue_30_FLMS001491_25.txt Node
Date: Mon Feb 06 15:04:56 GMT 2017
User: dcchb
Spectrometer: FLMS00149
Trigger mode: 0
Integration Time (sec): 2.000000E-2
Scans to average: 10
Electric dark correction enabled: true
Nonlinearity correction enabled: false
Boxcar width: 0
XAxis mode: Wavelengths
Number of Pixels in Spectrum: 2048
>>>>>Begin Spectral Data<<<<<
341.393	-9.18
341.776	-9.18
342.16	-9.18
342.543	-62.51
342.927	-68.39
343.31	-78.78
343.693	-73.36
344.077	-49.41
344.46	-63.87
344.843	-45.11
345.226	-48.95
345.61	-27.26
345.993	-10.31
346.376	-4.43
346.759	11.38
347.142	26.75
347.525	32.85
347.908	55.68
348.291	73.76
348.674	85.28
349.057	115.79
349.44	132.74
349.823	134.54
350.206	171.83
350.588	187.2
350.971	203.92
351.354	224.26
351.737	238.95
352.119	247.31
352.502	263.58
352.884	284.37
353.267	303.58
353.65	299.74
354.032	307.42
354.414	298.38
354.797	313.07
355.179	324.82
355.562	323.69
355.944	321.21
356.326	334.99
356.709	335.44
357.091	337.25
357.473	336.35
357.855	330.7
358.238	337.7
358.62	374.76
359.002	318.49
359.384	365.95
359.766	335.44
360.148	345.61
360.53	348.55
360.912	325.95
361.294	354.2
361.676	342.9
362.057	344.93
362.439	328.66
362.821	337.93
363.203	330.7
363.584	318.95
363.966	323.69
364.348	322.34
364.729	326.63
365.111	328.21
365.493	327.53
365.874	307.42
366.256	335.22
366.637	312.84
367.019	320.53
367.4	336.35
367.781	342.45
368.163	315.1
368.544	311.94
368.925	324.37
369.306	322.79
369.688	319.17
370.069	321.21
370.45	312.84
370.831	317.59
371.212	323.24
371.593	315.33
371.974	320.75
372.355	333.41
372.736	324.82
373.117	318.27
373.498	314.2
373.879	314.43
374.26	315.33
374.641	331.6
375.021	307.2
375.402	310.59
375.783	354.2
376.163	337.48
376.544	332.73
376.925	339.51
377.305	344.03
377.686	331.38
378.066	311.04
378.447	333.18
378.827	334.99
379.208	333.86
379.588	302.68
379.968	359.62
380.349	334.54
380.729	328.89
381.109	344.03
381.489	340.64
381.87	325.73
382.25	334.54
382.63	336.57
383.01	332.51
383.39	346.74
383.77	352.84
384.15	351.71
384.53	361.66
384.91	359.4
385.29	359.17
385.67	346.06
386.049	344.03
386.429	374.31
386.809	371.15
387.189	366.63
387.568	364.59
387.948	368.21
388.328	367.31
388.707	347.42
389.087	349.45
389.466	376.8
389.846	358.27
390.225	354.88
390.605	372.05
390.984	354.43
391.363	381.09
391.743	391.03
392.122	364.37
392.501	374.09
392.881	378.38
393.26	397.14
393.639	373.18
394.018	355.56
394.397	383.35
394.776	361.88
395.155	385.39
395.534	403.24
395.913	388.55
396.292	401.2
396.671	410.24
397.05	397.36
397.429	394.88
397.808	394.65
398.186	387.87
398.565	396.46
398.944	404.82
399.323	393.52
399.701	388.32
400.08	394.2
400.458	414.09
400.837	401.2
401.215	418.6
401.594	419.73
401.972	405.05
402.351	411.6
402.729	412.96
403.107	439.85
403.486	399.62
403.864	425.84
404.242	420.86
404.62	411.37
404.999	408.89
405.377	420.19
405.755	418.6
406.133	426.06
406.511	430.81
406.889	450.02
407.267	436.91
407.645	450.47
408.023	435.78
408.401	459.96
408.779	428.77
409.156	445.95
409.534	437.59
409.912	454.54
410.29	449.56
410.667	446.85
411.045	456.57
411.422	464.71
411.8	458.6
412.178	492.05
412.555	484.14
412.933	476.91
413.31	485.72
413.687	487.53
414.065	487.3
414.442	489.56
414.819	520.52
415.197	512.39
415.574	481.88
415.951	516.46
416.328	517.81
416.705	489.11
417.082	494.99
417.46	495.21
417.837	525.49
418.214	510.81
418.591	517.59
418.967	509.68
419.344	517.36
419.721	534.99
420.098	511.26
420.475	519.17
420.852	526.62
421.228	539.51
421.605	538.38
421.982	528.66
422.358	554.19
422.735	544.93
423.111	540.64
423.488	529.11
423.864	544.7
424.241	577.24
424.617	551.48
424.994	550.13
425.37	566.62
425.746	575.89
426.123	572.5
426.499	568.21
426.875	579.73
427.251	601.65
427.627	601.88
428.003	602.33
428.379	613.18
428.756	599.84
429.132	584.25
429.507	624.93
429.883	619.05
430.259	611.82
430.635	623.12
431.011	636.23
431.387	643.91
431.763	650.69
432.138	638.03
432.514	668.54
432.89	655.21
433.265	673.51
433.641	672.38
434.016	681.65
434.392	694.98
434.767	694.98
435.143	687.75
435.518	688.2
435.894	725.26
436.269	708.77
436.644	722.55
437.02	712.16
437.395	715.55
437.77	714.64
438.145	736.11
438.52	767.52
438.895	761.65
439.271	747.18
439.646	751.25
440.021	772.04
440.395	748.54
440.77	747.86
441.145	759.39
441.52	795.77
441.895	790.8
442.27	808.43
442.645	774.98
443.019	800.06
443.394	818.37
443.769	791.48
444.143	786.96
444.518	816.56
444.892	819.95
445.267	816.79
445.641	790.57
446.016	792.15
446.39	835.32
446.764	855.66
447.139	833.06
447.513	816.11
447.887	835.32
448.262	829.89
448.636	853.4
449.01	851.81
449.384	830.8
449.758	879.84
450.132	888.65
450.506	902.89
450.88	871.02
451.254	883.45
451.628	908.99
452.002	897.91
452.376	866.05
452.75	887.29
453.123	918.48
453.497	933.39
453.871	955.77
454.244	936.33
454.618	974.07
454.992	966.84
455.365	963.45
455.739	981.98
456.112	978.14
456.486	1021.53
456.859	1019.49
457.232	1027.63
457.606	1005.71
457.979	1043
458.352	1029.89
458.725	1070.11
459.099	1058.36
459.472	1090.9
459.845	1092.71
460.218	1110.79
460.591	1111.24
460.964	1129.55
461.337	1140.62
461.71	1153.05
462.083	1174.07
462.456	1152.82
462.829	1189.21
463.201	1183.1
463.574	1183.33
463.947	1195.76
464.32	1237.57
464.692	1227.85
465.065	1274.63
465.438	1285.7
465.81	1295.42
466.183	1311.69
466.555	1322.99
466.928	1319.6
467.3	1348.3
467.672	1362.31
468.045	1378.58
468.417	1388.07
468.789	1396.66
469.161	1404.12
469.534	1464.45
469.906	1472.81
470.278	1496.32
470.65	1523.66
471.022	1544.9
471.394	1567.5
471.766	1600.72
472.138	1608.4
472.51	1631.45
472.882	1676.2
473.253	1657.67
473.625	1696.09
473.997	1742.19
474.369	1800.26
474.74	1780.6
475.112	1817.66
475.484	1851.34
475.855	1904.22
476.227	1919.81
476.598	1967.49
476.97	2009.52
477.341	2028.73
477.713	2069.63
478.084	2112.35
478.455	2179.46
478.827	2208.84
479.198	2270.08
479.569	2302.17
479.94	2344.66
480.311	2402.06
480.682	2459.46
481.053	2501.26
481.424	2571.32
481.795	2601.15
482.166	2653.57
482.537	2710.3
482.908	2738.09
483.279	2788.26
483.65	2890.86
484.021	2935.37
484.391	2973.11
484.762	3060.34
485.133	3074.81
485.503	3187.8
485.874	3207.68
486.244	3279.32
486.615	3362.48
486.985	3385.31
487.356	3470.28
487.726	3515.7
488.097	3579.43
488.467	3614
488.837	3712.53
489.207	3796.37
489.578	3858.29
489.948	3930.6
490.318	3985.97
490.688	4014.67
491.058	4139.64
491.428	4202.91
491.798	4223.93
492.168	4307.54
492.538	4324.94
492.908	4450.14
493.278	4500.98
493.648	4495.79
494.017	4593.86
494.387	4704.37
494.757	4729.68
495.126	4772.39
495.496	4830.47
495.866	4893.06
496.235	4968.32
496.605	4989.78
496.974	5075.43
497.344	5125.37
497.713	5164.47
498.082	5234.52
498.452	5288.31
498.821	5242.43
499.19	5353.39
499.559	5386.16
499.928	5439.49
500.298	5516.55
500.667	5547.51
501.036	5608.75
501.405	5621.18
501.774	5677.68
502.143	5759.03
502.512	5807.39
502.88	5855.07
503.249	5881.06
503.618	5904.56
503.987	5927.39
504.356	6011
504.724	6075.18
505.093	6112.69
505.462	6054.39
505.83	6156.53
506.199	6218.23
506.567	6289.86
506.936	6245.12
507.304	6319.92
507.672	6337.77
508.041	6389.52
508.409	6432.01
508.777	6498.9
509.145	6478.33
509.514	6512.23
509.882	6573.02
510.25	6587.26
510.618	6709.06
510.986	6668.16
511.354	6665.22
511.722	6748.83
512.09	6754.26
512.458	6768.04
512.826	6853.92
513.193	6948.6
513.561	6899.79
513.929	6961.71
514.297	7003.52
514.664	7028.15
515.032	7056.17
515.4	7131.65
515.767	7116.73
516.135	7137.75
516.502	7104.53
516.869	7297.29
517.237	7250.74
517.604	7253
517.972	7315.6
518.339	7408.25
518.706	7369.61
519.073	7376.39
519.44	7466.78
519.808	7494.58
520.175	7512.88
520.542	7617.29
520.909	7574.35
521.276	7602.6
521.643	7668.81
522.009	7724.4
522.376	7749.26
522.743	7784.74
523.11	7866.09
523.477	7914.23
523.843	7938.41
524.21	8053.43
524.577	8014.34
524.943	8071.96
525.31	8081.68
525.676	8145.18
526.043	8212.07
526.409	8248.68
526.776	8300.88
527.142	8358.06
527.508	8400.09
527.874	8490.93
528.241	8471.27
528.607	8511.95
528.973	8570.03
529.339	8551.95
529.705	8724.83
530.071	8702.68
530.437	8795.11
530.803	8744.49
531.169	8910.81
531.535	8864.03
531.901	8927.31
532.267	8929.79
532.632	8974.09
532.998	9067.64
533.364	9054.99
533.73	9070.81
534.095	9161.88
534.461	9136.79
534.826	9198.26
535.192	9237.81
535.557	9324.13
535.923	9351.93
536.288	9385.37
536.653	9454.07
537.019	9367.07
537.384	9500.17
537.749	9577.23
538.114	9548.08
538.479	9603.45
538.845	9651.13
539.21	9629.89
539.575	9716.67
539.94	9723.44
540.305	9855.64
540.67	9797.57
541.034	9826.49
541.399	9858.81
541.764	9932.48
542.129	9934.06
542.494	9984
542.858	10033.27
543.223	10148.97
543.587	10096.77
543.952	10073.04
544.316	10177.22
544.681	10194.39
545.045	10230.55
545.41	10332.47
545.774	10432.58
546.138	10427.61
546.503	10471.45
546.867	10404.1
547.231	10543.99
547.595	10515.29
547.959	10626.25
548.324	10568.62
548.688	10729.75
549.052	10677.77
549.416	10702.63
549.779	10747.6
550.143	10779.46
550.507	10875.73
550.871	10887.48
551.235	10908.95
551.599	10941.49
551.962	11006.35
552.326	11012.45
552.689	11109.4
553.053	11029.17
553.417	11082.96
553.78	11185.33
554.143	11175.38
554.507	11197.76
554.87	11235.5
555.234	11369.96
555.597	11324.08
555.96	11350.52
556.323	11369.5
556.686	11443.63
557.05	11485.43
557.413	11567.92
557.776	11550.29
558.139	11587.12
558.502	11598.42
558.865	11705.31
559.228	11736.95
559.59	11794.8
559.953	11821.24
560.316	11861.47
560.679	11919.09
561.041	11952.54
561.404	12050.39
561.767	11997.96
562.129	12000
562.492	12135.36
562.854	12159.77
563.217	12172.65
563.579	12125.19
563.941	12278.86
564.304	12291.74
564.666	12368.35
565.028	12451.06
565.39	12450.38
565.753	12430.49
566.115	12576.03
566.477	12638.62
566.839	12593.65
567.201	12709.13
567.563	12710.49
567.925	12738.96
568.287	12760.2
568.648	12830.93
569.01	12927.88
569.372	12988.67
569.734	12973.98
570.095	13078.61
570.457	13062.34
570.819	13117.48
571.18	13127.88
571.542	13252.39
571.903	13279.51
572.265	13349.11
572.626	13357.93
572.987	13421.65
573.349	13536
573.71	13605.38
574.071	13728.31
574.432	13757.24
574.794	13919.27
575.155	13989.55
575.516	13992.49
575.877	14094.86
576.238	14163.33
576.599	14307.73
576.96	14343.66
577.32	14473.6
577.681	14566.71
578.042	14672.92
578.403	14783.42
578.763	14925.57
579.124	15031.55
579.485	15158.78
579.845	15349.51
580.206	15370.3
580.566	15631.09
580.927	15782.49
581.287	15890.97
581.648	15953.34
582.008	16330.28
582.368	16381.35
582.728	16596.48
583.089	16810.04
583.449	16995.57
583.809	17226.07
584.169	17305.17
584.529	17636.46
584.889	17861.54
585.249	17962.78
585.609	18164.58
585.969	18503.33
586.329	18761.4
586.688	18946.93
587.048	19250.88
587.408	19305.57
587.768	19633.47
588.127	19904.87
588.487	20152.32
588.846	20613.33
589.206	20627.79
589.565	20957.27
589.925	21267.77
590.284	21451.27
590.643	21935.33
591.003	22203.57
591.362	22537.35
591.721	22681.07
592.08	23051
592.44	23340.04
592.799	23600.37
593.158	23833.58
593.517	24095.5
593.876	24427.47
594.235	24745.2
594.593	25052.08
594.952	25234.68
595.311	25600.77
595.67	25884.6
596.029	26354.19
596.387	26624.7
596.746	26934.07
597.104	27088.86
597.463	27334.51
597.822	27814.49
598.18	27983.98
598.538	28131.77
598.897	28609.73
599.255	28664.19
599.613	29401.35
599.972	29392.76
600.33	29711.85
600.688	29931.05
601.046	30247.2
601.404	30610.58
601.762	30839.05
602.12	31111.58
602.478	31407.39
602.836	31597.9
603.194	31698.23
603.552	32050.77
603.91	32129.86
604.268	32568.04
604.625	32728.26
604.983	33117.63
605.341	33100.91
605.698	33373.22
606.056	33791.06
606.413	34012.75
606.771	34219.52
607.128	34459.29
607.485	34558.27
607.843	34763.24
608.2	34932.5
608.557	35435.54
608.914	35423.56
609.272	35872.81
609.629	36055.18
609.986	36261.5
610.343	36157.33
610.7	36625.11
611.057	36882.28
611.414	36830.08
611.771	37001.15
612.127	37300.12
612.484	37447.69
612.841	37590.28
613.198	37660.56
613.554	37849.49
613.911	38304.61
614.267	38192.3
614.624	38366.76
614.98	38675.45
615.337	38829.8
615.693	38910.7
616.05	39010.58
616.406	39358.15
616.762	39318.37
617.118	39321.31
617.475	39512.27
617.831	39864.35
618.187	39816.21
618.543	39996.77
618.899	40414.16
619.255	40406.48
619.611	40492.58
619.967	40560.6
620.323	40831.33
620.678	40615.74
621.034	40710.65
621.39	40818.9
621.746	40811.44
622.101	41332.56
622.457	41095.28
622.812	41192.9
623.168	41405.32
623.523	41422.5
623.879	41596.05
624.234	41287.59
624.589	41622.95
624.945	41667.46
625.3	41786.1
625.655	41787.01
626.01	41892.32
626.365	41991.3
626.72	41946.78
627.075	42050.05
627.43	42025.19
627.785	41971.41
628.14	42102.03
628.495	42188.58
628.85	42187
629.205	42077.4
629.559	42397.61
629.914	42277.39
630.269	42315.58
630.623	42282.36
630.978	42283.72
631.332	42436.48
631.687	42502.02
632.041	42458.4
632.396	42537.95
632.75	42422.02
633.104	42488.01
633.459	42393.55
633.813	42293.44
634.167	42422.47
634.521	42390.61
634.875	42559.42
635.229	42418.4
635.583	42301.57
635.937	42318.52
636.291	42317.39
636.645	42329.82
636.999	42416.82
637.352	42385.18
637.706	42315.81
638.06	42443.26
638.413	42299.99
638.767	42214.57
639.121	42303.38
639.474	41988.59
639.828	42130.73
640.181	42327.79
640.534	42370.5
640.888	42095.48
641.241	41917.4
641.594	42029.04
641.947	42268.35
642.301	42008.25
642.654	41942.26
643.007	42102.48
643.36	42001.24
643.713	42064.06
644.066	42211.63
644.419	41752.43
644.771	41651.19
645.124	41195.39
645.477	41130.75
645.83	40962.4
646.182	40975.5
646.535	40790.88
646.888	40843.53
647.24	40631.78
647.593	40920.36
647.945	40819.35
648.298	40677.43
648.65	40700.94
649.002	40472.69
649.355	40647.83
649.707	40621.62
650.059	40855.06
650.411	41270.86
650.763	41332.78
651.115	41686.45
651.467	41498.88
651.819	41535.04
652.171	41400.8
652.523	41460.92
652.875	41507.92
653.227	41210.07
653.578	41559.22
653.93	41262.5
654.282	41285.78
654.633	41104.09
654.985	41224.09
655.337	41291.43
655.688	41210.07
656.039	41386.57
656.391	41082.62
656.742	41052.11
657.094	41132.34
657.445	41271.99
657.796	41127.14
658.147	41185.67
658.498	41050.98
658.849	40980.93
659.2	41087.14
659.551	40962.85
659.902	41296.63
660.253	41157.87
660.604	41070.19
660.955	41001.49
661.306	41097.08
661.656	41031.32
662.007	41043.3
662.358	40975.28
662.708	40983.41
663.059	41005.79
663.409	40741.39
663.76	41013.02
664.11	40859.58
664.461	40958.78
664.811	40916.75
665.161	40983.87
665.511	40843.76
665.862	40962.62
666.212	40902.06
666.562	41116.97
666.912	40933.25
667.262	40864.1
667.612	40905
667.962	40935.28
668.312	40736.41
668.662	41110.42
669.011	40886.92
669.361	40713.14
669.711	40783.87
670.06	40723.76
670.41	40752.91
670.76	40729.86
671.109	40890.54
671.459	40838.11
671.808	40514.95
672.157	40781.84
672.507	40451.9
672.856	40538.68
673.205	40510.43
673.554	40672.69
673.904	40547.72
674.253	40780.26
674.602	40548.62
674.951	40008.98
675.3	39862.99
675.649	40490.09
675.998	40340.49
676.346	40433.15
676.695	40552.24
677.044	40267.27
677.393	40427.27
677.741	40321.28
678.09	40364.22
678.438	40172.36
678.787	40293.26
679.135	40224.34
679.484	39925.59
679.832	40179.14
680.181	39935.98
680.529	40054.4
680.877	39956.77
681.225	39936.89
681.573	40012.14
681.922	39717.46
682.27	39752.03
682.618	39776.67
682.966	39676.1
683.314	39818.02
683.661	39575.77
684.009	39497.13
684.357	39359.73
684.705	39305.27
685.053	39295.32
685.4	39331.03
685.748	39131.03
686.095	39013.75
686.443	38958.16
686.79	38910.47
687.138	38964.03
687.485	39004.93
687.832	38616.47
688.18	38787.77
688.527	38544.61
688.874	38543.7
689.221	38675.9
689.568	38445.4
689.915	38411.28
690.262	38129.25
690.609	38048.12
690.956	38026.2
691.303	38166.54
691.65	37783.95
691.997	37922.25
692.344	37696.95
692.69	37757.51
693.037	37676.16
693.383	37348.48
693.73	37497.86
694.077	37109.17
694.423	37276.39
694.769	37080.69
695.116	36981.03
695.462	36988.72
695.808	36899.45
696.155	37042.95
696.501	36643.64
696.847	36710.76
697.193	36391.22
697.539	36541.04
697.885	36190.09
698.231	36266.7
698.577	36216.53
698.923	36095.63
699.269	35910.78
699.614	35786.71
699.96	35891.12
700.306	35756.66
700.651	35616.1
700.997	35467.17
701.342	35482.77
701.688	35415.88
702.033	35323.22
702.379	35348.76
702.724	35099.05
703.069	35160.06
703.415	34728.21
703.76	34844.37
704.105	34919.17
704.45	34628.55
704.795	34574.99
705.14	34531.15
705.485	34506.3
705.83	34223.59
706.175	34358.05
706.52	34190.37
706.865	34087.1
707.209	34072.86
707.554	33859.76
707.899	34035.8
708.243	33828.12
708.588	33775.47
708.932	33602.37
709.277	33462.26
709.621	33578.64
709.966	33380.22
710.31	33433.78
710.654	33226.78
710.998	33261.58
711.342	33239.66
711.687	33034.7
712.031	33126.22
712.375	32818.2
712.719	32855.49
713.063	32724.87
713.407	32910.18
713.75	32697.08
714.094	32699.79
714.438	32458.44
714.782	32526.69
715.125	32407.14
715.469	32602.84
715.812	32168.5
716.156	32147.71
716.499	32239.24
716.843	32113.36
717.186	31961.05
717.53	32074.04
717.873	32091.44
718.216	31975.97
718.559	31906.82
718.902	31652.36
719.246	31728.52
719.589	31705.69
719.932	31365.81
720.275	31531.23
720.617	31540.05
720.96	31499.14
721.303	31367.17
721.646	31475.64
721.989	31078.82
722.331	31319.04
722.674	31069.78
723.016	31215.31
723.359	31081.98
723.701	31145.93
724.044	30938.25
724.386	30768.54
724.729	30856.67
725.071	30902.1
725.413	30825.71
725.755	30726.06
726.097	30747.3
726.439	30494.88
726.782	30526.97
727.124	30740.52
727.465	30379.4
727.807	30466.4
728.149	30401.77
728.491	30273.64
728.833	30393.41
729.175	30230.02
729.516	30192.29
729.858	30160.87
730.199	30317.93
730.541	30219.86
730.882	30117.94
731.224	30172.17
731.565	29889.47
731.906	29961.56
732.248	29973.53
732.589	29750.26
732.93	29661
733.271	29699.19
733.612	29681.79
733.953	29737.16
734.294	29560.66
734.635	29554.56
734.976	29689.47
735.317	29530.16
735.658	29459.88
735.999	29490.83
736.339	29305.75
736.68	29439.31
737.021	29326.32
737.361	29256.04
737.702	29230.28
738.042	29277.51
738.383	29144.63
738.723	29229.37
739.063	29075.93
739.404	29111.64
739.744	28917.97
740.084	28890.17
740.424	28944.86
740.764	28791.64
741.104	28860.12
741.444	28800.01
741.784	28665.77
742.124	28687.92
742.464	28678.88
742.804	28603.85
743.143	28576.73
743.483	28608.82
743.823	28295.61
744.162	28467.36
744.502	28412.45
744.841	28355.5
745.181	28390.07
745.52	28321.15
745.86	28262.62
746.199	28335.61
746.538	28208.16
746.877	28295.84
747.216	28245.67
747.556	28110.08
747.895	28215.84
748.234	28004.09
748.573	28005.45
748.911	27918.67
749.25	27971.55
749.589	27787.83
749.928	27899.92
750.267	27897.2
750.605	27758.9
750.944	27597.1
751.283	27568.63
751.621	27630.54
751.96	27522.3
752.298	27512.36
752.636	27453.37
752.975	27419.93
753.313	27229.88
753.651	27424.67
753.989	27253.15
754.327	27186.49
754.666	27101.29
755.004	27138.81
755.342	27146.04
755.679	27062.65
756.017	26902.2
756.355	27012.48
756.693	26804.35
757.031	26945.59
757.368	26720.06
757.706	26612.49
758.044	26644.36
758.381	26787.18
758.719	26534.08
759.056	26580.18
759.394	26442.1
759.731	26339.05
760.068	26372.27
760.405	26199.4
760.743	26240.75
761.08	26208.44
761.417	26034.65
761.754	26070.81
762.091	25930.48
762.428	25781.1
762.765	25760.09
763.102	25829.24
763.438	25605.06
763.775	25635.34
764.112	25451.39
764.449	25579.53
764.785	25357.16
765.122	25235.81
765.458	25209.59
765.795	25057.73
766.131	25160.33
766.467	24950.84
766.804	24903.16
767.14	24648.25
767.476	24793.11
767.812	24727.57
768.148	24528.03
768.485	24465.2
768.821	24340.01
769.157	24365.09
769.492	24349.73
769.828	24182.05
770.164	24007.82
770.5	23973.24
770.836	23999.68
771.171	23785.67
771.507	23904.54
771.842	23589.3
772.178	23609.63
772.513	23635.62
772.849	23486.7
773.184	23389.98
773.519	23361.28
773.855	23300.49
774.19	23261.39
774.525	23157.89
774.86	23178.68
775.195	23097.56
775.53	22975.3
775.865	22763.1
776.2	22665.03
776.535	22470.23
776.87	22543.9
777.205	22397.91
777.539	22312.94
777.874	22398.14
778.209	22231.14
778.543	22176.9
778.878	21972.39
779.212	21957.02
779.547	21846.06
779.881	21842.67
780.215	21813.75
780.55	21786.63
780.884	21530.37
781.218	21523.59
781.552	21480.42
781.886	21335.12
782.22	21303.71
782.554	21167.21
782.888	21064.84
783.222	20949.36
783.556	20857.39
783.889	20864.39
784.223	20720.9
784.557	20689.71
784.89	20734
785.224	20622.59
785.557	20380.57
785.891	20458.76
786.224	20291.53
786.558	20325.65
786.891	20183.51
787.224	20055.15
787.557	19972.44
787.891	19910.75
788.224	19926.34
788.557	19962.5
788.89	19896.74
789.223	19899.22
789.556	19606.57
789.888	19586.91
790.221	19523.64
790.554	19291.78
790.887	19327.71
791.219	19304.21
791.552	19200.26
791.884	19129.07
792.217	19141.5
792.549	19068.74
792.882	18880.04
793.214	18920.27
793.546	18833.26
793.879	18840.49
794.211	18741.29
794.543	18634.17
794.875	18680.05
795.207	18655.19
795.539	18488.64
795.871	18539.71
796.203	18324.12
796.535	18286.61
796.867	18337.46
797.198	18177.91
797.53	18189.44
797.862	18164.8
798.193	18120.06
798.525	17960.06
798.856	18052.27
799.188	17833.06
799.519	17834.19
799.85	17566.18
800.182	17630.36
800.513	17618.83
800.844	17429.23
801.175	17654.54
801.506	17496.57
801.837	17411.38
802.168	17380.87
802.499	17322.34
802.83	17107.43
803.161	17129.8
803.491	17138.84
803.822	17120.99
804.153	16974.33
804.483	16883.03
804.814	16861.56
805.145	16866.08
805.475	16799.19
805.805	16748.34
806.136	16848.91
806.466	16776.14
806.796	16637.61
807.126	16553.1
807.457	16455.02
807.787	16567.56
808.117	16431.29
808.447	16399.88
808.777	16409.37
809.107	16323.05
809.436	16192.43
809.766	16287.34
810.096	16127.34
810.426	16080.34
810.755	16038.08
811.085	16069.27
811.414	16054.8
811.744	15869.5
812.073	15876.28
812.403	15932.55
812.732	15833.57
813.061	15787.01
813.39	15705.43
813.719	15644.87
814.049	15848.71
814.378	15728.71
814.707	15663.63
815.036	15579.79
815.365	15459.34
815.693	15388.15
816.022	15384.54
816.351	15346.8
816.68	15262.06
817.008	15263.41
817.337	15060.48
817.665	15082.17
817.994	15134.83
818.322	15139.8
818.651	15089.18
818.979	14977.77
819.307	15109.29
819.636	14997.43
819.964	14896.19
820.292	14907.04
820.62	14916.08
820.948	14893.48
821.276	14934.61
821.604	14819.81
821.932	14920.14
822.259	14913.14
822.587	14905.91
822.915	14834.72
823.243	14812.35
823.57	14775.74
823.898	14826.81
824.225	14770.32
824.553	14713.14
824.88	14800.15
825.207	14837.43
825.535	14791.33
825.862	14812.12
826.189	14738
826.516	14791.33
826.843	14847.6
827.17	14708.17
827.497	14758.79
827.824	14836.76
828.151	14791.56
828.478	14712.01
828.805	14843.54
829.131	14736.87
829.458	14634.95
829.785	14588.85
830.111	14702.07
830.438	14766.7
830.764	14734.16
831.09	14782.75
831.417	14632.02
831.743	14726.25
832.069	14686.7
832.395	14692.81
832.722	14692.58
833.048	14595.63
833.374	14607.61
833.7	14660.94
834.026	14625.01
834.351	14651.45
834.677	14634.73
835.003	14568.29
835.329	14595.18
835.654	14530.55
835.98	14468.4
836.306	14535.3
836.631	14385.92
836.956	14473.15
837.282	14401.06
837.607	14408.52
837.932	14392.7
838.258	14340.27
838.583	14400.61
838.908	14268.41
839.233	14296.43
839.558	14281.97
839.883	14181.18
840.208	14149.09
840.533	14174.85
840.858	14190.9
841.182	14202.65
841.507	14094.18
841.832	14025.48
842.156	14098.02
842.481	14074.06
842.805	13919.94
843.13	13941.87
843.454	13907.74
843.778	13882.21
844.103	13869.32
844.427	13828.42
844.751	13819.83
845.075	13735.77
845.399	13748.65
845.723	13688.54
846.047	13729.89
846.371	13553.63
846.695	13576
847.019	13370.58
847.343	13415.78
847.666	13280.19
847.99	13237.48
848.313	13286.74
848.637	13121.77
848.96	13249
849.284	13136.24
849.607	13011.04
849.931	12960.87
850.254	12894.43
850.577	12790.71
850.9	12727.21
851.223	12824.83
851.546	12745.29
851.869	12596.36
852.192	12649.47
852.515	12558.17
852.838	12458.29
853.161	12491.06
853.483	12448.35
853.806	12374.45
854.129	12340.55
854.451	12263.72
854.774	12290.16
855.096	12227.33
855.419	12188.92
855.741	12105.76
856.063	12019.43
856.385	12048.13
856.708	11916.61
857.03	11966.55
857.352	11998.87
857.674	11979.66
857.996	11848.81
858.318	11783.28
858.64	11836.84
858.961	11723.84
859.283	11663.96
859.605	11637.29
859.926	11695.82
860.248	11641.13
860.57	11662.15
860.891	11652.89
861.212	11507.58
861.534	11527.69
861.855	11534.02
862.176	11480.69
862.498	11453.57
862.819	11404.53
863.14	11427.58
863.461	11342.39
863.782	11273.23
864.103	11358.43
864.424	11342.16
864.745	11277.3
865.065	11263.74
865.386	11275.72
865.707	11182.62
866.027	11247.02
866.348	11187.59
866.668	11196.85
866.989	11118.89
867.309	11041.83
867.63	11085.89
867.95	11088.61
868.27	11019.68
868.59	11054.48
868.91	11003.64
869.23	10965.45
869.55	10871.66
869.87	11050.87
870.19	10977.65
870.51	10943.53
870.83	10905.79
871.15	10797.99
871.469	10794.15
871.789	10860.82
872.109	10875.96
872.428	10721.16
872.748	10818.56
873.067	10747.82
873.386	10826.92
873.706	10758.9
874.025	10710.54
874.344	10668.05
874.663	10756.19
874.982	10705.34
875.301	10690.43
875.62	10691.1
875.939	10615.85
876.258	10610.88
876.577	10549.64
876.896	10592.57
877.214	10573.82
877.533	10541.28
877.852	10481.17
878.17	10601.16
878.489	10487.72
878.807	10522.52
879.125	10435.29
879.444	10449.75
879.762	10430.32
880.08	10381.51
880.398	10285.46
880.716	10366.37
881.034	10299.25
881.352	10393.26
881.67	10333.82
881.988	10238.23
882.306	10198.46
882.624	10341.06
882.941	10121.85
883.259	10124.56
883.577	10172.92
883.894	10135.19
884.212	10095.19
884.529	10092.25
884.846	10030.33
885.164	10052.48
885.481	9987.39
885.798	10110.33
886.115	9985.81
886.432	9948.75
886.75	9894.06
887.067	9882.31
887.383	9877.11
887.7	9918.69
888.017	9805.93
888.334	9811.13
888.651	9811.8
888.967	9801.86
889.284	9742.2
889.6	9681.64
889.917	9673.28
890.233	9660.62
890.55	9577.23
890.866	9713.05
891.182	9566.84
891.498	9479.84
891.815	9495.43
892.131	9471.25
892.447	9444.36
892.763	9472.38
893.079	9392.61
893.395	9304.47
893.71	9339.73
894.026	9349.44
894.342	9314.87
894.657	9247.07
894.973	9332.72
895.289	9247.75
895.604	9268.32
895.92	9100.41
896.235	9089.79
896.55	9125.27
896.865	9056.34
897.181	9051.37
897.496	9043.46
897.811	8940.41
898.126	8959.17
898.441	8943.35
898.756	8876.46
899.071	8829.91
899.386	8857.93
899.7	8724.83
900.015	8751.04
900.33	8730.02
900.644	8703.81
900.959	8673.98
901.273	8661.1
901.588	8569.35
901.902	8565.28
902.216	8479.64
902.531	8539.07
902.845	8503.36
903.159	8457.49
903.473	8453.87
903.787	8360.77
904.101	8347.44
904.415	8295.91
904.729	8259.53
905.042	8215.91
905.356	8191.73
905.67	8211.62
905.984	8169.36
906.297	8114.22
906.611	8123.04
906.924	8146.99
907.237	8095.24
907.551	7995.58
907.864	7983.83
908.177	8004.62
908.491	7942.7
908.804	7860.9
909.117	7831.52
909.43	7789.71
909.743	7802.37
910.056	7768.47
910.368	7691.86
910.681	7673.33
910.994	7693.67
911.307	7621.81
911.619	7528.47
911.932	7537.97
912.244	7509.72
912.557	7501.36
912.869	7454.35
913.181	7418.87
913.494	7392.43
913.806	7345.2
914.118	7354.92
914.43	7266.79
914.742	7322.38
915.054	7203.74
915.366	7158.77
915.678	7204.87
915.99	7183.62
916.302	7079.45
916.613	7097.53
916.925	7050.07
917.236	7053.23
917.548	7007.58
917.859	6986.34
918.171	6955.38
918.482	6913.58
918.794	6894.59
919.105	6927.81
919.416	6868.6
919.727	6864.54
920.038	6775.5
920.349	6755.61
920.66	6765.78
920.971	6752.68
921.282	6698.21
921.593	6594.49
921.903	6576.86
922.214	6639.46
922.525	6543.64
922.835	6524.88
923.146	6491.44
923.456	6494.6
923.767	6413.7
924.077	6450.99
924.387	6409.86
924.697	6356.08
925.008	6332.35
925.318	6329.86
925.628	6319.01
925.938	6231.79
926.248	6170.54
926.558	6180.49
926.867	6157.21
927.177	6140.94
927.487	6103.65
927.796	6093.71
928.106	6090.32
928.416	6079.02
928.725	6065.91
929.034	6040.6
929.344	6050.77
929.653	5941.17
929.962	5921.96
930.271	5867.28
930.581	5917.67
930.89	5836.99
931.199	5767.84
931.508	5807.16
931.817	5771.01
932.125	5736.88
932.434	5777.11
932.743	5663.89
933.051	5681.52
933.36	5635.42
933.669	5618.92
933.977	5578.02
934.286	5569.2
934.594	5533.72
934.902	5532.59
935.21	5495.76
935.519	5486.27
935.827	5500.05
936.135	5447.4
936.443	5392.03
936.751	5362.88
937.059	5341.41
937.367	5348.64
937.674	5303
937.982	5284.92
938.29	5314.52
938.597	5269.55
938.905	5206.05
939.213	5210.57
939.52	5143.9
939.827	5165.37
940.135	5166.28
940.442	5118.82
940.749	5087.41
941.056	5106.62
941.363	5072.72
941.67	5000.86
941.977	5017.13
942.284	4974.42
942.591	4980.74
942.898	4940.52
943.205	4933.06
943.511	4863.46
943.818	4838.15
944.125	4820.75
944.431	4803.35
944.738	4825.27
945.044	4842.22
945.35	4724.48
945.657	4733.29
945.963	4759.73
946.269	4649.91
946.575	4707.31
946.881	4679.74
947.187	4679.06
947.493	4589.12
947.799	4565.39
948.105	4573.52
948.41	4539.4
948.716	4523.81
949.022	4486.97
949.327	4539.85
949.633	4449.46
949.938	4459.4
950.244	4470.25
950.549	4373.08
950.854	4382.57
951.16	4377.37
951.465	4397.03
951.77	4357.71
952.075	4360.42
952.38	4336.02
952.685	4298.5
952.99	4244.49
953.294	4252.85
953.599	4235.45
953.904	4207.66
954.209	4216.7
954.513	4203.36
954.818	4174.66
955.122	4161.33
955.426	4132.86
955.731	4118.62
956.035	4081.33
956.339	4054.89
956.643	4061.45
956.948	4015.35
957.252	4067.77
957.556	4039.75
957.86	3968.57
958.163	3992.75
958.467	3952.98
958.771	3975.35
959.075	3948.91
959.378	3945.74
959.682	3923.82
959.985	3898.74
960.289	3829.36
960.592	3850.6
960.896	3844.5
961.199	3807.44
961.502	3812.87
961.805	3798.18
962.108	3754.56
962.411	3721.57
962.714	3745.97
963.017	3712.76
963.32	3704.62
963.623	3691.74
963.926	3676.15
964.228	3617.16
964.531	3650.38
964.833	3613.1
965.136	3602.7
965.438	3567.45
965.741	3569.26
966.043	3514.57
966.345	3536.71
966.648	3482.48
966.95	3550.05
967.252	3462.59
967.554	3535.36
967.856	3439.77
968.158	3416.72
968.46	3459.65
968.761	3428.24
969.063	3377.17
969.365	3392.31
969.666	3376.04
969.968	3340.79
970.269	3322.03
970.571	3332.43
970.872	3284.29
971.174	3269.38
971.475	3320.45
971.776	3298.53
972.077	3241.81
972.378	3213.56
972.679	3200.9
972.98	3182.83
973.281	3195.03
973.582	3171.75
973.883	3172.88
974.183	3145.31
974.484	3093.34
974.785	3096.27
975.085	3121.58
975.386	3117.06
975.686	3038.87
975.986	3090.17
976.287	3060.57
976.587	3061.93
976.887	3040.23
977.187	3026.67
977.487	2996.16
977.787	2953
978.087	2977.86
978.387	2973.79
978.687	2967.69
978.987	2929.05
979.286	2920.69
979.586	2945.77
979.885	2878.2
980.185	2884.75
980.484	2875.49
980.784	2847.47
981.083	2856.28
981.382	2800.24
981.682	2859.9
981.981	2805.66
982.28	2800.92
982.579	2803.85
982.878	2768.37
983.177	2777.41
983.475	2749.62
983.774	2745.78
984.073	2735.15
984.372	2718.21
984.67	2699.67
984.969	2696.74
985.267	2684.08
985.566	2709.17
985.864	2641.15
986.162	2646.12
986.461	2632.11
986.759	2644.31
987.057	2644.31
987.355	2575.38
987.653	2594.37
987.951	2554.82
988.249	2591.43
988.547	2579.45
988.844	2547.14
989.142	2494.03
989.44	2541.26
989.737	2560.02
990.035	2448.83
990.332	2469.62
990.63	2477.53
990.927	2489.28
991.224	2437.53
991.521	2452.9
991.819	2430.08
992.116	2414.48
992.413	2448.38
992.71	2381.49
993.006	2381.27
993.303	2354.83
993.6	2348.05
993.897	2365.45
994.193	2348.27
994.49	2325.9
994.787	2315.73
995.083	2286.58
995.379	2292.45
995.676	2279.57
995.972	2304.43
996.268	2270.99
996.565	2244.09
996.861	2248.39
997.157	2215.85
997.453	2212.23
997.749	2197.99
998.044	2182.4
998.34	2136.07
998.636	2171.33
998.932	2184.43
999.227	2137.66
999.523	2143.53
999.818	2162.74
1000.114	2114.83
1000.409	2112.12
1000.704	2080.71
1001	2078.22
1001.295	2043.87
1001.59	2053.59
1001.885	2049.75
1002.18	2042.52
1002.475	2025.57
1002.77	2044.1
1003.065	2041.39
1003.359	2012.24
1003.654	1979.69
1003.949	1983.99
1004.243	1953.25
1004.538	1964.78
1004.832	1961.84
1005.127	1982.86
1005.421	1891.79
1005.715	1915.74
1006.009	1910.32
1006.304	1878.91
1006.598	1905.35
1006.892	1889.53
1007.186	1833.93
1007.48	1861.28
1007.773	1843.65
1008.067	1823.31
1008.361	1824.22
1008.655	1832.8
1008.948	1790.77
1009.242	1789.64
1009.535	1769.76
1009.829	1785.12
1010.122	1766.14
1010.415	1713.94
1010.708	1739.02
1011.001	1741.96
1011.295	1714.84
1011.588	1717.78
1011.881	1705.12
1012.173	1712.58
1012.466	1671.23
1012.759	1679.36
1013.052	1662.41
1013.344	1672.81
1013.637	1626.48
1013.93	1643.21
1014.222	1615.64
1014.514	1614.73
1014.807	1632.13
1015.099	1574.28
1015.391	1584.22
1015.683	1616.09
1015.976	1584.9
1016.268	1561.4
1016.56	1570.21
1016.851	1537.45
1017.143	1527.73
1017.435	1532.93
1017.727	1508.29
1018.018	1501.51
1018.31	1495.86
1018.602	1487.05
1018.893	1469.88
1019.185	1446.83
1019.476	1452.25
1019.767	1439.82
1020.058	1446.37
1020.35	1438.47
1020.641	1390.56
1020.932	1401.18
1021.223	1377.9
1021.514	1397.79
1021.804	1375.64
1022.095	1344.91
1022.386	1352.59
1022.677	1343.55
1022.967	1366.15
1023.258	1351.91
1023.548	1329.54
1023.839	1320.5
1024.129	1333.61
1024.419	1297.68
1024.709	1321.63
1025	1285.02
1025.29	1289.54
1025.58	1265.36
1025.87	1261.07
1026.16	1259.03
1026.449	1266.04
1026.739	1231.92
1027.029	1215.87
1027.319	1227.17
1027.608	1216.32
1027.898	1237.11
1028.187	1181.75
1028.477	1163.9
1028.766	1195.08
1029.055	1173.39
1029.344	1175.2
1029.634	1153.27
1029.923	1161.18
1030.212	1144.01
1030.501	1115.31
1030.79	1112.15
1031.078	1143.33
1031.367	1088.19
1031.656	1083.45
1031.945	1086.38
1032.233	1100.17
1032.522	1092.71
1032.81	1100.39
1033.099	1088.64
1033.387	1044.35
1033.675	1066.27
1033.963	1040.28
1034.251	1045.93
1034.54	1028.08
1034.828	1052.71
1035.116	1036.44
1035.403	1038.93
1035.691	1002.09
1035.979	1016.33
1036.267	1002.09
1036.554	997.57
1036.842	980.4
1037.129	977.46
1037.417	963.9
1037.704	977.69
1037.992	952.15
1038.279	942.88
1038.566	956.67
1038.853	956.67
1039.14	956.67
