Data from hue_310_FLMS001491_34.txt Node
Date: Mon Feb 06 15:49:36 GMT 2017
User: dcchb
Spectrometer: FLMS00149
Trigger mode: 0
Integration Time (sec): 2.000000E-2
Scans to average: 10
Electric dark correction enabled: true
Nonlinearity correction enabled: false
Boxcar width: 0
XAxis mode: Wavelengths
Number of Pixels in Spectrum: 2048
>>>>>Begin Spectral Data<<<<<
341.393	-10.99
341.776	-10.99
342.16	-10.99
342.543	-43.53
342.927	-61.61
343.31	-73.59
343.693	-66.58
344.077	-60.7
344.46	-52.12
344.843	-58.22
345.226	-40.14
345.61	-41.95
345.993	-11.89
346.376	-21.61
346.759	14.55
347.142	37.15
347.525	43.93
347.908	66.98
348.291	69.91
348.674	87.09
349.057	107.2
349.44	121.21
349.823	156.24
350.206	165.05
350.588	193.53
350.971	219.51
351.354	226.29
351.737	249.8
352.119	255.22
352.502	258.38
352.884	269.91
353.267	267.2
353.65	280.76
354.032	301.09
354.414	295.22
354.797	300.87
355.179	336.12
355.562	321.43
355.944	321.66
356.326	336.57
356.709	331.38
357.091	334.54
357.473	324.37
357.855	345.84
358.238	357.82
358.62	322.56
359.002	351.94
359.384	322.56
359.766	323.69
360.148	337.7
360.53	337.03
360.912	328.44
361.294	310.59
361.676	332.73
362.057	320.98
362.439	329.34
362.821	323.01
363.203	324.14
363.584	315.1
363.966	308.1
364.348	314.88
364.729	327.08
365.111	301.32
365.493	324.14
365.874	314.43
366.256	321.21
366.637	312.39
367.019	297.25
367.4	330.47
367.781	307.2
368.163	291.6
368.544	293.86
368.925	324.82
369.306	309.23
369.688	309
370.069	306.07
370.45	306.07
370.831	301.09
371.212	310.13
371.593	314.88
371.974	323.24
372.355	316.69
372.736	313.3
373.117	315.1
373.498	328.44
373.879	311.49
374.26	309.91
374.641	303.13
375.021	337.03
375.402	331.15
375.783	302
376.163	324.6
376.544	317.36
376.925	320.75
377.305	323.47
377.686	320.3
378.066	310.13
378.447	310.13
378.827	345.16
379.208	335.44
379.588	322.56
379.968	338.61
380.349	318.04
380.729	330.47
381.109	330.92
381.489	345.61
381.87	331.6
382.25	330.7
382.63	322.34
383.01	345.16
383.39	320.08
383.77	323.47
384.15	340.41
384.53	332.28
384.91	330.02
385.29	350.81
385.67	356.69
386.049	328.66
386.429	362.56
386.809	346.29
387.189	361.43
387.568	332.96
387.948	339.06
388.328	365.72
388.707	355.78
389.087	365.27
389.466	346.06
389.846	363.24
390.225	344.48
390.605	356.23
390.984	347.65
391.363	359.62
391.743	345.84
392.122	371.6
392.501	367.08
392.881	354.65
393.26	367.98
393.639	351.04
394.018	372.28
394.397	364.14
394.776	375.44
395.155	366.4
395.534	367.98
395.913	384.26
396.292	377.7
396.671	370.24
397.05	383.35
397.429	373.63
397.808	380.19
398.186	396.01
398.565	387.19
398.944	386.06
399.323	392.84
399.701	394.65
400.08	403.92
400.458	417.93
400.837	412.28
401.215	409.57
401.594	405.72
401.972	405.05
402.351	408.44
402.729	425.84
403.107	400.3
403.486	418.83
403.864	423.12
404.242	414.99
404.62	403.92
404.999	398.94
405.377	412.05
405.755	448.21
406.133	408.89
406.511	429.68
406.889	459.96
407.267	434.65
407.645	444.59
408.023	443.46
408.401	454.76
408.779	461.54
409.156	443.24
409.534	466.51
409.912	485.27
410.29	496.57
410.667	492.73
411.045	500.41
411.422	507.64
411.8	477.59
412.178	501.54
412.555	503.12
412.933	516.46
413.31	510.35
413.687	546.06
414.065	563.01
414.442	531.37
414.819	574.31
415.197	540.41
415.574	580.18
415.951	580.18
416.328	591.71
416.705	596.68
417.082	597.58
417.46	599.39
417.837	616.34
418.214	605.27
418.591	612.27
418.967	617.24
419.344	629.22
419.721	628.32
420.098	638.26
420.475	668.09
420.852	665.6
421.228	675.1
421.605	651.37
421.982	687.3
422.358	691.82
422.735	694.76
423.111	714.19
423.488	719.39
423.864	685.04
424.241	704.92
424.617	734.98
424.994	730.01
425.37	736.34
425.746	738.82
426.123	752.61
426.499	764.58
426.875	760.74
427.251	782.21
427.627	791.7
428.003	804.13
428.379	810.01
428.756	819.72
429.132	853.85
429.507	842.55
429.883	852.72
430.259	866.73
430.635	849.55
431.011	859.5
431.387	889.1
431.763	922.77
432.138	908.08
432.514	890
432.89	906.73
433.265	901.76
433.641	928.42
434.016	964.58
434.392	978.36
434.767	993.05
435.143	958.7
435.518	1015.2
435.894	1011.81
436.269	995.09
436.644	1018.82
437.02	1026.72
437.395	1031.24
437.77	1036.22
438.145	1055.65
438.52	1061.75
438.895	1065.82
439.271	1058.81
439.646	1107.85
440.021	1117.12
440.395	1109.66
440.77	1073.28
441.145	1073.05
441.52	1133.84
441.895	1137
442.27	1106.27
442.645	1127.29
443.019	1147.4
443.394	1149.66
443.769	1148.98
444.143	1151.69
444.518	1171.58
444.892	1154.63
445.267	1168.64
445.641	1182.65
446.016	1164.35
446.39	1195.76
446.764	1188.3
447.139	1181.07
447.513	1207.96
447.887	1194.4
448.262	1187.85
448.636	1222.65
449.01	1228.53
449.384	1227.17
449.758	1202.31
450.132	1231.01
450.506	1233.05
450.88	1253.39
451.254	1247.74
451.628	1254.06
452.002	1298.81
452.376	1288.19
452.75	1291.35
453.123	1264.23
453.497	1286.83
453.871	1275.53
454.244	1314.85
454.618	1304.68
454.992	1333.83
455.365	1330.9
455.739	1318.24
456.112	1363.66
456.486	1354.85
456.859	1381.74
457.232	1380.39
457.606	1402.76
457.979	1393.27
458.352	1441.4
458.725	1411.35
459.099	1419.93
459.472	1466.49
459.845	1440.5
460.218	1424.23
460.591	1485.24
460.964	1461.29
461.337	1470.33
461.71	1489.99
462.083	1534.28
462.456	1544.68
462.829	1511.46
463.201	1522.53
463.574	1539.93
463.947	1558.24
464.32	1586.71
464.692	1592.59
465.065	1573.83
465.438	1589.87
465.81	1619.25
466.183	1609.53
466.555	1642.75
466.928	1626.93
467.3	1631.45
467.672	1675.97
468.045	1730.21
468.417	1716.2
468.789	1700.38
469.161	1723.2
469.534	1711.45
469.906	1749.64
470.278	1748.74
470.65	1761.85
471.022	1812.47
471.394	1853.82
471.766	1829.19
472.138	1839.58
472.51	1848.85
472.882	1879.81
473.253	1908.74
473.625	1888.62
473.997	1947.83
474.369	1924.33
474.74	1951.45
475.112	1971.33
475.484	2021.73
475.855	2004.55
476.227	2028.51
476.598	2066.02
476.97	2094.27
477.341	2102.63
477.713	2110.31
478.084	2124.1
478.455	2173.59
478.827	2172.68
479.198	2235.73
479.569	2196.19
479.94	2245.22
480.311	2291.32
480.682	2287.71
481.053	2313.92
481.424	2349.63
481.795	2397.99
482.166	2426.69
482.537	2402.73
482.908	2433.24
483.279	2435.95
483.65	2502.17
484.021	2519.34
484.391	2549.17
484.762	2535.84
485.133	2565.89
485.503	2583.29
485.874	2636.17
486.244	2609.51
486.615	2642.5
486.985	2726.11
487.356	2726.11
487.726	2711.2
488.097	2802.27
488.467	2774.48
488.837	2851.08
489.207	2892.89
489.578	2863.51
489.948	2893.34
490.318	2912.55
490.688	2893.57
491.058	2920.01
491.428	2983.51
491.798	2993.23
492.168	3053.11
492.538	3057.18
492.908	3076.16
493.278	3137.4
493.648	3120.91
494.017	3140.12
494.387	3148.02
494.757	3183.96
495.126	3203.84
495.496	3205.65
495.866	3244.07
496.235	3266.89
496.605	3258.53
496.974	3247.01
497.344	3268.25
497.713	3273.45
498.082	3291.3
498.452	3352.76
498.821	3342.82
499.19	3345.31
499.559	3367.91
499.928	3396.15
500.298	3407.45
500.667	3411.75
501.036	3414.23
501.405	3466.66
501.774	3442.48
502.143	3460.33
502.512	3433.67
502.88	3505.98
503.249	3511.18
503.618	3517.73
503.987	3521.12
504.356	3528.13
504.724	3555.47
505.093	3519.99
505.462	3562.7
505.83	3586.21
506.199	3573.55
506.567	3622.81
506.936	3649.25
507.304	3665.98
507.672	3648.35
508.041	3623.72
508.409	3658.29
508.777	3625.07
509.145	3708.69
509.514	3700.55
509.882	3743.04
510.25	3708.69
510.618	3729.48
510.986	3764.51
511.354	3792.53
511.722	3764.28
512.09	3806.09
512.458	3768.12
512.826	3817.84
513.193	3795.24
513.561	3783.04
513.929	3776.48
514.297	3853.54
514.664	3903.48
515.032	3891.06
515.4	3893.32
515.767	3887.89
516.135	3888.8
516.502	3862.81
516.869	3868.01
517.237	3908
517.604	3912.3
517.972	3950.94
518.339	3925.63
518.706	3949.13
519.073	3957.95
519.44	3962.47
519.808	3964.95
520.175	3972.18
520.542	3986.19
520.909	4023.48
521.276	3998.85
521.643	4020.54
522.009	4089.02
522.376	4068.45
522.743	4104.84
523.11	4121.11
523.477	4076.14
523.843	4159.07
524.21	4210.37
524.577	4232.29
524.943	4225.28
525.31	4193.42
525.676	4198.39
526.043	4253.53
526.409	4291.27
526.776	4308.67
527.142	4298.28
527.508	4310.03
527.874	4331.04
528.241	4339.86
528.607	4338.5
528.973	4393.19
529.339	4403.81
529.705	4451.27
530.071	4473.41
530.437	4479.74
530.803	4467.31
531.169	4481.55
531.535	4519.97
531.901	4501.89
532.267	4517.93
532.632	4569
532.998	4584.37
533.364	4568.1
533.73	4601.77
534.095	4650.36
534.461	4667.08
534.826	4689
535.192	4713.86
535.557	4759.73
535.923	4761.09
536.288	4797.92
536.653	4744.14
537.019	4771.48
537.384	4864.14
537.749	4818.49
538.114	4829.79
538.479	4849.9
538.845	4828.88
539.21	4923.57
539.575	4889.67
539.94	4897.13
540.305	4909.33
540.67	4961.76
541.034	4969.45
541.399	4963.34
541.764	5018.26
542.129	5023.46
542.494	5055.55
542.858	5068.2
543.223	5099.61
543.587	5083.11
543.952	5115.88
544.316	5159.95
544.681	5153.85
545.045	5205.15
545.41	5270.91
545.774	5243.34
546.138	5239.04
546.503	5208.08
546.867	5306.84
547.231	5332.37
547.595	5324.01
547.959	5336.67
548.324	5408.3
548.688	5407.4
549.052	5383.67
549.416	5383.9
549.779	5370.57
550.143	5437.68
550.507	5510.67
550.871	5439.49
551.235	5511.8
551.599	5512.48
551.962	5566.94
552.326	5583.21
552.689	5571.92
553.053	5591.35
553.417	5574.63
553.78	5685.13
554.143	5654.85
554.507	5615.08
554.87	5691.23
555.234	5719.26
555.597	5711.57
555.96	5738.92
556.323	5686.94
556.686	5775.3
557.05	5788.63
557.413	5772.36
557.776	5780.72
558.139	5782.98
558.502	5823.66
558.865	5808.29
559.228	5905.69
559.59	5836.09
559.953	5927.84
560.316	5959.48
560.679	5959.7
561.041	5968.52
561.404	5979.36
561.767	5994.5
562.129	5955.63
562.492	6067.72
562.854	6070.43
563.217	6099.81
563.579	6063.2
563.941	6107.95
564.304	6150.43
564.666	6154.27
565.028	6176.42
565.39	6228.4
565.753	6213.03
566.115	6194.72
566.477	6198.34
566.839	6274.5
567.201	6295.96
567.563	6333.93
567.925	6319.47
568.287	6319.69
568.648	6350.2
569.01	6410.99
569.372	6494.15
569.734	6459.8
570.095	6502.06
570.457	6531.89
570.819	6526.24
571.18	6546.58
571.542	6621.15
571.903	6607.14
572.265	6640.14
572.626	6727.14
572.987	6741.6
573.349	6768.27
573.71	6835.84
574.071	6824.31
574.432	6918.32
574.794	6994.03
575.155	6999
575.516	6961.94
575.877	7061.59
576.238	7147.92
576.599	7212.78
576.96	7197.64
577.32	7283.74
577.681	7351.76
578.042	7467.91
578.403	7531.19
578.763	7603.27
579.124	7700.67
579.485	7836.71
579.845	7907.9
580.206	8019.53
580.566	8124.16
580.927	8259.75
581.287	8360.99
581.648	8432.41
582.008	8564.15
582.368	8728.22
582.728	8907.2
583.089	9059.28
583.449	9117.13
583.809	9346.28
584.169	9431.7
584.529	9561.64
584.889	9845.48
585.249	9989.43
585.609	10128.63
585.969	10348.51
586.329	10554.84
586.688	10771.33
587.048	10967.25
587.408	11146.23
587.768	11349.16
588.127	11646.33
588.487	11802.03
588.846	12154.34
589.206	12334.68
589.565	12604.27
589.925	12880.65
590.284	13111.15
590.643	13325.84
591.003	13604.7
591.362	13942.77
591.721	14115.87
592.08	14419.37
592.44	14785.23
592.799	15030.2
593.158	15207.14
593.517	15543.63
593.876	15908.59
594.235	16105.2
594.593	16383.16
594.952	16802.58
595.311	16934.78
595.67	17312.62
596.029	17699.96
596.387	17970.01
596.746	18316.89
597.104	18551.24
597.463	18850.89
597.822	19153.25
598.18	19474.15
598.538	19681.38
598.897	19983.97
599.255	20231.64
599.613	20710.27
599.972	20925.64
600.33	21279.3
600.688	21453.31
601.046	21798.61
601.404	22151.59
601.762	22351.14
602.12	22770.33
602.478	22984.34
602.836	23282.41
603.194	23438.11
603.552	23786.13
603.91	23907.25
604.268	24374.59
604.625	24492.32
604.983	24903.38
605.341	24886.89
605.698	25298.85
606.056	25576.14
606.413	25673.99
606.771	25968.44
607.128	26394.19
607.485	26437.36
607.843	26788.98
608.2	27038.7
608.557	27341.96
608.914	27429.87
609.272	27725.68
609.629	27992.12
609.986	28252.22
610.343	28375.38
610.7	28763.17
611.057	28862.15
611.414	29068.47
611.771	29250.84
612.127	29592.75
612.484	29710.04
612.841	29998.62
613.198	29946.87
613.554	30106.41
613.911	30468.44
614.267	30548.43
614.624	30749.56
614.98	30894.87
615.337	31240.62
615.693	31387.28
616.05	31380.28
616.406	31808.97
616.762	31657.33
617.118	31920.83
617.475	31959.92
617.831	32257.77
618.187	32232.46
618.543	32492.56
618.899	32836.74
619.255	32894.59
619.611	32992.89
619.967	33094.36
620.323	33381.35
620.678	33349.72
621.034	33349.72
621.39	33577.73
621.746	33643.04
622.101	34059.53
622.457	33958.29
622.812	33959.87
623.168	34185.4
623.523	34247.55
623.879	34451.38
624.234	34336.81
624.589	34601.21
624.945	34610.47
625.3	34744.26
625.655	34706.06
626.01	34846.17
626.365	34931.6
626.72	34859.96
627.075	35052.95
627.43	35061.08
627.785	34902.9
628.14	35164.13
628.495	35345.6
628.85	35394.63
629.205	35301.76
629.559	35500.85
629.914	35329.78
630.269	35375.65
630.623	35578.13
630.978	35346.05
631.332	35540.17
631.687	35670.11
632.041	35659.49
632.396	35784.91
632.75	35604.8
633.104	35600.5
633.459	35670.79
633.813	35671.01
634.167	35746.94
634.521	35722.08
634.875	35673.27
635.229	35759.6
635.583	35654.51
635.937	35714.17
636.291	35623.55
636.645	35757.11
636.999	35738.81
637.352	35780.39
637.706	35584.69
638.06	35894.28
638.413	35774.29
638.767	35656.77
639.121	35719.6
639.474	35549.43
639.828	35703.1
640.181	35694.06
640.534	35712.59
640.888	35678.69
641.241	35440.96
641.594	35550.34
641.947	35724.12
642.301	35600.05
642.654	35622.42
643.007	35695.19
643.36	35554.4
643.713	35712.14
644.066	35783.32
644.419	35585.82
644.771	35254.3
645.124	34989.22
645.477	34944.25
645.83	34710.81
646.182	34617.93
646.535	34601.21
646.888	34712.84
647.24	34492.74
647.593	34752.17
647.945	34687.99
648.298	34613.64
648.65	34530.02
649.002	34233.53
649.355	34624.49
649.707	34642.79
650.059	34580.19
650.411	34898.6
650.763	34972.5
651.115	35419.49
651.467	35345.6
651.819	35348.08
652.171	35168.88
652.523	35251.36
652.875	35232.38
653.227	35127.3
653.578	35401.19
653.93	35282.32
654.282	35108.99
654.633	34954.65
654.985	35209.78
655.337	35009.56
655.688	35134.3
656.039	35173.4
656.391	35002.55
656.742	35083.46
657.094	35053.4
657.445	35039.62
657.796	35086.85
658.147	34905.83
658.498	35012.95
658.849	35183.11
659.2	35115.32
659.551	34947.19
659.902	35123.23
660.253	35034.19
660.604	35064.7
660.955	34900.64
661.306	34971.37
661.656	34955.55
662.007	34948.32
662.358	34932.73
662.708	34888.66
663.059	34967.98
663.409	34673.98
663.76	34930.24
664.11	34961.43
664.461	34939.73
664.811	34900.41
665.161	34985.15
665.511	34748.55
665.862	34839.85
666.212	34991.03
666.562	34929.11
666.912	34892.73
667.262	34904.93
667.612	34864.25
667.962	34900.86
668.312	34829.23
668.662	34927.98
669.011	34901.09
669.361	34839.85
669.711	34787.87
670.06	34712.39
670.41	34633.07
670.76	34685.73
671.109	34814.54
671.459	34723.92
671.808	34692.96
672.157	34876.68
672.507	34591.04
672.856	34630.13
673.205	34641.66
673.554	34821.09
673.904	34497.93
674.253	34763.92
674.602	34755.1
674.951	34085.06
675.3	33889.36
675.649	34534.09
675.998	34487.31
676.346	34497.03
676.695	34636.91
677.044	34316.47
677.393	34473.98
677.741	34542.91
678.09	34292.52
678.438	34347.88
678.787	34397.6
679.135	34267.88
679.484	34139.07
679.832	34279.41
680.181	34071.28
680.529	34204.16
680.877	34137.72
681.225	34046.87
681.573	34232.4
681.922	33996.03
682.27	33883.26
682.618	34022.69
682.966	33810.5
683.314	33991.28
683.661	33772.53
684.009	33606.43
684.357	33610.95
684.705	33521.24
685.053	33537.51
685.4	33541.58
685.748	33476.49
686.095	33447.57
686.443	33310.85
686.79	33362.82
687.138	33407.79
687.485	33212.32
687.832	33161.02
688.18	33265.42
688.527	33086.67
688.874	33019.56
689.221	33041.02
689.568	32954.7
689.915	32924.19
690.262	32857.75
690.609	32771.65
690.956	32653.46
691.303	32597.65
691.65	32365.34
691.997	32499.12
692.344	32199.69
692.69	32164.66
693.037	32243.76
693.383	31841.73
693.73	32115.17
694.077	32003.76
694.423	31926.93
694.769	31877.89
695.116	31674.51
695.462	31629.08
695.808	31594.96
696.155	31707.95
696.501	31393.84
696.847	31417.11
697.193	31180.06
697.539	31300.28
697.885	31032.94
698.231	31048.08
698.577	30929.67
698.923	30820.07
699.269	30759.28
699.614	30568.77
699.96	30612.61
700.306	30648.09
700.651	30643.12
700.997	30458.72
701.342	30406.52
701.688	30347.99
702.033	30178.27
702.379	30142.8
702.724	30205.84
703.069	30223.7
703.415	29904.61
703.76	29816.48
704.105	29842.92
704.45	29818.06
704.795	29610.38
705.14	29545.3
705.485	29585.07
705.83	29453.55
706.175	29559.76
706.52	29425.07
706.865	29225.76
707.209	29228.69
707.554	29198.19
707.899	29198.19
708.243	28988.25
708.588	29081.35
708.932	28871.19
709.277	28733.11
709.621	28905.54
709.966	28669.16
710.31	28741.02
710.654	28444.53
710.998	28540.58
711.342	28516.4
711.687	28551.65
712.031	28237.53
712.375	28184.88
712.719	28200.93
713.063	28182.85
713.407	28272.56
713.75	28060.59
714.094	28115.73
714.438	28010.87
714.782	28028.27
715.125	27914.61
715.469	27860.82
715.812	27698.11
716.156	27528.85
716.499	27615.18
716.843	27551
717.186	27501.51
717.53	27565.69
717.873	27525.24
718.216	27548.96
718.559	27428.52
718.902	27241.63
719.246	27279.14
719.589	27047.06
719.932	27098.13
720.275	27159.37
720.617	26994.4
720.96	26894.07
721.303	26915.99
721.646	27128.86
721.989	26784.69
722.331	26723.9
722.674	26727.74
723.016	26774.75
723.359	26706.73
723.701	26784.47
724.044	26522.33
724.386	26382.22
724.729	26516
725.071	26422.89
725.413	26440.75
725.755	26425.38
726.097	26313.97
726.439	26212.73
726.782	26282.11
727.124	26346.28
727.465	26243.91
727.807	26195.78
728.149	26167.98
728.491	26121.43
728.833	26134.54
729.175	25926.18
729.516	25865.85
729.858	26005.05
730.199	25925.73
730.541	25869.01
730.882	25848.22
731.224	25799.18
731.565	25756.24
731.906	25722.12
732.248	25736.58
732.589	25558.06
732.93	25607.1
733.271	25513.99
733.612	25469.92
733.953	25613.87
734.294	25496.14
734.635	25424.5
734.976	25429.25
735.317	25262.02
735.658	25254.56
735.999	25190.61
736.339	25201.23
736.68	25285.52
737.021	25209.82
737.361	25023.16
737.702	25228.57
738.042	25062.25
738.383	25132.31
738.723	25042.82
739.063	25031.29
739.404	24983.16
739.744	24880.79
740.084	24701.81
740.424	24850.96
740.764	24741.58
741.104	24941.58
741.444	24621.58
741.784	24611.42
742.124	24763.28
742.464	24610.51
742.804	24530.74
743.143	24582.26
743.483	24633.34
743.823	24403.96
744.162	24411.19
744.502	24481.25
744.841	24302.04
745.181	24384.3
745.52	24266.11
745.86	24302.27
746.199	24335.04
746.538	24216.4
746.877	24247.81
747.216	24247.13
747.556	24187.7
747.895	24072.67
748.234	24001.94
748.573	24011.2
748.911	23884.2
749.25	23902.51
749.589	23721.95
749.928	23757.65
750.267	23765.79
750.605	23728.73
750.944	23742.74
751.283	23595.4
751.621	23612.12
751.96	23501.39
752.298	23610.31
752.636	23565.57
752.975	23445.57
753.313	23324.67
753.651	23417.55
753.989	23269.76
754.327	23296.65
754.666	23156.54
755.004	23201.73
755.342	23103.21
755.679	23157.44
756.017	23038.58
756.355	23088.97
756.693	22908.18
757.031	22903.66
757.368	22790.67
757.706	22748.87
758.044	22695.31
758.381	22767.17
758.719	22597.23
759.056	22580.51
759.394	22548.42
759.731	22509.1
760.068	22329.22
760.405	22254.87
760.743	22280.4
761.08	22324.47
761.417	22078.37
761.754	22081.99
762.091	22115.21
762.428	21980.07
762.765	21861.43
763.102	21911.6
763.438	21751.15
763.775	21625.73
764.112	21689.91
764.449	21689.01
764.785	21504.38
765.122	21453.08
765.458	21343.93
765.795	21283.82
766.131	21261.9
766.467	21225.52
766.804	21044.28
767.14	21016.71
767.476	21046.54
767.812	20849.25
768.148	20927.22
768.485	20815.36
768.821	20599.77
769.157	20697.17
769.492	20580.11
769.828	20601.58
770.164	20361.81
770.5	20428.93
770.836	20300.12
771.171	20219.67
771.507	20139.67
771.842	19959.79
772.178	19965.21
772.513	19957.3
772.849	19921.82
773.184	19767.47
773.519	19851.54
773.855	19693.8
774.19	19726.35
774.525	19635.27
774.86	19561.38
775.195	19528.16
775.53	19465.11
775.865	19328.39
776.2	19157.32
776.535	19096.31
776.87	19066.7
777.205	19007.72
777.539	19020.38
777.874	19008.4
778.209	18775.41
778.543	18758.91
778.878	18628.52
779.212	18660.16
779.547	18550.78
779.881	18604.79
780.215	18324.8
780.55	18573.16
780.884	18379.04
781.218	18279.38
781.552	18291.36
781.886	18145.6
782.22	18131.36
782.554	18010.46
782.888	17778.6
783.222	17772.27
783.556	17812.05
783.889	17732.73
784.223	17579.51
784.557	17509.45
784.89	17623.8
785.224	17404.6
785.557	17438.5
785.891	17438.72
786.224	17208.67
786.558	17212.97
786.891	17078.05
787.224	17040.09
787.557	16999.19
787.891	17001.22
788.224	16878.29
788.557	16907.21
788.89	16817.27
789.223	16871.96
789.556	16604.39
789.888	16608.46
790.221	16545.41
790.554	16476.94
790.887	16445.08
791.219	16382.48
791.552	16329.15
791.884	16192.65
792.217	16137.74
792.549	16142.26
792.882	16010.74
793.214	15943.17
793.546	15968.93
793.879	15914.47
794.211	15774.81
794.543	15834.47
794.875	15775.26
795.207	15732.33
795.539	15732.33
795.871	15657.53
796.203	15555.16
796.535	15381.6
796.867	15442.16
797.198	15409.62
797.53	15432.9
797.862	15317.87
798.193	15286.01
798.525	15116.98
798.856	15283.52
799.188	15080.82
799.519	15013.48
799.85	14980.03
800.182	15059.58
800.513	14924.44
800.844	14779.81
801.175	14928.73
801.506	14846.25
801.837	14720.15
802.168	14791.33
802.499	14736.65
802.83	14625.01
803.161	14586.37
803.491	14553.6
803.822	14512.47
804.153	14414.17
804.483	14312.25
804.814	14243.33
805.145	14344.79
805.475	14326.04
805.805	14244
806.136	14177.11
806.466	14229.54
806.796	14028.87
807.126	14017.8
807.457	14060.96
807.787	14007.17
808.117	13941.64
808.447	13823.45
808.777	13950.23
809.107	13837.69
809.436	13746.84
809.766	13739.38
810.096	13644.92
810.426	13749.78
810.755	13660.52
811.085	13635.66
811.414	13602.21
811.744	13516.79
812.073	13417.59
812.403	13452.39
812.732	13441.99
813.061	13389.56
813.39	13285.84
813.719	13242.67
814.049	13245.16
814.378	13355.21
814.707	13249.23
815.036	13206.74
815.365	13144.6
815.693	13024.83
816.022	13033.19
816.351	12968.11
816.68	12882.46
817.008	12968.33
817.337	12837.26
817.665	12809.24
817.994	12810.6
818.322	12854.44
818.651	12786.19
818.979	12719.98
819.307	12792.06
819.636	12742.8
819.964	12639.3
820.292	12653.99
820.62	12687.66
820.948	12662.12
821.276	12677.27
821.604	12620.77
821.932	12630.71
822.259	12646.76
822.587	12602.01
822.915	12524.05
823.243	12607.89
823.57	12542.58
823.898	12619.64
824.225	12552.98
824.553	12586.87
824.88	12546.42
825.207	12581.67
825.535	12572.64
825.862	12526.99
826.189	12535.35
826.516	12583.03
826.843	12499.42
827.17	12503.26
827.497	12576.48
827.824	12571.28
828.151	12531.28
828.478	12500.55
828.805	12588
829.131	12518.17
829.458	12482.92
829.785	12424.16
830.111	12459.64
830.438	12517.5
830.764	12519.53
831.09	12595.91
831.417	12458.51
831.743	12442.47
832.069	12455.12
832.395	12471.17
832.722	12495.58
833.048	12438.85
833.374	12404.28
833.7	12468.68
834.026	12503.03
834.351	12406.31
834.677	12491.06
835.003	12454.67
835.329	12419.42
835.654	12292.42
835.98	12281.57
836.306	12306.43
836.631	12281.12
836.956	12364.96
837.282	12337.39
837.607	12288.12
837.932	12153.66
838.258	12114.12
838.583	12150.73
838.908	12060.78
839.233	12145.75
839.558	12111.18
839.883	12090.16
840.208	11971.97
840.533	12000.45
840.858	11991.18
841.182	11995.02
841.507	12010.62
841.832	11935.14
842.156	11897.4
842.481	11928.13
842.805	11896.72
843.13	11830.51
843.454	11751.41
843.778	11721.58
844.103	11748.48
844.427	11719.1
844.751	11713.22
845.075	11685.2
845.399	11678.65
845.723	11639.78
846.047	11552.32
846.371	11457.18
846.695	11511.65
847.019	11387.58
847.343	11367.47
847.666	11290.41
847.99	11264.65
848.313	11228.49
848.637	11160.02
848.96	11140.81
849.284	11156.18
849.607	11102.17
849.931	11046.8
850.254	10956.41
850.577	10889.97
850.9	10843.64
851.223	10875.28
851.546	10774.49
851.869	10637.09
852.192	10814.04
852.515	10679.58
852.838	10580.6
853.161	10634.16
853.483	10571.33
853.806	10504.67
854.129	10460.37
854.451	10413.82
854.774	10456.76
855.096	10387.38
855.419	10347.38
855.741	10334.73
856.063	10239.14
856.385	10262.19
856.708	10088.18
857.03	10174.05
857.352	10178.12
857.674	10151.68
857.996	10160.27
858.318	10080.27
858.64	10039.14
858.961	10020.84
859.283	9943.33
859.605	9898.36
859.926	9957.11
860.248	9934.96
860.57	9824.46
860.891	9926.38
861.212	9791.92
861.534	9779.71
861.855	9735.2
862.176	9768.87
862.498	9793.5
862.819	9734.74
863.14	9730.68
863.461	9667.18
863.782	9627.4
864.103	9638.93
864.424	9601.87
864.745	9626.5
865.065	9555.99
865.386	9494.07
865.707	9562.55
866.027	9555.09
866.348	9506.95
866.668	9514.86
866.989	9460.85
867.309	9461.98
867.63	9425.83
867.95	9397.13
868.27	9339.05
868.59	9333.85
868.91	9370.46
869.23	9312.16
869.55	9292.95
869.87	9370.91
870.19	9306.51
870.51	9330.91
870.83	9334.53
871.15	9270.12
871.469	9277.13
871.789	9256.56
872.109	9171.37
872.428	9229.22
872.748	9189
873.067	9167.53
873.386	9208.88
873.706	9167.75
874.025	9071.48
874.344	9025.38
874.663	9128.66
874.982	9066.29
875.301	9088.89
875.62	9005.05
875.939	9035.55
876.258	9013.18
876.577	9032.62
876.896	8987.65
877.214	8995.1
877.533	8925.27
877.852	8998.27
878.17	8953.52
878.489	8993.97
878.807	8929.12
879.125	8939.06
879.444	8901.32
879.762	8894.77
880.08	8807.99
880.398	8809.12
880.716	8837.59
881.034	8772.74
881.352	8764.37
881.67	8761.44
881.988	8759.63
882.306	8763.24
882.624	8712.62
882.941	8645.06
883.259	8736.58
883.577	8669.91
883.894	8585.85
884.212	8650.93
884.529	8567.09
884.846	8583.81
885.164	8568.22
885.481	8551.5
885.798	8504.49
886.115	8471.05
886.432	8459.3
886.75	8473.76
887.067	8421.78
887.383	8405.06
887.7	8456.81
888.017	8373.88
888.334	8398.73
888.651	8306.76
888.967	8360.32
889.284	8213.65
889.6	8211.17
889.917	8198.29
890.233	8192.19
890.55	8124.62
890.866	8169.59
891.182	8139.53
891.498	8093.43
891.815	8095.24
892.131	8068.35
892.447	8043.72
892.763	8010.27
893.079	8041.68
893.395	7962.59
893.71	7954.45
894.026	7918.75
894.342	7869.48
894.657	7904.96
894.973	7840.56
895.289	7798.07
895.604	7800.78
895.92	7756.49
896.235	7678.53
896.55	7727.79
896.865	7668.58
897.181	7710.16
897.496	7690.28
897.811	7658.19
898.126	7590.85
898.441	7549.94
898.756	7595.37
899.071	7522.15
899.386	7469.49
899.7	7460.91
900.015	7413
900.33	7405.09
900.644	7337.74
900.959	7334.81
901.273	7327.12
901.588	7277.63
901.902	7317.18
902.216	7252.1
902.531	7198.99
902.845	7185.21
903.159	7162.38
903.473	7133.91
903.787	7058.88
904.101	7039.22
904.415	7045.55
904.729	6999
905.042	6962.84
905.356	7009.17
905.67	6964.2
905.984	7005.32
906.297	6900.47
906.611	6881.71
906.924	6895.27
907.237	6873.12
907.551	6836.52
907.864	6792.9
908.177	6793.13
908.491	6808.72
908.804	6720.13
909.117	6676.75
909.43	6659.57
909.743	6638.78
910.056	6625
910.368	6540.7
910.681	6521.95
910.994	6520.59
911.307	6537.77
911.619	6409.86
911.932	6459.8
912.244	6385.45
912.557	6364.89
912.869	6322.4
913.181	6328.51
913.494	6358.79
913.806	6279.24
914.118	6274.72
914.43	6268.62
914.742	6228.17
915.054	6122.18
915.366	6204.67
915.678	6127.16
915.99	6116.53
916.302	6085.12
916.613	6042.64
916.925	6032.92
917.236	6073.82
917.548	5992.24
917.859	5913.83
918.171	5948.4
918.482	5909.76
918.794	5880.61
919.105	5906.6
919.416	5825.02
919.727	5829.76
920.038	5798.12
920.349	5772.59
920.66	5726.04
920.971	5777.33
921.282	5697.56
921.593	5613.27
921.903	5627.96
922.214	5616.21
922.525	5625.25
922.835	5561.97
923.146	5521.3
923.456	5553.16
923.767	5535.53
924.077	5506.15
924.387	5468.42
924.697	5425.93
925.008	5393.84
925.318	5433.61
925.628	5446.27
925.938	5355.42
926.248	5355.42
926.558	5314.3
926.867	5302.77
927.177	5233.17
927.487	5280.4
927.796	5199.72
928.106	5165.82
928.416	5218.93
928.725	5143.9
929.034	5149.55
929.344	5138.03
929.653	5037.01
929.962	5068.2
930.271	5052.16
930.581	4997.02
930.89	5013.29
931.199	4985.72
931.508	4978.03
931.817	4958.15
932.125	4967.86
932.434	4922.22
932.743	4895.55
933.051	4863.46
933.36	4844.48
933.669	4780.52
933.977	4768.32
934.286	4799.73
934.594	4784.37
934.902	4722.9
935.21	4668.66
935.519	4704.59
935.827	4701.66
936.135	4701.66
936.443	4655.33
936.751	4572.85
937.059	4594.99
937.367	4531.49
937.674	4563.13
937.982	4547.08
938.29	4533.98
938.597	4541.66
938.905	4445.17
939.213	4484.03
939.52	4434.77
939.827	4433.19
940.135	4394.77
940.442	4411.72
940.749	4343.93
941.056	4381.66
941.363	4316.36
941.67	4316.36
941.977	4292.18
942.284	4253.98
942.591	4262.35
942.898	4245.62
943.205	4242.46
943.511	4218.05
943.818	4248.79
944.125	4169.69
944.431	4119.3
944.738	4131.73
945.044	4122.91
945.35	4082.69
945.657	4080.43
945.963	4080.43
946.269	4049.7
946.575	4050.15
946.881	4012.63
947.187	4010.6
947.493	3991.84
947.799	3985.29
948.105	3945.97
948.41	3908.91
948.716	3898.51
949.022	3870.04
949.327	3864.39
949.633	3842.47
949.938	3859.87
950.244	3831.17
950.549	3826.2
950.854	3795.01
951.16	3748.69
951.465	3746.65
951.77	3738.74
952.075	3755.24
952.38	3689.48
952.685	3724.96
952.99	3700.1
953.294	3691.06
953.599	3660.78
953.904	3623.49
954.209	3600.67
954.513	3593.66
954.818	3578.97
955.122	3594.11
955.426	3559.09
955.731	3545.08
956.035	3538.07
956.339	3520.22
956.643	3483.83
956.948	3487.9
957.252	3467.34
957.556	3449.49
957.86	3439.54
958.163	3423.05
958.467	3418.3
958.771	3410.62
959.075	3372.65
959.378	3394.8
959.682	3393.67
959.985	3312.99
960.289	3345.76
960.592	3367.68
960.896	3324.97
961.199	3267.8
961.502	3260.56
961.805	3226.67
962.108	3200
962.411	3228.7
962.714	3225.54
963.017	3220.11
963.32	3202.26
963.623	3169.49
963.926	3161.81
964.228	3164.52
964.531	3143.73
964.833	3136.95
965.136	3093.56
965.438	3125.65
965.741	3054.02
966.043	3049.27
966.345	3064.86
966.648	3035.71
966.95	3029.16
967.252	2975.37
967.554	3025.54
967.856	2992.1
968.158	2964.3
968.46	2969.95
968.761	2960.23
969.063	2946
969.365	2928.37
969.666	2894.02
969.968	2880.46
970.269	2873.91
970.571	2870.74
970.872	2902.61
971.174	2881.59
971.475	2844.08
971.776	2825.1
972.077	2794.81
972.378	2799.56
972.679	2787.13
972.98	2753.01
973.281	2749.84
973.582	2764.76
973.883	2748.26
974.183	2735.38
974.484	2704.87
974.785	2696.06
975.085	2705.78
975.386	2697.87
975.686	2686.12
975.986	2685.89
976.287	2694.7
976.587	2606.34
976.887	2628.72
977.187	2642.73
977.487	2571.54
977.787	2619.45
978.087	2571.54
978.387	2553.69
978.687	2563.86
978.987	2558.21
979.286	2534.03
979.586	2527.93
979.885	2516.4
980.185	2521.15
980.484	2498.1
980.784	2501.94
981.083	2464.2
981.382	2512.11
981.682	2447.48
981.981	2463.75
982.28	2454.94
982.579	2426.01
982.878	2437.76
983.177	2419
983.475	2374.26
983.774	2372.23
984.073	2354.6
984.372	2346.69
984.67	2374.26
984.969	2344.88
985.267	2355.96
985.566	2311.89
985.864	2304.2
986.162	2282.96
986.461	2309.63
986.759	2291.55
987.057	2233.02
987.355	2254.71
987.653	2238.44
987.951	2225.79
988.249	2252.68
988.547	2230.76
988.844	2219.69
989.142	2173.59
989.44	2211.55
989.737	2191.21
990.035	2154.15
990.332	2150.31
990.63	2142.85
990.927	2150.31
991.224	2119.8
991.521	2102.63
991.819	2109.41
992.116	2102.4
992.413	2090.2
992.71	2085.91
993.006	2078.9
993.303	2103.31
993.6	2083.19
993.897	2053.36
994.193	2048.84
994.49	2021.5
994.787	2036.64
995.083	1959.13
995.379	1990.09
995.676	2002.97
995.972	1987.83
996.268	1978.11
996.565	1958.23
996.861	1955.74
997.157	1932.46
997.453	1980.6
997.749	1926.36
998.044	1924.78
998.34	1918.23
998.636	1887.49
998.932	1904.22
999.227	1857.44
999.523	1877.32
999.818	1854.73
1000.114	1866.48
1000.409	1849.98
1000.704	1802.52
1001	1833.71
1001.295	1824.44
1001.59	1812.01
1001.885	1802.98
1002.18	1774.5
1002.475	1764.11
1002.77	1754.16
1003.065	1742.19
1003.359	1738.57
1003.654	1739.47
1003.949	1722.07
1004.243	1717.33
1004.538	1695.63
1004.832	1715.97
1005.127	1712.81
1005.421	1703.99
1005.715	1672.36
1006.009	1680.49
1006.304	1668.29
1006.598	1655.41
1006.892	1631.23
1007.186	1647.5
1007.48	1633.04
1007.773	1600.95
1008.067	1585.35
1008.361	1584
1008.655	1585.13
1008.948	1572.7
1009.242	1574.96
1009.535	1530.89
1009.829	1544
1010.122	1567.05
1010.415	1564.79
1010.708	1561.85
1011.001	1494.51
1011.295	1491.12
1011.588	1505.36
1011.881	1480.27
1012.173	1477.11
1012.466	1486.15
1012.759	1491.8
1013.052	1478.92
1013.344	1468.29
1013.637	1443.44
1013.93	1438.69
1014.222	1416.77
1014.514	1402.99
1014.807	1420.16
1015.099	1405.92
1015.391	1404.12
1015.683	1400.95
1015.976	1377.45
1016.268	1373.61
1016.56	1371.35
1016.851	1364.34
1017.143	1361.86
1017.435	1336.09
1017.727	1329.54
1018.018	1302.88
1018.31	1328.86
1018.602	1323.67
1018.893	1305.36
1019.185	1296.32
1019.476	1307.4
1019.767	1294.06
1020.058	1279.83
1020.35	1256.32
1020.641	1298.36
1020.932	1258.36
1021.223	1232.37
1021.514	1223.33
1021.804	1230.33
1022.095	1234.4
1022.386	1235.08
1022.677	1187.85
1022.967	1202.76
1023.258	1181.75
1023.548	1196.21
1023.839	1174.07
1024.129	1154.18
1024.419	1151.24
1024.709	1133.39
1025	1144.24
1025.29	1145.37
1025.58	1120.28
1025.87	1122.09
1026.16	1108.53
1026.449	1130
1026.739	1130.22
1027.029	1115.54
1027.319	1068.98
1027.608	1079.15
1027.898	1094.97
1028.187	1068.31
1028.477	1058.14
1028.766	1057.46
1029.055	1036.22
1029.344	1010.91
1029.634	1025.82
1029.923	1048.19
1030.212	1023.79
1030.501	1014.52
1030.79	1012.94
1031.078	987.4
1031.367	998.25
1031.656	1002.77
1031.945	1007.29
1032.233	964.35
1032.522	960.51
1032.81	952.83
1033.099	948.53
1033.387	956.9
1033.675	951.25
1033.963	931.81
1034.251	941.08
1034.54	937.01
1034.828	927.52
1035.116	923.68
1035.403	913.73
1035.691	916.67
1035.979	918.25
1036.267	916.22
1036.554	907.18
1036.842	877.58
1037.129	893.39
1037.417	874.19
1037.704	886.16
1037.992	851.59
1038.279	881.64
1038.566	846.84
1038.853	846.84
1039.14	846.84
