Data from hue_130_FLMS001491_00016.txt Node
Date: Tue Feb 07 16:57:14 GMT 2017
User: dcchb
Spectrometer: FLMS00149
Trigger mode: 0
Integration Time (sec): 2.000000E-2
Scans to average: 10
Electric dark correction enabled: true
Nonlinearity correction enabled: false
Boxcar width: 0
XAxis mode: Wavelengths
Number of Pixels in Spectrum: 2048
>>>>>Begin Spectral Data<<<<<
341.393	-2.54
341.776	-2.54
342.16	-2.54
342.543	-77.12
342.927	-86.16
343.31	-65.59
343.693	-70.56
344.077	-68.76
344.46	-54.52
344.843	-28.53
345.226	-37.8
345.61	-26.72
345.993	-34.41
346.376	-7.51
346.759	16.44
347.142	29.1
347.525	36.78
347.908	65.48
348.291	73.39
348.674	69.55
349.057	103.67
349.44	131.69
349.823	123.33
350.206	142.31
350.588	174.18
350.971	195.87
351.354	218.02
351.737	225.47
352.119	250.33
352.502	242.65
352.884	281.07
353.267	288.98
353.65	285.13
354.032	309.54
354.414	306.15
354.797	309.77
355.179	309.09
355.562	313.61
355.944	303.89
356.326	325.36
356.709	336.43
357.091	335.3
357.473	354.74
357.855	335.53
358.238	318.35
358.62	310.9
359.002	338.24
359.384	342.08
359.766	347.05
360.148	347.5
360.53	346.15
360.912	329.88
361.294	327.84
361.676	320.84
362.057	319.26
362.439	332.82
362.821	341.86
363.203	318.58
363.584	327.39
363.966	324.45
364.348	321.07
364.729	306.15
365.111	329.43
365.493	332.59
365.874	318.81
366.256	332.82
366.637	292.37
367.019	308.41
367.4	286.72
367.781	295.08
368.163	283.1
368.544	324
368.925	326.49
369.306	297.11
369.688	288.75
370.069	302.99
370.45	300.05
370.831	322.87
371.212	314.96
371.593	320.39
371.974	302.99
372.355	313.61
372.736	315.87
373.117	328.75
373.498	309.77
373.879	306.83
374.26	326.49
374.641	303.66
375.021	306.6
375.402	331.91
375.783	305.25
376.163	339.6
376.544	329.2
376.925	320.84
377.305	319.94
377.686	321.07
378.066	327.84
378.447	333.72
378.827	308.64
379.208	320.84
379.588	356.54
379.968	326.04
380.349	346.38
380.729	349.09
381.109	344.57
381.489	345.02
381.87	340.27
382.25	320.61
382.63	320.16
383.01	341.18
383.39	347.96
383.77	334.62
384.15	340.73
384.53	339.6
384.91	339.6
385.29	352.93
385.67	342.99
386.049	326.94
386.429	344.34
386.809	355.19
387.189	337.56
387.568	358.8
387.948	328.07
388.328	349.76
388.707	339.37
389.087	349.76
389.466	350.44
389.846	354.06
390.225	355.64
390.605	358.13
390.984	373.49
391.363	360.84
391.743	369.65
392.122	366.26
392.501	362.65
392.881	349.31
393.26	358.13
393.639	368.07
394.018	375.53
394.397	377.56
394.776	367.62
395.155	355.87
395.534	381.4
395.913	380.27
396.292	371.69
396.671	397
397.05	399.26
397.429	367.62
397.808	389.09
398.186	382.76
398.565	395.64
398.944	371.23
399.323	395.64
399.701	369.2
400.08	356.54
400.458	382.53
400.837	388.86
401.215	415.98
401.594	407.84
401.972	404.68
402.351	406.49
402.729	406.94
403.107	396.09
403.486	403.1
403.864	409.88
404.242	404.23
404.62	411.91
404.999	417.56
405.377	409.2
405.755	444.9
406.133	421.18
406.511	429.31
406.889	433.6
407.267	418.01
407.645	435.64
408.023	429.31
408.401	446.94
408.779	446.71
409.156	427.5
409.534	440.61
409.912	465.24
410.29	451.23
410.667	442.64
411.045	442.19
411.422	430.44
411.8	472.7
412.178	439.25
412.555	476.99
412.933	470.44
413.31	464.34
413.687	485.13
414.065	481.51
414.442	507.27
414.819	488.97
415.197	505.01
415.574	492.81
415.951	514.96
416.328	494.39
416.705	486.94
417.082	499.82
417.46	495.07
417.837	512.25
418.214	505.92
418.591	490.78
418.967	515.64
419.344	506.37
419.721	493.26
420.098	534.62
420.475	524.68
420.852	507.27
421.228	527.16
421.605	535.52
421.982	519.48
422.358	531.45
422.735	548.4
423.111	520.61
423.488	561.06
423.864	558.8
424.241	555.86
424.617	553.6
424.994	561.51
425.37	592.02
425.746	575.3
426.123	563.77
426.499	572.13
426.875	568.52
427.251	588.4
427.627	599.48
428.003	587.05
428.379	594.05
428.756	615.52
429.132	613.94
429.507	630.89
429.883	608.97
430.259	621.17
430.635	635.86
431.011	639.02
431.387	653.94
431.763	634.96
432.138	628.85
432.514	642.86
432.89	662.52
433.265	659.14
433.641	669.53
434.016	665.46
434.392	680.83
434.767	674.95
435.143	692.13
435.518	704.11
435.894	692.35
436.269	693.03
436.644	723.09
437.02	726.25
437.395	730.32
437.77	733.03
438.145	735.29
438.52	743.2
438.895	735.52
439.271	756.08
439.646	767.83
440.021	776.19
440.395	770.54
440.77	767.38
441.145	771.22
441.52	787.95
441.895	763.54
442.27	794.95
442.645	787.49
443.019	809.64
443.394	777.1
443.769	823.42
444.143	823.88
444.518	812.35
444.892	791.11
445.267	807.83
445.641	829.75
446.016	840.37
446.39	851.67
446.764	855.06
447.139	858.68
447.513	854.38
447.887	855.51
448.262	870.66
448.636	894.61
449.01	876.53
449.384	889.64
449.758	903.42
450.132	882.18
450.506	906.59
450.88	912.69
451.254	902.29
451.628	935.06
452.002	935.96
452.376	960.37
452.75	956.53
453.123	963.08
453.497	989.75
453.871	985.68
454.244	995.4
454.618	997.21
454.992	1004.44
455.365	1023.19
455.739	1039.24
456.112	1018.45
456.486	1026.36
456.859	1066.36
457.232	1076.07
457.606	1073.14
457.979	1100.93
458.352	1104.55
458.725	1101.84
459.099	1142.51
459.472	1152.46
459.845	1173.02
460.218	1169.18
460.591	1189.06
460.964	1182.29
461.337	1225.9
461.71	1245.79
462.083	1264.54
462.456	1251.89
462.829	1274.49
463.201	1264.09
463.574	1290.31
463.947	1308.16
464.32	1345.22
464.692	1361.94
465.065	1378.21
465.438	1372.11
465.81	1410.08
466.183	1410.98
466.555	1447.82
466.928	1466.57
467.3	1453.69
467.672	1507.02
468.045	1546.57
468.417	1544.08
468.789	1568.49
469.161	1615.27
469.534	1604.87
469.906	1677.19
470.278	1689.62
470.65	1711.54
471.022	1738.2
471.394	1794.02
471.766	1797.64
472.138	1835.38
472.51	1911.31
472.882	1919.44
473.253	1954.92
473.625	2003.51
473.997	2028.82
474.369	2062.26
474.74	2117.85
475.112	2177.29
475.484	2224.52
475.855	2264.06
476.227	2348.13
476.598	2374.8
476.97	2448.01
477.341	2514.45
477.713	2540.89
478.084	2595.13
478.455	2679.65
478.827	2775.24
479.198	2835.8
479.569	2904.5
479.94	2996.47
480.311	3019.75
480.682	3160.09
481.053	3224.72
481.424	3316.01
481.795	3399.85
482.166	3503.35
482.537	3551.94
482.908	3648.44
483.279	3777.02
483.65	3885.72
484.021	3984.92
484.391	4101.76
484.762	4150.79
485.133	4252.26
485.503	4352.15
485.874	4504.23
486.244	4573.83
486.615	4713.49
486.985	4858.12
487.356	5001.85
487.726	5064.67
488.097	5281.16
488.467	5334.72
488.837	5485.45
489.207	5619.46
489.578	5726.35
489.948	5886.79
490.318	6012.89
490.688	6068.26
491.058	6296.95
491.428	6425.99
491.798	6510.05
492.168	6750.05
492.538	6831.85
492.908	6944.39
493.278	7089.02
493.648	7196.36
494.017	7404.27
494.387	7504.38
494.757	7667.99
495.126	7803.35
495.496	7797.03
495.866	7957.02
496.235	8100.3
496.605	8251.93
496.974	8271.59
497.344	8535.76
497.713	8535.31
498.082	8658.92
498.452	8771.69
498.821	8943.89
499.19	8957.9
499.559	9141.17
499.928	9251.68
500.298	9324.9
500.667	9455.29
501.036	9529.41
501.405	9655.51
501.774	9695.96
502.143	9887.14
502.512	9883.3
502.88	9988.83
503.249	9986.8
503.618	10201.71
503.987	10178.21
504.356	10303.63
504.724	10422.72
505.093	10462.27
505.462	10565.09
505.83	10631.3
506.199	10770.51
506.567	10804.41
506.936	10837.4
507.304	11083.95
507.672	11104.28
508.041	11166.43
508.409	11222.93
508.777	11293.43
509.145	11368.23
509.514	11365.07
509.882	11511.96
510.25	11576.59
510.618	11649.13
510.986	11640.09
511.354	11782.23
511.722	11801.67
512.09	11953.75
512.458	11932.96
512.826	11951.49
513.193	12020.42
513.561	12124.37
513.929	12156.01
514.297	12253.41
514.664	12358.49
515.032	12307.19
515.4	12431.71
515.767	12413.63
516.135	12476.68
516.502	12372.95
516.869	12522.55
517.237	12615.21
517.604	12523.46
517.972	12685.26
518.339	12701.3
518.706	12690.23
519.073	12763
519.44	12720.74
519.808	12843
520.175	12862.2
520.542	12901.75
520.909	12973.16
521.276	12914.86
521.643	12995.76
522.009	13089.32
522.376	13143.1
522.743	13161.86
523.11	13193.72
523.477	13284.57
523.843	13311.01
524.21	13423.09
524.577	13490.89
524.943	13429.42
525.31	13449.53
525.676	13489.53
526.043	13608.85
526.409	13554.84
526.776	13673.03
527.142	13636.87
527.508	13653.6
527.874	13668.06
528.241	13737.89
528.607	13652.01
528.973	13737.21
529.339	13710.77
529.705	13797.32
530.071	13758.9
530.437	13759.81
530.803	13798.9
531.169	13860.6
531.535	13744.89
531.901	13806.36
532.267	13821.5
532.632	13779.47
532.998	13775.17
533.364	13884.78
533.73	13836.64
534.095	13894.49
534.461	13748.96
534.826	13852.01
535.192	13763.42
535.557	13832.35
535.923	13752.12
536.288	13732.01
536.653	13756.87
537.019	13638.23
537.384	13720.94
537.749	13718.45
538.114	13655.4
538.479	13605.91
538.845	13639.81
539.21	13525.24
539.575	13595.29
539.94	13558.01
540.305	13595.07
540.67	13478.91
541.034	13485.46
541.399	13494.96
541.764	13426.94
542.129	13386.03
542.494	13354.62
542.858	13369.31
543.223	13438.46
543.587	13296.77
543.952	13263.55
544.316	13214.96
544.681	13232.82
545.045	13160.95
545.41	13198.69
545.774	13186.72
546.138	13068.75
546.503	13038.7
546.867	12925.03
547.231	13081.86
547.595	12978.59
547.959	12994.18
548.324	13002.54
548.688	12934.29
549.052	12880.96
549.416	12950.56
549.779	12861.75
550.143	12774.52
550.507	12913.95
550.871	12772.04
551.235	12680.97
551.599	12805.71
551.962	12689.55
552.326	12682.1
552.689	12691.14
553.053	12655.66
553.417	12536.34
553.78	12637.13
554.143	12521.42
554.507	12616.79
554.87	12560.74
555.234	12718.93
555.597	12524.13
555.96	12514.64
556.323	12515.32
556.686	12450.46
557.05	12499.5
557.413	12413.4
557.776	12414.08
558.139	12476
558.502	12448.66
558.865	12422.22
559.228	12453.63
559.59	12381.54
559.953	12414.53
560.316	12477.36
560.679	12457.47
561.041	12533.17
561.404	12468.77
561.767	12524.81
562.129	12411.14
562.492	12587.41
562.854	12418.37
563.217	12468.99
563.579	12451.37
563.941	12502.44
564.304	12474.19
564.666	12560.74
565.028	12516.22
565.39	12544.7
565.753	12557.81
566.115	12567.52
566.477	12619.05
566.839	12615.43
567.201	12673.06
567.563	12732.72
567.925	12688.2
568.287	12680.29
568.648	12607.75
569.01	12740.4
569.372	12744.24
569.734	12698.14
570.095	12780.4
570.457	12766.61
570.819	12764.81
571.18	12795.31
571.542	12821.98
571.903	12777.69
572.265	12795.99
572.626	12800.28
572.987	12848.42
573.349	12903.79
573.71	12923.9
574.071	12868.31
574.432	12887.74
574.794	13061.75
575.155	12909.43
575.516	12819.04
575.877	12909.21
576.238	12932.71
576.599	12932.03
576.96	12879.15
577.32	12951.02
577.681	12986.95
578.042	12970.45
578.403	13002.54
578.763	12945.14
579.124	12919.15
579.485	12969.55
579.845	12988.53
580.206	13039.15
580.566	12974.74
580.927	12937.91
581.287	12984.91
581.648	13028.75
582.008	12999.6
582.368	12970.9
582.728	13036.66
583.089	12946.27
583.449	12929.1
583.809	12937.91
584.169	13022.43
584.529	12944.46
584.889	13057.68
585.249	12908.08
585.609	12917.57
585.969	12992.37
586.329	12877.57
586.688	12892.26
587.048	12897.23
587.408	12797.57
587.768	12831.47
588.127	12821.75
588.487	12733.17
588.846	12837.8
589.206	12744.24
589.565	12753.51
589.925	12846.16
590.284	12798.93
590.643	12786.95
591.003	12766.39
591.362	12879.6
591.721	12834.86
592.08	12788.76
592.44	12784.92
592.799	12766.84
593.158	12764.13
593.517	12802.32
593.876	12858.36
594.235	12692.49
594.593	12774.97
594.952	12727.74
595.311	12713.96
595.67	12709.67
596.029	12765.03
596.387	12781.53
596.746	12730.23
597.104	12663.11
597.463	12732.04
597.822	12836.22
598.18	12636.67
598.538	12683.68
598.897	12753.96
599.255	12644.58
599.613	12876.22
599.972	12686.62
600.33	12809.55
600.688	12653.62
601.046	12687.07
601.404	12690.23
601.762	12721.87
602.12	12735.88
602.478	12792.38
602.836	12732.49
603.194	12595.32
603.552	12706.5
603.91	12662.66
604.268	12693.85
604.625	12623.79
604.983	12687.07
605.341	12679.84
605.698	12673.06
606.056	12697.01
606.413	12614.53
606.771	12795.77
607.128	12763
607.485	12721.64
607.843	12713.96
608.2	12770.46
608.557	12808.19
608.914	12762.32
609.272	12812.04
609.629	12899.72
609.986	12886.61
610.343	12854.97
610.7	12912.6
611.057	12879.83
611.414	12813.84
611.771	12823.56
612.127	12907.85
612.484	12808.42
612.841	12902.43
613.198	12906.04
613.554	12874.41
613.911	13021.3
614.267	12972.26
614.624	12970.9
614.98	12947.63
615.337	12965.25
615.693	12984.23
616.05	12918.93
616.406	13024.23
616.762	12999.15
617.118	12997.34
617.475	13016.1
617.831	13063.78
618.187	13061.52
618.543	13024.69
618.899	13025.82
619.255	13083.22
619.611	13058.81
619.967	13110.33
620.323	13196.21
620.678	13024.69
621.034	13074.63
621.39	13111.69
621.746	12976.55
622.101	13170.22
622.457	13077.11
622.812	13085.93
623.168	13142.65
623.523	13200.5
623.879	13207.28
624.234	13097.45
624.589	13122.08
624.945	13143.1
625.3	13153.27
625.655	13143.33
626.01	13121.63
626.365	13168.18
626.72	13103.1
627.075	13086.83
627.43	13112.37
627.785	13082.31
628.14	13020.39
628.495	13104.68
628.85	13089.09
629.205	13052.03
629.559	13104.23
629.914	13086.15
630.269	12997.12
630.623	12975.65
630.978	13008.19
631.332	13068.3
631.687	13040.5
632.041	13023.1
632.396	12938.81
632.75	12979.72
633.104	12951.47
633.459	12852.26
633.813	12930.68
634.167	12829.66
634.521	12912.82
634.875	12967.06
635.229	12913.5
635.583	12836.44
635.937	12860.4
636.291	12787.18
636.645	12800.74
636.999	12735.2
637.352	12812.49
637.706	12706.5
638.06	12767.97
638.413	12766.61
638.767	12714.64
639.121	12773.84
639.474	12578.6
639.828	12681.87
640.181	12661.76
640.534	12743.56
640.888	12614.75
641.241	12612.49
641.594	12553.29
641.947	12653.17
642.301	12605.94
642.654	12630.12
643.007	12579.5
643.36	12480.29
643.713	12525.94
644.066	12632.38
644.419	12513.29
644.771	12408.88
645.124	12331.6
645.477	12303.35
645.83	12277.59
646.182	12284.82
646.535	12113.75
646.888	12080.3
647.24	12082.56
647.593	12229.23
647.945	12180.19
648.298	12076.24
648.65	12086.86
649.002	11981.78
649.355	12196.01
649.707	12125.5
650.059	12185.39
650.411	12354.19
650.763	12290.47
651.115	12469.45
651.467	12401.88
651.819	12397.58
652.171	12407.07
652.523	12343.8
652.875	12401.88
653.227	12338.15
653.578	12381.99
653.93	12354.87
654.282	12353.97
654.633	12279.39
654.985	12396
655.337	12369.34
655.688	12358.26
656.039	12394.87
656.391	12331.14
656.742	12289.56
657.094	12325.72
657.445	12432.16
657.796	12369.34
658.147	12476.68
658.498	12313.97
658.849	12388.32
659.2	12410.46
659.551	12324.37
659.902	12442.78
660.253	12406.4
660.604	12358.04
660.955	12333.18
661.306	12459.28
661.656	12455.44
662.007	12441.88
662.358	12437.36
662.708	12426.96
663.059	12452.72
663.409	12374.31
663.76	12415.89
664.11	12424.48
664.461	12454.08
664.811	12485.26
665.161	12466.51
665.511	12455.21
665.862	12416.57
666.212	12480.07
666.562	12533.63
666.912	12458.82
667.262	12447.3
667.612	12471.93
667.962	12429.67
668.312	12440.75
668.662	12548.77
669.011	12441.42
669.361	12445.72
669.711	12398.71
670.06	12477.36
670.41	12330.69
670.76	12452.27
671.109	12452.05
671.459	12364.36
671.808	12394.65
672.157	12345.83
672.507	12317.81
672.856	12278.72
673.205	12344.03
673.554	12332.05
673.904	12294.08
674.253	12408.66
674.602	12301.09
674.951	12117.14
675.3	12040.76
675.649	12298.38
675.998	12167.76
676.346	12262.45
676.695	12292.73
677.044	12184.71
677.393	12266.97
677.741	12297.02
678.09	12227.87
678.438	12126.63
678.787	12139.06
679.135	12268.55
679.484	12115.78
679.832	12134.99
680.181	12075.33
680.529	12030.36
680.877	12047.31
681.225	11994.2
681.573	12056.8
681.922	11929.8
682.27	11934.09
682.618	11920.99
682.966	11903.59
683.314	11933.87
683.661	11934.32
684.009	11802.57
684.357	11743.82
684.705	11803.02
685.053	11768
685.4	11769.58
685.748	11704.04
686.095	11705.85
686.443	11719.86
686.79	11646.42
687.138	11735
687.485	11687.09
687.832	11608.68
688.18	11615.68
688.527	11528
688.874	11499.75
689.221	11515.12
689.568	11487.33
689.915	11435.35
690.262	11396.71
690.609	11466.99
690.956	11369.59
691.303	11330.72
691.65	11216.37
691.997	11196.49
692.344	11167.11
692.69	11164.4
693.037	11122.59
693.383	11070.16
693.73	11083.95
694.077	10988.36
694.423	11001.69
694.769	10911.3
695.116	10830.39
695.462	10892.31
695.808	10780.9
696.155	10883.5
696.501	10789.04
696.847	10716.5
697.193	10677.4
697.539	10743.62
697.885	10540.46
698.231	10620.91
698.577	10601.7
698.923	10527.8
699.269	10472.44
699.614	10398.54
699.96	10373.23
700.306	10402.61
700.651	10379.78
700.997	10278.09
701.342	10247.13
701.688	10285.1
702.033	10181.82
702.379	10222.73
702.724	10145.21
703.069	10183.86
703.415	10032.67
703.76	10018.66
704.105	10052.56
704.45	10017.76
704.795	9992.68
705.14	9910.64
705.485	9954.03
705.83	9900.02
706.175	9867.48
706.52	9768.5
706.865	9775.05
707.209	9719.91
707.554	9715.17
707.899	9655.73
708.243	9639.01
708.588	9612.35
708.932	9632.91
709.277	9512.46
709.621	9547.94
709.966	9488.73
710.31	9499.35
710.654	9442.86
710.998	9472.69
711.342	9387.95
711.687	9350.66
712.031	9351.34
712.375	9317.66
712.719	9296.2
713.063	9298
713.407	9321.96
713.75	9252.58
714.094	9246.71
714.438	9175.75
714.782	9223.2
715.125	9178.23
715.469	9168.29
715.812	9118.57
716.156	9069.08
716.499	9135.07
716.843	9186.82
717.186	9042.42
717.53	9160.61
717.873	9117.22
718.216	9074.51
718.559	9065.92
718.902	8979.14
719.246	8981.18
719.589	8966.04
719.932	8951.57
720.275	8980.95
720.617	8960.84
720.96	9004
721.303	8928.07
721.646	8911.35
721.989	8895.98
722.331	8905.7
722.674	8914.51
723.016	8924
723.359	8884.68
723.701	8865.25
724.044	8836.32
724.386	8814.85
724.729	8853.72
725.071	8822.76
725.413	8805.36
725.755	8778.7
726.097	8738.7
726.439	8709.32
726.782	8760.39
727.124	8836.1
727.465	8704.12
727.807	8760.39
728.149	8746.83
728.491	8766.94
728.833	8838.81
729.175	8695.31
729.516	8695.08
729.858	8742.31
730.199	8757
730.541	8719.49
730.882	8706.16
731.224	8723.1
731.565	8677
731.906	8738.7
732.248	8712.93
732.589	8665.7
732.93	8640.85
733.271	8682.88
733.612	8648.98
733.953	8639.26
734.294	8591.81
734.635	8664.57
734.976	8696.21
735.317	8712.26
735.658	8641.52
735.999	8626.38
736.339	8665.03
736.68	8749.77
737.021	8710.9
737.361	8667.74
737.702	8682.2
738.042	8674.74
738.383	8658.02
738.723	8693.73
739.063	8695.53
739.404	8711.8
739.744	8718.36
740.084	8736.66
740.424	8748.19
740.764	8760.39
741.104	8789.09
741.444	8725.14
741.784	8781.18
742.124	8782.99
742.464	8843.33
742.804	8776.21
743.143	8822.08
743.483	8830.45
743.823	8804.23
744.162	8895.53
744.502	8940.05
744.841	8957.22
745.181	9014.85
745.52	9042.19
745.86	9006.26
746.199	9056.43
746.538	9102.76
746.877	9155.63
747.216	9213.71
747.556	9240.15
747.895	9243.99
748.234	9274.95
748.573	9402.86
748.911	9416.87
749.25	9505.46
749.589	9513.82
749.928	9592.01
750.267	9689.41
750.605	9727.15
750.944	9794.04
751.283	9850.76
751.621	9919.68
751.96	9983.41
752.298	10114.03
752.636	10111.09
752.975	10253.46
753.313	10309.73
753.651	10446.9
753.989	10493.45
754.327	10697.97
754.666	10690.06
755.004	10913.78
755.342	10937.51
755.679	11152.64
756.017	11257.27
756.355	11412.52
756.693	11454.78
757.031	11747.88
757.368	11777.71
757.706	11922.57
758.044	12053.19
758.381	12231.71
758.719	12382.67
759.056	12499.73
759.394	12678.71
759.731	12746.28
760.068	12907.17
760.405	12999.38
760.743	13216.55
761.08	13399.59
761.417	13536.54
761.754	13559.59
762.091	13797.77
762.428	13946.47
762.765	14096.52
763.102	14336.74
763.438	14509.62
763.775	14544.87
764.112	14767.46
764.449	14947.35
764.785	15005.42
765.122	15202.48
765.458	15234.35
765.795	15464.85
766.131	15630.94
766.467	15782.81
766.804	15729.47
767.14	15937.15
767.476	16151.38
767.812	16216.92
768.148	16383.69
768.485	16460.98
768.821	16511.6
769.157	16711.14
769.492	16759.95
769.828	16833.63
770.164	16936.67
770.5	17007.86
770.836	17138.25
771.171	17176.22
771.507	17287.4
771.842	17305.7
772.178	17461.86
772.513	17529.88
772.849	17582.53
773.184	17579.59
773.519	17747.05
773.855	17831.34
774.19	17804.22
774.525	17916.31
774.86	18055.51
775.195	18127.38
775.53	18090.54
775.865	18052.58
776.2	18148.39
776.535	18071.33
776.87	18164.89
777.205	18127.83
777.539	18172.35
777.874	18325.79
778.209	18151.1
778.543	18348.61
778.878	18254.83
779.212	18381.38
779.547	18250.09
779.881	18387.26
780.215	18294.15
780.55	18431.1
780.884	18360.14
781.218	18270.65
781.552	18368.05
781.886	18411.21
782.22	18381.61
782.554	18420.48
782.888	18296.86
783.222	18296.86
783.556	18241.27
783.889	18272.01
784.223	18111.56
784.557	18190.2
784.89	18297.77
785.224	18149.75
785.557	18149.97
785.891	18216.19
786.224	18037.21
786.558	18166.7
786.891	17972.58
787.224	17890.77
787.557	18020.03
787.891	17898.68
788.224	17978.45
788.557	18024.1
788.89	17922.64
789.223	18036.76
789.556	17868.4
789.888	17822.98
790.221	17804.9
790.554	17767.61
790.887	17662.76
791.219	17696.43
791.552	17666.15
791.884	17644.9
792.217	17709.53
792.549	17636.99
792.882	17499.82
793.214	17426.38
793.546	17578.92
793.879	17404.01
794.211	17309.09
794.543	17367.4
794.875	17330.56
795.207	17379.37
795.539	17289.21
795.871	17281.52
796.203	17026.16
796.535	17136.89
796.867	17070.68
797.198	17026.84
797.53	17081.3
797.862	16999.04
798.193	17036.33
798.525	16839.05
798.856	16951.81
799.188	16703.69
799.519	16597.25
799.85	16602.44
800.182	16791.59
800.513	16668.43
800.844	16472.73
801.175	16615.78
801.506	16540.07
801.837	16469.34
802.168	16458.72
802.499	16315.9
802.83	16264.6
803.161	16337.59
803.491	16222.79
803.822	16322.45
804.153	16249.01
804.483	16164.04
804.814	16126.3
805.145	16041.56
805.475	16029.13
805.805	16013.76
806.136	15942.58
806.466	15926.98
806.796	15998.84
807.126	15785.97
807.457	15854.89
807.787	15804.73
808.117	15819.41
808.447	15727.67
808.777	15797.27
809.107	15669.59
809.436	15597.73
809.766	15682.47
810.096	15618.74
810.426	15504.85
810.755	15462.81
811.085	15490.84
811.414	15490.38
811.744	15429.82
812.073	15334.46
812.403	15388.69
812.732	15237.06
813.061	15229.15
813.39	15208.36
813.719	15165.42
814.049	15265.76
814.378	15242.03
814.707	15091.98
815.036	15101.02
815.365	15064.18
815.693	14978.08
816.022	15013.33
816.351	14959.55
816.68	14904.86
817.008	14899.21
817.337	14733.57
817.665	14699.67
817.994	14797.52
818.322	14837.29
818.651	14654.25
818.979	14686.79
819.307	14765.43
819.636	14661.48
819.964	14643.63
820.292	14694.47
820.62	14644.3
820.948	14592.55
821.276	14615.38
821.604	14565.89
821.932	14526.57
822.259	14578.09
822.587	14514.36
822.915	14550.75
823.243	14588.71
823.57	14469.62
823.898	14579.67
824.225	14511.2
824.553	14466.23
824.88	14477.08
825.207	14629.39
825.535	14630.52
825.862	14586.23
826.189	14524.99
826.516	14521.82
826.843	14607.24
827.17	14513.91
827.497	14553.91
827.824	14602.72
828.151	14586.9
828.478	14522.27
828.805	14588.94
829.131	14529.5
829.458	14538.77
829.785	14564.76
830.111	14541.93
830.438	14555.94
830.764	14559.33
831.09	14493.8
831.417	14429.39
831.743	14509.84
832.069	14553.01
832.395	14414.03
832.722	14634.13
833.048	14453.8
833.374	14488.83
833.7	14503.06
834.026	14460.58
834.351	14495.38
834.677	14404.76
835.003	14504.19
835.329	14418.1
835.654	14401.15
835.98	14382.39
836.306	14402.05
836.631	14364.76
836.956	14395.95
837.282	14396.85
837.607	14285.44
837.932	14280.92
838.258	14237.76
838.583	14194.6
838.908	14176.29
839.233	14235.28
839.558	14155.73
839.883	14086.13
840.208	14117.09
840.533	14037.09
840.858	14088.84
841.182	14078.44
841.507	14053.81
841.832	13997.32
842.156	13955.73
842.481	13985.79
842.805	13951.89
843.13	13828.28
843.454	13896.08
843.778	13778.11
844.103	13736.31
844.427	13834.61
844.751	13723.88
845.075	13610.89
845.399	13651.79
845.723	13604.33
846.047	13651.56
846.371	13429.19
846.695	13540.6
847.019	13313.94
847.343	13310.78
847.666	13275.98
847.99	13198.01
848.313	13205.47
848.637	13126.6
848.96	13083.44
849.284	13117.34
849.607	13005.7
849.931	12944.69
850.254	12856.78
850.577	12767.97
850.9	12817.69
851.223	12734.98
851.546	12617.24
851.869	12579.73
852.192	12693.4
852.515	12524.81
852.838	12414.08
853.161	12420.18
853.483	12319.17
853.806	12377.7
854.129	12293.63
854.451	12233.97
854.774	12193.97
855.096	12184.03
855.419	12115.56
855.741	12071.94
856.063	12049.8
856.385	11973.64
856.708	11885.73
857.03	11944.26
857.352	11906.52
857.674	11920.31
857.996	11867.88
858.318	11833.76
858.64	11778.16
858.961	11706.75
859.283	11706.08
859.605	11600.54
859.926	11671.95
860.248	11614.1
860.57	11573.65
860.891	11670.6
861.212	11543.37
861.534	11506.53
861.855	11469.92
862.176	11487.55
862.498	11505.4
862.819	11466.99
863.14	11458.85
863.461	11418.63
863.782	11377.5
864.103	11403.49
864.424	11329.82
864.745	11297.73
865.065	11208.91
865.386	11247.33
865.707	11208.69
866.027	11231.74
866.348	11208.69
866.668	11192.19
866.989	11128.01
867.309	11033.33
867.63	11107.9
867.95	11084.62
868.27	11117.39
868.59	11117.39
868.91	11017.73
869.23	11014.34
869.55	10940.22
869.87	10979.54
870.19	10969.15
870.51	10991.97
870.83	11012.31
871.15	10955.14
871.469	10873.33
871.789	10916.72
872.109	10932.09
872.428	10849.38
872.748	10888.02
873.067	10813.67
873.386	10776.61
873.706	10749.94
874.025	10682.6
874.344	10686.44
874.663	10770.73
874.982	10739.77
875.301	10658.87
875.62	10651.64
875.939	10599.66
876.258	10696.39
876.577	10611.42
876.896	10593.11
877.214	10530.06
877.533	10517.18
877.852	10550.63
878.17	10510.63
878.489	10532.1
878.807	10486.45
879.125	10481.7
879.444	10408.48
879.762	10346.34
880.08	10407.13
880.398	10335.72
880.716	10367.13
881.034	10293.68
881.352	10332.33
881.67	10311.76
881.988	10307.02
882.306	10229.05
882.624	10212.1
882.941	10175.27
883.259	10173.46
883.577	10160.35
883.894	10178.66
884.212	10113.8
884.529	10150.19
884.846	10091.2
885.164	10004.88
885.481	10054.14
885.798	9979.12
886.115	9953.35
886.432	9959
886.75	9915.39
887.067	9957.87
887.383	9944.77
887.7	9840.81
888.017	9810.08
888.334	9856.86
888.651	9803.08
888.967	9771.44
889.284	9713.13
889.6	9705
889.917	9682.4
890.233	9656.86
890.55	9594.72
890.866	9654.83
891.182	9704.32
891.498	9549.97
891.815	9522.86
892.131	9514.95
892.447	9449.64
892.763	9462.97
893.079	9422.29
893.395	9323.99
893.71	9356.31
894.026	9361.28
894.342	9311.34
894.657	9207.61
894.973	9185.46
895.289	9194.73
895.604	9243.54
895.92	9200.15
896.235	9084.68
896.55	9061.17
896.865	9026.82
897.181	9041.97
897.496	8976.2
897.811	8950.44
898.126	8944.57
898.441	8806.72
898.756	8889.88
899.071	8846.94
899.386	8780.5
899.7	8760.84
900.015	8774.63
900.33	8667.06
900.644	8657.57
900.959	8630.45
901.273	8627.74
901.588	8563.11
901.902	8476.78
902.216	8503
902.531	8507.74
902.845	8481.98
903.159	8417.35
903.473	8379.38
903.787	8368.09
904.101	8242.44
904.415	8268.43
904.729	8189.33
905.042	8174.64
905.356	8169.9
905.67	8164.02
905.984	8159.05
906.297	8130.58
906.611	8080.63
906.924	8015.78
907.237	8026.63
907.551	8009.68
907.864	7975.1
908.177	7938.49
908.491	7932.16
908.804	7880.19
909.117	7761.77
909.43	7748.89
909.743	7738.95
910.056	7718.16
910.368	7754.09
910.681	7661.44
910.994	7604.49
911.307	7545.51
911.619	7539.18
911.932	7538.95
912.244	7434.55
912.557	7527.66
912.869	7436.58
913.181	7438.17
913.494	7364.27
913.806	7371.73
914.118	7276.36
914.43	7248.34
914.742	7271.39
915.054	7258.74
915.366	7225.06
915.678	7179.19
915.99	7141.68
916.302	7084.95
916.613	7049.7
916.925	7054.22
917.236	7026.2
917.548	6966.54
917.859	6934
918.171	6962.92
918.482	6939.42
918.794	6905.75
919.105	6888.35
919.416	6787.56
919.727	6826.88
920.038	6755.25
920.349	6708.92
920.66	6712.99
920.971	6773.32
921.282	6660.11
921.593	6638.64
921.903	6604.74
922.214	6618.07
922.525	6564.97
922.835	6561.35
923.146	6512.09
923.456	6476.16
923.767	6462.6
924.077	6453.79
924.387	6418.08
924.697	6374.69
925.008	6362.94
925.318	6334.92
925.628	6295.37
925.938	6258.54
926.248	6228.71
926.558	6250.63
926.867	6211.76
927.177	6199.33
927.487	6131.99
927.796	6104.42
928.106	6099.9
928.416	6044.08
928.725	6045.21
929.034	5975.61
929.344	6030.29
929.653	5978.77
929.962	5934.7
930.271	5838.89
930.581	5880.01
930.89	5837.76
931.199	5799.11
931.508	5827.59
931.817	5788.04
932.125	5817.87
932.434	5712.79
932.743	5716.63
933.051	5675.95
933.36	5651.09
933.669	5646.8
933.977	5635.28
934.286	5618.33
934.594	5612.45
934.902	5575.16
935.21	5558.67
935.519	5499.23
935.827	5487.48
936.135	5450.65
936.443	5454.04
936.751	5419.46
937.059	5347.6
937.367	5376.98
937.674	5395.06
937.982	5349.18
938.29	5305.34
938.597	5316.64
938.905	5251.33
939.213	5240.71
939.52	5183.76
939.827	5217.21
940.135	5138.34
940.442	5144.22
940.749	5084.78
941.056	5166.36
941.363	5060.83
941.67	5057.66
941.977	5067.15
942.284	5015.86
942.591	4984.9
942.898	4966.37
943.205	4990.32
943.511	4893.37
943.818	4951.9
944.125	4930.44
944.431	4867.84
944.738	4834.17
945.044	4837.78
945.35	4812.92
945.657	4772.25
945.963	4787.84
946.269	4733.6
946.575	4773.6
946.881	4704.9
947.187	4680.5
947.493	4635.98
947.799	4676.2
948.105	4625.36
948.41	4606.15
948.716	4609.54
949.022	4605.02
949.327	4588.07
949.633	4539.26
949.938	4507.4
950.244	4513.72
950.549	4466.49
950.854	4448.64
951.16	4422.88
951.465	4410.22
951.77	4407.74
952.075	4363.67
952.38	4401.86
952.685	4384.01
952.99	4326.16
953.294	4314.63
953.599	4278.25
953.904	4259.27
954.209	4258.81
954.513	4264.69
954.818	4197.57
955.122	4162.32
955.426	4167.97
955.731	4150.57
956.035	4166.39
956.339	4171.59
956.643	4067.86
956.948	4073.96
957.252	4052.94
957.556	4007.3
957.86	4059.72
958.163	4017.46
958.467	4036
958.771	3978.82
959.075	3959.61
959.378	3966.84
959.682	3923.68
959.985	3920.52
960.289	3902.44
960.592	3848.2
960.896	3882.78
961.199	3844.59
961.502	3829.45
961.805	3765.27
962.108	3799.39
962.411	3792.16
962.714	3744.7
963.017	3713.52
963.32	3723.01
963.623	3731.82
963.926	3719.17
964.228	3663.8
964.531	3665.38
964.833	3662.22
965.136	3634.65
965.438	3629.45
965.741	3600.98
966.043	3617.7
966.345	3591.04
966.648	3579.51
966.95	3570.47
967.252	3503.35
967.554	3512.17
967.856	3505.61
968.158	3466.97
968.46	3463.13
968.761	3430.14
969.063	3473.75
969.365	3405.05
969.666	3410.25
969.968	3388.1
970.269	3357.14
970.571	3386.97
970.872	3358.27
971.174	3301.33
971.475	3339.29
971.776	3287.99
972.077	3285.73
972.378	3265.85
972.679	3262.68
972.98	3256.58
973.281	3242.8
973.582	3214.32
973.883	3257.03
974.183	3200.54
974.484	3212.06
974.785	3140.65
975.085	3141.1
975.386	3196.92
975.686	3128.67
975.986	3111.73
976.287	3137.26
976.587	3075.12
976.887	3088.9
977.187	3071.5
977.487	3063.59
977.787	3007.77
978.087	3050.71
978.387	2995.57
978.687	2989.7
978.987	2944.5
979.286	2952.86
979.586	2976.14
979.885	2941.56
980.185	2940.21
980.484	2885.97
980.784	2905.18
981.083	2885.52
981.382	2867.66
981.682	2887.1
981.981	2836.03
982.28	2862.24
982.579	2848.91
982.878	2837.61
983.177	2798.97
983.475	2805.29
983.774	2789.02
984.073	2720.78
984.372	2709.93
984.67	2712.41
984.969	2685.52
985.267	2743.15
985.566	2682.58
985.864	2677.84
986.162	2674.9
986.461	2663.38
986.759	2691.17
987.057	2619.99
987.355	2617.73
987.653	2644.62
987.951	2592.42
988.249	2603.04
988.547	2556.26
988.844	2575.92
989.142	2581.12
989.44	2585.19
989.737	2525.75
990.035	2521.46
990.332	2496.15
990.63	2504.06
990.927	2468.35
991.224	2509.71
991.521	2448.47
991.819	2455.02
992.116	2441.69
992.413	2399.2
992.71	2412.76
993.006	2393.55
993.303	2420.22
993.6	2388.58
993.897	2356.72
994.193	2373.44
994.49	2372.54
994.787	2313.55
995.083	2320.79
995.379	2331.18
995.676	2263.84
995.972	2292.54
996.268	2277.17
996.565	2218.87
996.861	2254.57
997.157	2248.7
997.453	2262.48
997.749	2228.36
998.044	2209.83
998.34	2199.66
998.636	2199.21
998.932	2197.17
999.227	2197.4
999.523	2161.24
999.818	2111.53
1000.114	2136.84
1000.409	2106.1
1000.704	2150.85
1001	2100.23
1001.295	2093
1001.59	2084.41
1001.885	2074.01
1002.18	2078.76
1002.475	2040.12
1002.77	2021.59
1003.065	2064.52
1003.359	1992.89
1003.654	2006.9
1003.949	1978.2
1004.243	1990.17
1004.538	1958.99
1004.832	1959.44
1005.127	1979.55
1005.421	1953.56
1005.715	1923.28
1006.009	1907.46
1006.304	1892.32
1006.598	1874.47
1006.892	1897.07
1007.186	1859.1
1007.48	1864.53
1007.773	1831.08
1008.067	1844.64
1008.361	1822.95
1008.655	1806.45
1008.948	1812.1
1009.242	1788.15
1009.535	1816.84
1009.829	1778.88
1010.122	1765.32
1010.415	1749.73
1010.708	1737.98
1011.001	1725.77
1011.295	1729.62
1011.588	1735.49
1011.881	1697.3
1012.173	1693.68
1012.466	1686.23
1012.759	1692.55
1013.052	1680.13
1013.344	1660.69
1013.637	1648.26
1013.93	1643.97
1014.222	1628.6
1014.514	1602.39
1014.807	1587.02
1015.099	1583.63
1015.391	1579.79
1015.683	1623.18
1015.976	1575.72
1016.268	1547.47
1016.56	1546.57
1016.851	1548.38
1017.143	1526.68
1017.435	1530.3
1017.727	1514.93
1018.018	1521.26
1018.31	1489.4
1018.602	1492.79
1018.893	1464.54
1019.185	1489.62
1019.476	1457.31
1019.767	1457.53
1020.058	1425.22
1020.35	1413.01
1020.641	1414.37
1020.932	1415.5
1021.223	1399
1021.514	1391.09
1021.804	1377.31
1022.095	1364.65
1022.386	1382.51
1022.677	1359.91
1022.967	1341.38
1023.258	1340.47
1023.548	1366.91
1023.839	1329.85
1024.129	1348.38
1024.419	1321.26
1024.709	1265.45
1025	1301.83
1025.29	1294.82
1025.58	1281.27
1025.87	1266.8
1026.16	1258.22
1026.449	1262.28
1026.739	1242.62
1027.029	1257.76
1027.319	1239.68
1027.608	1221.38
1027.898	1217.54
1028.187	1230.19
1028.477	1218.67
1028.766	1211.44
1029.055	1190.42
1029.344	1180.03
1029.634	1169.86
1029.923	1120.82
1030.212	1144.77
1030.501	1136.18
1030.79	1132.8
1031.078	1142.96
1031.367	1113.81
1031.656	1076.98
1031.945	1097.09
1032.233	1107.71
1032.522	1085.79
1032.81	1091.67
1033.099	1073.81
1033.387	1086.24
1033.675	1057.32
1033.963	1066.36
1034.251	1076.3
1034.54	1034.72
1034.828	1047.83
1035.116	1043.53
1035.403	1019.35
1035.691	1020.48
1035.979	1027.49
1036.267	1010.31
1036.554	988.62
1036.842	973.48
1037.129	987.04
1037.417	979.58
1037.704	976.19
1037.992	944.55
1038.279	939.13
1038.566	966.7
1038.853	966.7
1039.14	966.7
