Data from hue_150_FLMS001491_00001.txt Node
Date: Tue Feb 07 16:53:32 GMT 2017
User: dcchb
Spectrometer: FLMS00149
Trigger mode: 0
Integration Time (sec): 2.000000E-2
Scans to average: 10
Electric dark correction enabled: true
Nonlinearity correction enabled: false
Boxcar width: 0
XAxis mode: Wavelengths
Number of Pixels in Spectrum: 2048
>>>>>Begin Spectral Data<<<<<
341.393	-7.8
341.776	-7.8
342.16	-7.8
342.543	-63.84
342.927	-72.65
343.31	-73.56
343.693	-88.25
344.077	-76.27
344.46	-53.44
344.843	-43.05
345.226	-30.17
345.61	-25.2
345.993	-15.71
346.376	15.48
346.759	4.86
347.142	14.8
347.525	51.19
347.908	45.99
348.291	70.85
348.674	92.54
349.057	109.94
349.44	126.44
349.823	134.57
350.206	155.59
350.588	202.59
350.971	229.03
351.354	217.73
351.737	210.5
352.119	237.62
352.502	257.51
352.884	259.09
353.267	279.65
353.65	285.08
354.032	298.86
354.414	306.09
354.797	314.91
355.179	307
355.562	309.26
355.944	315.36
356.326	328.01
356.709	331.63
357.091	320.56
357.473	330.05
357.855	341.57
358.238	339.31
358.62	324.4
359.002	344.96
359.384	334.34
359.766	325.08
360.148	346.77
360.53	338.86
360.912	324.4
361.294	316.94
361.676	347.45
362.057	322.59
362.439	325.3
362.821	338.18
363.203	328.47
363.584	323.04
363.966	336.15
364.348	323.49
364.729	317.84
365.111	341.8
365.493	325.53
365.874	340.89
366.256	339.77
366.637	311.52
367.019	298.86
367.4	302.03
367.781	305.87
368.163	318.3
368.544	322.14
368.925	323.49
369.306	304.29
369.688	324.4
370.069	305.87
370.45	320.78
370.831	328.24
371.212	307.9
371.593	320.78
371.974	301.8
372.355	307
372.736	323.49
373.117	309.71
373.498	315.13
373.879	328.69
374.26	310.39
374.641	323.72
375.021	308.58
375.402	314.91
375.783	317.39
376.163	326.43
376.544	335.25
376.925	323.72
377.305	311.29
377.686	332.53
378.066	347.45
378.447	309.94
378.827	335.47
379.208	326.43
379.588	337.28
379.968	340.22
380.349	326.88
380.729	334.79
381.109	351.52
381.489	319.2
381.87	336.15
382.25	354.91
382.63	341.35
383.01	356.49
383.39	313.78
383.77	344.74
384.15	345.19
384.53	345.87
384.91	342.48
385.29	353.78
385.67	362.14
386.049	347.45
386.429	352.65
386.809	359.65
387.189	378.41
387.568	368.46
387.948	351.74
388.328	350.39
388.707	362.36
389.087	373.44
389.466	363.72
389.846	373.21
390.225	365.08
390.605	365.3
390.984	355.58
391.363	374.11
391.743	372.76
392.122	358.52
392.501	380.44
392.881	373.66
393.26	367.79
393.639	365.08
394.018	388.13
394.397	382.25
394.776	380.67
395.155	378.41
395.534	375.7
395.913	384.51
396.292	383.83
396.671	381.35
397.05	389.71
397.429	394
397.808	380.67
398.186	386.32
398.565	394.68
398.944	410.5
399.323	404.85
399.701	386.77
400.08	397.84
400.458	411.85
400.837	403.04
401.215	426.54
401.594	422.25
401.972	438.29
402.351	419.31
402.729	401.23
403.107	406.43
403.486	419.54
403.864	414.57
404.242	415.02
404.62	438.75
404.999	431.74
405.377	434.9
405.755	412.31
406.133	421.8
406.511	443.94
406.889	441.68
407.267	445.07
407.645	441.01
408.023	451.17
408.401	468.12
408.779	452.98
409.156	458.63
409.534	447.11
409.912	453.66
410.29	448.24
410.667	476.26
411.045	461.57
411.422	474.22
411.8	475.58
412.178	476.48
412.555	486.2
412.933	508.57
413.31	509.7
413.687	479.42
414.065	496.82
414.442	515.13
414.819	506.09
415.197	496.15
415.574	551.96
415.951	535.69
416.328	514.22
416.705	511.06
417.082	511.29
417.46	525.75
417.837	531.62
418.214	523.94
418.591	526.43
418.967	531.17
419.344	544.28
419.721	565.07
420.098	560.1
420.475	554.45
420.852	559.19
421.228	544.51
421.605	584.96
421.982	571.17
422.358	583.83
422.735	560.78
423.111	574.79
423.488	572.75
423.864	567.78
424.241	588.57
424.617	594.67
424.994	576.82
425.37	593.77
425.746	610.27
426.123	613.43
426.499	612.75
426.875	588.12
427.251	617.27
427.627	635.8
428.003	632.41
428.379	619.98
428.756	622.02
429.132	646.65
429.507	643.71
429.883	655.01
430.259	658.17
430.635	665.63
431.011	665.86
431.387	697.72
431.763	719.19
432.138	674.45
432.514	696.59
432.89	708.79
433.265	719.87
433.641	713.77
434.016	726.87
434.392	717.16
434.767	766.42
435.143	728.46
435.518	740.88
435.894	761.9
436.269	759.19
436.644	769.58
437.02	789.7
437.395	798.28
437.77	788.79
438.145	805.74
438.52	810.04
438.895	820.43
439.271	791.28
439.646	804.61
440.021	828.57
440.395	842.35
440.77	827.66
441.145	839.64
441.52	861.56
441.895	846.42
442.27	869.92
442.645	868.56
443.019	871.95
443.394	872.41
443.769	899.98
444.143	904.72
444.518	899.3
444.892	926.64
445.267	913.99
445.641	910.82
446.016	931.61
446.39	920.31
446.764	933.2
447.139	936.36
447.513	948.11
447.887	935.46
448.262	973.42
448.636	989.24
449.01	999.63
449.384	972.74
449.758	979.52
450.132	970.48
450.506	978.84
450.88	999.86
451.254	1004.83
451.628	1025.17
452.002	1018.39
452.376	1028.79
452.75	1066.3
453.123	1031.27
453.497	1054.1
453.871	1075.79
454.244	1100.88
454.618	1120.76
454.992	1119.18
455.365	1138.61
455.739	1146.3
456.112	1135.68
456.486	1134.32
456.859	1163.25
457.232	1191.72
457.606	1177.94
457.979	1234.88
458.352	1216.8
458.725	1240.76
459.099	1264.49
459.472	1272.17
459.845	1269.23
460.218	1290.7
460.591	1313.3
460.964	1299.74
461.337	1354.65
461.71	1389.68
462.083	1397.82
462.456	1375.22
462.829	1390.36
463.201	1415.44
463.574	1429.23
463.947	1459.06
464.32	1493.86
464.692	1522.33
465.065	1509.68
465.438	1535.67
465.81	1532.73
466.183	1564.37
466.555	1591.94
466.928	1631.03
467.3	1633.06
467.672	1683.23
468.045	1703.35
468.417	1716
468.789	1710.12
469.161	1752.84
469.534	1817.01
469.906	1842.1
470.278	1844.81
470.65	1915.09
471.022	1919.16
471.394	1992.6
471.766	1990.12
472.138	2024.24
472.51	2102.66
472.882	2116.44
473.253	2153.05
473.625	2203.9
473.997	2228.53
474.369	2311.24
474.74	2318.24
475.112	2397.79
475.484	2446.38
475.855	2467.17
476.227	2546.71
476.598	2599.82
476.97	2652.25
477.341	2739.48
477.713	2767.5
478.084	2814.73
478.455	2899.02
478.827	2992.35
479.198	3107.38
479.569	3130.65
479.94	3230.54
480.311	3268.73
480.682	3432.79
481.053	3489.29
481.424	3605.67
481.795	3699.68
482.166	3766.12
482.537	3868.71
482.908	3956.85
483.279	4006.79
483.65	4144.41
484.021	4264.41
484.391	4410.84
484.762	4409.49
485.133	4527
485.503	4629.6
485.874	4783.94
486.244	4894.9
486.615	5056.03
486.985	5090.6
487.356	5228.9
487.726	5350.03
488.097	5520.19
488.467	5593.41
488.837	5793.41
489.207	5864.82
489.578	5995.44
489.948	6126.96
490.318	6226.84
490.688	6321.53
491.058	6514.52
491.428	6670.22
491.798	6789.31
492.168	6983.88
492.538	7055.97
492.908	7174.16
493.278	7312.24
493.648	7394.95
494.017	7547.49
494.387	7703.64
494.757	7800.13
495.126	7955.61
495.496	8079.22
495.866	8107.47
496.235	8261.14
496.605	8435.6
496.974	8530.28
497.344	8635.37
497.713	8698.19
498.082	8868.35
498.452	8968.24
498.821	9024.51
499.19	9153.77
499.559	9294.11
499.928	9376.82
500.298	9502.69
500.667	9617.04
501.036	9603.02
501.405	9809.57
501.774	9811.15
502.143	9947.2
502.512	10055.67
502.88	10083.46
503.249	10179.05
503.618	10316.9
503.987	10411.82
504.356	10429.44
504.724	10560.29
505.093	10602.77
505.462	10645.48
505.83	10780.62
506.199	10847.06
506.567	10971.58
506.936	11021.52
507.304	11084.57
507.672	11162.98
508.041	11219.25
508.409	11277.78
508.777	11382.86
509.145	11458.79
509.514	11505.12
509.882	11516.65
510.25	11604.78
510.618	11677.09
510.986	11715.06
511.354	11796.64
511.722	11954.37
512.09	11960.02
512.458	11897.43
512.826	12049.97
513.193	12100.59
513.561	12098.55
513.929	12135.39
514.297	12284.99
514.664	12357.3
515.032	12369.73
515.4	12497.86
515.767	12542.16
516.135	12458.54
516.502	12451.31
516.869	12642.49
517.237	12696.95
517.604	12631.42
517.972	12778.31
518.339	12768.82
518.706	12728.82
519.073	12796.84
519.44	12786.22
519.808	12947.57
520.175	12935.14
520.542	12985.76
520.909	13072.76
521.276	13004.29
521.643	13099.2
522.009	13209.94
522.376	13185.53
522.743	13246.77
523.11	13341.23
523.477	13334.68
523.843	13382.13
524.21	13475.46
524.577	13484.28
524.943	13669.13
525.31	13522.47
525.676	13581.22
526.043	13644.05
526.409	13658.74
526.776	13735.35
527.142	13655.57
527.508	13790.48
527.874	13806.98
528.241	13819.64
528.607	13803.59
528.973	13825.06
529.339	13851.27
529.705	13882.91
530.071	13839.3
530.437	13930.37
530.803	13934.21
531.169	13978.5
531.535	13932.18
531.901	13891.27
532.267	13832.74
532.632	13858.51
532.998	13899.18
533.364	13891.95
533.73	13936.47
534.095	13898.96
534.461	13909.8
534.826	13895.57
535.192	14014.21
535.557	13947.77
535.923	13894.44
536.288	13915
536.653	13831.84
537.019	13705.29
537.384	13769.47
537.749	13813.99
538.114	13780.99
538.479	13762.69
538.845	13760.66
539.21	13748.68
539.575	13681.79
539.94	13609.92
540.305	13673.88
540.67	13641.56
541.034	13583.03
541.399	13592.75
541.764	13622.81
542.129	13599.3
542.494	13498.06
542.858	13541.9
543.223	13408.35
543.587	13515.01
543.952	13444.28
544.316	13438.86
544.681	13356.6
545.045	13444.28
545.41	13369.48
545.774	13371.06
546.138	13194.79
546.503	13247.9
546.867	13264.17
547.231	13282.48
547.595	13185.08
547.959	13265.3
548.324	13145.98
548.688	13129.94
549.052	13137.39
549.416	13100.79
549.779	13055.59
550.143	12954.12
550.507	12908.25
550.871	12955.93
551.235	12853.11
551.599	12975.14
551.962	12963.16
552.326	12858.98
552.689	12916.38
553.053	12875.93
553.417	12807.01
553.78	12875.03
554.143	12853.79
554.507	12802.71
554.87	12881.13
555.234	12966.33
555.597	12679.33
555.96	12724.3
556.323	12798.19
556.686	12814.47
557.05	12800.45
557.413	12773.79
557.776	12739.67
558.139	12796.16
558.502	12749.38
558.865	12705.32
559.228	12734.69
559.59	12774.69
559.953	12657.63
560.316	12803.17
560.679	12802.26
561.041	12794.13
561.404	12806.33
561.767	12827.8
562.129	12765.2
562.492	12807.91
562.854	12847.23
563.217	12751.19
563.579	12903.05
563.941	12778.31
564.304	12918.42
564.666	13010.62
565.028	12881.13
565.39	12910.28
565.753	12983.27
566.115	12997.74
566.477	13028.25
566.839	12988.02
567.201	12973.11
567.563	13070.73
567.925	13154.57
568.287	13081.8
568.648	13120.45
569.01	13130.39
569.372	13138.52
569.734	13101.69
570.095	13113.67
570.457	13235.02
570.819	13195.92
571.18	13157.96
571.542	13223.72
571.903	13240.89
572.265	13291.74
572.626	13290.84
572.987	13232.31
573.349	13330.16
573.71	13331.74
574.071	13352.76
574.432	13260.56
574.794	13405.86
575.155	13333.55
575.516	13345.98
575.877	13379.2
576.238	13333.55
576.599	13411.51
576.96	13310.05
577.32	13343.04
577.681	13363.83
578.042	13421.91
578.403	13441.12
578.763	13394.11
579.124	13471.62
579.485	13472.53
579.845	13454.67
580.206	13337.84
580.566	13469.59
580.927	13517.27
581.287	13517.27
581.648	13441.57
582.008	13441.12
582.368	13467.56
582.728	13529.02
583.089	13462.81
583.449	13493.32
583.809	13415.58
584.169	13486.99
584.529	13363.15
584.889	13463.49
585.249	13301.68
585.609	13346.65
585.969	13400.89
586.329	13343.72
586.688	13318.41
587.048	13312.53
587.408	13251.74
587.768	13286.32
588.127	13288.13
588.487	13228.69
588.846	13363.38
589.206	13225.75
589.565	13258.3
589.925	13294.68
590.284	13283.61
590.643	13284.74
591.003	13295.36
591.362	13300.33
591.721	13307.11
592.08	13348.46
592.44	13313.89
592.799	13323.83
593.158	13234.79
593.517	13324.06
593.876	13360.67
594.235	13171.07
594.593	13171.74
594.952	13263.04
595.311	13220.1
595.67	13274.57
596.029	13288.13
596.387	13250.16
596.746	13284.74
597.104	13241.12
597.463	13255.36
597.822	13254.23
598.18	13214
598.538	13189.82
598.897	13341.68
599.255	13154.34
599.613	13360.21
599.972	13231.4
600.33	13220.33
600.688	13167.9
601.046	13223.72
601.404	13286.09
601.762	13222.36
602.12	13240.67
602.478	13333.77
602.836	13299.42
603.194	13185.75
603.552	13247.22
603.91	13176.26
604.268	13294.23
604.625	13173.55
604.983	13288.13
605.341	13123.38
605.698	13221.01
606.056	13291.74
606.413	13271.85
606.771	13355.24
607.128	13316.15
607.485	13179.2
607.843	13290.39
608.2	13323.83
608.557	13332.19
608.914	13330.61
609.272	13308.69
609.629	13438.4
609.986	13394.56
610.343	13348.01
610.7	13479.08
611.057	13385.52
611.414	13376.94
611.771	13389.59
612.127	13482.47
612.484	13360.44
612.841	13441.12
613.198	13465.3
613.554	13414.22
613.911	13419.65
614.267	13487.22
614.624	13480.66
614.98	13517.72
615.337	13523.15
615.693	13505.75
616.05	13431.4
616.406	13586.65
616.762	13520.89
617.118	13536.03
617.475	13526.76
617.831	13611.51
618.187	13561.11
618.543	13513.2
618.899	13689.02
619.255	13620.32
619.611	13643.37
619.967	13594.33
620.323	13679.3
620.678	13631.17
621.034	13603.6
621.39	13720.2
621.746	13648.57
622.101	13778.73
622.457	13687.21
622.812	13675.01
623.168	13734.89
623.523	13636.36
623.879	13709.36
624.234	13620.55
624.589	13704.16
624.945	13599.76
625.3	13609.25
625.655	13659.41
626.01	13650.38
626.365	13661.9
626.72	13646.76
627.075	13615.35
627.43	13603.15
627.785	13559.08
628.14	13561.34
628.495	13620.77
628.85	13648.12
629.205	13466.88
629.559	13638.17
629.914	13678.4
630.269	13562.02
630.623	13522.47
630.978	13581
631.332	13563.15
631.687	13627.55
632.041	13458.06
632.396	13515.46
632.75	13485.86
633.104	13452.19
633.459	13411.96
633.813	13442.25
634.167	13385.52
634.521	13409.7
634.875	13468.69
635.229	13459.42
635.583	13260.56
635.937	13384.17
636.291	13298.97
636.645	13285.87
636.999	13284.06
637.352	13335.81
637.706	13215.81
638.06	13196.15
638.413	13261.91
638.767	13149.6
639.121	13225.53
639.474	13110.73
639.828	13193.21
640.181	13230.5
640.534	13181.69
640.888	13129.49
641.241	13086.55
641.594	13122.93
641.947	13162.25
642.301	13092.42
642.654	13103.95
643.007	13120.67
643.36	13075.25
643.713	12999.32
644.066	13111.86
644.419	13030.05
644.771	12967
645.124	12825.09
645.477	12818.08
645.83	12730.63
646.182	12720.68
646.535	12650.18
646.888	12697.41
647.24	12581.03
647.593	12653.34
647.945	12609.72
648.298	12511.65
648.65	12608.82
649.002	12542.16
649.355	12634.58
649.707	12619.89
650.059	12667.58
650.411	12802.26
650.763	12864.63
651.115	12912.09
651.467	12912.32
651.819	12889.27
652.171	12859.66
652.523	12839.55
652.875	12831.87
653.227	12824.41
653.578	12897.63
653.93	12861.92
654.282	12814.24
654.633	12775.37
654.985	12855.14
655.337	12849.27
655.688	12811.3
656.039	12934.01
656.391	12721.13
656.742	12802.49
657.094	12751.64
657.445	12812.43
657.796	12863.05
658.147	12798.19
658.498	12775.82
658.849	12798.65
659.2	12827.8
659.551	12802.49
659.902	12835.71
660.253	12880.9
660.604	12835.26
660.955	12772.43
661.306	12842.71
661.656	12827.8
662.007	12840
662.358	12920.45
662.708	12832.54
663.059	12859.44
663.409	12783.05
663.76	12902.82
664.11	12900.11
664.461	12944.86
664.811	12935.82
665.161	12877.74
665.511	12867.8
665.862	12883.16
666.212	12903.5
666.562	12917.29
666.912	12859.89
667.262	12869.61
667.612	12828.93
667.962	12864.86
668.312	12856.27
668.662	12925.65
669.011	12827.8
669.361	12812.43
669.711	12827.35
670.06	12790.06
670.41	12873.9
670.76	12693.79
671.109	12858.76
671.459	12837.74
671.808	12818.08
672.157	12800.91
672.507	12677.97
672.856	12734.69
673.205	12826.89
673.554	12786.67
673.904	12720.91
674.253	12816.05
674.602	12734.24
674.951	12570.86
675.3	12527.69
675.649	12688.37
675.998	12642.49
676.346	12688.82
676.695	12749.38
677.044	12604.3
677.393	12653.34
677.741	12649.72
678.09	12603.4
678.438	12549.84
678.787	12596.17
679.135	12616.96
679.484	12517.07
679.832	12468.26
680.181	12372.67
680.529	12459.9
680.877	12496.06
681.225	12485.66
681.573	12496.06
681.922	12384.65
682.27	12339
682.618	12381.48
682.966	12379.22
683.314	12317.53
683.661	12243.41
684.009	12261.49
684.357	12219.23
684.705	12277.76
685.053	12152.11
685.4	12152.11
685.748	12181.71
686.095	12133.81
686.443	12100.59
686.79	12094.48
687.138	12091.09
687.485	12070.53
687.832	12065.33
688.18	12067.14
688.527	12009.29
688.874	11924.09
689.221	11884.32
689.568	11786.92
689.915	11817.2
690.262	11865.56
690.609	11777.2
690.956	11730.43
691.303	11686.13
691.65	11716.42
691.997	11612.46
692.344	11595.97
692.69	11537.66
693.037	11511.22
693.383	11399.14
693.73	11399.59
694.077	11362.3
694.423	11370.44
694.769	11371.11
695.116	11259.48
695.462	11257.22
695.808	11287.27
696.155	11245.02
696.501	11108.07
696.847	11185.81
697.193	11068.52
697.539	11146.49
697.885	11004.12
698.231	10920.96
698.577	10968.19
698.923	10913.5
699.269	10856.78
699.614	10844.35
699.96	10835.08
700.306	10820.17
700.651	10731.36
700.997	10718.48
701.342	10600.96
701.688	10630.34
702.033	10581.08
702.379	10566.84
702.724	10569.33
703.069	10497.92
703.415	10364.13
703.76	10441.65
704.105	10426.28
704.45	10379.05
704.795	10336.11
705.14	10266.28
705.485	10261.31
705.83	10168.89
706.175	10204.14
706.52	10148.09
706.865	10163.24
707.209	10184.93
707.554	10022.45
707.899	10123.01
708.243	10050.24
708.588	10047.98
708.932	9970.7
709.277	9907.2
709.621	9951.72
709.966	9825.84
710.31	9920.08
710.654	9821.1
710.998	9853.41
711.342	9847.54
711.687	9743.13
712.031	9792.62
712.375	9710.59
712.719	9675.56
713.063	9763.47
713.407	9721.67
713.75	9659.52
714.094	9699.29
714.438	9547.43
714.782	9624.27
715.125	9586.53
715.469	9510.6
715.812	9580.2
716.156	9515.79
716.499	9506.53
716.843	9470.15
717.186	9436.93
717.53	9518.96
717.873	9416.81
718.216	9464.5
718.559	9429.24
718.902	9305.63
719.246	9373.43
719.589	9337.72
719.932	9313.99
720.275	9288.91
720.617	9238.29
720.96	9297.95
721.303	9298.4
721.646	9241.23
721.989	9233.77
722.331	9244.84
722.674	9270.83
723.016	9217.95
723.359	9254.56
723.701	9191.28
724.044	9154.45
724.386	9134.79
724.729	9131.62
725.071	9128.46
725.413	9093.43
725.755	9125.97
726.097	9111.29
726.439	9141.79
726.782	9028.58
727.124	9084.17
727.465	9033.1
727.807	9097.95
728.149	8984.06
728.491	8995.58
728.833	8985.41
729.175	8949.48
729.516	9023.83
729.858	9049.37
730.199	9048.46
730.541	9038.75
730.882	9052.08
731.224	9045.98
731.565	8984.74
731.906	8925.3
732.248	8976.83
732.589	8968.01
732.93	8938.18
733.271	8893.44
733.612	8994.45
733.953	9001.68
734.294	8984.28
734.635	8940.22
734.976	8917.39
735.317	8944.96
735.658	8972.53
735.999	8914.91
736.339	8916.26
736.68	9007.33
737.021	8927.79
737.361	8914.68
737.702	8970.5
738.042	9011.18
738.383	8941.57
738.723	8975.7
739.063	8988.8
739.404	9005.53
739.744	8946.54
740.084	8973.66
740.424	9001.01
740.764	8997.84
741.104	9002.36
741.444	9009.14
741.784	9006.66
742.124	9099.31
742.464	9111.74
742.804	9050.04
743.143	9083.26
743.483	9110.38
743.823	9120.33
744.162	9116.48
744.502	9229.25
744.841	9137.5
745.181	9165.07
745.52	9276.71
745.86	9256.37
746.199	9240.1
746.538	9330.94
746.877	9358.06
747.216	9396.02
747.556	9427.21
747.895	9452.75
748.234	9476.93
748.573	9513.08
748.911	9606.87
749.25	9731.38
749.589	9704.26
749.928	9777.71
750.267	9866.75
750.605	9835.79
750.944	9982
751.283	9991.26
751.621	10142.67
751.96	10169.56
752.298	10242.78
752.636	10305.38
752.975	10320.97
753.313	10428.54
753.651	10581.76
753.989	10644.58
754.327	10714.18
754.666	10834.86
755.004	11017
755.342	11113.49
755.679	11200.04
756.017	11317.1
756.355	11434.61
756.693	11515.52
757.031	11688.17
757.368	11808.84
757.706	11846.13
758.044	12016.29
758.381	12222.39
758.719	12388.94
759.056	12411.31
759.394	12603.4
759.731	12744.18
760.068	12852.88
760.405	13005.19
760.743	13128.58
761.08	13380.55
761.417	13425.52
761.754	13613.54
762.091	13780.77
762.428	13887.43
762.765	14014.21
763.102	14291.94
763.438	14376.91
763.775	14457.59
764.112	14632.72
764.449	14853.73
764.785	14949.1
765.122	15012.6
765.458	15181.86
765.795	15326.49
766.131	15486.03
766.467	15758.57
766.804	15727.38
767.14	15855.74
767.476	16024.32
767.812	16135.96
768.148	16260.02
768.485	16217.99
768.821	16469.51
769.157	16538.66
769.492	16710.63
769.828	16876.73
770.164	16953.79
770.5	17001.47
770.836	17180
771.171	17178.19
771.507	17204.86
771.842	17390.16
772.178	17463.16
772.513	17568.46
772.849	17609.82
773.184	17680.78
773.519	17712.64
773.855	17801.9
774.19	17824.05
774.525	17956.93
774.86	18014.33
775.195	18095.23
775.53	18099.98
775.865	18071.95
776.2	18075.8
776.535	18091.39
776.87	18148.11
777.205	18139.07
777.539	18252.74
777.874	18299.74
778.209	18240.76
778.543	18297.03
778.878	18333.87
779.212	18340.2
779.547	18390.14
779.881	18523.02
780.215	18396.69
780.55	18492.28
780.884	18387.65
781.218	18472.62
781.552	18592.84
781.886	18473.75
782.22	18479.4
782.554	18464.03
782.888	18386.97
783.222	18412.74
783.556	18413.87
783.889	18414.32
784.223	18301.55
784.557	18367.77
784.89	18444.15
785.224	18355.79
785.557	18364.6
785.891	18278.28
786.224	18347.2
786.558	18301.78
786.891	18092.52
787.224	18220.2
787.557	18134.55
787.891	18117.83
788.224	18135.23
788.557	18166.64
788.89	18183.59
789.223	18178.62
789.556	18142.23
789.888	18058.17
790.221	17934.78
790.554	17845.07
790.887	17895.91
791.219	17840.1
791.552	17749.93
791.884	17744.51
792.217	17686.65
792.549	17737.73
792.882	17657.28
793.214	17561.91
793.546	17692.53
793.879	17549.26
794.211	17543.83
794.543	17555.13
794.875	17584.96
795.207	17564.17
795.539	17415.02
795.871	17508.13
796.203	17424.74
796.535	17297.51
796.867	17339.09
797.198	17275.59
797.53	17196.5
797.862	17183.84
798.193	17220.23
798.525	17077.63
798.856	17116.95
799.188	17077.86
799.519	16928.93
799.85	16759.67
800.182	16866.79
800.513	16812.1
800.844	16738.43
801.175	16855.04
801.506	16778.65
801.837	16849.61
802.168	16648.94
802.499	16695.95
802.83	16589.28
803.161	16536.4
803.491	16609.39
803.822	16655.72
804.153	16417.53
804.483	16344.77
804.814	16279.91
805.145	16375.73
805.475	16256.41
805.805	16168.5
806.136	16137.77
806.466	16164.43
806.796	16215.51
807.126	16048.96
807.457	16065.91
807.787	16062.97
808.117	16043.31
808.447	16020.26
808.777	15946.59
809.107	15876.98
809.436	15829.08
809.766	15784.78
810.096	15753.15
810.426	15767.61
810.755	15741.17
811.085	15799.7
811.414	15708.4
811.744	15621.4
812.073	15578.01
812.403	15578.46
812.732	15487.62
813.061	15522.87
813.39	15438.35
813.719	15416.2
814.049	15509.08
814.378	15405.81
814.707	15315.64
815.036	15286.04
815.365	15332.59
815.693	15210.79
816.022	15171.24
816.351	15157.91
816.68	15091.92
817.008	15172.82
817.337	14999.27
817.665	14889.44
817.994	15060.96
818.322	14942.77
818.651	14929.66
818.979	14877.69
819.307	14990.91
819.636	14837.24
819.964	14828.42
820.292	14891.7
820.62	14866.84
820.948	14757.01
821.276	14925.82
821.604	14796.79
821.932	14847.63
822.259	14841.3
822.587	14817.58
822.915	14823
823.243	14859.16
823.57	14766.73
823.898	14769.67
824.225	14740.06
824.553	14768.76
824.88	14767.86
825.207	14794.75
825.535	14788.2
825.862	14851.47
826.189	14747.3
826.516	14827.29
826.843	14910.46
827.17	14879.04
827.497	14880.63
827.824	14853.51
828.151	14866.39
828.478	14736.9
828.805	14912.94
829.131	14832.27
829.458	14842.89
829.785	14807.63
830.111	14793.4
830.438	14839.04
830.764	14782.1
831.09	14730.8
831.417	14721.99
831.743	14851.7
832.069	14780.52
832.395	14743.45
832.722	14774.64
833.048	14762.44
833.374	14809.89
833.7	14684.47
834.026	14728.77
834.351	14750.01
834.677	14731.7
835.003	14664.36
835.329	14674.3
835.654	14700.97
835.98	14691.25
836.306	14662.78
836.631	14611.25
836.956	14663.46
837.282	14621.42
837.607	14494.2
837.932	14563.8
838.258	14602.21
838.583	14431.6
838.908	14382.33
839.233	14493.07
839.558	14328.78
839.883	14373.52
840.208	14367.87
840.533	14418.49
840.858	14312.51
841.182	14314.76
841.507	14256.91
841.832	14220.3
842.156	14139.4
842.481	14246.97
842.805	14183.02
843.13	14121.32
843.454	14082.91
843.778	14014.66
844.103	14012.85
844.427	13955
844.751	14074.09
845.075	13913.87
845.399	13800.88
845.723	13754.33
846.047	13875.45
846.371	13644.5
846.695	13766.08
847.019	13560.43
847.343	13547.1
847.666	13465.07
847.99	13448.57
848.313	13417.61
848.637	13311.85
848.96	13297.62
849.284	13242.48
849.607	13173.78
849.931	13078.19
850.254	13122.71
850.577	13048.58
850.9	12947.12
851.223	12935.14
851.546	12772.88
851.869	12806.1
852.192	12831.64
852.515	12737.63
852.838	12692.21
853.161	12656.73
853.483	12590.29
853.806	12566.79
854.129	12519.78
854.451	12515.94
854.774	12386
855.096	12348.71
855.419	12346.46
855.741	12310.98
856.063	12331.77
856.385	12218.1
856.708	12186.91
857.03	12169.28
857.352	12146.46
857.674	12047.03
857.996	12072.79
858.318	12003.19
858.64	12010.87
858.961	11980.59
859.283	11879.8
859.605	11839.12
859.926	11898.33
860.248	11751.89
860.57	11816.07
860.891	11768.84
861.212	11747.37
861.534	11640.03
861.855	11622.18
862.176	11662.63
862.498	11613.14
862.819	11626.7
863.14	11592.12
863.461	11595.97
863.782	11534.72
864.103	11539.24
864.424	11524.33
864.745	11548.28
865.065	11459.7
865.386	11478
865.707	11371.79
866.027	11358.68
866.348	11390.77
866.668	11380.83
866.989	11300.83
867.309	11288.63
867.63	11266.48
867.95	11278.01
868.27	11238.01
868.59	11235.98
868.91	11176.32
869.23	11188.52
869.55	11173.6
869.87	11184.23
870.19	11132.7
870.51	11162.53
870.83	11142.87
871.15	11090.67
871.469	11091.8
871.789	11106.04
872.109	11073.04
872.428	10958.02
872.748	11057.9
873.067	10924.57
873.386	11006.6
873.706	10971.8
874.025	10962.76
874.344	10876.89
874.663	10910.79
874.982	10857.68
875.301	10848.87
875.62	10877.12
875.939	10806.38
876.258	10864.46
876.577	10765.71
876.896	10766.84
877.214	10784.91
877.533	10699.94
877.852	10687.29
878.17	10698.36
878.489	10703.56
878.807	10638.48
879.125	10623.34
879.444	10619.72
879.762	10596.44
880.08	10606.84
880.398	10531.81
880.716	10583.34
881.034	10512.38
881.352	10500.85
881.67	10447.52
881.988	10475.32
882.306	10470.57
882.624	10432.38
882.941	10400.29
883.259	10365.94
883.577	10368.65
883.894	10321.2
884.212	10344.47
884.529	10347.41
884.846	10302.89
885.164	10216.34
885.481	10184.48
885.798	10232.84
886.115	10170.47
886.432	10155.33
886.75	10151.94
887.067	10106.51
887.383	10059.06
887.7	10077.81
888.017	10005.5
888.334	10048.21
888.651	9991.71
888.967	10048.44
889.284	9889.8
889.6	9859.74
889.917	9915.11
890.233	9841.66
890.55	9784.49
890.866	9800.31
891.182	9713.76
891.498	9737.03
891.815	9702.46
892.131	9676.69
892.447	9624.72
892.763	9606.87
893.079	9616.58
893.395	9593.99
893.71	9572.06
894.026	9505.85
894.342	9471.28
894.657	9412.07
894.973	9431.73
895.289	9391.28
895.604	9409.13
895.92	9319.87
896.235	9206.2
896.55	9276.48
896.865	9215.92
897.181	9164.17
897.496	9155.13
897.811	9111.96
898.126	9080.78
898.441	9034.23
898.756	9043.94
899.071	8946.09
899.386	8959.88
899.7	8861.35
900.015	8893.21
900.33	8777.06
900.644	8751.3
900.959	8820.45
901.273	8743.39
901.588	8692.54
901.902	8663.16
902.216	8635.14
902.531	8641.24
902.845	8610.96
903.159	8561.24
903.473	8454.13
903.787	8480.57
904.101	8446.22
904.415	8428.37
904.729	8345.88
905.042	8338.42
905.356	8326.22
905.67	8243.51
905.984	8278.54
906.297	8294.13
906.611	8145.21
906.924	8203.51
907.237	8204.19
907.551	8113.35
907.864	8156.06
908.177	8128.26
908.491	7977.08
908.804	7954.03
909.117	7978.66
909.43	7893.69
909.743	7867.48
910.056	7835.84
910.368	7804.43
910.681	7711.55
910.994	7876.52
911.307	7712.68
911.619	7681.04
911.932	7636.52
912.244	7620.03
912.557	7606.69
912.869	7549.29
913.181	7507.49
913.494	7467.04
913.806	7497.99
914.118	7463.65
914.43	7424.1
914.742	7356.53
915.054	7323.08
915.366	7385.23
915.678	7303.2
915.99	7295.06
916.302	7223.88
916.613	7212.58
916.925	7206.93
917.236	7100.04
917.548	7135.07
917.859	7088.97
918.171	7098.01
918.482	7055.75
918.794	7057.33
919.105	6954.73
919.416	6975.3
919.727	6920.83
920.038	6932.59
920.349	6900.04
920.66	6858.24
920.971	6824.11
921.282	6764.91
921.593	6783.89
921.903	6716.09
922.214	6682.65
922.525	6725.13
922.835	6608.98
923.146	6597.68
923.456	6611.92
923.767	6567.85
924.077	6524.91
924.387	6506.61
924.697	6470.68
925.008	6432.94
925.318	6389.55
925.628	6384.35
925.938	6343.22
926.248	6317.01
926.558	6316.56
926.867	6304.35
927.177	6257.58
927.487	6238.14
927.796	6138.03
928.106	6189.55
928.416	6141.42
928.725	6154.3
929.034	6113.17
929.344	6119.5
929.653	6083.79
929.962	5990.24
930.271	6004.47
930.581	5981.2
930.89	5981.65
931.199	5928.32
931.508	5940.97
931.817	5908.21
932.125	5905.27
932.434	5904.82
932.743	5764.03
933.051	5782.56
933.36	5799.96
933.669	5726.29
933.977	5796.12
934.286	5745.95
934.594	5721.77
934.902	5658.72
935.21	5634.54
935.519	5629.57
935.827	5600.19
936.135	5502.34
936.443	5516.13
936.751	5544.15
937.059	5507.76
937.367	5470.48
937.674	5482.23
937.982	5428.67
938.29	5391.38
938.597	5393.42
938.905	5331.72
939.213	5298.28
939.52	5353.42
939.827	5308
940.135	5249.47
940.442	5254.21
940.749	5250.37
941.056	5237.94
941.363	5154.55
941.67	5118.85
941.977	5133.99
942.284	5092.63
942.591	5117.72
942.898	5076.14
943.205	5088.57
943.511	4990.94
943.818	5027.1
944.125	4941.23
944.431	4954.78
944.738	4934.9
945.044	4985.07
945.35	4874.56
945.657	4868.23
945.963	4826.43
946.269	4785.98
946.575	4852.41
946.881	4759.08
947.187	4751.17
947.493	4724.06
947.799	4709.14
948.105	4697.84
948.41	4687.67
948.716	4665.53
949.022	4649.71
949.327	4670.72
949.633	4626.21
949.938	4587.34
950.244	4512.99
950.549	4544.63
950.854	4531.75
951.16	4475.25
951.465	4510.95
951.77	4448.13
952.075	4414.46
952.38	4401.35
952.685	4421.47
952.99	4360
953.294	4348.7
953.599	4357.29
953.904	4315.71
954.209	4317.06
954.513	4311.41
954.818	4295.82
955.122	4274.35
955.426	4251.75
955.731	4203.84
956.035	4168.59
956.339	4185.54
956.643	4198.19
956.948	4153
957.252	4154.58
957.556	4139.89
957.86	4080.46
958.163	4053.34
958.467	4110.06
958.771	4084.07
959.075	4053.79
959.378	3983.51
959.682	3997.3
959.985	4003.62
960.289	3943.29
960.592	3927.92
960.896	3902.61
961.199	3945.32
961.502	3899.9
961.805	3904.19
962.108	3856.96
962.411	3882.04
962.714	3832.1
963.017	3827.81
963.32	3850.86
963.623	3815.15
963.926	3780.8
964.228	3742.16
964.531	3769.05
964.833	3741.71
965.136	3723.63
965.438	3678.43
965.741	3646.34
966.043	3637.76
966.345	3673.46
966.648	3626.91
966.95	3635.95
967.252	3589.62
967.554	3545.78
967.856	3572.9
968.158	3559.12
968.46	3530.87
968.761	3502.39
969.063	3439.12
969.365	3464.43
969.666	3462.17
969.968	3419.91
970.269	3449.06
970.571	3453.81
970.872	3367.26
971.174	3353.47
971.475	3393.47
971.776	3336.75
972.077	3328.84
972.378	3339.91
972.679	3303.3
972.98	3329.07
973.281	3321.38
973.582	3271.67
973.883	3253.36
974.183	3237.99
974.484	3219.01
974.785	3233.02
975.085	3201.61
975.386	3211.1
975.686	3166.13
975.986	3144.66
976.287	3153.25
976.587	3124.55
976.887	3143.31
977.187	3111.44
977.487	3091.11
977.787	3108.73
978.087	3078
978.387	3054.5
978.687	3088.39
978.987	3002.97
979.286	2993.71
979.586	3025.12
979.885	2994.16
980.185	2951.22
980.484	2960.04
980.784	2934.73
981.083	2925.23
981.382	2922.3
981.682	2901.28
981.981	2919.81
982.28	2890.21
982.579	2894.27
982.878	2857.66
983.177	2855.86
983.475	2809.3
983.774	2800.49
984.073	2819.7
984.372	2807.27
984.67	2762.75
984.969	2809.3
985.267	2808.4
985.566	2736.09
985.864	2737.67
986.162	2748.74
986.461	2682.08
986.759	2675.07
987.057	2707.61
987.355	2683.88
987.653	2641.4
987.951	2630.55
988.249	2616.32
988.547	2627.61
988.844	2622.64
989.142	2586.71
989.44	2586.71
989.737	2572.47
990.035	2539.48
990.332	2532.48
990.63	2564.79
990.927	2528.86
991.224	2532.93
991.521	2482.53
991.819	2483.21
992.116	2502.42
992.413	2449.31
992.71	2471.69
993.006	2460.61
993.303	2448.41
993.6	2406.6
993.897	2409.32
994.193	2424
994.49	2386.49
994.787	2393.27
995.083	2371.58
995.379	2352.14
995.676	2332.26
995.972	2304.23
996.268	2305.82
996.565	2302.88
996.861	2304.01
997.157	2273.27
997.453	2295.19
997.749	2283.67
998.044	2248.87
998.34	2212.26
998.636	2203.9
998.932	2226.5
999.227	2222.43
999.523	2198.93
999.818	2193.73
1000.114	2181.52
1000.409	2134.29
1000.704	2133.62
1001	2106.72
1001.295	2121.19
1001.59	2105.59
1001.885	2125.48
1002.18	2056.33
1002.475	2081.19
1002.77	2075.09
1003.065	2031.92
1003.359	2059.72
1003.654	2061.75
1003.949	2000.74
1004.243	2003.45
1004.538	1992.15
1004.832	1979.72
1005.127	1982.89
1005.421	1981.08
1005.715	1966.61
1006.009	1928.88
1006.304	1938.14
1006.598	1894.75
1006.892	1937.92
1007.186	1897.69
1007.48	1890.23
1007.773	1863.34
1008.067	1874.19
1008.361	1886.17
1008.655	1836.45
1008.948	1835.77
1009.242	1825.6
1009.535	1821.31
1009.829	1779.95
1010.122	1788.54
1010.415	1796.9
1010.708	1779.95
1011.001	1744.47
1011.295	1717.13
1011.588	1734.76
1011.881	1726.17
1012.173	1725.94
1012.466	1703.57
1012.759	1713.29
1013.052	1679.39
1013.344	1708.77
1013.637	1678.71
1013.93	1654.98
1014.222	1647.3
1014.514	1654.08
1014.807	1612.05
1015.099	1606.4
1015.391	1647.75
1015.683	1642.78
1015.976	1579.28
1016.268	1610.47
1016.56	1602.56
1016.851	1579.51
1017.143	1544.71
1017.435	1529.11
1017.727	1545.38
1018.018	1526.63
1018.31	1521.43
1018.602	1490.7
1018.893	1509.9
1019.185	1519.17
1019.476	1482.79
1019.767	1474.42
1020.058	1455.89
1020.35	1454.31
1020.641	1435.33
1020.932	1430.58
1021.223	1414.54
1021.514	1396.69
1021.804	1411.38
1022.095	1401.43
1022.386	1393.3
1022.677	1379.06
1022.967	1368.89
1023.258	1374.09
1023.548	1333.41
1023.839	1319.4
1024.129	1347.42
1024.419	1319.63
1024.709	1319.17
1025	1315.11
1025.29	1291.15
1025.58	1291.15
1025.87	1278.27
1026.16	1261.1
1026.449	1313.3
1026.739	1260.42
1027.029	1272.4
1027.319	1244.6
1027.608	1244.15
1027.898	1233.07
1028.187	1203.25
1028.477	1212.51
1028.766	1221.32
1029.055	1184.26
1029.344	1193.08
1029.634	1169.8
1029.923	1158.73
1030.212	1155.34
1030.501	1179.07
1030.79	1150.82
1031.078	1148.11
1031.367	1130.48
1031.656	1118.05
1031.945	1149.69
1032.233	1111.5
1032.522	1101.55
1032.81	1077.82
1033.099	1078.05
1033.387	1080.54
1033.675	1070.14
1033.963	1080.54
1034.251	1073.31
1034.54	1078.05
1034.828	1037.6
1035.116	1041.67
1035.403	1031.72
1035.691	1018.17
1035.979	1024.04
1036.267	1001.67
1036.554	1000.76
1036.842	987.66
1037.129	994.89
1037.417	991.95
1037.704	975.45
1037.992	988.11
1038.279	978.62
1038.566	955.34
1038.853	955.34
1039.14	955.34
