Data from hue_320_FLMS001491_38.txt Node
Date: Mon Feb 06 15:47:07 GMT 2017
User: dcchb
Spectrometer: FLMS00149
Trigger mode: 0
Integration Time (sec): 2.000000E-2
Scans to average: 10
Electric dark correction enabled: true
Nonlinearity correction enabled: false
Boxcar width: 0
XAxis mode: Wavelengths
Number of Pixels in Spectrum: 2048
>>>>>Begin Spectral Data<<<<<
341.393	-8.22
341.776	-8.22
342.16	-8.22
342.543	-59.07
342.927	-68.33
343.31	-75.34
343.693	-60.42
344.077	-87.99
344.46	-69.69
344.843	-50.7
345.226	-41.21
345.61	-34.43
345.993	-15.45
346.376	-2.8
346.759	1.05
347.142	34.94
347.525	39.24
347.908	67.94
348.291	70.42
348.674	103.42
349.057	121.04
349.44	144.09
349.823	144.54
350.206	174.15
350.588	206.92
350.971	205.79
351.354	208.05
351.737	217.99
352.119	255.28
352.502	260.47
352.884	251.43
353.267	254.6
353.65	293.01
354.032	287.82
354.414	305.44
354.797	315.39
355.179	326.91
355.562	333.24
355.944	340.25
356.326	316.29
356.709	333.69
357.091	337.08
357.473	344.54
357.855	340.25
358.238	344.76
358.62	326.91
359.002	309.06
359.384	335.05
359.766	348.83
360.148	335.95
360.53	337.31
360.912	323.97
361.294	337.53
361.676	332.34
362.057	337.53
362.439	335.95
362.821	337.76
363.203	317.42
363.584	319.68
363.966	324.2
364.348	315.84
364.729	324.2
365.111	314.94
365.493	326.69
365.874	297.08
366.256	315.61
366.637	331.21
367.019	312.68
367.4	315.84
367.781	318.78
368.163	320.13
368.544	318.78
368.925	298.66
369.306	308.61
369.688	318.78
370.069	308.16
370.45	289.63
370.831	307.93
371.212	314.03
371.593	312.45
371.974	294.6
372.355	306.35
372.736	307.48
373.117	319.91
373.498	307.93
373.879	316.29
374.26	341.6
374.641	292.56
375.021	304.54
375.402	309.74
375.783	322.39
376.163	310.19
376.544	319.23
376.925	306.57
377.305	307.48
377.686	317.42
378.066	324.43
378.447	325.33
378.827	321.71
379.208	325.78
379.588	314.94
379.968	321.04
380.349	342.28
380.729	328.04
381.109	326.69
381.489	347.02
381.87	314.26
382.25	349.06
382.63	337.08
383.01	344.76
383.39	347.93
383.77	322.39
384.15	330.75
384.53	340.47
384.91	332.56
385.29	323.52
385.67	334.82
386.049	339.34
386.429	364.88
386.809	345.44
387.189	357.65
387.568	333.92
387.948	346.12
388.328	350.41
388.707	341.38
389.087	340.7
389.466	367.59
389.846	364.88
390.225	359.45
390.605	375.72
390.984	379.57
391.363	368.04
391.743	360.36
392.122	377.08
392.501	354.26
392.881	363.52
393.26	374.82
393.639	367.36
394.018	382.05
394.397	379.57
394.776	379.34
395.155	387.48
395.534	373.01
395.913	376.63
396.292	371.2
396.671	384.09
397.05	387.48
397.429	403.52
397.808	372.33
398.186	385.89
398.565	388.38
398.944	375.5
399.323	377.53
399.701	379.11
400.08	397.64
400.458	381.6
400.837	384.76
401.215	405.78
401.594	384.54
401.972	415.72
402.351	413.01
402.729	422.73
403.107	400.58
403.486	391.77
403.864	420.47
404.242	427.02
404.62	434.25
404.999	410.07
405.377	416.63
405.755	408.72
406.133	433.8
406.511	422.73
406.889	462.5
407.267	424.76
407.645	439.45
408.023	454.82
408.401	436.06
408.779	458.66
409.156	460.24
409.534	471.32
409.912	455.27
410.29	486.46
410.667	487.59
411.045	494.59
411.422	495.95
411.8	483.52
412.178	487.13
412.555	500.47
412.933	497.53
413.31	502.5
413.687	522.39
414.065	528.04
414.442	523.07
414.819	529.84
415.197	549.51
415.574	549.96
415.951	547.25
416.328	554.48
416.705	567.13
417.082	580.92
417.46	588.83
417.837	586.11
418.214	598.09
418.591	609.16
418.967	593.8
419.344	600.13
419.721	637.19
420.098	638.54
420.475	638.77
420.852	652.55
421.228	640.8
421.605	629.96
421.982	636.96
422.358	672.21
422.735	650.52
423.111	678.99
423.488	686.68
423.864	707.02
424.241	691.2
424.617	691.42
424.994	690.07
425.37	695.72
425.746	707.69
426.123	721.25
426.499	731.65
426.875	736.62
427.251	766.9
427.627	757.18
428.003	743.85
428.379	770.52
428.756	758.99
429.132	771.87
429.507	795.83
429.883	798.76
430.259	806.9
430.635	800.57
431.011	790.63
431.387	836.96
431.763	869.04
432.138	858.2
432.514	843.73
432.89	861.59
433.265	870.63
433.641	877.63
434.016	894.36
434.392	893
434.767	917.18
435.143	900.23
435.518	944.07
435.894	937.97
436.269	950.85
436.644	949.95
437.02	957.18
437.395	931.87
437.77	949.95
438.145	980.68
438.52	994.01
438.895	999.44
439.271	1002.37
439.646	995.37
440.021	1043.73
440.395	1031.98
440.77	1023.17
441.145	1045.99
441.52	1013.9
441.895	1028.59
442.27	1062.71
442.645	1032.43
443.019	1066.78
443.394	1088.25
443.769	1054.35
444.143	1090.96
444.518	1083.28
444.892	1059.77
445.267	1072.66
445.641	1077.85
446.016	1101.36
446.39	1099.55
446.764	1105.65
447.139	1117.4
447.513	1141.13
447.887	1125.31
448.262	1133.9
448.636	1135.93
449.01	1117.85
449.384	1161.92
449.758	1139.77
450.132	1168.25
450.506	1166.89
450.88	1167.79
451.254	1176.16
451.628	1175.7
452.002	1200.11
452.376	1182.48
452.75	1203.05
453.123	1208.02
453.497	1213.22
453.871	1228.81
454.244	1272.65
454.618	1224.97
454.992	1258.87
455.365	1238.07
455.739	1252.31
456.112	1270.16
456.486	1276.94
456.859	1292.76
457.232	1320.33
457.606	1306.55
457.979	1299.09
458.352	1328.02
458.725	1336.83
459.099	1361.69
459.472	1367.34
459.845	1346.09
460.218	1348.35
460.591	1414.12
460.964	1400.78
461.337	1412.53
461.71	1418.18
462.083	1452.53
462.456	1430.84
462.829	1455.24
463.201	1445.07
463.574	1501.12
463.947	1491.18
464.32	1495.47
464.692	1527.56
465.065	1527.78
465.438	1537.5
465.81	1553.09
466.183	1555.58
466.555	1588.57
466.928	1596.26
467.3	1565.3
467.672	1603.94
468.045	1653.43
468.417	1643.04
468.789	1651.62
469.161	1673.09
469.534	1679.87
469.906	1725.07
470.278	1741.56
470.65	1710.38
471.022	1757.16
471.394	1783.15
471.766	1790.38
472.138	1783.6
472.51	1825.18
472.882	1845.52
473.253	1893.2
473.625	1877.38
473.997	1888.91
474.369	1930.03
474.74	1928.9
475.112	1944.95
475.484	1984.72
475.855	2022.01
476.227	2038.05
476.598	2078.05
476.97	2081.44
477.341	2112.63
477.713	2114.89
478.084	2139.75
478.455	2189.46
478.827	2176.81
479.198	2257.48
479.569	2264.26
479.94	2320.31
480.311	2297.03
480.682	2319.85
481.053	2365.95
481.424	2390.13
481.795	2417.7
482.166	2422.9
482.537	2480.53
482.908	2508.32
483.279	2540.41
483.65	2574.31
484.021	2588.32
484.391	2571.15
484.762	2654.53
485.133	2673.07
485.503	2690.92
485.874	2693.4
486.244	2740.18
486.615	2785.38
486.985	2804.36
487.356	2843.91
487.726	2851.59
488.097	2878.71
488.467	2927.52
488.837	2979.27
489.207	3002.77
489.578	3044.81
489.948	3049.1
490.318	3099.49
490.688	3075.54
491.058	3124.58
491.428	3142.88
491.798	3191.92
492.168	3205.71
492.538	3206.61
492.908	3241.19
493.278	3332.93
493.648	3278.02
494.017	3311.01
494.387	3359.6
494.757	3412.25
495.126	3421.07
495.496	3449.99
495.866	3403.89
496.235	3442.76
496.605	3450.22
496.974	3516.43
497.344	3534.06
497.713	3553.04
498.082	3535.42
498.452	3600.27
498.821	3577.22
499.19	3595.75
499.559	3618.8
499.928	3676.43
500.298	3630.33
500.667	3685.69
501.036	3699.25
501.405	3691.8
501.774	3715.52
502.143	3778.57
502.512	3718.24
502.88	3786.93
503.249	3781.74
503.618	3792.36
503.987	3802.98
504.356	3863.32
504.724	3816.09
505.093	3860.15
505.462	3871.9
505.83	3891.56
506.199	3854.28
506.567	3907.84
506.936	3955.29
507.304	3933.15
507.672	4018.34
508.041	3978.79
508.409	3973.37
508.777	4009.75
509.145	4041.16
509.514	4051.33
509.882	4036.42
510.25	4068.28
510.618	4065.57
510.986	4093.82
511.354	4128.17
511.722	4081.62
512.09	4108.51
512.458	4182.63
512.826	4185.79
513.193	4165.91
513.561	4179.69
513.929	4216.75
514.297	4274.15
514.664	4223.76
515.032	4237.09
515.4	4267.6
515.767	4267.6
516.135	4334.72
516.502	4230.76
516.869	4323.42
517.237	4376.3
517.604	4332.23
517.972	4327.94
518.339	4331.55
518.706	4373.36
519.073	4355.51
519.44	4342.17
519.808	4375.17
520.175	4407.71
520.542	4470.08
520.909	4442.96
521.276	4466.24
521.643	4488.16
522.009	4476.41
522.376	4523.86
522.743	4523.86
523.11	4562.06
523.477	4578.55
523.843	4653.8
524.21	4597.76
524.577	4660.36
524.943	4663.97
525.31	4703.97
525.676	4747.59
526.043	4727.47
526.409	4745.1
526.776	4813.35
527.142	4821.48
527.508	4852.44
527.874	4862.16
528.241	4909.39
528.607	4875.72
528.973	4940.8
529.339	4927.47
529.705	4969.28
530.071	5046.56
530.437	4978.54
530.803	5042.04
531.169	5053.57
531.535	5086.34
531.901	5044.08
532.267	5121.59
532.632	5094.92
532.998	5143.96
533.364	5108.93
533.73	5174.02
534.095	5233
534.461	5215.15
534.826	5263.73
535.192	5268.93
535.557	5276.84
535.923	5289.27
536.288	5363.16
536.653	5368.59
537.019	5395.93
537.384	5362.49
537.749	5446.55
538.114	5432.09
538.479	5397.29
538.845	5507.12
539.21	5456.72
539.575	5566.1
539.94	5546.66
540.305	5533.56
540.67	5561.8
541.034	5609.26
541.399	5607
541.764	5639.99
542.129	5624.17
542.494	5707.79
542.858	5670.05
543.223	5702.59
543.587	5781.68
543.952	5782.14
544.316	5786.2
544.681	5726.77
545.045	5789.59
545.41	5894.22
545.774	5905.07
546.138	5886.77
546.503	5926.54
546.867	5908.91
547.231	5952.98
547.595	5932.19
547.959	6033.43
548.324	6069.81
548.688	6072.3
549.052	6086.31
549.416	6077.27
549.779	6120.43
550.143	6085.63
550.507	6185.97
550.871	6202.01
551.235	6244.04
551.599	6190.71
551.962	6276.36
552.326	6228.9
552.689	6269.81
553.053	6190.71
553.417	6232.52
553.78	6367.43
554.143	6342.35
554.507	6379.18
554.87	6368.79
555.234	6446.98
555.597	6423.93
555.96	6465.51
556.323	6453.76
556.686	6463.47
557.05	6499.18
557.413	6496.69
557.776	6528.78
558.139	6575.34
558.502	6581.66
558.865	6582.12
559.228	6599.74
559.59	6589.35
559.953	6699.63
560.316	6677.48
560.679	6719.74
561.041	6744.82
561.404	6794.31
561.767	6799.74
562.129	6746.18
562.492	6792.73
562.854	6791.6
563.217	6827.98
563.579	6899.17
563.941	6963.8
564.304	6921.77
564.666	6991.14
565.028	7002.89
565.39	7020.75
565.753	7001.99
566.115	7073.4
566.477	7029.79
566.839	7115.66
567.201	7142.78
567.563	7156.34
567.925	7189.33
568.287	7215.54
568.648	7200.86
569.01	7273.85
569.372	7243.34
569.734	7272.94
570.095	7338.48
570.457	7388.42
570.819	7394.52
571.18	7366.5
571.542	7492.83
571.903	7465.03
572.265	7507.74
572.626	7592.26
572.987	7627.06
573.349	7653.05
573.71	7706.38
574.071	7773.72
574.432	7751.12
574.794	7870.22
575.155	7927.16
575.516	7898.92
575.877	8031.79
576.238	8042.64
576.599	8121.51
576.96	8124.9
577.32	8281.05
577.681	8314.05
578.042	8406.93
578.403	8459.81
578.763	8557.43
579.124	8636.52
579.485	8765.33
579.845	8847.14
580.206	8878.1
580.566	9090.3
580.927	9169.62
581.287	9315.15
581.648	9391.53
582.008	9488.25
582.368	9687.8
582.728	9822.26
583.089	9879.66
583.449	10102.25
583.809	10271.96
584.169	10388.57
584.529	10616.81
584.889	10822.23
585.249	10893.87
585.609	11112.84
585.969	11360.97
586.329	11489.1
586.688	11751.7
587.048	11911.01
587.408	12178.58
587.768	12375.64
588.127	12637.55
588.487	12776.98
588.846	13129.74
589.206	13248.83
589.565	13563.63
589.925	13838.2
590.284	14119.54
590.643	14399.99
591.003	14738.51
591.362	14943.7
591.721	15172.4
592.08	15439.06
592.44	15739.39
592.799	16099.15
593.158	16178.92
593.517	16469.76
593.876	16822.98
594.235	17147.49
594.593	17483.52
594.952	17730.97
595.311	17981.59
595.67	18257.74
596.029	18734.11
596.387	19038.96
596.746	19270.14
597.104	19476.69
597.463	19727.98
597.822	20131.14
598.18	20404.58
598.538	20524.8
598.897	21179.92
599.255	21152.58
599.613	21761.6
599.972	21779.23
600.33	22254.92
600.688	22351.19
601.046	22819.65
601.404	23053.32
601.762	23376.7
602.12	23728.1
602.478	23865.05
602.836	24179.17
603.194	24366.96
603.552	24695.31
603.91	24806.27
604.268	25115.41
604.625	25213.26
604.983	25770.99
605.341	25836.75
605.698	26199.45
606.056	26490.07
606.413	26588.14
606.771	27058.41
607.128	27293.66
607.485	27262.7
607.843	27669.7
608.2	27978.84
608.557	28267.87
608.914	28318.72
609.272	28609.56
609.629	28752.61
609.986	29078.02
610.343	29231.24
610.7	29556.43
611.057	29692.92
611.414	29827.83
611.771	30111.89
612.127	30359.34
612.484	30569.96
612.841	30826
613.198	30913
613.554	31125.88
613.911	31452.2
614.267	31570.84
614.624	31563.15
614.98	31857.61
615.337	32070.71
615.693	32125.4
616.05	32240.42
616.406	32653.97
616.762	32765.61
617.118	32764.93
617.475	33012.15
617.831	33122.21
618.187	33277.91
618.543	33384.57
618.899	33708.18
619.255	33800.16
619.611	33926.71
619.967	34067.49
620.323	34128.28
620.678	34154.95
621.034	34299.13
621.39	34413.93
621.746	34453.47
622.101	34892.33
622.457	34855.72
622.812	34864.08
623.168	34989.28
623.523	35180.91
623.879	35410.51
624.234	35211.87
624.589	35434.69
624.945	35582.03
625.3	35535.03
625.655	35717.39
626.01	35735.02
626.365	35855.24
626.72	35831.52
627.075	35874
627.43	36005.52
627.785	35805.53
628.14	36089.81
628.495	36053.2
628.85	36356.25
629.205	36102.47
629.559	36363.48
629.914	36387.89
630.269	36446.19
630.623	36383.82
630.978	36340.88
631.332	36556.47
631.687	36658.84
632.041	36597.6
632.396	36621.1
632.75	36640.08
633.104	36647.99
633.459	36613.87
633.813	36614.77
634.167	36512.18
634.521	36579.07
634.875	36670.36
635.229	36676.69
635.583	36556.02
635.937	36768.44
636.291	36665.84
636.645	36658.61
636.999	36620.42
637.352	36693.41
637.706	36625.84
638.06	36746.29
638.413	36760.08
638.767	36470.82
639.121	36681.89
639.474	36520.31
639.828	36686.86
640.181	36640.76
640.534	36675.34
640.888	36458.84
641.241	36432.4
641.594	36497.94
641.947	36639.18
642.301	36584.26
642.654	36450.03
643.007	36458.62
643.36	36667.88
643.713	36476.7
644.066	36726.63
644.419	36392.63
644.771	36353.99
645.124	36025.63
645.477	35921.46
645.83	35646.21
646.182	35667.45
646.535	35451.64
646.888	35646.21
647.24	35378.65
647.593	35718.75
647.945	35514.91
648.298	35354.47
648.65	35473.11
649.002	35211.19
649.355	35342.04
649.707	35421.81
650.059	35530.73
650.411	35917.61
650.763	36066.09
651.115	36347.43
651.467	36333.88
651.819	36284.61
652.171	36255.23
652.523	36054.33
652.875	36124.16
653.227	35909.71
653.578	36226.76
653.93	36163.26
654.282	36097.27
654.633	35884.62
654.985	36035.58
655.337	36061.34
655.688	35977.05
656.039	36090.49
656.391	35838.29
656.742	35932.53
657.094	35944.96
657.445	36100.89
657.796	35904.06
658.147	35836.04
658.498	35939.99
658.849	35941.12
659.2	35935.69
659.551	35835.58
659.902	35971.4
660.253	35892.98
660.604	35965.98
660.955	35648.02
661.306	35810.73
661.656	35842.36
662.007	35681.69
662.358	35900.44
662.708	35865.41
663.059	35766.88
663.409	35601.01
663.76	35823.83
664.11	35807.11
664.461	35793.1
664.811	35881.46
665.161	35769.82
665.511	35708.35
665.862	35849.37
666.212	35837.62
666.562	35823.61
666.912	35654.34
667.262	35698.41
667.612	35705.64
667.962	35642.14
668.312	35662.03
668.662	35824.74
669.011	35705.64
669.361	35663.84
669.711	35650.28
670.06	35611.41
670.41	35580.45
670.76	35579.32
671.109	35714
671.459	35579.09
671.808	35534.35
672.157	35668.58
672.507	35509.26
672.856	35438.76
673.205	35719.43
673.554	35674.91
673.904	35467.01
674.253	35699.32
674.602	35464.52
674.951	35025.89
675.3	34796.74
675.649	35453.9
675.998	35450.51
676.346	35418.42
676.695	35514.69
677.044	35159.22
677.393	35379.78
677.741	35360.57
678.09	35328.93
678.438	35092.33
678.787	35137.07
679.135	35235.15
679.484	35115.15
679.832	35201.02
680.181	35007.58
680.529	35099.78
680.877	34944.31
681.225	34926.23
681.573	35165.77
681.922	35007.58
682.27	34853.01
682.618	34817.53
682.966	34848.26
683.314	34684.88
683.661	34709.29
684.009	34501.38
684.357	34415.06
684.705	34458.44
685.053	34544.77
685.4	34339.8
685.748	34279.47
686.095	34184.78
686.443	34152.46
686.79	34112.69
687.138	34281.27
687.485	34217.55
687.832	34021.85
688.18	34042.86
688.527	33813.72
688.874	33912.24
689.221	33966.93
689.568	33858.91
689.915	33698.01
690.262	33761.06
690.609	33528.3
690.956	33391.13
691.303	33394.97
691.65	33334.86
691.997	33266.39
692.344	33068.42
692.69	33076.56
693.037	33092.6
693.383	32770.58
693.73	33003.12
694.077	32767.19
694.423	32701.88
694.769	32697.59
695.116	32561.77
695.462	32458.72
695.808	32374.88
696.155	32475.67
696.501	32229.35
696.847	32293.76
697.193	32129.69
697.539	32117.04
697.885	31834.33
698.231	31858.29
698.577	31845.86
698.923	31761.34
699.269	31624.39
699.614	31595.92
699.96	31475.47
700.306	31572.19
700.651	31367.45
700.997	31342.37
701.342	31122.03
701.688	31219.43
702.033	30970.4
702.379	30992.09
702.724	30923.17
703.069	30908.93
703.415	30662.16
703.76	30701.25
704.105	30630.3
704.45	30600.92
704.795	30393.92
705.14	30373.13
705.485	30332
705.83	30189.63
706.175	30327.25
706.52	30167.94
706.865	30107.37
707.209	30067.37
707.554	29963.2
707.899	29965
708.243	29748.96
708.588	29801.84
708.932	29550.78
709.277	29550.1
709.621	29557.1
709.966	29320.5
710.31	29463.32
710.654	29257.45
710.998	29243.44
711.342	29209.99
711.687	28985.59
712.031	28953.5
712.375	28928.87
712.719	28980.85
713.063	28835.77
713.407	28958.7
713.75	28796.22
714.094	28748.09
714.438	28769.33
714.782	28604.81
715.125	28584.47
715.469	28523.46
715.812	28458.15
716.156	28394.65
716.499	28302.67
716.843	28392.39
717.186	28282.34
717.53	28257.48
717.873	28277.14
718.216	28208.44
718.559	28045.51
718.902	27862.46
719.246	27872.4
719.589	27926.19
719.932	27868.56
720.275	27791.5
720.617	27716.02
720.96	27727.1
721.303	27687.55
721.646	27759.19
721.989	27461.34
722.331	27533.43
722.674	27591.51
723.016	27525.97
723.359	27410.95
723.701	27446.88
724.044	27264.96
724.386	27127.56
724.729	27265.41
725.071	27222.7
725.413	27110.61
725.755	27243.72
726.097	26977.74
726.439	26843.73
726.782	26878.08
727.124	26975.03
727.465	26869.49
727.807	26807.8
728.149	26849.83
728.491	26694.81
728.833	26835.82
729.175	26690.51
729.516	26649.16
729.858	26628.37
730.199	26644.19
730.541	26459.78
730.882	26379.79
731.224	26519.44
731.565	26290.52
731.906	26297.08
732.248	26461.82
732.589	26271.09
732.93	26177.98
733.271	26196.74
733.612	26209.85
733.953	26186.57
734.294	26022.28
734.635	26123.07
734.976	26184.09
735.317	25867.48
735.658	25955.39
735.999	26027.03
736.339	25898.44
736.68	25990.42
737.021	25795.4
737.361	25768.73
737.702	25688.05
738.042	25716.75
738.383	25769.18
738.723	25617.32
739.063	25602.63
739.404	25695.06
739.744	25402.86
740.084	25470.43
740.424	25621.16
740.764	25356.76
741.104	25473.82
741.444	25307.72
741.784	25260.27
742.124	25382.3
742.464	25234.73
742.804	25236.09
743.143	25133.27
743.483	25069.31
743.823	25099.59
744.162	24988.86
744.502	25064.79
744.841	24846.27
745.181	25103.89
745.52	24892.37
745.86	24962.87
746.199	24821.64
746.538	24731.24
746.877	24889.2
747.216	24801.75
747.556	24778.7
747.895	24737.12
748.234	24621.19
748.573	24574.41
748.911	24575.77
749.25	24412.15
749.589	24520.17
749.928	24481.31
750.267	24508.88
750.605	24476.11
750.944	24445.83
751.283	24208.09
751.621	24357.92
751.96	24258.26
752.298	24173.06
752.636	24128.77
752.975	24074.99
753.313	23968.1
753.651	24148.21
753.989	24020.75
754.327	23989.79
754.666	23762
755.004	23828.89
755.342	23832.28
755.679	23813.3
756.017	23492.18
756.355	23754.32
756.693	23570.59
757.031	23679.29
757.368	23434.33
757.706	23395.91
758.044	23363.59
758.381	23390.71
758.719	23324.27
759.056	23343.71
759.394	23171.74
759.731	22975.36
760.068	23052.87
760.405	22893.1
760.743	22834.34
761.08	22883.38
761.417	22876.15
761.754	22623.05
762.091	22688.81
762.428	22563.16
762.765	22461.92
763.102	22498.08
763.438	22370.85
763.775	22222.38
764.112	22383.96
764.449	22246.11
764.785	22156.62
765.122	21943.07
765.458	21938.55
765.795	21815.16
766.131	21835.5
766.467	21759.8
766.804	21697.2
767.14	21596.64
767.476	21642.51
767.812	21492.91
768.148	21604.32
768.485	21315.96
768.821	21365.91
769.157	21192.35
769.492	21099.25
769.828	21111
770.164	20922.98
770.5	20992.36
770.836	20969.53
771.171	20802.98
771.507	20780.16
771.842	20527.74
772.178	20654.97
772.513	20551.92
772.849	20534.29
773.184	20357.57
773.519	20444.12
773.855	20301.08
774.19	20224.47
774.525	20110.8
774.86	20141.98
775.195	20059.05
775.53	19964.59
775.865	19872.16
776.2	19678.95
776.535	19611.38
776.87	19602.79
777.205	19530.25
777.539	19409.57
777.874	19479.4
778.209	19246.87
778.543	19330.25
778.878	19168.9
779.212	19098.85
779.547	19041.45
779.881	19066.08
780.215	18956.03
780.55	19009.13
780.884	18765.75
781.218	18780.89
781.552	18732.76
781.886	18591.29
782.22	18473.55
782.554	18504.29
782.888	18280.79
783.222	18306.33
783.556	18171.64
783.889	18150.62
784.223	18071.76
784.557	18037.86
784.89	18078.31
785.224	17924.87
785.557	17731.88
785.891	17899.33
786.224	17728.26
786.558	17663.41
786.891	17603.07
787.224	17539.57
787.557	17421.83
787.891	17441.04
788.224	17416.18
788.557	17371.89
788.89	17346.13
789.223	17261.38
789.556	17224.77
789.888	17016.19
790.221	17057.55
790.554	16952.24
790.887	16930.54
791.219	16852.81
791.552	16727.61
791.884	16749.76
792.217	16634.51
792.549	16600.61
792.882	16494.85
793.214	16421.63
793.546	16456.43
793.879	16292.59
794.211	16223.44
794.543	16253.73
794.875	16274.06
795.207	16272.71
795.539	16193.39
795.871	16150.68
796.203	16069.1
796.535	15921.98
796.867	15959.95
797.198	15841.76
797.53	15876.11
797.862	15757.24
798.193	15695.55
798.525	15673.63
798.856	15709.33
799.188	15495.55
799.519	15500.52
799.85	15416.01
800.182	15383.47
800.513	15406.06
800.844	15241.55
801.175	15277.48
801.506	15217.37
801.837	15139.63
802.168	15129.46
802.499	15016.02
802.83	14940.31
803.161	14958.62
803.491	14933.53
803.822	14975.11
804.153	14828.9
804.483	14771.05
804.814	14758.62
805.145	14683.14
805.475	14737.83
805.805	14647.67
806.136	14617.38
806.466	14604.5
806.796	14508.01
807.126	14368.8
807.457	14438.41
807.787	14391.4
808.117	14306.43
808.447	14218.07
808.777	14254.68
809.107	14205.42
809.436	14248.35
809.766	14076.16
810.096	14083.61
810.426	14066.89
810.755	14075.7
811.085	14019.89
811.414	14024.41
811.744	13939.66
812.073	13891.08
812.403	13903.96
812.732	13795.94
813.061	13762.04
813.39	13696.5
813.719	13686.79
814.049	13661.93
814.378	13708.03
814.707	13556.39
815.036	13642.49
815.365	13558.88
815.693	13383.74
816.022	13456.51
816.351	13308.27
816.68	13298.1
817.008	13365.89
817.337	13198.44
817.665	13188.5
817.994	13189.17
818.322	13194.6
818.651	13181.49
818.979	13041.38
819.307	13112.79
819.636	13117.54
819.964	12965.9
820.292	13001.83
820.62	13030.08
820.948	13061.94
821.276	12972
821.604	12935.85
821.932	12962.51
822.259	12917.54
822.587	12933.36
822.915	12895.4
823.243	12959.8
823.57	12877.09
823.898	13001.38
824.225	12890.2
824.553	12794.61
824.88	12940.37
825.207	12903.98
825.535	12910.99
825.862	12904.66
826.189	12821.73
826.516	12997.99
826.843	12948.05
827.17	12900.37
827.497	12910.54
827.824	12923.19
828.151	12990.53
828.478	12901.72
828.805	12927.26
829.131	12833.48
829.458	12856.3
829.785	12760.94
830.111	12783.99
830.438	12869.86
830.764	12908.73
831.09	12870.76
831.417	12707.83
831.743	12818.34
832.069	12816.75
832.395	12810.65
832.722	12835.96
833.048	12768.85
833.374	12787.83
833.7	12686.81
834.026	12809.97
834.351	12731.78
834.677	12677.32
835.003	12748.51
835.329	12807.94
835.654	12672.8
835.98	12631
836.306	12638.45
836.631	12562.07
836.956	12715.06
837.282	12594.61
837.607	12598
837.932	12533.37
838.258	12599.36
838.583	12485.69
838.908	12317.33
839.233	12532.69
839.558	12456.31
839.883	12433.94
840.208	12380.61
840.533	12390.32
840.858	12408.18
841.182	12353.94
841.507	12325.92
841.832	12180.39
842.156	12265.36
842.481	12218.13
842.805	12203.44
843.13	12145.58
843.454	12130.22
843.778	12102.2
844.103	12009.09
844.427	12033.5
844.751	12010.67
845.075	11977.45
845.399	11972.26
845.723	11857
846.047	11992.82
846.371	11857.46
846.695	11773.62
847.019	11748.31
847.343	11668.53
847.666	11628.54
847.99	11631.25
848.313	11616.33
848.637	11471.48
848.96	11558.48
849.284	11457.24
849.607	11275.32
849.931	11275.1
850.254	11244.37
850.577	11209.34
850.9	11141.77
851.223	11130.92
851.546	11039.62
851.869	10979.74
852.192	10994.88
852.515	10938.61
852.838	10890.93
853.161	10840.76
853.483	10825.85
853.806	10834.66
854.129	10741.78
854.451	10743.59
854.774	10603.48
855.096	10635.12
855.419	10659.75
855.741	10513.76
856.063	10504.05
856.385	10555.12
856.708	10432.18
857.03	10454.78
857.352	10415.91
857.674	10358.51
857.996	10380.66
858.318	10343.15
858.64	10312.19
858.961	10311.28
859.283	10217.95
859.605	10218.18
859.926	10263.83
860.248	10217.95
860.57	10117.84
860.891	10165.75
861.212	10134.34
861.534	10040.33
861.855	10007.11
862.176	10023.15
862.498	10102.02
862.819	10064.96
863.14	9981.12
863.461	9948.35
863.782	9887.34
864.103	9941.8
864.424	9917.39
864.745	9948.13
865.065	9841.46
865.386	9807.12
865.707	9737.29
866.027	9801.47
866.348	9781.35
866.668	9720.79
866.989	9754.24
867.309	9735.25
867.63	9689.6
867.95	9718.08
868.27	9615.03
868.59	9716.95
868.91	9584.3
869.23	9636.72
869.55	9596.27
869.87	9635.37
870.19	9485.32
870.51	9583.84
870.83	9563.96
871.15	9538.2
871.469	9472.89
871.789	9504.07
872.109	9513.79
872.428	9424.3
872.748	9478.76
873.067	9469.27
873.386	9449.61
873.706	9418.2
874.025	9386.56
874.344	9370.52
874.663	9369.16
874.982	9330.74
875.301	9309.05
875.62	9262.27
875.939	9276.51
876.258	9335.71
876.577	9214.59
876.896	9234.93
877.214	9191.99
877.533	9306.56
877.852	9190.63
878.17	9224.08
878.489	9242.84
878.807	9180.46
879.125	9183.85
879.444	9162.39
879.762	9082.16
880.08	9095.04
880.398	9079.45
880.716	9134.14
881.034	9041.49
881.352	9118.32
881.67	9062.5
881.988	9013.69
882.306	8983.63
882.624	8913.35
882.941	8957.87
883.259	8907.7
883.577	8871.77
883.894	8849.4
884.212	8816.41
884.529	8833.81
884.846	8881.49
885.164	8783.87
885.481	8766.24
885.798	8728.95
886.115	8730.08
886.432	8723.75
886.75	8632.68
887.067	8747.93
887.383	8622.74
887.7	8698.44
888.017	8571.22
888.334	8600.37
888.651	8562.63
888.967	8561.27
889.284	8482.4
889.6	8479.24
889.917	8419.81
890.233	8463.42
890.55	8420.48
890.866	8397.89
891.182	8344.1
891.498	8309.75
891.815	8289.87
892.131	8289.87
892.447	8272.92
892.763	8278.79
893.079	8225.69
893.395	8136.2
893.71	8192.69
894.026	8151.34
894.342	8071.34
894.657	8035.64
894.973	8064.34
895.289	8060.95
895.604	8037.44
895.92	7964
896.235	7926.03
896.55	7946.6
896.865	8022.76
897.181	7946.82
897.496	7888.97
897.811	7768.98
898.126	7803.55
898.441	7814.85
898.756	7772.37
899.071	7714.51
899.386	7766.26
899.7	7655.53
900.015	7586.61
900.33	7576.89
900.644	7571.02
900.959	7587.29
901.273	7517.23
901.588	7495.54
901.902	7476.1
902.216	7442.88
902.531	7363.79
902.845	7402.21
903.159	7372.6
903.473	7350.68
903.787	7316.79
904.101	7250.35
904.415	7237.92
904.729	7231.14
905.042	7197.47
905.356	7176.68
905.67	7149.78
905.984	7144.13
906.297	7130.35
906.611	7015.1
906.924	7050.13
907.237	7065.04
907.551	6996.34
907.864	7008.32
908.177	7003.57
908.491	6959.73
908.804	6933.52
909.117	6890.36
909.43	6776.91
909.743	6833.86
910.056	6841.09
910.368	6766.29
910.681	6707.54
910.994	6711.83
911.307	6649.91
911.619	6607.88
911.932	6599.97
912.244	6587.54
912.557	6603.13
912.869	6515.9
913.181	6491.27
913.494	6551.61
913.806	6422.35
914.118	6404.94
914.43	6436.13
914.742	6405.85
915.054	6392.06
915.366	6385.74
915.678	6338.05
915.99	6282.91
916.302	6178.51
916.613	6206.98
916.925	6238.4
917.236	6160.88
917.548	6174.44
917.859	6208.57
918.171	6078.17
918.482	6037.04
918.794	6039.76
919.105	6047.21
919.416	5947.1
919.727	5966.76
920.038	5954.56
920.349	5940.55
920.66	5927.44
920.971	5906.2
921.282	5868.91
921.593	5794.79
921.903	5844.96
922.214	5803.38
922.525	5715.92
922.835	5748.24
923.146	5686.77
923.456	5693.78
923.767	5738.3
924.077	5630.5
924.387	5638.64
924.697	5600.67
925.008	5568.13
925.318	5586.66
925.628	5576.94
925.938	5541.69
926.248	5450.17
926.558	5477.51
926.867	5413.56
927.177	5402.03
927.487	5411.75
927.796	5350.74
928.106	5313.45
928.416	5347.8
928.725	5277.29
929.034	5278.87
929.344	5262.83
929.653	5245.43
929.962	5213.79
930.271	5157.75
930.581	5170.85
930.89	5158.42
931.199	5094.47
931.508	5073.91
931.817	5122.94
932.125	5048.37
932.434	5049.5
932.743	4980.8
933.051	4947.13
933.36	4955.72
933.669	4870.52
933.977	4912.55
934.286	4935.15
934.594	4885.21
934.902	4894.7
935.21	4869.17
935.519	4817.64
935.827	4782.39
936.135	4761.37
936.443	4709.17
936.751	4709.4
937.059	4690.64
937.367	4701.26
937.674	4686.57
937.982	4623.07
938.29	4630.08
938.597	4635.5
938.905	4577.42
939.213	4558.89
939.52	4535.62
939.827	4547.59
940.135	4482.74
940.442	4490.64
940.749	4431.66
941.056	4478.67
941.363	4480.02
941.67	4437.54
941.977	4390.76
942.284	4381.95
942.591	4347.15
942.898	4341.72
943.205	4384.88
943.511	4286.58
943.818	4349.86
944.125	4259.92
944.431	4245.91
944.738	4279.35
945.044	4232.8
945.35	4197.32
945.657	4209.07
945.963	4151.44
946.269	4161.61
946.575	4182.4
946.881	4137.89
947.187	4173.14
947.493	4080.03
947.799	4023.76
948.105	4091.79
948.41	4012.01
948.716	4048.85
949.022	4014.72
949.327	3955.52
949.633	3950.32
949.938	3944.9
950.244	3938.34
950.549	3931.11
950.854	3883.43
951.16	3863.77
951.465	3844.33
951.77	3834.39
952.075	3812.92
952.38	3812.02
952.685	3818.57
952.99	3782.87
953.294	3782.87
953.599	3745.35
953.904	3717.11
954.209	3696.32
954.513	3715.3
954.818	3700.16
955.122	3670.1
955.426	3673.72
955.731	3646.15
956.035	3585.81
956.339	3622.42
956.643	3598.24
956.948	3569.09
957.252	3566.15
957.556	3536.55
957.86	3547.39
958.163	3507.17
958.467	3544
958.771	3508.75
959.075	3476.21
959.378	3489.99
959.682	3458.58
959.985	3418.81
960.289	3385.59
960.592	3404.8
960.896	3377.23
961.199	3383.56
961.502	3351.01
961.805	3358.92
962.108	3355.76
962.411	3327.96
962.714	3313.05
963.017	3291.35
963.32	3279.83
963.623	3257.23
963.926	3265.14
964.228	3204.58
964.531	3254.97
964.833	3233.05
965.136	3199.61
965.438	3182.43
965.741	3132.71
966.043	3178.36
966.345	3127.97
966.648	3142.43
966.95	3120.74
967.252	3095.88
967.554	3068.31
967.856	3054.52
968.158	3061.08
968.46	3013.85
968.761	3037.35
969.063	2975.2
969.365	3003.45
969.666	3068.54
969.968	2936.56
970.269	2972.27
970.571	2946.73
970.872	2975.43
971.174	2903.79
971.475	2925.04
971.776	2893.85
972.077	2894.53
972.378	2868.09
972.679	2845.04
972.98	2833.06
973.281	2824.02
973.582	2818.6
973.883	2807.98
974.183	2798.49
974.484	2817.69
974.785	2777.7
975.085	2792.38
975.386	2756.45
975.686	2741.99
975.986	2712.16
976.287	2722.1
976.587	2692.5
976.887	2701.77
977.187	2662.67
977.487	2655.66
977.787	2642.78
978.087	2632.61
978.387	2662.22
978.687	2652.73
978.987	2632.16
979.286	2607.76
979.586	2622.22
979.885	2595.78
980.185	2565.95
980.484	2562.79
980.784	2542.9
981.083	2531.83
981.382	2528.21
981.682	2489.57
981.981	2515.33
982.28	2473.97
982.579	2507.65
982.878	2454.54
983.177	2460.19
983.475	2468.1
983.774	2429.46
984.073	2449.34
984.372	2423.13
984.67	2410.47
984.969	2407.76
985.267	2388.1
985.566	2334.32
985.864	2378.84
986.162	2355.33
986.461	2359.85
986.759	2328.67
987.057	2295.67
987.355	2269.23
987.653	2329.12
987.951	2288.89
988.249	2286.41
988.547	2282.57
988.844	2220.42
989.142	2285.05
989.44	2250.48
989.737	2238.73
990.035	2227.43
990.332	2226.52
990.63	2199.18
990.927	2200.31
991.224	2192.4
991.521	2168.45
991.819	2190.82
992.116	2152.85
992.413	2108.33
992.71	2160.99
993.006	2112.18
993.303	2091.61
993.6	2134.1
993.897	2081.89
994.193	2101.1
994.49	2053.65
994.787	2098.84
995.083	2071.27
995.379	2048.45
995.676	2044.16
995.972	2032.86
996.268	2060.65
996.565	2005.06
996.861	2031.05
997.157	1979.75
997.453	2005.74
997.749	1987.89
998.044	1955.12
998.34	1949.69
998.636	1954.44
998.932	1923.03
999.227	1918.51
999.523	1906.76
999.818	1870.15
1000.114	1906.53
1000.409	1885.97
1000.704	1873.31
1001	1848.91
1001.295	1866.76
1001.59	1852.52
1001.885	1818.4
1002.18	1788.34
1002.475	1780.66
1002.77	1787.89
1003.065	1782.69
1003.359	1788.79
1003.654	1800.55
1003.949	1782.24
1004.243	1777.27
1004.538	1733.88
1004.832	1757.16
1005.127	1737.72
1005.421	1744.05
1005.715	1703.83
1006.009	1687.78
1006.304	1702.02
1006.598	1727.1
1006.892	1676.71
1007.186	1690.72
1007.48	1649.36
1007.773	1658.85
1008.067	1642.36
1008.361	1647.1
1008.655	1623.15
1008.948	1604.84
1009.242	1609.59
1009.535	1589.25
1009.829	1580.44
1010.122	1588.12
1010.415	1549.71
1010.708	1554.45
1011.001	1582.92
1011.295	1543.15
1011.588	1541.8
1011.881	1513.32
1012.173	1537.05
1012.466	1510.16
1012.759	1500.44
1013.052	1513.77
1013.344	1492.08
1013.637	1492.76
1013.93	1460.22
1014.222	1483.04
1014.514	1444.4
1014.807	1436.26
1015.099	1438.97
1015.391	1438.97
1015.683	1412.76
1015.976	1399.2
1016.268	1385.19
1016.56	1410.73
1016.851	1369.14
1017.143	1384.06
1017.435	1388.58
1017.727	1361.91
1018.018	1341.35
1018.31	1350.84
1018.602	1371.4
1018.893	1342.25
1019.185	1322.14
1019.476	1316.26
1019.767	1307.9
1020.058	1309.71
1020.35	1304.97
1020.641	1308.36
1020.932	1284.85
1021.223	1280.79
1021.514	1258.41
1021.804	1265.87
1022.095	1261.35
1022.386	1248.7
1022.677	1205.76
1022.967	1210.05
1023.258	1210.5
1023.548	1196.04
1023.839	1203.05
1024.129	1191.3
1024.419	1179.32
1024.709	1191.52
1025	1171.41
1025.29	1147
1025.58	1157.62
1025.87	1142.94
1026.16	1155.59
1026.449	1147.23
1026.739	1097.74
1027.029	1121.24
1027.319	1121.24
1027.608	1103.39
1027.898	1085.76
1028.187	1117.63
1028.477	1085.99
1028.766	1055.93
1029.055	1033.56
1029.344	1048.25
1029.634	1061.81
1029.923	1040.57
1030.212	1028.81
1030.501	1022.94
1030.79	1021.81
1031.078	1013.9
1031.367	1006.44
1031.656	990.4
1031.945	1030.4
1032.233	1002.37
1032.522	974.8
1032.81	976.16
1033.099	974.35
1033.387	973.45
1033.675	978.65
1033.963	949.72
1034.251	974.13
1034.54	948.59
1034.828	948.82
1035.116	929.61
1035.403	945.43
1035.691	911.76
1035.979	956.27
1036.267	918.99
1036.554	920.57
1036.842	907.46
1037.129	889.16
1037.417	887.58
1037.704	887.35
1037.992	868.82
1038.279	889.16
1038.566	887.58
1038.853	887.58
1039.14	887.58
