Data from hue_340_FLMS001491_27.txt Node
Date: Mon Feb 06 15:42:42 GMT 2017
User: dcchb
Spectrometer: FLMS00149
Trigger mode: 0
Integration Time (sec): 2.000000E-2
Scans to average: 10
Electric dark correction enabled: true
Nonlinearity correction enabled: false
Boxcar width: 0
XAxis mode: Wavelengths
Number of Pixels in Spectrum: 2048
>>>>>Begin Spectral Data<<<<<
341.393	-9.43
341.776	-9.43
342.16	-9.43
342.543	-70.22
342.927	-67.74
343.31	-52.15
343.693	-65.25
344.077	-78.59
344.46	-53.95
344.843	-59.38
345.226	-46.5
345.61	-30.9
345.993	-5.37
346.376	-5.59
346.759	14.97
347.142	8.87
347.525	47.51
347.908	58.13
348.291	78.92
348.674	94.74
349.057	94.52
349.44	123.22
349.823	143.78
350.206	155.76
350.588	199.83
350.971	225.36
351.354	228.75
351.737	233.5
352.119	241.86
352.502	243.21
352.884	285.25
353.267	273.04
353.65	297
354.032	297.45
354.414	306.26
354.797	302.2
355.179	310.78
355.562	328.41
355.944	328.41
356.326	331.57
356.709	334.96
357.091	318.92
357.473	328.86
357.855	330.9
358.238	325.7
358.62	346.94
359.002	332.93
359.384	342.87
359.766	338.8
360.148	346.49
360.53	334.28
360.912	313.72
361.294	345.13
361.676	338.13
362.057	334.96
362.439	337.22
362.821	331.12
363.203	318.47
363.584	304.91
363.966	310.56
364.348	330.44
364.729	321.86
365.111	338.8
365.493	326.38
365.874	330.9
366.256	315.08
366.637	302.42
367.019	319.14
367.4	319.37
367.781	303.78
368.163	303.33
368.544	313.72
368.925	327.73
369.306	305.36
369.688	294.74
370.069	281.86
370.45	306.04
370.831	313.49
371.212	309.43
371.593	304.46
371.974	303.1
372.355	314.4
372.736	290.9
373.117	328.86
373.498	337
373.879	323.66
374.26	320.95
374.641	290.44
375.021	298.81
375.402	320.5
375.783	335.64
376.163	332.25
376.544	315.53
376.925	319.82
377.305	323.66
377.686	332.48
378.066	311.46
378.447	331.57
378.827	305.81
379.208	308.97
379.588	327.28
379.968	327.51
380.349	325.47
380.729	310.1
381.109	333.61
381.489	315.53
381.87	340.39
382.25	331.57
382.63	338.8
383.01	338.13
383.39	333.61
383.77	348.07
384.15	345.81
384.53	334.96
384.91	348.07
385.29	334.51
385.67	338.58
386.049	338.8
386.429	355.08
386.809	354.17
387.189	336.32
387.568	347.84
387.948	348.75
388.328	337.67
388.707	331.12
389.087	336.77
389.466	361.4
389.846	352.59
390.225	351.69
390.605	358.24
390.984	342.42
391.363	341.74
391.743	368.18
392.122	344.23
392.501	368.41
392.881	376.09
393.26	373.83
393.639	358.01
394.018	358.01
394.397	351.46
394.776	365.92
395.155	368.63
395.534	365.92
395.913	370.22
396.292	371.12
396.671	370.22
397.05	381.06
397.429	362.76
397.808	370.89
398.186	374.06
398.565	377.9
398.944	393.72
399.323	369.09
399.701	386.49
400.08	382.42
400.458	396.88
400.837	391.46
401.215	411.12
401.594	397.56
401.972	401.4
402.351	398.24
402.729	399.82
403.107	403.89
403.486	428.29
403.864	405.92
404.242	392.59
404.62	403.89
404.999	406.6
405.377	411.8
405.755	411.57
406.133	409.31
406.511	404.79
406.889	411.12
407.267	420.61
407.645	429.42
408.023	415.41
408.401	420.38
408.779	428.75
409.156	428.07
409.534	448.18
409.912	427.39
410.29	442.08
410.667	440.5
411.045	466.03
411.422	469.87
411.8	461.74
412.178	465.81
412.555	477.33
412.933	466.48
413.31	474.39
413.687	480.72
414.065	483.66
414.442	496.77
414.819	487.5
415.197	501.74
415.574	518.46
415.951	515.52
416.328	519.59
416.705	525.01
417.082	522.3
417.46	535.18
417.837	528.63
418.214	541.96
418.591	532.92
418.967	530.66
419.344	557.56
419.721	540.83
420.098	535.64
420.475	543.09
420.852	552.13
421.228	551.23
421.605	579.02
421.982	573.83
422.358	571.34
422.735	552.13
423.111	565.47
423.488	605.69
423.864	591.23
424.241	595.75
424.617	591
424.994	611.79
425.37	603.43
425.746	623.99
426.123	604.33
426.499	595.07
426.875	636.42
427.251	625.8
427.627	663.32
428.003	665.12
428.379	649.53
428.756	647.27
429.132	653.15
429.507	652.02
429.883	674.16
430.259	689.3
430.635	655.63
431.011	704.9
431.387	692.69
431.763	701.51
432.138	717.55
432.514	713.71
432.89	735.63
433.265	720.72
433.641	731.34
434.016	746.25
434.392	732.47
434.767	779.02
435.143	765.01
435.518	781.73
435.894	786.48
436.269	788.51
436.644	793.48
437.02	796.19
437.395	789.41
437.77	829.64
438.145	820.15
438.52	816.76
438.895	849.75
439.271	798.23
439.646	831.9
440.021	836.87
440.395	834.38
440.77	829.19
441.145	841.84
441.52	856.53
441.895	842.07
442.27	875.74
442.645	853.37
443.019	893.37
443.394	884.33
443.769	897.66
444.143	880.26
444.518	876.87
444.892	894.04
445.267	896.08
445.641	910.32
446.016	901.28
446.39	887.72
446.764	933.59
447.139	914.16
447.513	920.48
447.887	918.22
448.262	924.1
448.636	896.3
449.01	941.05
449.384	914.38
449.758	944.66
450.132	966.58
450.506	952.8
450.88	956.42
451.254	952.12
451.628	950.99
452.002	993.93
452.376	988.96
452.75	986.92
453.123	1002.52
453.497	1019.69
453.871	999.35
454.244	1019.69
454.618	1022.63
454.992	1053.81
455.365	1023.98
455.739	1027.15
456.112	1060.82
456.486	1033.25
456.859	1084.1
457.232	1079.12
457.606	1092.68
457.979	1100.14
458.352	1112.57
458.725	1120.93
459.099	1129.52
459.472	1151.21
459.845	1134.49
460.218	1155.73
460.591	1156.86
460.964	1149.63
461.337	1186.01
461.71	1186.47
462.083	1209.29
462.456	1212.23
462.829	1211.1
463.201	1227.37
463.574	1250.87
463.947	1246.13
464.32	1301.49
464.692	1263.53
465.065	1261.94
465.438	1280.7
465.81	1287.03
466.183	1323.64
466.555	1345.11
466.928	1337.65
467.3	1350.53
467.672	1349.4
468.045	1395.73
468.417	1399.34
468.789	1384.2
469.161	1422.62
469.534	1421.49
469.906	1478.21
470.278	1471.66
470.65	1456.74
471.022	1483.63
471.394	1485.22
471.766	1534.25
472.138	1551.43
472.51	1552.11
472.882	1588.26
473.253	1613.57
473.625	1613.12
473.997	1648.83
474.369	1668.49
474.74	1679.79
475.112	1682.27
475.484	1753.46
475.855	1747.58
476.227	1766.11
476.598	1788.94
476.97	1816.51
477.341	1839.78
477.713	1896.5
478.084	1873.91
478.455	1937.41
478.827	1956.16
479.198	1965.65
479.569	2001.36
479.94	2022.38
480.311	2044.75
480.682	2079.1
481.053	2147.12
481.424	2174.69
481.795	2176.72
482.166	2214.24
482.537	2244.29
482.908	2270.96
483.279	2294.23
483.65	2340.79
484.021	2376.49
484.391	2399.32
484.762	2416.94
485.133	2430.5
485.503	2465.98
485.874	2521.12
486.244	2555.02
486.615	2583.04
486.985	2602.02
487.356	2658.52
487.726	2630.72
488.097	2715.69
488.467	2729.48
488.837	2781.9
489.207	2789.14
489.578	2843.6
489.948	2849.25
490.318	2876.14
490.688	2909.81
491.058	2968.79
491.428	2992.97
491.798	2998.62
492.168	3076.81
492.538	3082.24
492.908	3121.1
493.278	3147.77
493.648	3155.45
494.017	3178.05
494.387	3235.9
494.757	3245.62
495.126	3259.63
495.496	3281.78
495.866	3301.44
496.235	3331.72
496.605	3317.03
496.974	3413.98
497.344	3419.4
497.713	3439.74
498.082	3441.32
498.452	3440.19
498.821	3481.32
499.19	3456.91
499.559	3544.14
499.928	3557.25
500.298	3546.18
500.667	3559.51
501.036	3597.7
501.405	3642.45
501.774	3654.2
502.143	3633.41
502.512	3700.75
502.88	3709.11
503.249	3711.82
503.618	3686.51
503.987	3723.57
504.356	3761.99
504.724	3749.11
505.093	3792.95
505.462	3803.35
505.83	3800.86
506.199	3817.58
506.567	3922.21
506.936	3918.6
507.304	3912.95
507.672	3902.78
508.041	3924.93
508.409	3982.55
508.777	3961.53
509.145	3987.52
509.514	3994.98
509.882	4024.13
510.25	4037.01
510.618	4027.52
510.986	4019.61
511.354	4066.16
511.722	4128.99
512.09	4160.85
512.458	4111.59
512.826	4134.86
513.193	4192.71
513.561	4158.82
513.929	4170.12
514.297	4217.12
514.664	4217.8
515.032	4267.29
515.4	4283.79
515.767	4271.58
516.135	4314.97
516.502	4258.02
516.869	4328.53
517.237	4334.63
517.604	4316.1
517.972	4327.85
518.339	4383.44
518.706	4335.76
519.073	4375.08
519.44	4400.17
519.808	4425.02
520.175	4437.68
520.542	4509.09
520.909	4498.92
521.276	4523.55
521.643	4484.23
522.009	4525.14
522.376	4579.82
522.743	4574.63
523.11	4610.1
523.477	4654.17
523.843	4643.55
524.21	4730.55
524.577	4688.75
524.943	4738.46
525.31	4789.31
525.676	4746.37
526.043	4780.72
526.409	4838.8
526.776	4784.34
527.142	4837.67
527.508	4882.64
527.874	4848.97
528.241	4932.13
528.607	4976.2
528.973	4965.12
529.339	4989.76
529.705	5023.65
530.071	5068.4
530.437	5112.01
530.803	5101.84
531.169	5151.56
531.535	5119.7
531.901	5156.31
532.267	5145.01
532.632	5222.29
532.998	5207.6
533.364	5238.79
533.73	5258.45
534.095	5316.3
534.461	5277.88
534.826	5339.58
535.192	5379.35
535.557	5401.95
535.923	5389.29
536.288	5418.67
536.653	5468.39
537.019	5441.27
537.384	5502.51
537.749	5515.39
538.114	5504.32
538.479	5553.58
538.845	5559.68
539.21	5557.42
539.575	5607.59
539.94	5583.41
540.305	5635.39
540.67	5671.32
541.034	5653.47
541.399	5720.81
541.764	5749.51
542.129	5744.76
542.494	5769.17
542.858	5789.51
543.223	5822.5
543.587	5851.43
543.952	5859.79
544.316	5882.84
544.681	5908.15
545.045	5909.96
545.41	5902.5
545.774	5954.25
546.138	5983.4
546.503	6041.03
546.867	6009.84
547.231	6127.58
547.595	6094.59
547.959	6084.19
548.324	6050.29
548.688	6091.65
549.052	6165.32
549.416	6206
549.779	6189.72
550.143	6217.29
550.507	6253
550.871	6298.42
551.235	6277.86
551.599	6312.66
551.962	6338.65
552.326	6305.2
552.689	6314.24
553.053	6363.73
553.417	6352.66
553.78	6459.1
554.143	6430.85
554.507	6448.47
554.87	6483.5
555.234	6593.78
555.597	6548.81
555.96	6551.07
556.323	6610.5
556.686	6578.19
557.05	6592.2
557.413	6585.87
557.776	6652.99
558.139	6662.93
558.502	6727.11
558.865	6744.06
559.228	6697.28
559.59	6784.06
559.953	6745.19
560.316	6825.41
560.679	6827.67
561.041	6831.29
561.404	6882.59
561.767	6976.37
562.129	6875.58
562.492	6945.41
562.854	6930.95
563.217	6992.64
563.579	6965.3
563.941	7015.69
564.304	7062.02
564.666	7067.89
565.028	7180.43
565.39	7075.35
565.753	7166.65
566.115	7182.47
566.477	7220.43
566.839	7228.57
567.201	7224.27
567.563	7248.68
567.925	7272.41
568.287	7323.03
568.648	7364.61
569.01	7403.03
569.372	7488.45
569.734	7405.06
570.095	7478.28
570.457	7527.54
570.819	7495.23
571.18	7565.06
571.542	7616.58
571.903	7583.81
572.265	7620.87
572.626	7702.45
572.987	7683.7
573.349	7743.81
573.71	7819.29
574.071	7928.21
574.432	7970.92
574.794	7968.21
575.155	8061.09
575.516	8088.21
575.877	8111.93
576.238	8251.82
576.599	8292.95
576.96	8261.99
577.32	8366.84
577.681	8448.42
578.042	8522.54
578.403	8589.89
578.763	8602.54
579.124	8741.52
579.485	8835.08
579.845	8940.39
580.206	9051.34
580.566	9083.21
580.927	9198.91
581.287	9400.04
581.648	9416.53
582.008	9631.89
582.368	9640.25
582.728	9826.92
583.089	9957.31
583.449	10052
583.809	10203.63
584.169	10388.03
584.529	10464.41
584.889	10783.5
585.249	10852.43
585.609	10989.6
585.969	11091.06
586.329	11327.89
586.688	11581.22
587.048	11736.92
587.408	11817.37
587.768	12109.79
588.127	12267.53
588.487	12439.5
588.846	12816.89
589.206	12874.97
589.565	13118.58
589.925	13489.42
590.284	13697.55
590.643	14015.96
591.003	14183.19
591.362	14453.46
591.721	14683.29
592.08	14890.96
592.44	15234.23
592.799	15471.74
593.158	15703.37
593.517	15990.14
593.876	16345.62
594.235	16514.88
594.593	16877.35
594.952	17150.34
595.311	17323.89
595.67	17613.83
596.029	17968.4
596.387	18289.07
596.746	18529.51
597.104	18796.4
597.463	18986.9
597.822	19405.65
598.18	19657.39
598.538	19776.49
598.897	20168.11
599.255	20339.18
599.613	20857.59
599.972	20996.11
600.33	21192.04
600.688	21460.51
601.046	21819.37
601.404	22118.57
601.762	22321.5
602.12	22634.26
602.478	22857.31
602.836	23069.05
603.194	23319.22
603.552	23533.67
603.91	23751.3
604.268	24127.11
604.625	24317.16
604.983	24646.19
605.341	24791.72
605.698	25060.41
606.056	25321.42
606.413	25481.42
606.771	25877.79
607.128	26110.78
607.485	26007.06
607.843	26397.55
608.2	26768.62
608.557	27056.07
608.914	27054.94
609.272	27369.73
609.629	27612.44
609.986	27859.66
610.343	27998.19
610.7	28364.96
611.057	28521.11
611.414	28692.86
611.771	28846.53
612.127	29113.19
612.484	29195.45
612.841	29487.64
613.198	29494.65
613.554	29670.46
613.911	29953.17
614.267	30139.83
614.624	30165.82
614.98	30327.17
615.337	30707.95
615.693	30710.21
616.05	30848.74
616.406	31113.36
616.762	31147.03
617.118	31337.09
617.475	31464.09
617.831	31675.83
618.187	31848.03
618.543	31970.74
618.899	32187.46
619.255	32308.81
619.611	32335.7
619.967	32485.08
620.323	32655.02
620.678	32674.23
621.034	32812.3
621.39	32895.91
621.746	32972.75
622.101	33424.94
622.457	33177.04
622.812	33331.84
623.168	33521.43
623.523	33564.15
623.879	33731.6
624.234	33749.68
624.589	33759.39
624.945	33847.08
625.3	34059.73
625.655	34132.94
626.01	34168.42
626.365	34167.29
626.72	34176.33
627.075	34503.78
627.43	34381.75
627.785	34464.46
628.14	34419.94
628.495	34607.96
628.85	34551.01
629.205	34394.18
629.559	34786.71
629.914	34626.26
630.269	34666.26
630.623	34714.4
630.978	34665.59
631.332	35000.49
631.687	35008.63
632.041	34795.53
632.396	34941.51
632.75	34765.47
633.104	34972.24
633.459	34936.31
633.813	34825.36
634.167	34876.43
634.521	34978.12
634.875	34996.65
635.229	34980.61
635.583	34907.84
635.937	35044.33
636.291	34885.24
636.645	34992.36
636.999	34971.34
637.352	35094.95
637.706	34809.76
638.06	35093.82
638.413	34992.58
638.767	34936.54
639.121	35005.01
639.474	34810.89
639.828	34902.42
640.181	35029.42
640.534	34979.48
640.888	34849.76
641.241	34768.63
641.594	34905.13
641.947	34927.05
642.301	34868.52
642.654	34874.62
643.007	34886.6
643.36	34816.09
643.713	34751.01
644.066	34801.85
644.419	34719.14
644.771	34471.69
645.124	34224.24
645.477	34192.6
645.83	34009.56
646.182	33922.1
646.535	33836.23
646.888	33878.71
647.24	33801.65
647.593	33867.41
647.945	33742.9
648.298	33665.61
648.65	33650.92
649.002	33611.38
649.355	33694.31
649.707	33630.36
650.059	33839.17
650.411	34256.1
650.763	34251.13
651.115	34583.1
651.467	34458.59
651.819	34454.97
652.171	34507.4
652.523	34325.48
652.875	34333.62
653.227	34274.41
653.578	34415.65
653.93	34372.71
654.282	34297.69
654.633	34183.79
654.985	34307.18
655.337	34243.22
655.688	34304.92
656.039	34461.07
656.391	34089.56
656.742	34231.47
657.094	34166.16
657.445	34355.99
657.796	34249.55
658.147	34158.25
658.498	34085.71
658.849	34184.47
659.2	34164.58
659.551	33998.26
659.902	34244.35
660.253	34155.32
660.604	34140.4
660.955	33973.17
661.306	34230.34
661.656	34031.03
662.007	34139.05
662.358	34040.29
662.708	34105.37
663.059	34055.88
663.409	34007.75
663.76	34209.1
664.11	34177.24
664.461	34136.33
664.811	34269.66
665.161	34127.75
665.511	33981.54
665.862	34125.03
666.212	34061.53
666.562	34115.32
666.912	34030.35
667.262	34079.84
667.612	34174.75
667.962	34158.03
668.312	34040.97
668.662	34129.33
669.011	34053.4
669.361	34083.23
669.711	33862.22
670.06	34009.33
670.41	33935.21
670.76	33846.4
671.109	34152.38
671.459	33964.14
671.808	33959.16
672.157	33942.89
672.507	33670.58
672.856	33768.89
673.205	33844.36
673.554	33845.49
673.904	33722.33
674.253	33979.28
674.602	33791.48
674.951	33368.9
675.3	33260.42
675.649	33749
675.998	33793.52
676.346	33696.57
676.695	33854.76
677.044	33512.17
677.393	33638.49
677.741	33686.63
678.09	33537.03
678.438	33564.37
678.787	33615.22
679.135	33582.45
679.484	33404.6
679.832	33368.44
680.181	33270.82
680.529	33596.01
680.877	33345.62
681.225	33425.62
681.573	33432.4
681.922	33335
682.27	33298.84
682.618	33220.43
682.966	33103.14
683.314	33202.8
683.661	33071.05
684.009	32967.78
684.357	32934.33
684.705	32813.43
685.053	33005.06
685.4	32902.24
685.748	32617.96
686.095	32704.73
686.443	32493.21
686.79	32582.93
687.138	32607.33
687.485	32667.22
687.832	32385.87
688.18	32468.58
688.527	32203.73
688.874	32215.48
689.221	32188.59
689.568	32084.41
689.915	32126.9
690.262	32141.58
690.609	31922.38
690.956	31784.31
691.303	31749.05
691.65	31749.96
691.997	31707.25
692.344	31538.66
692.69	31514.48
693.037	31517.42
693.383	31215.73
693.73	31441.72
694.077	31197.43
694.423	31086.02
694.769	31076.53
695.116	31012.12
695.462	30965.12
695.808	30945.68
696.155	30857.78
696.501	30595.41
696.847	30677.89
697.193	30498.24
697.539	30608.07
697.885	30363.1
698.231	30337.11
698.577	30279.94
698.923	30220.96
699.269	29995.43
699.614	29947.07
699.96	29914.07
700.306	29851.47
700.651	29766.96
700.997	29586.85
701.342	29718.15
701.688	29672.95
702.033	29503.46
702.379	29573.97
702.724	29496.23
703.069	29422.33
703.415	29147.99
703.76	29140.76
704.105	29088.56
704.45	29101.89
704.795	28983.93
705.14	28904.16
705.485	29024.15
705.83	28710.04
706.175	28755.46
706.52	28661.22
706.865	28609.93
707.209	28586.2
707.554	28437.27
707.899	28449.25
708.243	28246.77
708.588	28234.79
708.932	28087
709.277	28014.24
709.621	28058.3
709.966	27950.06
710.31	28021.47
710.654	27744.19
710.998	27778.99
711.342	27719.78
711.687	27735.6
712.031	27610.18
712.375	27511.65
712.719	27459.22
713.063	27487.7
713.407	27587.13
713.75	27362.95
714.094	27383.29
714.438	27292.22
714.782	27244.31
715.125	27153.47
715.469	27212.22
715.812	27068.27
716.156	26919.57
716.499	27051.32
716.843	27025.56
717.186	26721.39
717.53	26920.48
717.873	26877.99
718.216	26797.09
718.559	26716.87
718.902	26533.82
719.246	26548.51
719.589	26523.43
719.932	26383.32
720.275	26451.56
720.617	26377.22
720.96	26341.51
721.303	26231.23
721.646	26294.51
721.989	26049.32
722.331	26202.98
722.674	26151.91
723.016	26031.46
723.359	26066.94
723.701	26061.97
724.044	25976.32
724.386	25782.2
724.729	25915.99
725.071	25888.87
725.413	25775.42
725.755	25786.27
726.097	25719.38
726.439	25567.97
726.782	25602.55
727.124	25626.95
727.465	25534.3
727.807	25574.3
728.149	25503.34
728.491	25419.28
728.833	25471.25
729.175	25377.47
729.516	25301.76
729.858	25130.47
730.199	25223.57
730.541	25248.43
730.882	25099.06
731.224	25307.87
731.565	25018.16
731.906	25026.74
732.248	25094.54
732.589	24915.79
732.93	25008.66
733.271	24867.2
733.612	24902
733.953	24934.54
734.294	24815
734.635	24704.72
734.976	24806.86
735.317	24618.84
735.658	24705.62
735.999	24600.31
736.339	24609.58
736.68	24613.42
737.021	24509.24
737.361	24541.78
737.702	24544.72
738.042	24459.98
738.383	24376.14
738.723	24407.32
739.063	24349.47
739.404	24363.71
739.744	24364.16
740.084	24327.33
740.424	24187.9
740.764	24076.71
741.104	24272.19
741.444	24016.15
741.784	24079.2
742.124	24068.8
742.464	24037.62
742.804	23943.83
743.143	23857.51
743.483	23982.25
743.823	23927.34
744.162	23829.03
744.502	23925.08
744.841	23678.53
745.181	23822.25
745.52	23719.66
745.86	23684.63
746.199	23713.33
746.538	23695.03
746.877	23832.42
747.216	23644.41
747.556	23573.22
747.895	23584.07
748.234	23453.45
748.573	23398.31
748.911	23353.11
749.25	23432.43
749.589	23287.13
749.928	23282.83
750.267	23297.3
750.605	23221.82
750.944	23155.83
751.283	23093.46
751.621	23097.3
751.96	23057.3
752.298	22981.37
752.636	23047.13
752.975	22815.95
753.313	22734.6
753.651	22965.33
753.989	22707.93
754.327	22675.62
754.666	22638.33
755.004	22706.58
755.342	22662.74
755.679	22607.6
756.017	22512.01
756.355	22517.43
756.693	22450.77
757.031	22367.38
757.368	22419.58
757.706	22314.5
758.044	22210.77
758.381	22300.49
758.719	22144.56
759.056	22100.04
759.394	22108.4
759.731	22008.97
760.068	22027.95
760.405	21775.3
760.743	21824.57
761.08	21911.34
761.417	21794.74
761.754	21709.99
762.091	21596.1
762.428	21653.72
762.765	21459.15
763.102	21538.93
763.438	21325.82
763.775	21265.71
764.112	21314.75
764.449	21270.91
764.785	21112.95
765.122	20936.23
765.458	20962.44
765.795	20907.76
766.131	20909.79
766.467	20809.45
766.804	20681.55
767.14	20624.6
767.476	20558.84
767.812	20601.1
768.148	20574.88
768.485	20394.1
768.821	20261.67
769.157	20293.53
769.492	20287.21
769.828	20239.98
770.164	19991.85
770.5	19960.89
770.836	19991.62
771.171	19861.23
771.507	19860.78
771.842	19633.66
772.178	19669.14
772.513	19624.63
772.849	19611.07
773.184	19483.39
773.519	19534.23
773.855	19405.42
774.19	19327.68
774.525	19169.27
774.86	19159.1
775.195	19146.67
775.53	19060.8
775.865	18940.35
776.2	18738.55
776.535	18824.19
776.87	18779.9
777.205	18690.19
777.539	18569.74
777.874	18603.41
778.209	18462.62
778.543	18410.87
778.878	18257.43
779.212	18287.94
779.547	18171.78
779.881	18153.93
780.215	18048.85
780.55	18137.43
780.884	18019.92
781.218	17920.94
781.552	17825.35
781.886	17798.23
782.22	17728.86
782.554	17687.5
782.888	17488.86
783.222	17503.78
783.556	17298.58
783.889	17340.84
784.223	17256.55
784.557	17170.68
784.89	17207.29
785.224	17125.26
785.557	17027.63
785.891	17006.84
786.224	16928.65
786.558	16907.41
786.891	16730.92
787.224	16716
787.557	16654.99
787.891	16626.96
788.224	16534.54
788.557	16525.27
788.89	16472.17
789.223	16482.56
789.556	16334.09
789.888	16327.31
790.221	16251.15
790.554	16075.57
790.887	16149.46
791.219	16035.12
791.552	16076.92
791.884	15869.47
792.217	15934.78
792.549	15788.79
792.882	15692.98
793.214	15683.94
793.546	15670.15
793.879	15516.94
794.211	15504.51
794.543	15571.85
794.875	15518.52
795.207	15426.09
795.539	15411.85
795.871	15433.77
796.203	15226.1
796.535	15248.92
796.867	15031.07
797.198	15115.82
797.53	15083.95
797.862	14997.18
798.193	15045.31
798.525	14962.37
798.856	14874.24
799.188	14775.04
799.519	14793.79
799.85	14652.1
800.182	14702.72
800.513	14610.29
800.844	14470.41
801.175	14614.59
801.506	14596.73
801.837	14508.83
802.168	14367.36
802.499	14458.21
802.83	14358.1
803.161	14217.31
803.491	14260.25
803.822	14237.2
804.153	14188.61
804.483	14144.32
804.814	14099.57
805.145	13967.6
805.475	13963.98
805.805	13975.28
806.136	13928.73
806.466	13975.73
806.796	13883.53
807.126	13872.91
807.457	13711.33
807.787	13745.23
808.117	13694.61
808.447	13604.22
808.777	13712.24
809.107	13541.4
809.436	13580.72
809.766	13566.03
810.096	13502.75
810.426	13414.85
810.755	13349.31
811.085	13361.29
811.414	13370.33
811.744	13316.99
812.073	13227.96
812.403	13201.52
812.732	13070
813.061	13212.36
813.39	13106.6
813.719	12964.69
814.049	13061.41
814.378	13037.68
814.707	12941.19
815.036	13005.36
815.365	12902.99
815.693	12767.63
816.022	12847.18
816.351	12717.91
816.68	12684.92
817.008	12821.19
817.337	12639.5
817.665	12638.37
817.994	12595.66
818.322	12640.18
818.651	12493.97
818.979	12431.14
819.307	12569.22
819.636	12496.23
819.964	12402.67
820.292	12452.84
820.62	12494.19
820.948	12377.13
821.276	12398.37
821.604	12403.12
821.932	12431.37
822.259	12440.86
822.587	12439.05
822.915	12336.91
823.243	12332.84
823.57	12334.42
823.898	12382.1
824.225	12329
824.553	12232.73
824.88	12356.34
825.207	12323.35
825.535	12296
825.862	12443.35
826.189	12268.21
826.516	12313.41
826.843	12333.74
827.17	12368.54
827.497	12305.5
827.824	12325.83
828.151	12371.48
828.478	12310.92
828.805	12358.83
829.131	12257.81
829.458	12248.77
829.785	12214.2
830.111	12240.64
830.438	12271.37
830.764	12314.99
831.09	12312.5
831.417	12258.04
831.743	12220.75
832.069	12247.87
832.395	12198.38
832.722	12333.74
833.048	12214.65
833.374	12266.4
833.7	12169.45
834.026	12207.87
834.351	12177.82
834.677	12143.69
835.003	12174.43
835.329	12077.71
835.654	12039.51
835.98	12070.7
836.306	12061.43
836.631	12062.34
836.956	12004.26
837.282	12044.49
837.607	11987.99
837.932	11931.95
838.258	12013.75
838.583	11988.22
838.908	11898.73
839.233	11915.22
839.558	11920.2
839.883	11819.86
840.208	11830.03
840.533	11774.44
840.858	11777.6
841.182	11834.77
841.507	11744.38
841.832	11666.64
842.156	11718.17
842.481	11665.51
842.805	11618.51
843.13	11648.79
843.454	11596.14
843.778	11566.98
844.103	11516.14
844.427	11500.09
844.751	11469.81
845.075	11417.61
845.399	11360.21
845.723	11319.76
846.047	11403.82
846.371	11296.93
846.695	11274.11
847.019	11251.96
847.343	11165.64
847.666	11093.32
847.99	11020.56
848.313	11056.71
848.637	10961.35
848.96	10953.21
849.284	10901.46
849.607	10844.29
849.931	10860.11
850.254	10779.21
850.577	10800.9
850.9	10592.77
851.223	10627.8
851.546	10573.11
851.869	10521.81
852.192	10488.82
852.515	10517.52
852.838	10492.89
853.161	10362.95
853.483	10343.74
853.806	10242.95
854.129	10254.7
854.451	10282.5
854.774	10217.64
855.096	10219.45
855.419	10144.42
855.741	10100.58
856.063	10107.36
856.385	10018.55
856.708	9993.47
857.03	10014.26
857.352	10056.97
857.674	9879.12
857.996	9951.21
858.318	9840.25
858.64	9832.11
858.961	9794.15
859.283	9823.3
859.605	9785.11
859.926	9761.16
860.248	9716.64
860.57	9659.24
860.891	9682.51
861.212	9531.78
861.534	9667.82
861.855	9571.33
862.176	9634.61
862.498	9613.59
862.819	9588.05
863.14	9565
863.461	9504.21
863.782	9457.43
864.103	9444.78
864.424	9444.33
864.745	9422.63
865.065	9412.01
865.386	9376.31
865.707	9371.56
866.027	9381.28
866.348	9311.22
866.668	9383.31
866.989	9387.83
867.309	9255.86
867.63	9262.41
867.95	9274.39
868.27	9199.81
868.59	9275.74
868.91	9227.38
869.23	9176.09
869.55	9187.16
869.87	9275.74
870.19	9204.33
870.51	9149.19
870.83	9210.66
871.15	9104
871.469	9075.75
871.789	9152.81
872.109	9114.17
872.428	9056.77
872.748	9106.71
873.067	9059.25
873.386	9074.17
873.706	9044.34
874.025	9005.24
874.344	8921.18
874.663	9018.35
874.982	8941.29
875.301	8896.09
875.62	8909.43
875.939	8878.92
876.258	8951.46
876.577	8875.3
876.896	8854.51
877.214	8806.38
877.533	8817.9
877.852	8777.23
878.17	8819.26
878.489	8763.89
878.807	8785.36
879.125	8716.89
879.444	8739.71
879.762	8706.27
880.08	8727.74
880.398	8679.83
880.716	8683.67
881.034	8589.89
881.352	8670.79
881.67	8608.87
881.988	8588.08
882.306	8635.08
882.624	8595.99
882.941	8524.58
883.259	8503.56
883.577	8512.15
883.894	8499.72
884.212	8409.33
884.529	8491.58
884.846	8460.85
885.164	8442.55
885.481	8381.53
885.798	8462.66
886.115	8306.05
886.432	8353.51
886.75	8300.86
887.067	8290.91
887.383	8305.6
887.7	8271.48
888.017	8188.77
888.334	8193.29
888.651	8226.05
888.967	8186.51
889.284	8139.96
889.6	8084.59
889.917	8041.2
890.233	8074.42
890.55	8074.65
890.866	8036.46
891.182	7984.25
891.498	7973.41
891.815	7926.18
892.131	7946.74
892.447	7881.66
892.763	7871.49
893.079	7848.44
893.395	7828.1
893.71	7866.52
894.026	7845.95
894.342	7798.27
894.657	7713.75
894.973	7717.37
895.289	7710.81
895.604	7691.38
895.92	7601.66
896.235	7598.95
896.55	7607.09
896.865	7551.72
897.181	7593.53
897.496	7588.11
897.811	7513.76
898.126	7449.58
898.441	7446.19
898.756	7423.59
899.071	7362.57
899.386	7389.24
899.7	7329.58
900.015	7345.63
900.33	7221.79
900.644	7249.13
900.959	7237.61
901.273	7203.48
901.588	7181.79
901.902	7142.69
902.216	7089.36
902.531	7113.77
902.845	7099.08
903.159	7083.03
903.473	6997.16
903.787	7006.65
904.101	6938.63
904.415	6953.09
904.729	6922.81
905.042	6812.31
905.356	6872.19
905.67	6806.43
905.984	6831.29
906.297	6851.4
906.611	6805.3
906.924	6762.14
907.237	6783.38
907.551	6737.96
907.864	6702.71
908.177	6676.27
908.491	6667
908.804	6612.76
909.117	6586.32
909.43	6513.56
909.743	6562.37
910.056	6501.58
910.368	6444.18
910.681	6496.38
910.994	6385.65
911.307	6361.25
911.619	6362.6
911.932	6405.99
912.244	6255.26
912.557	6268.14
912.869	6271.53
913.181	6333.9
913.494	6182.72
913.806	6182.04
914.118	6120.35
914.43	6140.46
914.742	6136.62
915.054	6066.79
915.366	6082.61
915.678	5983.63
915.99	6032.89
916.302	5972.55
916.613	5955.38
916.925	5914.25
917.236	5940.92
917.548	5903.18
917.859	5880.35
918.171	5835.16
918.482	5807.81
918.794	5783.41
919.105	5762.84
919.416	5746.35
919.727	5690.08
920.038	5659.57
920.349	5667.25
920.66	5644.2
920.971	5596.97
921.282	5615.95
921.593	5599.68
921.903	5542.74
922.214	5515.39
922.525	5514.26
922.835	5500.02
923.146	5435.62
923.456	5496.64
923.767	5482.62
924.077	5368.5
924.387	5385.45
924.697	5347.71
925.008	5313.82
925.318	5316.53
925.628	5295.96
925.938	5298
926.248	5252.8
926.558	5192.01
926.867	5220.94
927.177	5166.47
927.487	5207.83
927.796	5112.46
928.106	5123.31
928.416	5154.05
928.725	5075.63
929.034	5075.4
929.344	5036.76
929.653	5050.09
929.962	4994.95
930.271	4938.68
930.581	4964.67
930.89	4940.27
931.199	4879.93
931.508	4919.48
931.817	4911.57
932.125	4894.62
932.434	4797.9
932.743	4768.29
933.051	4763.32
933.36	4787.73
933.669	4713.83
933.977	4695.53
934.286	4672.02
934.594	4632.7
934.902	4617.11
935.21	4654.4
935.519	4622.99
935.827	4637.67
936.135	4572.82
936.443	4533.04
936.751	4530.11
937.059	4493.95
937.367	4462.76
937.674	4469.54
937.982	4493.05
938.29	4475.87
938.597	4397.45
938.905	4370.34
939.213	4342.09
939.52	4409.43
939.827	4374.86
940.135	4302.54
940.442	4281.75
940.749	4328.53
941.056	4294.63
941.363	4231.58
941.67	4256.44
941.977	4244.46
942.284	4182.77
942.591	4217.57
942.898	4213.96
943.205	4198.82
943.511	4115.2
943.818	4128.99
944.125	4122.21
944.431	4134.64
944.738	4060.51
945.044	4071.81
945.35	4043.57
945.657	4017.35
945.963	3994.53
946.269	3989.78
946.575	4016.22
946.881	3963.12
947.187	3921.54
947.493	3937.81
947.799	3918.37
948.105	3887.41
948.41	3864.59
948.716	3882.44
949.022	3854.87
949.327	3846.74
949.633	3784.14
949.938	3806.28
950.244	3807.19
950.549	3750.92
950.854	3746.17
951.16	3698.49
951.465	3703.69
951.77	3700.52
952.075	3674.76
952.38	3639.96
952.685	3632.5
952.99	3616.23
953.294	3613.75
953.599	3641.32
953.904	3588.66
954.209	3559.06
954.513	3567.87
954.818	3554.09
955.122	3496.01
955.426	3527.87
955.731	3510.02
956.035	3458.72
956.339	3472.28
956.643	3453.3
956.948	3448.33
957.252	3447.88
957.556	3384.37
957.86	3381.44
958.163	3380.08
958.467	3366.3
958.771	3329.01
959.075	3330.59
959.378	3300.08
959.682	3307.31
959.985	3288.11
960.289	3266.64
960.592	3265.51
960.896	3225.28
961.199	3249.46
961.502	3255.79
961.805	3209.69
962.108	3194.32
962.411	3202.46
962.714	3154.55
963.017	3174.21
963.32	3179.86
963.623	3146.19
963.926	3115
964.228	3105.29
964.531	3098.28
964.833	3058.51
965.136	3082.46
965.438	3040.43
965.741	3043.82
966.043	2986.87
966.345	3044.04
966.648	3016.93
966.95	2996.59
967.252	2979.19
967.554	2939.64
967.856	2958.62
968.158	2936.25
968.46	2946.19
968.761	2888.57
969.063	2929.7
969.365	2857.38
969.666	2879.75
969.968	2851.51
970.269	2833.65
970.571	2820.32
970.872	2810.38
971.174	2804.5
971.475	2822.58
971.776	2756.82
972.077	2783.71
972.378	2798.85
972.679	2733.32
972.98	2734.9
973.281	2735.13
973.582	2734.22
973.883	2704.84
974.183	2703.71
974.484	2663.04
974.785	2658.97
975.085	2700.78
975.386	2669.82
975.686	2642.02
975.986	2651.51
976.287	2616.71
976.587	2572.64
976.887	2571.97
977.187	2585.98
977.487	2553.21
977.787	2592.76
978.087	2501.23
978.387	2568.35
978.687	2545.53
978.987	2489.71
979.286	2508.47
979.586	2477.28
979.885	2441.12
980.185	2461.91
980.484	2477.96
980.784	2456.72
981.083	2461.69
981.382	2439.99
981.682	2417.85
981.981	2444.74
982.28	2395.7
982.579	2388.24
982.878	2382.14
983.177	2371.29
983.475	2343.5
983.774	2363.84
984.073	2349.83
984.372	2318.64
984.67	2322.93
984.969	2333.78
985.267	2350.05
985.566	2292.2
985.864	2282.71
986.162	2272.54
986.461	2246.1
986.759	2219.21
987.057	2226.21
987.355	2232.99
987.653	2232.09
987.951	2206.1
988.249	2221.47
988.547	2205.42
988.844	2184.41
989.142	2162.94
989.44	2164.29
989.737	2149.6
990.035	2142.37
990.332	2122.26
990.63	2118.64
990.927	2148.25
991.224	2116.39
991.521	2113.67
991.819	2050.85
992.116	2095.82
992.413	2051.98
992.71	2053.56
993.006	2078.19
993.303	2048.14
993.6	2041.81
993.897	2015.82
994.193	2002.94
994.49	2007.91
994.787	1977.63
995.083	1966.11
995.379	1989.61
995.676	1981.25
995.972	1969.72
996.268	1957.07
996.565	1937.41
996.861	1938.54
997.157	1942.83
997.453	1929.05
997.749	1903.74
998.044	1907.8
998.34	1885.43
998.636	1908.48
998.932	1863.74
999.227	1863.96
999.523	1874.81
999.818	1836.17
1000.114	1812.44
1000.409	1805.21
1000.704	1791.65
1001	1803.85
1001.295	1804.98
1001.59	1778.31
1001.885	1778.31
1002.18	1733.34
1002.475	1751.87
1002.77	1769.5
1003.065	1743.74
1003.359	1756.39
1003.654	1724.08
1003.949	1695.15
1004.243	1683.18
1004.538	1676.17
1004.832	1684.31
1005.127	1697.86
1005.421	1662.16
1005.715	1658.09
1006.009	1674.81
1006.304	1650.63
1006.598	1627.13
1006.892	1606.79
1007.186	1599.79
1007.48	1615.38
1007.773	1548.26
1008.067	1593.46
1008.361	1598.88
1008.655	1577.19
1008.948	1548.26
1009.242	1552.78
1009.535	1550.75
1009.829	1534.03
1010.122	1520.24
1010.415	1520.69
1010.708	1507.81
1011.001	1511.43
1011.295	1477.08
1011.588	1485.44
1011.881	1460.81
1012.173	1457.19
1012.466	1463.52
1012.759	1487.7
1013.052	1464.65
1013.344	1453.8
1013.637	1414.48
1013.93	1426.01
1014.222	1431.66
1014.514	1401.15
1014.807	1395.95
1015.099	1402.05
1015.391	1397.99
1015.683	1383.97
1015.976	1361.15
1016.268	1366.12
1016.56	1336.52
1016.851	1328.16
1017.143	1319.8
1017.435	1345.78
1017.727	1318.67
1018.018	1322.28
1018.31	1302.62
1018.602	1305.78
1018.893	1295.16
1019.185	1293.81
1019.476	1261.27
1019.767	1264.88
1020.058	1253.81
1020.35	1225.11
1020.641	1237.99
1020.932	1248.16
1021.223	1238.22
1021.514	1227.37
1021.804	1204.09
1022.095	1211.55
1022.386	1196.18
1022.677	1188.05
1022.967	1174.26
1023.258	1185.11
1023.548	1191.21
1023.839	1148.27
1024.129	1137.65
1024.419	1161.83
1024.709	1147.37
1025	1109.86
1025.29	1123.64
1025.58	1106.24
1025.87	1107.6
1026.16	1103.76
1026.449	1076.86
1026.739	1073.93
1027.029	1070.08
1027.319	1075.96
1027.608	1062.63
1027.898	1058.79
1028.187	1069.63
1028.477	1073.02
1028.766	1056.75
1029.055	1052.01
1029.344	1016.75
1029.634	1010.43
1029.923	1034.61
1030.212	998.67
1030.501	1035.96
1030.79	1012.91
1031.078	1021.5
1031.367	991.89
1031.656	973.36
1031.945	953.7
1032.233	991.67
1032.522	967.71
1032.81	955.51
1033.099	946.25
1033.387	966.58
1033.675	948.73
1033.963	927.04
1034.251	933.37
1034.54	944.21
1034.828	926.13
1035.116	916.87
1035.403	897.21
1035.691	883.42
1035.979	901.5
1036.267	919.13
1036.554	895.4
1036.842	845.01
1037.129	866.93
1037.417	862.18
1037.704	858.11
1037.992	872.58
1038.279	874.16
1038.566	845.01
1038.853	845.01
1039.14	845.01
