Data from hue_260_FLMS001491_00036.txt Node
Date: Tue Feb 07 15:58:55 GMT 2017
User: dcchb
Spectrometer: FLMS00149
Trigger mode: 0
Integration Time (sec): 2.000000E-2
Scans to average: 10
Electric dark correction enabled: true
Nonlinearity correction enabled: false
Boxcar width: 0
XAxis mode: Wavelengths
Number of Pixels in Spectrum: 2048
>>>>>Begin Spectral Data<<<<<
341.393	-9.43
341.776	-9.43
342.16	-9.43
342.543	-51.24
342.927	-64.57
343.31	-76.55
343.693	-79.26
344.077	-59.6
344.46	-61.18
344.843	-42.88
345.226	-33.61
345.61	-19.6
345.993	-34.07
346.376	-16.21
346.759	17.68
347.142	46.83
347.525	33.28
347.908	58.36
348.291	84.57
348.674	81.86
349.057	100.39
349.44	139.94
349.823	150.79
350.206	155.31
350.588	178.13
350.971	207.28
351.354	222.42
351.737	232.82
352.119	253.61
352.502	278.47
352.884	267.17
353.267	280.05
353.65	294.96
354.032	284.34
354.414	299.03
354.797	296.77
355.179	313.95
355.562	320.05
355.944	297.68
356.326	341.74
356.709	323.44
357.091	336.09
357.473	344.45
357.855	332.48
358.238	339.71
358.62	316.21
359.002	333.83
359.384	322.31
359.766	328.41
360.148	330.9
360.53	318.47
360.912	315.98
361.294	326.38
361.676	314.4
362.057	327.96
362.439	319.6
362.821	320.05
363.203	325.92
363.584	318.01
363.966	297.68
364.348	315.53
364.729	312.59
365.111	296.77
365.493	302.87
365.874	320.05
366.256	297
366.637	301.07
367.019	311.69
367.4	333.61
367.781	300.39
368.163	329.54
368.544	314.4
368.925	303.55
369.306	311.69
369.688	301.52
370.069	295.64
370.45	319.82
370.831	307.39
371.212	308.97
371.593	318.47
371.974	314.85
372.355	323.89
372.736	296.55
373.117	301.97
373.498	321.86
373.879	298.35
374.26	292.7
374.641	301.74
375.021	317.79
375.402	307.17
375.783	318.24
376.163	313.04
376.544	323.89
376.925	307.62
377.305	311.46
377.686	313.49
378.066	288.64
378.447	309.43
378.827	320.05
379.208	317.79
379.588	365.02
379.968	320.05
380.349	324.79
380.729	322.76
381.109	325.25
381.489	310.33
381.87	346.94
382.25	329.54
382.63	339.71
383.01	334.28
383.39	325.47
383.77	306.04
384.15	350.1
384.53	320.27
384.91	350.33
385.29	335.19
385.67	348.3
386.049	347.62
386.429	349.88
386.809	338.8
387.189	340.61
387.568	347.39
387.948	342.65
388.328	348.52
388.707	343.32
389.087	355.98
389.466	356.88
389.846	350.33
390.225	365.02
390.605	348.75
390.984	360.27
391.363	373.83
391.743	378.35
392.122	359.6
392.501	405.92
392.881	369.99
393.26	362.53
393.639	380.61
394.018	379.71
394.397	376.09
394.776	370.89
395.155	379.71
395.534	381.29
395.913	367.73
396.292	357.34
396.671	380.84
397.05	381.52
397.429	381.29
397.808	395.3
398.186	417.45
398.565	402.31
398.944	364.79
399.323	376.54
399.701	394.4
400.08	388.07
400.458	394.85
400.837	413.15
401.215	398.92
401.594	395.3
401.972	396.88
402.351	434.62
402.729	425.81
403.107	412.02
403.486	428.97
403.864	421.97
404.242	440.27
404.62	424.68
404.999	437.56
405.377	435.07
405.755	449.31
406.133	429.88
406.511	449.54
406.889	449.08
407.267	441.4
407.645	461.74
408.023	451.34
408.401	486.6
408.779	491.57
409.156	486.6
409.534	466.94
409.912	481.85
410.29	492.7
410.667	482.3
411.045	514.17
411.422	508.74
411.8	533.6
412.178	519.59
412.555	544.9
412.933	545.35
413.31	541.74
413.687	533.6
414.065	565.24
414.442	564.56
414.819	574.05
415.197	574.28
415.574	592.81
415.951	592.58
416.328	587.16
416.705	615.63
417.082	602.53
417.46	618.8
417.837	646.59
418.214	628.06
418.591	609.53
418.967	619.7
419.344	640.72
419.721	652.47
420.098	667.84
420.475	674.84
420.852	698.34
421.228	691.56
421.605	718.68
421.982	717.78
422.358	705.12
422.735	718.91
423.111	736.53
423.488	766.59
423.864	755.52
424.241	755.29
424.617	800.26
424.994	812.01
425.37	804.1
425.746	793.71
426.123	797.1
426.499	836.87
426.875	860.37
427.251	856.76
427.627	854.72
428.003	881.39
428.379	902.86
428.756	893.37
429.132	877.1
429.507	915.06
429.883	901.28
430.259	946.92
430.635	945.57
431.011	952.12
431.387	985.57
431.763	983.53
432.138	962.74
432.514	1016.75
432.89	1025.79
433.265	1026.02
433.641	1034.61
434.016	1042.06
434.392	1080.71
434.767	1117.99
435.143	1087.71
435.518	1105.11
435.894	1139.24
436.269	1142.85
436.644	1164.77
437.02	1186.24
437.395	1184.88
437.77	1223.08
438.145	1228.72
438.52	1252.68
438.895	1263.53
439.271	1276.18
439.646	1313.69
440.021	1308.95
440.395	1346.24
440.77	1318.44
441.145	1335.84
441.52	1370.87
441.895	1353.47
442.27	1381.72
442.645	1382.62
443.019	1396.86
443.394	1402.96
443.769	1440.47
444.143	1436.4
444.518	1466.23
444.892	1455.39
445.267	1473.46
445.641	1485.67
446.016	1480.24
446.39	1487.02
446.764	1510.53
447.139	1504.42
447.513	1555.72
447.887	1530.86
448.262	1577.19
448.636	1570.64
449.01	1583.07
449.384	1571.31
449.758	1614.25
450.132	1631.43
450.506	1646.34
450.88	1664.65
451.254	1631.65
451.628	1694.48
452.002	1708.49
452.376	1683.4
452.75	1736.06
453.123	1719.79
453.497	1764.98
453.871	1773.12
454.244	1778.99
454.618	1780.8
454.992	1806.56
455.365	1823.06
455.739	1865.32
456.112	1893.79
456.486	1887.92
456.859	1858.09
457.232	1949.16
457.606	1909.16
457.979	1918.42
458.352	1989.61
458.725	2003.62
459.099	2014.24
459.472	2067.57
459.845	2033.22
460.218	2082.71
460.591	2087.91
460.964	2122.94
461.337	2151.86
461.71	2184.18
462.083	2206.1
462.456	2216.5
462.829	2223.73
463.201	2256.27
463.574	2238.87
463.947	2290.17
464.32	2332.65
464.692	2336.04
465.065	2348.92
465.438	2383.5
465.81	2439.31
466.183	2427.34
466.555	2450.84
466.928	2503.49
467.3	2480.44
467.672	2510.05
468.045	2592.3
468.417	2614.9
468.789	2618.74
469.161	2668.69
469.534	2697.84
469.906	2704.62
470.278	2762.02
470.65	2764.73
471.022	2794.33
471.394	2886.31
471.766	2869.36
472.138	2895.8
472.51	2979.41
472.882	2989.81
473.253	3055.34
473.625	3064.61
473.997	3081.78
474.369	3095.34
474.74	3160.2
475.112	3222.57
475.484	3240.88
475.855	3337.82
476.227	3315.45
476.598	3407.65
476.97	3462.34
477.341	3483.35
477.713	3526.52
478.084	3519.06
478.455	3619.17
478.827	3629.79
479.198	3721.31
479.569	3775.32
479.94	3859.62
480.311	3859.16
480.682	3933.06
481.053	4011.48
481.424	4051.93
481.795	4072.94
482.166	4104.58
482.537	4185.48
482.908	4239.27
483.279	4276.33
483.65	4347.96
484.021	4398.13
484.391	4403.33
484.762	4467.74
485.133	4476.1
485.503	4585.47
485.874	4617.79
486.244	4683.1
486.615	4698.46
486.985	4756.32
487.356	4883.32
487.726	4900.49
488.097	4968.74
488.467	4959.47
488.837	5094.61
489.207	5084.67
489.578	5225
489.948	5221.84
490.318	5271.33
490.688	5258.9
491.058	5349.07
491.428	5392.01
491.798	5447.82
492.168	5539.57
492.538	5556.52
492.908	5622.51
493.278	5702.73
493.648	5670.42
494.017	5731.88
494.387	5753.13
494.757	5831.77
495.126	5858.21
495.496	5818.21
495.866	5846.23
496.235	5968.26
496.605	5962.16
496.974	6036.28
497.344	6133.45
497.713	6067.02
498.082	6109.5
498.452	6156.73
498.821	6132.32
499.19	6189.95
499.559	6273.34
499.928	6227.24
500.298	6264.07
500.667	6312.66
501.036	6302.04
501.405	6395.82
501.774	6332.55
502.143	6392.2
502.512	6381.13
502.88	6442.37
503.249	6388.36
503.618	6533.67
503.987	6539.55
504.356	6534.35
504.724	6542.03
505.093	6576.38
505.462	6562.37
505.83	6662.93
506.199	6636.27
506.567	6721.46
506.936	6674.46
507.304	6745.64
507.672	6734.79
508.041	6741.57
508.409	6756.94
508.777	6841.46
509.145	6870.61
509.514	6868.35
509.882	6875.81
510.25	6860.22
510.618	6865.64
510.986	6902.02
511.354	7008.01
511.722	6920.78
512.09	7034
512.458	7002.36
512.826	7035.58
513.193	7065.86
513.561	7089.14
513.929	7031.96
514.297	7148.12
514.664	7111.28
515.032	7144.95
515.4	7131.62
515.767	7149.47
516.135	7184.73
516.502	7140.21
516.869	7268.57
517.237	7273.76
517.604	7189.7
517.972	7257.72
518.339	7236.02
518.706	7293.42
519.073	7293.88
519.44	7273.99
519.808	7341.33
520.175	7359.86
520.542	7342.46
520.909	7397.83
521.276	7407.09
521.643	7425.85
522.009	7431.73
522.376	7453.87
522.743	7496.36
523.11	7529.8
523.477	7553.98
523.843	7551.27
524.21	7607.99
524.577	7574.09
524.943	7621.78
525.31	7627.43
525.676	7643.02
526.043	7666.75
526.409	7752.4
526.776	7752.4
527.142	7679.4
527.508	7708.33
527.874	7778.38
528.241	7801.89
528.607	7698.61
528.973	7800.53
529.339	7754.2
529.705	7834.2
530.071	7819.06
530.437	7842.34
530.803	7862.9
531.169	7926.18
531.535	7812.05
531.901	7856.8
532.267	7889.57
532.632	7894.31
532.998	7883.24
533.364	7860.19
533.73	7923.69
534.095	7946.29
534.461	7960.3
534.826	7949.23
535.192	7994.42
535.557	8008.66
535.923	7927.76
536.288	7906.29
536.653	7933.63
537.019	7867.42
537.384	7864.03
537.749	7930.7
538.114	7850.25
538.479	7875.1
538.845	7845.5
539.21	7809.12
539.575	7884.59
539.94	7892.5
540.305	7870.58
540.67	7894.54
541.034	7885.72
541.399	7940.19
541.764	7885.5
542.129	7863.58
542.494	7902
542.858	7896.12
543.223	7882.11
543.587	7894.99
543.952	7784.94
544.316	7886.85
544.681	7846.63
545.045	7879.4
545.41	7808.89
545.774	7906.52
546.138	7758.5
546.503	7813.41
546.867	7760.53
547.231	7813.64
547.595	7795.56
547.959	7861.54
548.324	7811.83
548.688	7803.69
549.052	7827.2
549.416	7833.97
549.779	7769.34
550.143	7820.87
550.507	7840.53
550.871	7779.06
551.235	7800.98
551.599	7793.07
551.962	7791.04
552.326	7749.68
552.689	7810.47
553.053	7777.48
553.417	7843.69
553.78	7770.02
554.143	7731.6
554.507	7805.05
554.87	7810.92
555.234	7826.74
555.597	7765.05
555.96	7845.95
556.323	7815.44
556.686	7803.69
557.05	7823.58
557.413	7826.29
557.776	7802.34
558.139	7876.91
558.502	7910.58
558.865	7865.84
559.228	7871.49
559.59	7806.4
559.953	7904.26
560.316	7981.09
560.679	7878.04
561.041	7947.87
561.404	8021.54
561.767	8014.54
562.129	7961.2
562.492	8024.93
562.854	7977.93
563.217	7980.19
563.579	7966.17
563.941	8000.52
564.304	8051.82
564.666	8085.49
565.028	8099.96
565.39	8153.06
565.753	8115.1
566.115	8118.26
566.477	8151.03
566.839	8188.99
567.201	8222.21
567.563	8211.59
567.925	8248.88
568.287	8202.55
568.648	8317.8
569.01	8304.7
569.372	8353.96
569.734	8324.36
570.095	8339.05
570.457	8453.85
570.819	8384.47
571.18	8415.65
571.542	8409.78
571.903	8492.04
572.265	8444.35
572.626	8540.85
572.987	8482.09
573.349	8534.07
573.71	8600.73
574.071	8545.14
574.432	8593.95
574.794	8672.14
575.155	8643.45
575.516	8613.16
575.877	8628.3
576.238	8735.87
576.599	8741.07
576.96	8728.19
577.32	8715.31
577.681	8780.62
578.042	8732.93
578.403	8808.41
578.763	8802.99
579.124	8857.9
579.485	8843.44
579.845	8894.29
580.206	8881.86
580.566	8859.03
580.927	8920.95
581.287	8966.83
581.648	8954.62
582.008	8918.47
582.368	8974.96
582.728	8986.94
583.089	8985.81
583.449	9002.53
583.809	8996.43
584.169	9059.03
584.529	9022.64
584.889	9096.77
585.249	9057.67
585.609	9033.27
585.969	9186.93
586.329	9103.09
586.688	9139.03
587.048	9111.46
587.408	9167.05
587.768	9073.72
588.127	9144.67
588.487	9162.98
588.846	9217.89
589.206	9142.87
589.565	9261.51
589.925	9230.32
590.284	9246.82
590.643	9239.36
591.003	9263.99
591.362	9355.29
591.721	9264.9
592.08	9262.19
592.44	9341.96
592.799	9314.16
593.158	9364.33
593.517	9314.39
593.876	9384.44
594.235	9363.2
594.593	9314.61
594.952	9376.53
595.311	9327.95
595.67	9379.02
596.029	9434.16
596.387	9500.82
596.746	9490.43
597.104	9421.73
597.463	9383.31
597.822	9453.59
598.18	9480.49
598.538	9430.77
598.897	9489.3
599.255	9434.38
599.613	9566.13
599.972	9451.56
600.33	9517.77
600.688	9412.24
601.046	9490.88
601.404	9468.73
601.762	9564.78
602.12	9555.74
602.478	9514.16
602.836	9517.77
603.194	9475.97
603.552	9507.83
603.91	9530.43
604.268	9537.66
604.625	9520.94
604.983	9520.03
605.341	9541.5
605.698	9548.96
606.056	9567.26
606.413	9530.2
606.771	9558.68
607.128	9554.61
607.485	9533.59
607.843	9543.99
608.2	9653.36
608.557	9646.13
608.914	9620.14
609.272	9620.37
609.629	9722.51
609.986	9668.73
610.343	9673.7
610.7	9752.57
611.057	9704.43
611.414	9715.96
611.771	9759.8
612.127	9788.95
612.484	9770.2
612.841	9792.34
613.198	9693.59
613.554	9708.28
613.911	9829.18
614.267	9761.61
614.624	9796.18
614.98	9810.87
615.337	9810.19
615.693	9783.98
616.05	9749.63
616.406	9872.34
616.762	9806.13
617.118	9837.54
617.475	9854.71
617.831	9834.15
618.187	9851.1
618.543	9879.8
618.899	9939.23
619.255	9908.27
619.611	9875.96
619.967	9922.06
620.323	9928.38
620.678	9950.53
621.034	9908.04
621.39	9941.04
621.746	9841.38
622.101	9985.1
622.457	9930.87
622.812	9907.82
623.168	9965.67
623.523	9943.75
623.879	9983.3
624.234	9912.34
624.589	9966.35
624.945	9961.6
625.3	9953.24
625.655	9935.16
626.01	9881.83
626.365	9974.71
626.72	9915.95
627.075	9964.31
627.43	9939
627.785	9825.79
628.14	9864.88
628.495	9853.36
628.85	9936.52
629.205	9849.29
629.559	9934.03
629.914	9798.89
630.269	9839.12
630.623	9793.25
630.978	9775.17
631.332	9850.42
631.687	9847.93
632.041	9795.96
632.396	9803.19
632.75	9750.31
633.104	9816.52
633.459	9729.52
633.813	9727.48
634.167	9833.24
634.521	9710.31
634.875	9707.15
635.229	9681.16
635.583	9646.13
635.937	9716.86
636.291	9666.92
636.645	9612.01
636.999	9618.11
637.352	9696.3
637.706	9578.79
638.06	9595.96
638.413	9620.82
638.767	9583.31
639.121	9616.07
639.474	9527.49
639.828	9527.04
640.181	9612.23
640.534	9529.75
640.888	9539.01
641.241	9538.79
641.594	9473.03
641.947	9621.5
642.301	9499.69
642.654	9483.65
643.007	9453.59
643.36	9463.31
643.713	9443.65
644.066	9508.73
644.419	9456.31
644.771	9401.62
645.124	9249.08
645.477	9217.22
645.83	9246.37
646.182	9250.43
646.535	9206.14
646.888	9169.31
647.24	9110.55
647.593	9096.54
647.945	9218.12
648.298	9114.39
648.65	9151.23
649.002	9078.91
649.355	9152.58
649.707	9114.62
650.059	9074.39
650.411	9273.71
650.763	9286.82
651.115	9304.44
651.467	9326.14
651.819	9273.94
652.171	9310.77
652.523	9239.59
652.875	9277.78
653.227	9212.47
653.578	9327.49
653.93	9291.11
654.282	9296.76
654.633	9219.02
654.985	9274.61
655.337	9279.13
655.688	9314.16
656.039	9292.24
656.391	9198.01
656.742	9263.99
657.094	9277.78
657.445	9275.74
657.796	9263.09
658.147	9214.73
658.498	9270.32
658.849	9298.8
659.2	9255.86
659.551	9223.54
659.902	9358
660.253	9211.79
660.604	9269.19
660.955	9235.75
661.306	9259.7
661.656	9287.72
662.007	9278.23
662.358	9311
662.708	9302.64
663.059	9251.79
663.409	9201.85
663.76	9218.8
664.11	9284.56
664.461	9293.82
664.811	9284.33
665.161	9286.59
665.511	9253.15
665.862	9250.66
666.212	9310.09
666.562	9308.29
666.912	9226.93
667.262	9297.67
667.612	9245.92
667.962	9310.77
668.312	9282.07
668.662	9278.23
669.011	9318.23
669.361	9251.79
669.711	9241.4
670.06	9175.63
670.41	9188.52
670.76	9214.5
671.109	9272.81
671.459	9184.22
671.808	9178.35
672.157	9257.44
672.507	9156.43
672.856	9158.01
673.205	9169.08
673.554	9205.01
673.904	9089.99
674.253	9212.02
674.602	9223.09
674.951	8977.22
675.3	8906.49
675.649	9148.06
675.998	9140.38
676.346	9120.95
676.695	9090.21
677.044	9131.12
677.393	9093.83
677.741	9069.42
678.09	9092.7
678.438	9084.34
678.787	9067.39
679.135	9046.37
679.484	9006.37
679.832	8993.72
680.181	9031.46
680.529	9003.66
680.877	8980.84
681.225	8896.77
681.573	8988.07
681.922	8922.31
682.27	8867.62
682.618	8865.59
682.966	8850.9
683.314	8860.84
683.661	8866.72
684.009	8762.09
684.357	8746.95
684.705	8710.11
685.053	8777.23
685.4	8748.75
685.748	8737.91
686.095	8727.06
686.443	8748.53
686.79	8625.14
687.138	8678.92
687.485	8664.69
687.832	8605.03
688.18	8636.67
688.527	8621.52
688.874	8525.03
689.221	8532.94
689.568	8475.54
689.915	8544.69
690.262	8558.02
690.609	8453.62
690.956	8447.29
691.303	8442.55
691.65	8334.98
691.997	8318.48
692.344	8278.03
692.69	8321.42
693.037	8360.06
693.383	8247.75
693.73	8261.08
694.077	8140.63
694.423	8223.34
694.769	8182.67
695.116	8188.54
695.462	8059.73
695.808	8063.35
696.155	8085.04
696.501	7966.85
696.847	8001.88
697.193	7944.71
697.539	7972.05
697.885	7913.29
698.231	7816.57
698.577	7873.52
698.923	7898.38
699.269	7831.04
699.614	7735.45
699.96	7750.36
700.306	7736.8
700.651	7709.23
700.997	7697.48
701.342	7674.66
701.688	7558.95
702.033	7565.96
702.379	7677.37
702.724	7536.13
703.069	7579.97
703.415	7461.56
703.76	7572.74
704.105	7518.28
704.45	7429.01
704.795	7429.69
705.14	7370.48
705.485	7377.94
705.83	7356.47
706.175	7326.87
706.52	7320.99
706.865	7311.95
707.209	7308.11
707.554	7199.19
707.899	7300.88
708.243	7217.49
708.588	7200.77
708.932	7163.03
709.277	7161.22
709.621	7126.2
709.966	7132.98
710.31	7112.86
710.654	7077.38
710.998	7043.26
711.342	7008.69
711.687	7028.35
712.031	6978.4
712.375	6918.07
712.719	6892.98
713.063	6928.69
713.407	6924.62
713.75	6899.99
714.094	6916.94
714.438	6861.57
714.782	6925.3
715.125	6879.2
715.469	6833.55
715.812	6804.17
716.156	6768.01
716.499	6810.72
716.843	6829.03
717.186	6777.73
717.53	6813.21
717.873	6793.1
718.216	6724.85
718.559	6749.94
718.902	6681.69
719.246	6719.65
719.589	6756.26
719.932	6661.35
720.275	6697.96
720.617	6639.88
720.96	6650.05
721.303	6706.09
721.646	6664.74
721.989	6640.56
722.331	6620.45
722.674	6572.77
723.016	6700.9
723.359	6604.63
723.701	6664.74
724.044	6571.41
724.386	6563.5
724.729	6633.78
725.071	6589.04
725.413	6569.6
725.755	6561.69
726.097	6587.91
726.439	6544.29
726.782	6586.78
727.124	6515.14
727.465	6510.62
727.807	6540.45
728.149	6522.14
728.491	6560.34
728.833	6536.38
729.175	6534.12
729.516	6462.71
729.858	6512.2
730.199	6499.09
730.541	6520.79
730.882	6468.14
731.224	6550.62
731.565	6507.23
731.906	6502.48
732.248	6467.01
732.589	6462.71
732.93	6430.85
733.271	6453.9
733.612	6495.03
733.953	6522.82
734.294	6451.64
734.635	6465.88
734.976	6489.6
735.317	6436.72
735.658	6478.76
735.999	6457.29
736.339	6440.57
736.68	6447.57
737.021	6457.74
737.361	6458.42
737.702	6477.4
738.042	6453.45
738.383	6481.47
738.723	6475.37
739.063	6444.63
739.404	6510.17
739.744	6518.3
740.084	6495.93
740.424	6497.29
740.764	6504.74
741.104	6503.16
741.444	6515.37
741.784	6502.48
742.124	6540.22
742.464	6546.55
742.804	6563.05
743.143	6521.69
743.483	6588.58
743.823	6522.6
744.162	6575.7
744.502	6576.15
744.841	6632.88
745.181	6639.88
745.52	6653.21
745.86	6737.96
746.199	6683.95
746.538	6747.22
746.877	6772.08
747.216	6776.38
747.556	6845.3
747.895	6857.5
748.234	6811.18
748.573	6962.59
748.911	6885.3
749.25	6981.12
749.589	6996.03
749.928	7076.48
750.267	7170.94
750.605	7180.43
750.944	7244.16
751.283	7313.99
751.621	7331.16
751.96	7421.56
752.298	7467.43
752.636	7497.26
752.975	7567.09
753.313	7620.87
753.651	7742
753.989	7787.87
754.327	7883.92
754.666	7912.39
755.004	8061.31
755.342	8133.63
755.679	8220.86
756.017	8286.17
756.355	8413.62
756.693	8467.18
757.031	8572.03
757.368	8647.51
757.706	8737.91
758.044	8894.29
758.381	8991.46
758.719	8964.57
759.056	9195.97
759.394	9280.04
759.731	9391.22
760.068	9490.65
760.405	9643.64
760.743	9689.52
761.08	9917.76
761.417	9911.43
761.754	10063.97
762.091	10249.73
762.428	10331.08
762.765	10357.07
763.102	10630.06
763.438	10701.47
763.775	10748.93
764.112	10914.12
764.449	11049.94
764.785	11175.13
765.122	11164.96
765.458	11254.9
765.795	11406.76
766.131	11605.85
766.467	11727.43
766.804	11764.49
767.14	11799.52
767.476	11987.99
767.812	11995.45
768.148	12208.1
768.485	12187.76
768.821	12312.73
769.157	12393.63
769.492	12489.9
769.828	12518.82
770.164	12621.42
770.5	12673.85
770.836	12830.68
771.171	12855.76
771.507	12887.63
771.842	12947.06
772.178	13079.94
772.513	13103.89
772.849	13115.87
773.184	13162.42
773.519	13331.91
773.855	13305.24
774.19	13397.44
774.525	13366.71
774.86	13459.82
775.195	13417.1
775.53	13554.5
775.865	13474.05
776.2	13516.99
776.535	13471.11
776.87	13623.88
777.205	13569.87
777.539	13563.54
777.874	13716.76
778.209	13615.52
778.543	13552.47
778.878	13599.25
779.212	13710.66
779.547	13693.71
779.881	13817.77
780.215	13781.62
780.55	13833.14
780.884	13751.79
781.218	13759.69
781.552	13832.46
781.886	13788.17
782.22	13710.43
782.554	13745.91
782.888	13716.08
783.222	13699.81
783.556	13706.81
783.889	13618.46
784.223	13599.92
784.557	13684.22
784.89	13763.54
785.224	13656.42
785.557	13667.04
785.891	13622.07
786.224	13627.27
786.558	13696.65
786.891	13580.49
787.224	13519.02
787.557	13542.75
787.891	13539.36
788.224	13483.54
788.557	13531.23
788.89	13476.09
789.223	13537.55
789.556	13508.4
789.888	13478.35
790.221	13364.45
790.554	13322.42
790.887	13338.24
791.219	13394.96
791.552	13293.72
791.884	13276.09
792.217	13265.24
792.549	13258.01
792.882	13188.41
793.214	13145.02
793.546	13095.98
793.879	13072.48
794.211	13102.54
794.543	13121.29
794.875	13032.26
795.207	13022.09
795.539	13047.62
795.871	13019.6
796.203	12932.6
796.535	12854.18
796.867	12934.63
797.198	12835.88
797.53	12910.9
797.862	12776.44
798.193	12767.63
798.525	12695.54
798.856	12771.47
799.188	12655.32
799.519	12642.89
799.85	12518.6
800.182	12544.81
800.513	12551.59
800.844	12467.3
801.175	12504.81
801.506	12536.22
801.837	12426.85
802.168	12463.91
802.499	12470.24
802.83	12401.99
803.161	12349.11
803.491	12387.98
803.822	12350.01
804.153	12213.07
804.483	12233.41
804.814	12143.69
805.145	12180.08
805.475	12124.94
805.805	12134.65
806.136	12098.72
806.466	12098.04
806.796	12091.26
807.126	11999.51
807.457	11971.95
807.787	11998.39
808.117	11944.38
808.447	11819.63
808.777	11860.08
809.107	11837.26
809.436	11810.59
809.766	11799.97
810.096	11793.19
810.426	11734.44
810.755	11691.95
811.085	11753.87
811.414	11666.64
811.744	11623.25
812.073	11597.27
812.403	11595.23
812.732	11535.57
813.061	11573.54
813.39	11502.13
813.719	11456.25
814.049	11517.95
814.378	11453.54
814.707	11391.85
815.036	11419.19
815.365	11385.52
815.693	11281.12
816.022	11306.88
816.351	11345.75
816.68	11252.19
817.008	11288.35
817.337	11171.06
817.665	11152.53
817.994	11206.54
818.322	11169.93
818.651	11126.54
818.979	11042.48
819.307	11185.07
819.636	11074.12
819.964	11105.3
820.292	11067.56
820.62	11098.97
820.948	11073.44
821.276	11051.52
821.604	10981.24
821.932	11068.47
822.259	11070.27
822.587	10995.25
822.915	10997.73
823.243	11086.09
823.57	10990.5
823.898	11060.1
824.225	11008.58
824.553	11014.23
824.88	10955.47
825.207	11079.54
825.535	11091.97
825.862	11025.08
826.189	10979.2
826.516	10988.92
826.843	11088.13
827.17	11032.08
827.497	11075.92
827.824	11001.35
828.151	11078.86
828.478	11001.58
828.805	11029.6
829.131	11043.83
829.458	11027.79
829.785	10932.65
830.111	11078.41
830.438	11061.91
830.764	11083.38
831.09	11093.55
831.417	10984.85
831.743	11013.33
832.069	11089.71
832.395	10954.34
832.722	10964.74
833.048	10881.13
833.374	10981.91
833.7	10965.64
834.026	10919.77
834.351	10976.94
834.677	10960.45
835.003	10896.04
835.329	10935.59
835.654	10932.42
835.98	10790.96
836.306	10858.75
836.631	10851.3
836.956	10896.72
837.282	10892.65
837.607	10807.68
837.932	10785.08
838.258	10794.12
838.583	10828.02
838.908	10752.32
839.233	10780.56
839.558	10696.05
839.883	10700.11
840.208	10630.51
840.533	10600
840.858	10612.66
841.182	10680.23
841.507	10620.79
841.832	10580.34
842.156	10573.56
842.481	10592.55
842.805	10553
843.13	10514.36
843.454	10475.26
843.778	10431.19
844.103	10398.43
844.427	10337.41
844.751	10407.69
845.075	10426.9
845.399	10397.07
845.723	10346.45
846.047	10263.97
846.371	10222.61
846.695	10194.14
847.019	10160.47
847.343	10101.49
847.666	10085.89
847.99	9954.82
848.313	10002.05
848.637	9930.64
848.96	9913.69
849.284	9884.54
849.607	9808.84
849.931	9785.34
850.254	9769.74
850.577	9714.38
850.9	9589.63
851.223	9629.86
851.546	9602.52
851.869	9536.08
852.192	9598.9
852.515	9470.99
852.838	9469.86
853.161	9483.42
853.483	9480.03
853.806	9398.68
854.129	9290.66
854.451	9340.38
854.774	9306.25
855.096	9278
855.419	9260.83
855.741	9243.43
856.063	9143.32
856.385	9101.74
856.708	9109.2
857.03	9164.56
857.352	9101.74
857.674	9055.19
857.996	8986.49
858.318	8964.57
858.64	9031.46
858.961	8991.68
859.283	8974.96
859.605	8868.98
859.926	8941.97
860.248	8857
860.57	8789.43
860.891	8811.35
861.212	8813.61
861.534	8737
861.855	8709.66
862.176	8741.52
862.498	8775.87
862.819	8734.74
863.14	8710.34
863.461	8696.78
863.782	8675.53
864.103	8629.89
864.424	8670.11
864.745	8612.03
865.065	8596.44
865.386	8598.93
865.707	8529.32
866.027	8552.37
866.348	8532.26
866.668	8494.97
866.989	8519.15
867.309	8444.13
867.63	8487.97
867.95	8462.21
868.27	8355.54
868.59	8435.99
868.91	8434.19
869.23	8408.65
869.55	8350.57
869.87	8366.62
870.19	8321.19
870.51	8439.61
870.83	8344.24
871.15	8299.05
871.469	8351.93
871.789	8297.92
872.109	8301.31
872.428	8215.21
872.748	8290.46
873.067	8281.65
873.386	8318.26
873.706	8228.09
874.025	8133.4
874.344	8165.72
874.663	8158.26
874.982	8121.42
875.301	8122.33
875.62	8180.63
875.939	8114.65
876.258	8122.1
876.577	8091.14
876.896	8101.31
877.214	8066.51
877.533	8027.42
877.852	8083.69
878.17	8046.4
878.489	8098.37
878.807	8035.78
879.125	8003.91
879.444	8028.09
879.762	7912.84
880.08	8015.44
880.398	7923.46
880.716	7984.03
881.034	7902.22
881.352	7899.74
881.67	7867.65
881.988	7877.59
882.306	7843.47
882.624	7879.4
882.941	7821.32
883.259	7802.56
883.577	7753.98
883.894	7744.26
884.212	7730.47
884.529	7742.23
884.846	7742.68
885.164	7694.09
885.481	7645.51
885.798	7673.98
886.115	7615.22
886.432	7607.31
886.75	7577.26
887.067	7568.45
887.383	7535.45
887.7	7552.17
888.017	7493.87
888.334	7500.2
888.651	7450.93
888.967	7526.41
889.284	7469.46
889.6	7424.04
889.917	7401.67
890.233	7334.78
890.55	7347.89
890.866	7388.11
891.182	7254.33
891.498	7299.75
891.815	7281.45
892.131	7259.3
892.447	7195.8
892.763	7177.27
893.079	7214.56
893.395	7170.72
893.71	7193.54
894.026	7145.86
894.342	7108.12
894.657	7109.7
894.973	7047.1
895.289	7036.71
895.604	7025.86
895.92	6991.51
896.235	6971.62
896.55	6995.35
896.865	6909.71
897.181	6884.85
897.496	6923.04
897.811	6846.88
898.126	6848.24
898.441	6780.67
898.756	6813.44
899.071	6770.05
899.386	6763.72
899.7	6710.61
900.015	6676.94
900.33	6627.45
900.644	6630.84
900.959	6659.32
901.273	6579.09
901.588	6533.44
901.902	6546.1
902.216	6548.58
902.531	6438.98
902.845	6489.83
903.159	6377.74
903.473	6408.7
903.787	6372.32
904.101	6351.98
904.415	6318.08
904.729	6325.77
905.042	6307.24
905.356	6287.35
905.67	6223.17
905.984	6200.57
906.297	6260.46
906.611	6175.94
906.924	6196.5
907.237	6132.55
907.551	6146.11
907.864	6043.29
908.177	6082.61
908.491	6078.31
908.804	6021.82
909.117	5992.44
909.43	5975.49
909.743	5948.15
910.056	5949.28
910.368	5937.08
910.681	5867.47
910.994	5873.8
911.307	5865.44
911.619	5805.1
911.932	5799.23
912.244	5717.87
912.557	5759
912.869	5707.93
913.181	5706.8
913.494	5666.57
913.806	5683.97
914.118	5657.31
914.43	5608.95
914.742	5589.51
915.054	5568.95
915.366	5546.13
915.678	5518.33
915.99	5510.65
916.302	5446.92
916.613	5429.97
916.925	5474.04
917.236	5429.07
917.548	5343.87
917.859	5403.3
918.171	5336.19
918.482	5327.83
918.794	5298.45
919.105	5288.28
919.416	5283.08
919.727	5228.39
920.038	5210.99
920.349	5235.85
920.66	5162.41
920.971	5214.16
921.282	5102.97
921.593	5161.5
921.903	5121.96
922.214	5055.29
922.525	5068.62
922.835	5024.56
923.146	5008.51
923.456	4977.33
923.767	4980.72
924.077	5013.03
924.387	4957.89
924.697	4879.7
925.008	4882.87
925.318	4839.48
925.628	4841.96
925.938	4852.36
926.248	4770.1
926.558	4826.6
926.867	4779.59
927.177	4735.98
927.487	4732.59
927.796	4693.27
928.106	4683.32
928.416	4684.68
928.725	4690.1
929.034	4642.42
929.344	4599.48
929.653	4650.1
929.962	4632.48
930.271	4569.88
930.581	4564
930.89	4540.5
931.199	4534.17
931.508	4501.41
931.817	4491.24
932.125	4517.9
932.434	4438.13
932.743	4417.34
933.051	4414.63
933.36	4397.68
933.669	4387.29
933.977	4375.31
934.286	4335.76
934.594	4358.81
934.902	4294.86
935.21	4299.15
935.519	4298.25
935.827	4245.59
936.135	4257.8
936.443	4185.94
936.751	4227.74
937.059	4195.88
937.367	4164.69
937.674	4148.42
937.982	4149.1
938.29	4123.11
938.597	4116.56
938.905	4078.14
939.213	4034.3
939.52	4046.28
939.827	4046.28
940.135	4034.07
940.442	4000.18
940.749	3973.74
941.056	3980.06
941.363	3967.86
941.67	3937.58
941.977	3924.93
942.284	3883.8
942.591	3903.23
942.898	3865.04
943.205	3851.03
943.511	3831.59
943.818	3792.05
944.125	3815.55
944.431	3771.48
944.738	3737.59
945.044	3769
945.35	3738.94
945.657	3701.65
945.963	3670.69
946.269	3670.24
946.575	3672.95
946.881	3664.82
947.187	3657.36
947.493	3626.4
947.799	3617.36
948.105	3540.08
948.41	3566.97
948.716	3560.19
949.022	3546.63
949.327	3551.6
949.633	3544.6
949.938	3541.43
950.244	3489.46
950.549	3491.72
950.854	3443.81
951.16	3477.93
951.465	3448.78
951.77	3416.01
952.075	3431.38
952.38	3394.54
952.685	3405.84
952.99	3351.83
953.294	3325.84
953.599	3323.81
953.904	3272.51
954.209	3338.27
954.513	3317.03
954.818	3298.27
955.122	3277.94
955.426	3240.88
955.731	3217.37
956.035	3214.44
956.339	3212.4
956.643	3227.77
956.948	3192.97
957.252	3152.06
957.556	3152.97
957.86	3150.93
958.163	3157.04
958.467	3115.68
958.771	3059.41
959.075	3094.66
959.378	3091.73
959.682	3055.8
959.985	3040.43
960.289	3020.32
960.592	3018.96
960.896	3005.4
961.199	3000.2
961.502	2965.4
961.805	2968.34
962.108	2954.33
962.411	2964.5
962.714	2923.6
963.017	2941
963.32	2959.53
963.623	2901.45
963.926	2917.72
964.228	2866.2
964.531	2895.35
964.833	2839.76
965.136	2848.12
965.438	2821.9
965.741	2821.68
966.043	2821.68
966.345	2818.06
966.648	2786.88
966.95	2818.51
967.252	2754.11
967.554	2769.02
967.856	2716.14
968.158	2708.91
968.46	2713.21
968.761	2709.36
969.063	2722.24
969.365	2682.92
969.666	2672.3
969.968	2636.37
970.269	2630.95
970.571	2647.44
970.872	2616.26
971.174	2632.98
971.475	2627.56
971.776	2625.98
972.077	2591.85
972.378	2586.66
972.679	2595.02
972.98	2546.2
973.281	2518.86
973.582	2555.47
973.883	2533.1
974.183	2550.27
974.484	2517.28
974.785	2519.31
975.085	2463.49
975.386	2449.26
975.686	2416.04
975.986	2464.62
976.287	2449.26
976.587	2393.21
976.887	2447.9
977.187	2417.62
977.487	2391.63
977.787	2409.26
978.087	2391.86
978.387	2371.75
978.687	2359.32
978.987	2324.29
979.286	2333.78
979.586	2348.47
979.885	2313.67
980.185	2313.44
980.484	2303.27
980.784	2277.28
981.083	2284.97
981.382	2240.68
981.682	2268.92
981.981	2238.87
982.28	2230.73
982.579	2237.96
982.878	2176.27
983.177	2208.59
983.475	2219.66
983.774	2206.1
984.073	2171.52
984.372	2141.24
984.67	2161.81
984.969	2166.78
985.267	2128.59
985.566	2122.71
985.864	2132.88
986.162	2101.24
986.461	2105.99
986.759	2093.56
987.057	2085.88
987.355	2076.61
987.653	2068.7
987.951	2065.31
988.249	2000.68
988.547	2021.7
988.844	1997.74
989.142	2015.6
989.44	2020.57
989.737	2046.56
990.035	2035.94
990.332	2001.81
990.63	1987.35
990.927	1971.3
991.224	1968.82
991.521	1938.76
991.819	1935.37
992.116	1931.98
992.413	1939.89
992.71	1932.44
993.006	1899.22
993.303	1898.76
993.6	1912.77
993.897	1867.13
994.193	1878.43
994.49	1873.23
994.787	1854.02
995.083	1849.5
995.379	1842.49
995.676	1867.13
995.972	1838.43
996.268	1826.45
996.565	1817.41
996.861	1812.66
997.157	1819.67
997.453	1792.1
997.749	1759.56
998.044	1757.98
998.34	1759.33
998.636	1734.93
998.932	1753.46
999.227	1727.69
999.523	1729.05
999.818	1702.61
1000.114	1690.18
1000.409	1699.45
1000.704	1675.49
1001	1686.57
1001.295	1683.63
1001.59	1648.37
1001.885	1653.35
1002.18	1660.13
1002.475	1612.44
1002.77	1653.57
1003.065	1603.18
1003.359	1595.49
1003.654	1598.66
1003.949	1605.44
1004.243	1563.63
1004.538	1590.75
1004.832	1544.2
1005.127	1520.69
1005.421	1534.03
1005.715	1549.85
1006.009	1506.01
1006.304	1542.84
1006.598	1506.01
1006.892	1527.93
1007.186	1473.01
1007.48	1475.72
1007.773	1448.15
1008.067	1463.97
1008.361	1452.9
1008.655	1458.55
1008.948	1441.6
1009.242	1437.08
1009.535	1435.05
1009.829	1428.04
1010.122	1418.55
1010.415	1423.75
1010.708	1395.05
1011.001	1381.94
1011.295	1416.74
1011.588	1401.15
1011.881	1376.52
1012.173	1354.82
1012.466	1347.14
1012.759	1338.1
1013.052	1361.83
1013.344	1341.72
1013.637	1319.12
1013.93	1314.37
1014.222	1317.76
1014.514	1334.26
1014.807	1319.12
1015.099	1293.13
1015.391	1277.09
1015.683	1284.09
1015.976	1249.29
1016.268	1279.12
1016.56	1233.92
1016.851	1238.44
1017.143	1246.58
1017.435	1251.55
1017.727	1242.74
1018.018	1222.85
1018.31	1205.9
1018.602	1200.48
1018.893	1232.79
1019.185	1192.79
1019.476	1168.61
1019.767	1169.29
1020.058	1179.23
1020.35	1175.62
1020.641	1161.16
1020.932	1155.96
1021.223	1144.66
1021.514	1111.67
1021.804	1133.81
1022.095	1150.53
1022.386	1085.23
1022.677	1106.69
1022.967	1087.49
1023.258	1094.72
1023.548	1077.09
1023.839	1094.27
1024.129	1084.55
1024.419	1072.8
1024.709	1093.81
1025	1044.32
1025.29	1039.13
1025.58	1034.15
1025.87	1041.61
1026.16	1038.45
1026.449	1037.32
1026.739	1036.64
1027.029	1007.94
1027.319	1028.5
1027.608	993.7
1027.898	977.43
1028.187	1019.69
1028.477	977.66
1028.766	1007.71
1029.055	956.87
1029.344	973.36
1029.634	985.34
1029.923	954.83
1030.212	941.05
1030.501	957.55
1030.79	915.51
1031.078	932.46
1031.367	915.74
1031.656	909.19
1031.945	943.76
1032.233	903.08
1032.522	925.46
1032.81	908.06
1033.099	886.36
1033.387	886.59
1033.675	901.5
1033.963	915.74
1034.251	888.85
1034.54	878
1034.828	855.4
1035.116	852.46
1035.403	869.19
1035.691	844.1
1035.979	844.55
1036.267	857.66
1036.554	837.32
1036.842	845.01
1037.129	834.38
1037.417	828.51
1037.704	812.46
1037.992	827.61
1038.279	797.78
1038.566	800.04
1038.853	800.04
1039.14	800.04
