Data from hue_30_FLMS001491_3.txt Node
Date: Mon Feb 06 15:04:33 GMT 2017
User: dcchb
Spectrometer: FLMS00149
Trigger mode: 0
Integration Time (sec): 2.000000E-2
Scans to average: 10
Electric dark correction enabled: true
Nonlinearity correction enabled: false
Boxcar width: 0
XAxis mode: Wavelengths
Number of Pixels in Spectrum: 2048
>>>>>Begin Spectral Data<<<<<
341.393	-0.82
341.776	-0.82
342.16	-0.82
342.543	-67.94
342.927	-63.64
343.31	-69.07
343.693	-78.11
344.077	-71.1
344.46	-67.71
344.843	-60.7
345.226	-55.28
345.61	-20.03
345.993	-7.37
346.376	0.76
346.759	10.93
347.142	32.63
347.525	34.43
347.908	68.78
348.291	67.88
348.674	83.25
349.057	130.7
349.44	139.74
349.823	161.66
350.206	212.06
350.588	198.5
350.971	221.77
351.354	221.55
351.737	242.34
352.119	267.42
352.502	265.16
352.884	264.48
353.267	290.02
353.65	294.31
354.032	307.65
354.414	303.81
354.797	314.2
355.179	319.4
355.562	318.95
355.944	322.56
356.326	346.29
356.709	339.96
357.091	313.3
357.473	339.96
357.855	351.71
358.238	345.61
358.62	336.35
359.002	344.48
359.384	350.81
359.766	353.07
360.148	332.28
360.53	330.47
360.912	337.93
361.294	327.76
361.676	339.51
362.057	348.32
362.439	327.53
362.821	308.55
363.203	324.14
363.584	333.18
363.966	325.73
364.348	325.27
364.729	328.44
365.111	326.18
365.493	308.1
365.874	321.88
366.256	320.08
366.637	308.1
367.019	330.47
367.4	298.38
367.781	312.62
368.163	301.55
368.544	306.97
368.925	325.5
369.306	299.96
369.688	315.56
370.069	310.13
370.45	300.19
370.831	311.26
371.212	310.36
371.593	296.35
371.974	320.3
372.355	311.49
372.736	319.85
373.117	310.36
373.498	317.36
373.879	311.49
374.26	320.75
374.641	329.79
375.021	305.16
375.402	315.1
375.783	330.02
376.163	316.46
376.544	332.28
376.925	333.18
377.305	325.73
377.686	323.92
378.066	314.2
378.447	322.34
378.827	355.56
379.208	318.95
379.588	346.52
379.968	323.01
380.349	327.31
380.729	340.19
381.109	344.93
381.489	341.32
381.87	319.62
382.25	340.64
382.63	346.29
383.01	351.94
383.39	331.38
383.77	351.94
384.15	332.96
384.53	331.83
384.91	332.73
385.29	360.3
385.67	351.49
386.049	336.57
386.429	366.63
386.809	346.97
387.189	349
387.568	354.2
387.948	358.72
388.328	327.31
388.707	361.43
389.087	351.26
389.466	332.51
389.846	354.43
390.225	366.85
390.605	363.24
390.984	363.47
391.363	366.4
391.743	362.79
392.122	356.46
392.501	368.44
392.881	374.31
393.26	362.34
393.639	358.27
394.018	355.56
394.397	363.24
394.776	359.4
395.155	377.48
395.534	352.39
395.913	360.08
396.292	382.9
396.671	382
397.05	372.05
397.429	373.63
397.808	407.53
398.186	371.83
398.565	390.81
398.944	381.09
399.323	389.68
399.701	388.78
400.08	381.54
400.458	387.19
400.837	388.1
401.215	381.32
401.594	389.23
401.972	378.61
402.351	392.16
402.729	387.42
403.107	397.59
403.486	394.42
403.864	409.11
404.242	373.18
404.62	404.14
404.999	412.05
405.377	419.28
405.755	419.73
406.133	397.14
406.511	403.92
406.889	390.13
407.267	432.39
407.645	433.29
408.023	408.89
408.401	411.83
408.779	418.83
409.156	429.23
409.534	428.32
409.912	427.87
410.29	430.81
410.667	424.03
411.045	427.19
411.422	434.42
411.8	413.18
412.178	476.91
412.555	427.19
412.933	452.73
413.31	442.33
413.687	451.15
414.065	458.15
414.442	472.39
414.819	450.24
415.197	454.08
415.574	470.13
415.951	446.63
416.328	445.04
416.705	452.28
417.082	460.64
417.46	482.33
417.837	506.96
418.214	471.48
418.591	468.55
418.967	502.44
419.344	480.3
419.721	475.55
420.098	502.22
420.475	483.24
420.852	469.68
421.228	496.57
421.605	494.31
421.982	499.51
422.358	497.7
422.735	503.8
423.111	520.75
423.488	507.19
423.864	499.96
424.241	535.21
424.617	520.75
424.994	522.33
425.37	532.05
425.746	524.59
426.123	520.3
426.499	508.09
426.875	551.71
427.251	531.6
427.627	551.71
428.003	534.99
428.379	550.35
428.756	549.45
429.132	557.36
429.507	547.19
429.883	555.78
430.259	580.86
430.635	575.66
431.011	570.92
431.387	580.86
431.763	595.32
432.138	573.4
432.514	593.97
432.89	580.86
433.265	608.66
433.641	589
434.016	615.89
434.392	636.68
434.767	614.76
435.143	600.29
435.518	633.74
435.894	627.19
436.269	611.14
436.644	624.48
437.02	645.04
437.395	651.59
437.77	653.17
438.145	644.59
438.52	644.14
438.895	668.09
439.271	677.36
439.646	680.74
440.021	654.3
440.395	703.12
440.77	674.87
441.145	685.72
441.52	694.76
441.895	686.62
442.27	723.91
442.645	727.3
443.019	702.89
443.394	721.65
443.769	694.08
444.143	706.73
444.518	724.13
444.892	702.67
445.267	737.47
445.641	721.2
446.016	726.62
446.39	728.65
446.764	749.22
447.139	755.77
447.513	740.63
447.887	738.14
448.262	749.67
448.636	777.92
449.01	765.71
449.384	774.08
449.758	762.32
450.132	761.19
450.506	767.75
450.88	786.96
451.254	787.86
451.628	774.75
452.002	803.45
452.376	822.44
452.75	792.61
453.123	812.27
453.497	829.89
453.871	816.11
454.244	835.77
454.618	845.94
454.992	834.41
455.365	832.38
455.739	870.34
456.112	880.29
456.486	858.59
456.859	894.75
457.232	894.98
457.606	881.87
457.979	892.94
458.352	889.1
458.725	907.18
459.099	920.06
459.472	941.53
459.845	945.82
460.218	943.11
460.591	959.83
460.964	984.24
461.337	995.09
461.71	1006.84
462.083	1026.95
462.456	1022.43
462.829	1026.72
463.201	1038.93
463.574	1019.49
463.947	1051.36
464.32	1089.1
464.692	1070.79
465.065	1077.12
465.438	1100.39
465.81	1118.47
466.183	1108.76
466.555	1168.87
466.928	1132.71
467.3	1163.9
467.672	1178.36
468.045	1195.76
468.417	1193.27
468.789	1191.24
469.161	1239.83
469.534	1215.42
469.906	1254.29
470.278	1265.36
470.65	1304.68
471.022	1306.27
471.394	1322.31
471.766	1338.58
472.138	1380.16
472.51	1401.18
472.882	1389.65
473.253	1421.52
473.625	1458.58
473.997	1496.32
474.369	1525.02
474.74	1516.2
475.112	1530.21
475.484	1573.38
475.855	1616.31
476.227	1623.32
476.598	1675.07
476.97	1692.02
477.341	1743.99
477.713	1774.05
478.084	1795.07
478.455	1781.51
478.827	1828.96
479.198	1923.2
479.569	1918.23
479.94	1965.23
480.311	1979.92
480.682	2064.89
481.053	2100.82
481.424	2129.97
481.795	2181.27
482.166	2215.17
482.537	2260.82
482.908	2332.45
483.279	2367.48
483.65	2398.67
484.021	2429.17
484.391	2502.17
484.762	2529.74
485.133	2573.8
485.503	2616.06
485.874	2726.34
486.244	2720.01
486.615	2814.47
486.985	2826.9
487.356	2907.35
487.726	2909.16
488.097	3004.98
488.467	3006.79
488.837	3134.24
489.207	3157.06
489.578	3242.03
489.948	3262.6
490.318	3317.06
490.688	3371.07
491.058	3437.51
491.428	3478.41
491.798	3553.89
492.168	3574.68
492.538	3686.32
492.908	3698.97
493.278	3714.34
493.648	3804.28
494.017	3840.44
494.387	3889.47
494.757	3939.87
495.126	4036.81
495.496	4028.23
495.866	4064.84
496.235	4162.69
496.605	4174.44
496.974	4206.08
497.344	4279.07
497.713	4290.37
498.082	4350.25
498.452	4397.71
498.821	4459.85
499.19	4491.72
499.559	4547.76
499.928	4543.92
500.298	4609.91
500.667	4691.49
501.036	4663.01
501.405	4730.36
501.774	4778.26
502.143	4815.33
502.512	4838.6
502.88	4862.78
503.249	4867.98
503.618	4927.86
503.987	4953.4
504.356	5037.47
504.724	5020.74
505.093	5050.57
505.462	5125.6
505.83	5161.76
506.199	5195.43
506.567	5244.01
506.936	5262.32
507.304	5326.5
507.672	5303
508.041	5325.59
508.409	5368.31
508.777	5514.97
509.145	5448.3
509.514	5459.6
509.882	5557.45
510.25	5503.22
510.618	5586.15
510.986	5586.83
511.354	5654.4
511.722	5687.84
512.09	5758.35
512.458	5711.57
512.826	5768.75
513.193	5824.56
513.561	5865.24
513.929	5867.05
514.297	5890.33
514.664	5937.1
515.032	5964.45
515.4	6046.03
515.767	6014.62
516.135	6013.94
516.502	6036.76
516.869	6146.82
517.237	6148.85
517.604	6135.06
517.972	6171.22
518.339	6189.07
518.706	6182.97
519.073	6248.51
519.44	6308.85
519.808	6354.27
520.175	6330.09
520.542	6400.14
520.909	6441.05
521.276	6417.32
521.643	6436.53
522.009	6522.63
522.376	6587.26
522.743	6603.3
523.11	6632.45
523.477	6667.25
523.843	6702.96
524.21	6810.53
524.577	6821.37
524.943	6868.38
525.31	6856.63
525.676	6914.03
526.043	6932.78
526.409	6935.95
526.776	7086.45
527.142	7059.79
527.508	7055.72
527.874	7116.28
528.241	7179.78
528.607	7160.57
528.973	7247.8
529.339	7232.44
529.705	7316.28
530.071	7394.92
530.437	7354.02
530.803	7463.84
531.169	7489.61
531.535	7480.57
531.901	7537.74
532.267	7622.03
532.632	7559.66
532.998	7648.25
533.364	7734.12
533.73	7707.9
534.095	7729.83
534.461	7742.03
534.826	7827.45
535.192	7857.05
535.557	7882.82
535.923	7890.95
536.288	7938.63
536.653	7977.73
537.019	7986.77
537.384	8041.68
537.749	8038.07
538.114	8100.89
538.479	8036.48
538.845	8055.69
539.21	8184.95
539.575	8165.29
539.94	8202.13
540.305	8265.63
540.67	8259.3
541.034	8306.53
541.399	8315.8
541.764	8319.87
542.129	8447.55
542.494	8494.1
542.858	8477.83
543.223	8471.5
543.587	8565.51
543.952	8565.06
544.316	8635.11
544.681	8568.45
545.045	8657.03
545.41	8681.44
545.774	8796.01
546.138	8744.49
546.503	8826.75
546.867	8825.16
547.231	8870.36
547.595	8915.56
547.959	8945.84
548.324	8968.66
548.688	9010.92
549.052	8986.97
549.416	8989.23
549.779	9068.77
550.143	9101.77
550.507	9141.77
550.871	9191.93
551.235	9211.14
551.599	9221.09
551.962	9227.41
552.326	9320.52
552.689	9376.34
553.053	9341.08
553.417	9341.08
553.78	9498.37
554.143	9388.99
554.507	9439.16
554.87	9507.41
555.234	9617.23
555.597	9553.05
555.96	9626.95
556.323	9618.14
556.686	9654.97
557.05	9763.9
557.413	9734.29
557.776	9788.75
558.139	9747.17
558.502	9831.92
558.865	9825.59
559.228	9889.09
559.59	9906.04
559.953	9951.24
560.316	10060.84
560.679	9989.65
561.041	10128.41
561.404	10125.69
561.767	10206.82
562.129	10076.2
562.492	10216.77
562.854	10203.21
563.217	10299.93
563.579	10235.75
563.941	10308.74
564.304	10346.03
564.666	10357.1
565.028	10426.48
565.39	10493.82
565.753	10549.86
566.115	10568.39
566.477	10546.7
566.839	10628.73
567.201	10648.84
567.563	10692.68
567.925	10774.04
568.287	10782.17
568.648	10768.16
569.01	10860.36
569.372	10966.8
569.734	10865.56
570.095	11002.96
570.457	11082.05
570.819	11084.54
571.18	11126.12
571.542	11173.12
571.903	11214.93
572.265	11263.07
572.626	11333.8
572.987	11375.83
573.349	11398.2
573.71	11425.1
574.071	11616.05
574.432	11587.58
574.794	11672.77
575.155	11776.5
575.516	11683.85
575.877	11853.11
576.238	11960.9
576.599	12023.72
576.96	12092.87
577.32	12188.46
577.681	12259.88
578.042	12358.86
578.403	12416.48
578.763	12555.91
579.124	12545.52
579.485	12877.26
579.845	12907.99
580.206	13041.55
580.566	13102.79
580.927	13070.93
581.287	13380.98
581.648	13396.79
582.008	13702.55
582.368	13741.19
582.728	14003.33
583.089	14045.82
583.449	14216.66
583.809	14425.02
584.169	14668.17
584.529	14755.85
584.889	15041.72
585.249	15166.01
585.609	15281.72
585.969	15556.06
586.329	15692.1
586.688	15988.36
587.048	16104.52
587.408	16255.7
587.768	16502.25
588.127	16691.4
588.487	16907.21
588.846	17265.39
589.206	17311.27
589.565	17626.97
589.925	17935.21
590.284	18112.6
590.643	18358.02
591.003	18649.31
591.362	18940.6
591.721	19074.39
592.08	19373.13
592.44	19606.35
592.799	19822.16
593.158	20073.46
593.517	20330.17
593.876	20618.75
594.235	20935.58
594.593	21196.14
594.952	21472.74
595.311	21611.27
595.67	21943.01
596.029	22324.7
596.387	22580.51
596.746	22841.74
597.104	23011.68
597.463	23240.38
597.822	23505
598.18	23655.96
598.538	23891.66
598.897	24257.98
599.255	24359.22
599.613	25017.73
599.972	24903.61
600.33	25269.93
600.688	25381.79
601.046	25839.18
601.404	26039.4
601.762	26174.54
602.12	26489.11
602.478	26765.03
602.836	26974.52
603.194	27012.71
603.552	27360.5
603.91	27456.09
604.268	27742.86
604.625	27866.7
604.983	28282.28
605.341	28315.72
605.698	28635.04
606.056	28882.72
606.413	28948.93
606.771	29230.5
607.128	29521.12
607.485	29491.96
607.843	29649.25
608.2	30039.07
608.557	30285.16
608.914	30432.28
609.272	30561.32
609.629	30777.13
609.986	31068.65
610.343	31110
610.7	31439.26
611.057	31516.77
611.414	31697.56
611.771	31857.55
612.127	32115.17
612.484	32157.43
612.841	32383.87
613.198	32405.79
613.554	32420.02
613.911	32998.31
614.267	32826.79
614.624	33094.13
614.98	33209.38
615.337	33476.94
615.693	33508.13
616.05	33487.11
616.406	33951.73
616.762	33811.4
617.118	33923.03
617.475	34075.35
617.831	34238.28
618.187	34189.02
618.543	34335.91
618.899	34673.75
619.255	34784.71
619.611	34773.63
619.967	35013.85
620.323	35213.4
620.678	35015.44
621.034	35110.12
621.39	35253.4
621.746	35268.99
622.101	35573.16
622.457	35424.46
622.812	35566.16
623.168	35777
623.523	35895.64
623.879	35932.02
624.234	35755.75
624.589	36007.27
624.945	36049.53
625.3	36247.49
625.655	36231.67
626.01	36350.09
626.365	36338.34
626.72	36351.9
627.075	36427.15
627.43	36348.73
627.785	36384.44
628.14	36456.75
628.495	36651.78
628.85	36529.75
629.205	36484.78
629.559	36830.75
629.914	36628.5
630.269	36772.68
630.623	36581.04
630.978	36542.85
631.332	36749.63
631.687	36757.76
632.041	36747.14
632.396	36811.77
632.75	36737.2
633.104	36815.84
633.459	36628.95
633.813	36723.64
634.167	36815.39
634.521	36685.67
634.875	36874.82
635.229	36767.03
635.583	36747.14
635.937	36754.6
636.291	36783.07
636.645	36665.11
636.999	36667.6
637.352	36752.11
637.706	36674.6
638.06	36703.75
638.413	36612.23
638.767	36626.69
639.121	36695.62
639.474	36564.55
639.828	36480.03
640.181	36527.26
640.534	36612.23
640.888	36478.22
641.241	36396.19
641.594	36510.31
641.947	36715.96
642.301	36453.59
642.654	36560.25
643.007	36487.71
643.36	36460.59
643.713	36467.37
644.066	36598.67
644.419	36328.4
644.771	36143.54
645.124	35864.68
645.477	35807.05
645.83	35624.91
646.182	35537.91
646.535	35487.06
646.888	35343.34
647.24	35275.32
647.593	35461.98
647.945	35477.34
648.298	35273.96
648.65	35180.18
649.002	35129.56
649.355	35323.22
649.707	35213.17
650.059	35451.81
650.411	35632.82
650.763	35857.67
651.115	36218.57
651.467	36097.44
651.819	35984
652.171	36026.93
652.523	36081.62
652.875	36071
653.227	35775.19
653.578	36187.83
653.93	35938.12
654.282	35827.84
654.633	35864.45
654.985	35880.27
655.337	35838.92
655.688	35901.74
656.039	35989.19
656.391	35605.7
656.742	35742.2
657.094	35726.6
657.445	35798.01
657.796	35707.17
658.147	35765.92
658.498	35624.01
658.849	35759.82
659.2	35716.21
659.551	35598.47
659.902	35738.81
660.253	35582.88
660.604	35700.16
660.955	35407.52
661.306	35688.64
661.656	35543.56
662.007	35604.8
662.358	35555.08
662.708	35705.81
663.059	35489.1
663.409	35351.25
663.76	35525.48
664.11	35549.88
664.461	35707.17
664.811	35589.66
665.161	35593.5
665.511	35471.02
665.862	35548.98
666.212	35541.75
666.562	35734.06
666.912	35567.51
667.262	35514.86
667.612	35475.99
667.962	35650.67
668.312	35474.86
668.662	35620.84
669.011	35399.83
669.361	35504.01
669.711	35512.6
670.06	35482.32
670.41	35382.66
670.76	35352.83
671.109	35398.93
671.459	35331.59
671.808	35388.31
672.157	35330.91
672.507	35076.68
672.856	35309.21
673.205	35242.32
673.554	35249.78
673.904	35239.61
674.253	35422.43
674.602	35190.12
674.951	34878.49
675.3	34629.68
675.649	35099.27
675.998	35063.8
676.346	35193.96
676.695	35226.73
677.044	35002.33
677.393	35047.98
677.741	35125.26
678.09	35114.87
678.438	34850.47
678.787	35021.31
679.135	34928.43
679.484	34747.42
679.832	34968.88
680.181	34790.13
680.529	34815.44
680.877	34609.8
681.225	34660.42
681.573	34827.64
681.922	34541.32
682.27	34462.46
682.618	34516.69
682.966	34413.19
683.314	34425.85
683.661	34382.46
684.009	34242.12
684.357	34148.34
684.705	34193.54
685.053	34170.49
685.4	34229.47
685.748	34033.54
686.095	34030.83
686.443	33898.85
686.79	33764.85
687.138	33766.43
687.485	33939.53
687.832	33711.29
688.18	33744.06
688.527	33570.95
688.874	33647.56
689.221	33577.96
689.568	33422.26
689.915	33345.2
690.262	33357.4
690.609	33354.01
690.956	33198.76
691.303	33021.59
691.65	32983.4
691.997	32927.58
692.344	32790.63
692.69	32662.05
693.037	32824.31
693.383	32434.49
693.73	32656.85
694.077	32470.42
694.423	32535.05
694.769	32350.87
695.116	32194.49
695.462	32175.74
695.808	32005.34
696.155	32035.17
696.501	31842.41
696.847	31910.43
697.193	31717.67
697.539	31799.02
697.885	31579.82
698.231	31489.88
698.577	31578.46
698.923	31391.35
699.269	31241.3
699.614	31104.35
699.96	31243.11
700.306	31088.08
700.651	31031.81
700.997	30764.47
701.342	30878.14
701.688	30833.17
702.033	30672.5
702.379	30686.74
702.724	30554.54
703.069	30517.7
703.415	30204.26
703.76	30304.6
704.105	30310.93
704.45	30220.31
704.795	30007.21
705.14	29885.4
705.485	29931.73
705.83	29853.76
706.175	29832.52
706.52	29684.73
706.865	29574.9
707.209	29526.54
707.554	29534.68
707.899	29492.19
708.243	29338.3
708.588	29395.92
708.932	29153.89
709.277	29073.9
709.621	29124.52
709.966	28883.62
710.31	29039.1
710.654	28816.73
710.998	28919.78
711.342	28856.73
711.687	28711.87
712.031	28677.07
712.375	28648.82
712.719	28559.11
713.063	28610.63
713.407	28620.58
713.75	28388.94
714.094	28492.22
714.438	28250.19
714.782	28325.67
715.125	28132.68
715.469	28103.3
715.812	28048.84
716.156	27960.03
716.499	28027.14
716.843	27974.04
717.186	27835.96
717.53	27908.96
717.873	27962.29
718.216	27726.81
718.559	27682.52
718.902	27580.6
719.246	27547.83
719.589	27536.54
719.932	27429.42
720.275	27354.85
720.617	27431.68
720.96	27212.7
721.303	27348.29
721.646	27331.8
721.989	27092.03
722.331	27281.63
722.674	27086.15
723.016	27122.54
723.359	27095.19
723.701	27068.75
724.044	26877.8
724.386	26827.18
724.729	26856.1
725.071	26850.68
725.413	26843.22
725.755	26687.97
726.097	26628.99
726.439	26558.71
726.782	26514.19
727.124	26586.96
727.465	26533.4
727.807	26448.65
728.149	26345.15
728.491	26388.32
728.833	26459.28
729.175	26201.88
729.516	26208.66
729.858	26191.71
730.199	26151.94
730.541	26154.2
730.882	26029.91
731.224	26241.88
731.565	26044.37
731.906	26061.32
732.248	26053.86
732.589	25880.99
732.93	25765.06
733.271	25776.58
733.612	25862.23
733.953	25758.28
734.294	25751.5
734.635	25661.78
734.976	25784.27
735.317	25535.23
735.658	25506.31
735.999	25516.7
736.339	25485.74
736.68	25559.19
737.021	25488.91
737.361	25416.37
737.702	25596.93
738.042	25411.62
738.383	25350.83
738.723	25455.23
739.063	25347.21
739.404	25323.03
739.744	25222.47
740.084	25111.06
740.424	25198.74
740.764	25126.88
741.104	25132.76
741.444	25000.11
741.784	25026.09
742.124	25035.58
742.464	24972.76
742.804	24904.51
743.143	24820.68
743.483	24791.3
743.823	24766.67
744.162	24711.75
744.502	24746.33
744.841	24665.88
745.181	24748.59
745.52	24701.81
745.86	24670.17
746.199	24549.72
746.538	24523.96
746.877	24693.9
747.216	24558.08
747.556	24408.26
747.895	24449.61
748.234	24463.85
748.573	24331.65
748.911	24256.4
749.25	24330.29
749.589	24093.91
749.928	24209.39
750.267	24260.69
750.605	24113.12
750.944	23965.33
751.283	23990.41
751.621	24070.41
751.96	23963.07
752.298	23878.33
752.636	23931.88
752.975	23743.87
753.313	23738.9
753.651	23864.77
753.989	23771.44
754.327	23678.33
754.666	23542.29
755.004	23766.69
755.342	23689.18
755.679	23517.43
756.017	23549.97
756.355	23636.3
756.693	23405.8
757.031	23411.45
757.368	23250.09
757.706	23297.1
758.044	23334.84
758.381	23278.57
758.719	23107.27
759.056	23164.45
759.394	23118.12
759.731	22846.49
760.068	22926.71
760.405	22842.87
760.743	22746.38
761.08	22791.12
761.417	22673.84
761.754	22560.85
762.091	22590.9
762.428	22491.02
762.765	22265.26
763.102	22404.92
763.438	22246.05
763.775	22091.71
764.112	22171.71
764.449	22254.19
764.785	22086.96
765.122	21905.72
765.458	21899.4
765.795	21899.17
766.131	21881.54
766.467	21772.62
766.804	21686.29
767.14	21622.57
767.476	21678.16
767.812	21580.53
768.148	21564.94
768.485	21436.36
768.821	21213.54
769.157	21242.69
769.492	21135.8
769.828	21075.01
770.164	21024.62
770.5	20947.56
770.836	20997.05
771.171	20777.84
771.507	20658.07
771.842	20582.14
772.178	20600.9
772.513	20528.13
772.849	20440.68
773.184	20454.91
773.519	20367.68
773.855	20273.68
774.19	20215.6
774.525	20113.45
774.86	20038.88
775.195	20080.91
775.53	19901.26
775.865	19933.12
776.2	19736.51
776.535	19574.26
776.87	19642.51
777.205	19585.78
777.539	19450.19
777.874	19521.15
778.209	19303.76
778.543	19196.87
778.878	19175.4
779.212	19209.52
779.547	19013.6
779.881	19061.5
780.215	18915.29
780.55	18966.82
780.884	18763.43
781.218	18754.17
781.552	18727.95
781.886	18649.76
782.22	18541.74
782.554	18561.86
782.888	18352.82
783.222	18333.16
783.556	18267.63
783.889	18263.79
784.223	17967.52
784.557	18081.64
784.89	18076.22
785.224	17904.92
785.557	17758.26
785.891	17845.27
786.224	17736.12
786.558	17754.42
786.891	17476.91
787.224	17594.2
787.557	17445.5
787.891	17428.55
788.224	17401.89
788.557	17423.13
788.89	17317.82
789.223	17301.1
789.556	17118.73
789.888	17121.67
790.221	17025.63
790.554	16919.19
790.887	16923.48
791.219	16837.61
791.552	16857.04
791.884	16731.62
792.217	16668.12
792.549	16694.11
792.882	16441.01
793.214	16471.06
793.546	16357.85
793.879	16354.23
794.211	16190.39
794.543	16307.45
794.875	16169.38
795.207	16274.01
795.539	16132.32
795.871	16084.41
796.203	15948.59
796.535	15943.17
796.867	15939.33
797.198	15840.57
797.53	15851.19
797.862	15696.62
798.193	15751.76
798.525	15653.01
798.856	15658.66
799.188	15449.85
799.519	15439.68
799.85	15284.88
800.182	15317.2
800.513	15310.42
800.844	15231.77
801.175	15333.47
801.506	15196.52
801.837	15156.97
802.168	15196.07
802.499	15046.47
802.83	15060.25
803.161	14957.43
803.491	14925.79
803.822	14915.17
804.153	14823.2
804.483	14769.41
804.814	14653.94
805.145	14761.28
805.475	14688.29
805.805	14653.48
806.136	14590.89
806.466	14588.63
806.796	14542.08
807.126	14401.51
807.457	14438.35
807.787	14441.29
808.117	14393.6
808.447	14348.63
808.777	14283.1
809.107	14286.49
809.436	14220.28
809.766	14165.14
810.096	14115.87
810.426	14008.76
810.755	14062.54
811.085	14069.32
811.414	13915.65
811.744	13800.85
812.073	13851.92
812.403	13884.47
812.732	13794.75
813.061	13748.42
813.39	13724.47
813.719	13712.04
814.049	13720.63
814.378	13660.74
814.707	13601.76
815.036	13517.92
815.365	13524.93
815.693	13411.48
816.022	13402.67
816.351	13339.4
816.68	13288.77
817.008	13333.97
817.337	13159.29
817.665	13296.46
817.994	13277.93
818.322	13207.87
818.651	13151.83
818.979	13151.83
819.307	13227.31
819.636	13093.53
819.964	13058.95
820.292	13071.38
820.62	12967.43
820.948	12967.88
821.276	12934.21
821.604	13013.08
821.932	13049.69
822.259	12949.57
822.587	12909.35
822.915	12916.36
823.243	13062.34
823.57	12946.86
823.898	12918.84
824.225	12901.89
824.553	12875.9
824.88	12872.97
825.207	13010.36
825.535	12928.33
825.862	12947.54
826.189	12855.79
826.516	12872.97
826.843	12930.82
827.17	12964.94
827.497	12939.86
827.824	12878.39
828.151	13014.21
828.478	12884.04
828.805	12923.59
829.131	12919.97
829.458	12920.42
829.785	12843.81
830.111	12820.54
830.438	12965.39
830.764	12854.44
831.09	12856.02
831.417	12843.59
831.743	12910.93
832.069	12814.89
832.395	12792.52
832.722	12805.17
833.048	12803.82
833.374	12785.74
833.7	12814.89
834.026	12768.56
834.351	12820.31
834.677	12825.51
835.003	12773.53
835.329	12796.13
835.654	12755.68
835.98	12684.95
836.306	12608.79
836.631	12648.57
836.956	12683.82
837.282	12543.94
837.607	12566.76
837.932	12525.18
838.258	12539.64
838.583	12543.71
838.908	12461.23
839.233	12489.25
839.558	12404.28
839.883	12415.58
840.208	12382.36
840.533	12352.3
840.858	12380.55
841.182	12326.54
841.507	12324.05
841.832	12286.99
842.156	12270.5
842.481	12296.48
842.805	12208.8
843.13	12190.05
843.454	12169.93
843.778	12081.57
844.103	12080.9
844.427	12025.31
844.751	12052.65
845.075	11962.26
845.399	12016.27
845.723	11931.97
846.047	11897.85
846.371	11846.78
846.695	11791.19
847.019	11753.9
847.343	11668.7
847.666	11579.44
847.99	11570.18
848.313	11624.86
848.637	11440.46
848.96	11457.41
849.284	11400.91
849.607	11423.97
849.931	11392.33
850.254	11254.03
850.577	11263.07
850.9	11162.05
851.223	11117.31
851.546	11137.42
851.869	11019.46
852.192	11057.2
852.515	10896.07
852.838	10929.06
853.161	10917.99
853.483	10842.29
853.806	10825.34
854.129	10791.89
854.451	10694.94
854.774	10714.15
855.096	10632.8
855.419	10663.76
855.741	10569.52
856.063	10558.23
856.385	10503.54
856.708	10447.49
857.03	10407.04
857.352	10493.37
857.674	10468.51
857.996	10375.18
858.318	10306.48
858.64	10242.98
858.961	10301.96
859.283	10252.92
859.605	10149.42
859.926	10186.94
860.248	10160.27
860.57	10134.06
860.891	10138.35
861.212	10094.73
861.534	10058.58
861.855	10082.08
862.176	9992.59
862.498	10076.66
862.819	10021.06
863.14	10026.94
863.461	9900.16
863.782	9931.12
864.103	10006.83
864.424	9852.71
864.745	9847.28
865.065	9824.69
865.386	9840.96
865.707	9840.28
866.027	9769.32
866.348	9772.71
866.668	9706.04
866.989	9653.39
867.309	9725.93
867.63	9689.77
867.95	9694.97
868.27	9639.15
868.59	9648.19
868.91	9631.24
869.23	9607.97
869.55	9540.62
869.87	9588.08
870.19	9547.4
870.51	9567.97
870.83	9596.67
871.15	9523.68
871.469	9564.58
871.789	9526.39
872.109	9546.95
872.428	9442.55
872.748	9456.79
873.067	9440.51
873.386	9424.02
873.706	9384.24
874.025	9338.37
874.344	9396.22
874.663	9424.47
874.982	9396.9
875.301	9350.8
875.62	9320.07
875.939	9301.08
876.258	9313.74
876.577	9201.65
876.896	9261.54
877.214	9231.03
877.533	9242.55
877.852	9201.2
878.17	9210.92
878.489	9249.33
878.807	9181.09
879.125	9208.2
879.444	9140.64
879.762	9172.27
880.08	9089.79
880.398	9067.42
880.716	9087.53
881.034	9090.02
881.352	9058.15
881.67	9057.47
881.988	8977.7
882.306	8998.49
882.624	8981.54
882.941	8911.94
883.259	8906.97
883.577	8903.81
883.894	8862.45
884.212	8877.59
884.529	8800.08
884.846	8807.76
885.164	8768.44
885.481	8729.8
885.798	8711.49
886.115	8701.78
886.432	8706.52
886.75	8692.51
887.067	8639.41
887.383	8682.79
887.7	8676.24
888.017	8592.18
888.334	8561.44
888.651	8623.36
888.967	8537.49
889.284	8501.56
889.6	8443.25
889.917	8484.61
890.233	8468.79
890.55	8420.65
890.866	8424.95
891.182	8372.75
891.498	8373.42
891.815	8389.02
892.131	8289.36
892.447	8315.57
892.763	8247.1
893.079	8244.61
893.395	8253.2
893.71	8182.02
894.026	8191.06
894.342	8148.8
894.657	8087.56
894.973	8121.68
895.289	8103.15
895.604	8022.47
895.92	7925.3
896.235	7962.14
896.55	7868.58
896.865	7966.88
897.181	7915.58
897.496	7971.4
897.811	7820.9
898.126	7818.86
898.441	7750.16
898.756	7766.89
899.071	7768.69
899.386	7730.05
899.7	7709.71
900.015	7633.78
900.33	7636.49
900.644	7616.61
900.959	7573.9
901.273	7594.46
901.588	7552.43
901.902	7502.03
902.216	7507.68
902.531	7438.53
902.845	7439.66
903.159	7342.72
903.473	7337.07
903.787	7331.87
904.101	7239.67
904.415	7271.53
904.729	7268.59
905.042	7226.11
905.356	7224.53
905.67	7127.81
905.984	7151.54
906.297	7174.81
906.611	7136.39
906.924	7093.01
907.237	7024.08
907.551	6996.51
907.864	7008.04
908.177	7041.26
908.491	6976.62
908.804	6932.33
909.117	6845.1
909.43	6854.14
909.743	6827.48
910.056	6861.37
910.368	6744.09
910.681	6759
910.994	6723.07
911.307	6668.38
911.619	6643.07
911.932	6673.81
912.244	6622.28
912.557	6563.3
912.869	6582.96
913.181	6539.12
913.494	6525.56
913.806	6407.83
914.118	6438.11
914.43	6430.42
914.742	6311.33
915.054	6335.74
915.366	6389.52
915.678	6293.48
915.99	6267.04
916.302	6210.09
916.613	6227.72
916.925	6185.68
917.236	6194.95
917.548	6114.5
917.859	6131
918.171	6109.98
918.482	6058.46
918.794	6029.76
919.105	6028.4
919.416	5990.66
919.727	5981.4
920.038	5982.75
920.349	5920.61
920.66	5847.84
920.971	5854.62
921.282	5876.31
921.593	5791.34
921.903	5781.85
922.214	5810.78
922.525	5769.2
922.835	5776.66
923.146	5711.57
923.456	5682.42
923.767	5654.63
924.077	5672.48
924.387	5649.43
924.697	5605.36
925.008	5571.92
925.318	5542.99
925.628	5511.35
925.938	5523.33
926.248	5479.71
926.558	5429.55
926.867	5456.66
927.177	5392.49
927.487	5409.43
927.796	5349.77
928.106	5324.24
928.416	5357.23
928.725	5337.35
929.034	5278.59
929.344	5276.33
929.653	5267.52
929.962	5208.31
930.271	5156.56
930.581	5158.82
930.89	5225.48
931.199	5092.38
931.508	5098.71
931.817	5110.68
932.125	5059.61
932.434	5052.16
932.743	4980.97
933.051	4986.17
933.36	4950.46
933.669	4929.45
933.977	4921.09
934.286	4915.44
934.594	4907.3
934.902	4856.45
935.21	4855.32
935.519	4870.69
935.827	4833.4
936.135	4799.96
936.443	4760.86
936.751	4793.41
937.059	4759.28
937.367	4698.49
937.674	4673.86
937.982	4647.19
938.29	4635.9
938.597	4630.92
938.905	4588.21
939.213	4584.37
939.52	4568.55
939.827	4530.81
940.135	4522.45
940.442	4529.23
940.749	4489.91
941.056	4490.59
941.363	4428.89
941.67	4459.18
941.977	4445.62
942.284	4378.73
942.591	4399.07
942.898	4392.96
943.205	4328.11
943.511	4371.72
943.818	4268.45
944.125	4266.19
944.431	4247.88
944.738	4250.82
945.044	4236.13
945.35	4246.75
945.657	4179.64
945.963	4191.61
946.269	4163.59
946.575	4159.52
946.881	4114.33
947.187	4063.25
947.493	4088.34
947.799	4061.22
948.105	4029.36
948.41	3991.39
948.716	3997.04
949.022	3982.35
949.327	3996.82
949.633	3964.5
949.938	3969.7
950.244	3925.18
950.549	3895.8
950.854	3865.75
951.16	3885.18
951.465	3868.01
951.77	3870.94
952.075	3845.18
952.38	3804.5
952.685	3787.78
952.99	3766.31
953.294	3797.27
953.599	3754.56
953.904	3741
954.209	3743.04
954.513	3736.71
954.818	3693.55
955.122	3701.46
955.426	3646.09
955.731	3634.79
956.035	3605.41
956.339	3624.4
956.643	3608.13
956.948	3600.67
957.252	3575.13
957.556	3551.63
957.86	3542.36
958.163	3534.23
958.467	3493.55
958.771	3513.44
959.075	3495.36
959.378	3473.44
959.682	3443.38
959.985	3420.11
960.289	3454.68
960.592	3351.86
960.896	3402.48
961.199	3374.23
961.502	3352.76
961.805	3335.14
962.108	3348.47
962.411	3318.42
962.714	3320
963.017	3302.14
963.32	3292.2
963.623	3247.23
963.926	3257.4
964.228	3242.49
964.531	3243.39
964.833	3183.5
965.136	3182.6
965.438	3158.87
965.741	3162.49
966.043	3155.48
966.345	3157.97
966.648	3146.89
966.95	3105.77
967.252	3089.5
967.554	3095.14
967.856	3065.77
968.158	3035.49
968.46	3045.88
968.761	3055.37
969.063	3046.78
969.365	2958.43
969.666	2948.03
969.968	2984.41
970.269	2952.78
970.571	2932.44
970.872	2952.32
971.174	2932.21
971.475	2917.3
971.776	2911.42
972.077	2902.61
972.378	2871.2
972.679	2839.78
972.98	2882.27
973.281	2830.52
973.582	2839.78
973.883	2823.29
974.183	2828.71
974.484	2797.53
974.785	2801.59
975.085	2791.42
975.386	2767.92
975.686	2731.76
975.986	2717.98
976.287	2741.48
976.587	2698.77
976.887	2704.87
977.187	2669.17
977.487	2644.53
977.787	2702.16
978.087	2642.05
978.387	2676.4
978.687	2633.91
978.987	2626
979.286	2584.65
979.586	2603.41
979.885	2607.47
980.185	2566.8
980.484	2544.88
980.784	2568.6
981.083	2528.15
981.382	2491.77
981.682	2515.05
981.981	2497.42
982.28	2500.58
982.579	2460.81
982.878	2502.84
983.177	2470.53
983.475	2437.08
983.774	2434.82
984.073	2419
984.372	2432.11
984.67	2421.72
984.969	2411.09
985.267	2377.42
985.566	2384.88
985.864	2389.63
986.162	2345.56
986.461	2362.96
986.759	2349.18
987.057	2341.04
987.355	2320.93
987.653	2330.19
987.951	2296.3
988.249	2284.54
988.547	2310.98
988.844	2248.39
989.142	2239.57
989.44	2253.13
989.737	2256.07
990.035	2236.18
990.332	2174.26
990.63	2204.32
990.927	2212.46
991.224	2197.09
991.521	2165.23
991.819	2155.96
992.116	2158.9
992.413	2114.61
992.71	2129.07
993.006	2130.88
993.303	2122.29
993.6	2113.48
993.897	2136.07
994.193	2077.32
994.49	2066.47
994.787	2100.14
995.083	2052.69
995.379	2052.91
995.676	2040.48
995.972	2047.49
996.268	2014.95
996.565	2017.43
996.861	2025.57
997.157	1983.99
997.453	1975.85
997.749	1975.85
998.044	1969.98
998.34	1968.39
998.636	1953.71
998.932	1934.95
999.227	1924.78
999.523	1934.95
999.818	1919.13
1000.114	1886.81
1000.409	1905.8
1000.704	1849.75
1001	1858.57
1001.295	1861.96
1001.59	1861.05
1001.885	1820.6
1002.18	1816.08
1002.475	1800.04
1002.77	1816.53
1003.065	1837.32
1003.359	1792.35
1003.654	1778.8
1003.949	1805.24
1004.243	1770.89
1004.538	1751.45
1004.832	1767.5
1005.127	1752.81
1005.421	1700.61
1005.715	1726.82
1006.009	1712.36
1006.304	1703.99
1006.598	1708.06
1006.892	1679.81
1007.186	1666.26
1007.48	1640.95
1007.773	1648.85
1008.067	1651.57
1008.361	1638.01
1008.655	1624.22
1008.948	1608.63
1009.242	1603.66
1009.535	1611.34
1009.829	1592.81
1010.122	1599.82
1010.415	1586.94
1010.708	1550.1
1011.001	1571.79
1011.295	1548.29
1011.588	1567.5
1011.881	1520.27
1012.173	1545.81
1012.466	1527.05
1012.759	1516.2
1013.052	1506.71
1013.344	1524.56
1013.637	1499.93
1013.93	1489.54
1014.222	1459.26
1014.514	1469.2
1014.807	1454.28
1015.099	1442.08
1015.391	1403.44
1015.683	1421.52
1015.976	1417.67
1016.268	1391.69
1016.56	1390.1
1016.851	1369.54
1017.143	1393.72
1017.435	1375.87
1017.727	1370.22
1018.018	1350.78
1018.31	1341.07
1018.602	1337.22
1018.893	1339.94
1019.185	1323.44
1019.476	1303.33
1019.767	1322.76
1020.058	1292.71
1020.35	1297.68
1020.641	1302.88
1020.932	1293.61
1021.223	1267.4
1021.514	1230.79
1021.804	1257.68
1022.095	1254.06
1022.386	1260.62
1022.677	1227.62
1022.967	1236.89
1023.258	1221.07
1023.548	1225.14
1023.839	1183.1
1024.129	1196.66
1024.419	1187.85
1024.709	1204.57
1025	1172.03
1025.29	1156.66
1025.58	1164.35
1025.87	1139.49
1026.16	1145.37
1026.449	1132.26
1026.739	1126.61
1027.029	1145.82
1027.319	1113.28
1027.608	1107.4
1027.898	1092.71
1028.187	1109.89
1028.477	1090.9
1028.766	1072.15
1029.055	1073.28
1029.344	1069.44
1029.634	1065.59
1029.923	1079.6
1030.212	1055.88
1030.501	1056.33
1030.79	1031.24
1031.078	1024.46
1031.367	1042.09
1031.656	1009.32
1031.945	990.34
1032.233	1008.42
1032.522	991.25
1032.81	979.04
1033.099	983.34
1033.387	971.36
1033.675	992.15
1033.963	969.32
1034.251	945.37
1034.54	957.12
1034.828	946.27
1035.116	948.99
1035.403	928.42
1035.691	933.17
1035.979	950.79
1036.267	925.71
1036.554	921.19
1036.842	901.08
1037.129	912.6
1037.417	904.69
1037.704	897.01
1037.992	882.1
1038.279	892.04
1038.566	878.48
1038.853	878.48
1039.14	878.48
