Data from hue_270_FLMS001491_00010.txt Node
Date: Tue Feb 07 15:56:42 GMT 2017
User: dcchb
Spectrometer: FLMS00149
Trigger mode: 0
Integration Time (sec): 2.000000E-2
Scans to average: 10
Electric dark correction enabled: true
Nonlinearity correction enabled: false
Boxcar width: 0
XAxis mode: Wavelengths
Number of Pixels in Spectrum: 2048
>>>>>Begin Spectral Data<<<<<
341.393	-0.32
341.776	-0.32
342.16	-0.32
342.543	-62.47
342.927	-80.55
343.31	-63.15
343.693	-65.86
344.077	-59.53
344.46	-55.69
344.843	-55.46
345.226	-54.56
345.61	-43.49
345.993	-24.51
346.376	-6.88
346.759	11.88
347.142	33.8
347.525	41.26
347.908	50.52
348.291	98.88
348.674	95.94
349.057	96.85
349.44	116.73
349.823	116.28
350.206	156.73
350.588	180.46
350.971	185.43
351.354	213.68
351.737	242.61
352.119	242.83
352.502	262.72
352.884	265.43
353.267	275.15
353.65	284.64
354.032	286.45
354.414	305.2
354.797	290.74
355.179	294.81
355.562	313.11
355.944	325.09
356.326	315.15
356.709	342.94
357.091	298.2
357.473	335.49
357.855	352.21
358.238	328.48
358.62	340.91
359.002	335.26
359.384	327.58
359.766	336.62
360.148	341.81
360.53	325.32
360.912	326.9
361.294	322.38
361.676	319.67
362.057	322.38
362.439	326.9
362.821	314.24
363.203	296.16
363.584	331.87
363.966	307.46
364.348	318.99
364.729	311.31
365.111	317.18
365.493	316.05
365.874	306.33
366.256	304.3
366.637	321.25
367.019	297.29
367.4	312.89
367.781	300.91
368.163	301.59
368.544	297.52
368.925	303.62
369.306	302.04
369.688	296.84
370.069	313.79
370.45	313.57
370.831	293.68
371.212	310.85
371.593	312.66
371.974	275.15
372.355	305.43
372.736	291.64
373.117	313.34
373.498	305.66
373.879	301.14
374.26	316.73
374.641	312.89
375.021	305.2
375.402	301.36
375.783	292.32
376.163	319.44
376.544	328.25
376.925	326.22
377.305	324.41
377.686	306.79
378.066	308.82
378.447	322.83
378.827	319.67
379.208	314.02
379.588	326.9
379.968	300.01
380.349	339.78
380.729	311.31
381.109	311.53
381.489	321.93
381.87	363.51
382.25	344.3
382.63	316.95
383.01	340.68
383.39	333
383.77	327.58
384.15	352.21
384.53	354.92
384.91	346.78
385.29	335.26
385.67	338.42
386.049	366.22
386.429	336.39
386.809	346.78
387.189	340.46
387.568	345.43
387.948	341.59
388.328	354.02
388.707	358.31
389.087	359.89
389.466	363.96
389.846	351.3
390.225	361.25
390.605	362.6
390.984	367.8
391.363	351.76
391.743	382.26
392.122	363.06
392.501	387.91
392.881	374.81
393.26	367.58
393.639	377.52
394.018	387.01
394.397	374.58
394.776	368.93
395.155	385.65
395.534	383.17
395.913	379.55
396.292	385.65
396.671	389.95
397.05	406.44
397.429	382.94
397.808	411.19
398.186	385.2
398.565	398.08
398.944	388.14
399.323	398.31
399.701	414.81
400.08	395.14
400.458	415.48
400.837	421.13
401.215	420.91
401.594	421.58
401.972	430.62
402.351	403.96
402.729	414.58
403.107	431.98
403.486	436.5
403.864	419.33
404.242	442.6
404.62	425.65
404.999	438.31
405.377	436.27
405.755	475.82
406.133	443.73
406.511	460.45
406.889	470.62
407.267	470.4
407.645	446.9
408.023	481.7
408.401	470.17
408.779	480.79
409.156	489.38
409.534	499.32
409.912	497.29
410.29	512.88
410.667	514.01
411.045	553.33
411.422	511.98
411.8	526.44
412.178	537.06
412.555	563.28
412.933	556.27
413.31	560.79
413.687	567.57
414.065	568.47
414.442	571.19
414.819	565.54
415.197	599.43
415.574	591.98
415.951	605.53
416.328	618.42
416.705	620.22
417.082	627.23
417.46	611.41
417.837	661.35
418.214	636.95
418.591	653.44
418.967	657.28
419.344	659.32
419.721	653.44
420.098	664.06
420.475	704.97
420.852	697.51
421.228	724.4
421.605	717.4
421.982	716.49
422.358	732.09
422.735	734.8
423.111	728.7
423.488	763.95
423.864	764.17
424.241	773.89
424.617	793.1
424.994	802.82
425.37	814.34
425.746	789.26
426.123	822.48
426.499	826.32
426.875	811.18
427.251	833.78
427.627	857.51
428.003	877.62
428.379	885.3
428.756	897.96
429.132	903.61
429.507	898.63
429.883	904.51
430.259	937.28
430.635	925.98
431.011	948.35
431.387	965.75
431.763	981.34
432.138	962.59
432.514	1005.07
432.89	1017.95
433.265	1037.84
433.641	1017.95
434.016	1043.26
434.392	1083.49
434.767	1100.21
435.143	1091.17
435.518	1096.82
435.894	1134.79
436.269	1153.77
436.644	1174.56
437.02	1178.85
437.395	1196.03
437.77	1202.81
438.145	1217.72
438.52	1239.87
438.895	1275.57
439.271	1278.96
439.646	1315.12
440.021	1308.12
440.395	1307.21
440.77	1333.2
441.145	1352.63
441.52	1359.19
441.895	1374.55
442.27	1391.95
442.645	1374.78
443.019	1395.57
443.394	1399.19
443.769	1434.67
444.143	1443.7
444.518	1436.02
444.892	1462.01
445.267	1483.03
445.641	1516.92
446.016	1499.75
446.39	1471.5
446.764	1496.81
447.139	1528
447.513	1511.95
447.887	1572.52
448.262	1551.05
448.636	1551.72
449.01	1583.14
449.384	1596.02
449.758	1588.56
450.132	1596.92
450.506	1612.97
450.88	1631.27
451.254	1603.7
451.628	1644.6
452.002	1649.8
452.376	1684.15
452.75	1675.56
453.123	1699.97
453.497	1706.52
453.871	1734.09
454.244	1761.44
454.618	1775
454.992	1784.49
455.365	1790.36
455.739	1819.29
456.112	1835.11
456.486	1859.29
456.859	1886.86
457.232	1878.5
457.606	1873.07
457.979	1897.48
458.352	1938.61
458.725	1961.66
459.099	1959.85
459.472	2002.11
459.845	2019.74
460.218	2020.19
460.591	2043.69
460.964	2071.03
461.337	2100.64
461.71	2109
462.083	2127.98
462.456	2145.38
462.829	2150.13
463.201	2161.88
463.574	2208.66
463.947	2217.7
464.32	2276
464.692	2276.23
465.065	2268.09
465.438	2321.2
465.81	2345.38
466.183	2368.88
466.555	2389.44
466.928	2426.5
467.3	2418.37
467.672	2472.38
468.045	2517.58
468.417	2500.4
468.789	2523.22
469.161	2551.47
469.534	2589.21
469.906	2642.32
470.278	2634.86
470.65	2642.09
471.022	2686.38
471.394	2712.15
471.766	2735.2
472.138	2756.21
472.51	2791.01
472.882	2862.42
473.253	2873.27
473.625	2911.01
473.997	2972.48
474.369	2985.59
474.74	3011.8
475.112	3108.29
475.484	3102.87
475.855	3207.27
476.227	3192.36
476.598	3238.46
476.97	3248.86
477.341	3301.06
477.713	3339.25
478.084	3373.6
478.455	3469.87
478.827	3442.97
479.198	3528.62
479.569	3582.63
479.94	3632.35
480.311	3647.04
480.682	3734.72
481.053	3768.62
481.424	3849.74
481.795	3821.95
482.166	3905.56
482.537	3961.6
482.908	4014.26
483.279	4003.19
483.65	4125.22
484.021	4135.61
484.391	4167.48
484.762	4187.36
485.133	4223.07
485.503	4287.47
485.874	4447.69
486.244	4383.51
486.615	4436.62
486.985	4527.01
487.356	4547.58
487.726	4608.37
488.097	4612.21
488.467	4696.73
488.837	4783.73
489.207	4851.52
489.578	4858.76
489.948	4875.71
490.318	4961.13
490.688	5025.98
491.058	5030.96
491.428	5086.77
491.798	5115.25
492.168	5188.24
492.538	5241.57
492.908	5279.08
493.278	5312.08
493.648	5341
494.017	5367.9
494.387	5381.91
494.757	5475.46
495.126	5540.32
495.496	5489.93
495.866	5526.99
496.235	5536.25
496.605	5656.7
496.974	5638.62
497.344	5693.54
497.713	5665.06
498.082	5754.1
498.452	5798.39
498.821	5776.47
499.19	5776.25
499.559	5833.87
499.928	5788
500.298	5878.16
500.667	5910.93
501.036	5934.43
501.405	5918.39
501.774	5932.4
502.143	6023.47
502.512	6042
502.88	6041.1
503.249	6065.5
503.618	6083.81
503.987	6141.66
504.356	6171.49
504.724	6162
505.093	6230.7
505.462	6216.23
505.83	6206.97
506.199	6251.71
506.567	6222.11
506.936	6268.44
507.304	6360.86
507.672	6400.86
508.041	6352.95
508.409	6380.52
508.777	6442.44
509.145	6464.82
509.514	6475.66
509.882	6531.03
510.25	6507.3
510.618	6505.27
510.986	6512.95
511.354	6590.91
511.722	6650.8
512.09	6643.57
512.458	6584.81
512.826	6656
513.193	6678.14
513.561	6695.32
513.929	6708.2
514.297	6747.52
514.664	6778.03
515.032	6765.82
515.4	6808.99
515.767	6796.78
516.135	6828.65
516.502	6735.32
516.869	6866.16
517.237	6879.04
517.604	6838.82
517.972	6889.66
518.339	6938.02
518.706	6888.99
519.073	6921.3
519.44	6926.72
519.808	6996.33
520.175	7021.64
520.542	7060.28
520.909	7022.32
521.276	7027.74
521.643	7077
522.009	7129.43
522.376	7158.36
522.743	7116.1
523.11	7173.72
523.477	7256.66
523.843	7227.06
524.21	7274.29
524.577	7325.81
524.943	7335.53
525.31	7374.4
525.676	7378.24
526.043	7475.86
526.409	7465.24
526.776	7496.2
527.142	7503.88
527.508	7577.1
527.874	7566.03
528.241	7609.19
528.607	7570.1
528.973	7634.73
529.339	7583.66
529.705	7684.22
530.071	7651.68
530.437	7725.8
530.803	7744.56
531.169	7774.61
531.535	7712.47
531.901	7726.03
532.267	7777.55
532.632	7813.93
532.998	7799.02
533.364	7748.17
533.73	7860.94
534.095	7849.86
534.461	7910.65
534.826	7874.95
535.192	7894.83
535.557	7995.4
535.923	7978.67
536.288	7984.32
536.653	7996.3
537.019	7973.93
537.384	7991.78
537.749	8018.45
538.114	7968.28
538.479	8011.67
538.845	8010.76
539.21	8047.6
539.575	8097.09
539.94	8037.66
540.305	8120.14
540.67	8050.99
541.034	8010.31
541.399	8055.28
541.764	8073.81
542.129	8138.22
542.494	8112.46
542.858	8135.28
543.223	8093.47
543.587	8145
543.952	8200.14
544.316	8197.65
544.681	8157.43
545.045	8238.55
545.41	8256.18
545.774	8200.36
546.138	8249.4
546.503	8173.7
546.867	8126.69
547.231	8281.49
547.595	8279.91
547.959	8327.59
548.324	8299.57
548.688	8199.46
549.052	8283.75
549.416	8269.74
549.779	8341.15
550.143	8258.67
550.507	8347.48
550.871	8326.91
551.235	8322.85
551.599	8380.25
551.962	8380.92
552.326	8414.37
552.689	8454.14
553.053	8404.65
553.417	8448.27
553.78	8508.15
554.143	8453.92
554.507	8528.26
554.87	8513.12
555.234	8545.67
555.597	8485.55
555.96	8462.73
556.323	8528.04
556.686	8546.12
557.05	8633.35
557.413	8567.81
557.776	8609.17
558.139	8669.28
558.502	8674.48
558.865	8653.46
559.228	8735.94
559.59	8736.62
559.953	8775.49
560.316	8845.09
560.679	8856.39
561.041	8828.37
561.404	8868.82
561.767	8953.56
562.129	8929.38
562.492	9032.43
562.854	8963.73
563.217	8991.3
563.579	9005.09
563.941	9081.02
564.304	9102.49
564.666	9148.14
565.028	9170.96
565.39	9163.95
565.753	9172.77
566.115	9191.75
566.477	9243.05
566.839	9259.32
567.201	9316.04
567.563	9341.8
567.925	9369.6
568.287	9328.24
568.648	9390.84
569.01	9381.35
569.372	9510.84
569.734	9491.63
570.095	9566.43
570.457	9613.66
570.819	9659.08
571.18	9602.81
571.542	9697.95
571.903	9677.16
572.265	9706.31
572.626	9782.92
572.987	9765.97
573.349	9787.67
573.71	9811.85
574.071	9817.95
574.432	9921.9
574.794	9914.44
575.155	9964.84
575.516	9957.83
575.877	9977.94
576.238	10044.38
576.599	10095.68
576.96	10085.96
577.32	10062.46
577.681	10141.56
578.042	10225.85
578.403	10202.34
578.763	10227.2
579.124	10276.92
579.485	10289.57
579.845	10377.48
580.206	10411.83
580.566	10409.57
580.927	10424.26
581.287	10427.2
581.648	10370.25
582.008	10527.53
582.368	10512.62
582.728	10547.87
583.089	10605.72
583.449	10602.79
583.809	10575.67
584.169	10626.97
584.529	10699.73
584.889	10720.98
585.249	10650.02
585.609	10668.32
585.969	10754.19
586.329	10733.4
586.688	10758.26
587.048	10821.76
587.408	10787.41
587.768	10867.19
588.127	10831.48
588.487	10763.23
588.846	11018.59
589.206	10889.11
589.565	11006.17
589.925	11003.23
590.284	10936.11
590.643	10952.83
591.003	11107.41
591.362	11123.45
591.721	11055.66
592.08	11120.51
592.44	11112.15
592.799	11171.36
593.158	11153.05
593.517	11228.31
593.876	11221.53
594.235	11329.55
594.593	11252.03
594.952	11280.28
595.311	11230.57
595.67	11326.16
596.029	11318.25
596.387	11373.84
596.746	11390.79
597.104	11374.74
597.463	11441.63
597.822	11428.3
598.18	11396.21
598.538	11376.78
598.897	11545.13
599.255	11420.84
599.613	11570.9
599.972	11509.2
600.33	11499.71
600.688	11461.75
601.046	11562.99
601.404	11669.2
601.762	11570.22
602.12	11679.37
602.478	11663.55
602.836	11644.79
603.194	11579.71
603.552	11653.83
603.91	11600.95
604.268	11686.37
604.625	11587.39
604.983	11673.27
605.341	11700.38
605.698	11712.14
606.056	11728.63
606.413	11821.74
606.771	11767.5
607.128	11748.52
607.485	11725.02
607.843	11758.46
608.2	11766.6
608.557	11855.63
608.914	11812.92
609.272	11798.91
609.629	11906.03
609.986	11964.56
610.343	11827.61
610.7	11949.87
611.057	11983.99
611.414	11866.93
611.771	11911
612.127	11980.15
612.484	11928.63
612.841	11941.73
613.198	11996.87
613.554	11984.67
613.911	12068.06
614.267	11969.08
614.624	11927.5
614.98	11985.57
615.337	12031.22
615.693	12072.35
616.05	12052.47
616.406	12033.93
616.762	12111.45
617.118	12073.03
617.475	12054.95
617.831	12096.98
618.187	12092.92
618.543	12183.99
618.899	12197.09
619.255	12109.87
619.611	12159.58
619.967	12217.21
620.323	12251.1
620.678	12289.3
621.034	12130.2
621.39	12179.47
621.746	12102.41
622.101	12224.89
622.457	12214.04
622.812	12184.21
623.168	12242.97
623.523	12316.64
623.879	12292.91
624.234	12200.71
624.589	12242.07
624.945	12285
625.3	12233.93
625.655	12216.08
626.01	12282.97
626.365	12205
626.72	12174.72
627.075	12167.49
627.43	12238.22
627.785	12216.3
628.14	12181.5
628.495	12163.2
628.85	12145.8
629.205	12190.09
629.559	12201.39
629.914	12092.01
630.269	12139.02
630.623	12160.94
630.978	12072.35
631.332	12118.45
631.687	12143.54
632.041	11969.53
632.396	12111.22
632.75	12032.35
633.104	12087.04
633.459	12007.5
633.813	11973.6
634.167	11977.89
634.521	11965.01
634.875	11938.8
635.229	11957.78
635.583	11907.84
635.937	11922.75
636.291	11949.42
636.645	11929.98
636.999	11919.14
637.352	11987.61
637.706	11828.74
638.06	11867.16
638.413	11850.66
638.767	11839.82
639.121	11807.73
639.474	11739.93
639.828	11777.9
640.181	11724.79
640.534	11775.41
640.888	11739.71
641.241	11667.62
641.594	11690.89
641.947	11753.49
642.301	11665.13
642.654	11794.39
643.007	11718.69
643.36	11582.65
643.713	11623.32
644.066	11683.89
644.419	11613.61
644.771	11600.95
645.124	11454.29
645.477	11454.52
645.83	11411.13
646.182	11286.84
646.535	11244.58
646.888	11330
647.24	11231.24
647.593	11221.3
647.945	11268.53
648.298	11201.19
648.65	11236.44
649.002	11202.54
649.355	11280.06
649.707	11240.96
650.059	11268.08
650.411	11437.34
650.763	11406.61
651.115	11542.42
651.467	11515.3
651.819	11483.89
652.171	11602.99
652.523	11448.87
652.875	11471.69
653.227	11466.72
653.578	11483.44
653.93	11420.84
654.282	11449.77
654.633	11479.6
654.985	11464.46
655.337	11442.99
655.688	11421.52
656.039	11425.36
656.391	11365.7
656.742	11392.14
657.094	11399.6
657.445	11473.95
657.796	11379.04
658.147	11401.64
658.498	11398.7
658.849	11383.1
659.2	11427.62
659.551	11413.84
659.902	11497.45
660.253	11359.15
660.604	11433.72
660.955	11335.87
661.306	11457.9
661.656	11386.49
662.007	11407.28
662.358	11435.76
662.708	11386.04
663.059	11410.22
663.409	11427.62
663.76	11491.35
664.11	11394.86
664.461	11495.64
664.811	11451.8
665.161	11424.91
665.511	11392.6
665.862	11370.22
666.212	11445.7
666.562	11430.11
666.912	11334.97
667.262	11426.27
667.612	11424.69
667.962	11461.52
668.312	11417
668.662	11448.41
669.011	11414.97
669.361	11333.61
669.711	11407.96
670.06	11384.01
670.41	11359.15
670.76	11320.06
671.109	11384.46
671.459	11355.53
671.808	11397.57
672.157	11261.75
672.507	11215.2
672.856	11288.87
673.205	11260.62
673.554	11408.19
673.904	11263.33
674.253	11375.42
674.602	11256.1
674.951	11154.86
675.3	11073.06
675.649	11238.93
675.998	11245.48
676.346	11164.13
676.695	11217.69
677.044	11163.68
677.393	11212.04
677.741	11183.56
678.09	11117.12
678.438	11201.64
678.787	11160.29
679.135	11125.48
679.484	11020.4
679.832	11088.65
680.181	11043.9
680.529	11050.23
680.877	11054.3
681.225	11091.59
681.573	11054.3
681.922	10944.25
682.27	10939.5
682.618	10929.78
682.966	10929.78
683.314	10938.82
683.661	10955.32
684.009	10920.07
684.357	10829.9
684.705	10857.02
685.053	10866.06
685.4	10821.99
685.748	10700.18
686.095	10777.47
686.443	10688.21
686.79	10639.4
687.138	10742.67
687.485	10739.28
687.832	10611.37
688.18	10672.61
688.527	10615.67
688.874	10590.13
689.221	10512.62
689.568	10482.11
689.915	10532.28
690.262	10533.18
690.609	10446.18
690.956	10357.37
691.303	10350.14
691.65	10290.48
691.997	10267.65
692.344	10213.19
692.69	10183.36
693.037	10194.66
693.383	10122.57
693.73	10159.63
694.077	10025.4
694.423	10030.15
694.769	10036.25
695.116	10062.01
695.462	10033.99
695.808	9950.83
696.155	9946.53
696.501	9828.34
696.847	9855.46
697.193	9801.9
697.539	9788.57
697.885	9674
698.231	9729.59
698.577	9714
698.923	9712.19
699.269	9586.32
699.614	9560.1
699.96	9553.1
700.306	9572.98
700.651	9489.14
700.997	9448.47
701.342	9489.6
701.688	9408.69
702.033	9313.78
702.379	9392.2
702.724	9345.19
703.069	9377.06
703.415	9234.01
703.76	9297.06
704.105	9291.86
704.45	9248.47
704.795	9148.59
705.14	9140.45
705.485	9109.04
705.83	9051.41
706.175	9074.01
706.52	9020.45
706.865	8979.55
707.209	8973
707.554	8960.12
707.899	8969.38
708.243	8876.05
708.588	8948.14
708.932	8779.56
709.277	8805.09
709.621	8839.44
709.966	8756.96
710.31	8778.65
710.654	8739.11
710.998	8664.98
711.342	8751.08
711.687	8666.11
712.031	8654.14
712.375	8622.73
712.719	8625.21
713.063	8623.63
713.407	8575.04
713.75	8584.53
714.094	8622.05
714.438	8523.52
714.782	8554.93
715.125	8500.69
715.469	8540.47
715.812	8450.07
716.156	8417.08
716.499	8443.52
716.843	8456.18
717.186	8433.8
717.53	8444.42
717.873	8380.47
718.216	8429.06
718.559	8331.21
718.902	8338.66
719.246	8385.44
719.589	8356.74
719.932	8233.36
720.275	8300.93
720.617	8247.59
720.96	8292.34
721.303	8245.56
721.646	8266.58
721.989	8174.6
722.331	8283.3
722.674	8234.03
723.016	8206.01
723.359	8292.11
723.701	8227.03
724.044	8150.42
724.386	8112
724.729	8172.34
725.071	8157.88
725.413	8181.61
725.755	8185.22
726.097	8070.88
726.439	8078.56
726.782	8058.22
727.124	8051.89
727.465	8050.31
727.807	7987.94
728.149	8041.95
728.491	8091.67
728.833	8094.83
729.175	8106.81
729.516	8008.5
729.858	7959.24
730.199	8062.51
730.541	8038.33
730.882	7984.1
731.224	8036.98
731.565	8030.88
731.906	7964.21
732.248	8024.1
732.589	7987.71
732.93	7953.59
733.271	7972.8
733.612	7958.34
733.953	8030.88
734.294	7994.27
734.635	7916.98
734.976	8046.92
735.317	7908.17
735.658	8005.11
735.999	8012.57
736.339	7939.35
736.68	7942.07
737.021	7940.48
737.361	7949.52
737.702	7990.65
738.042	7943.2
738.383	7868.62
738.723	7938
739.063	7971.89
739.404	7987.04
739.744	7988.17
740.084	8008.5
740.424	7962.4
740.764	7996.75
741.104	8072.01
741.444	7992.46
741.784	7951.1
742.124	7976.87
742.464	8047.37
742.804	8023.87
743.143	8051.67
743.483	8062.06
743.823	8091.89
744.162	8076.75
744.502	8112
744.841	8090.31
745.181	8147.71
745.52	8098.22
745.86	8197.2
746.199	8247.14
746.538	8205.11
746.877	8338.21
747.216	8357.2
747.556	8375.73
747.895	8382.73
748.234	8406.91
748.573	8445.1
748.911	8509.73
749.25	8505.44
749.589	8533.24
749.928	8638.09
750.267	8702.05
750.605	8723.97
750.944	8807.58
751.283	8895.26
751.621	8876.73
751.96	8954.02
752.298	9028.59
752.636	9141.36
752.975	9196.72
753.313	9210.73
753.651	9451.86
753.989	9463.83
754.327	9452.76
754.666	9615.69
755.004	9706.09
755.342	9793.32
755.679	9935.91
756.017	9955.12
756.355	10144.27
756.693	10202.57
757.031	10364.37
757.368	10466.52
757.706	10595.78
758.044	10717.81
758.381	10805.94
758.719	10968.43
759.056	11143.56
759.394	11228.53
759.731	11366.38
760.068	11465.14
760.405	11665.13
760.743	11795.3
761.08	11930.43
761.417	12077.32
761.754	12184.67
762.091	12334.72
762.428	12466.92
762.765	12609.51
763.102	12806.57
763.438	12959.11
763.775	12993.23
764.112	13185.54
764.449	13355.71
764.785	13535.82
765.122	13594.12
765.458	13694.91
765.795	13881.12
766.131	14011.96
766.467	14176.25
766.804	14333.08
767.14	14474.32
767.476	14557.03
767.812	14633.19
768.148	14809.91
768.485	14913.63
768.821	15058.94
769.157	15257.13
769.492	15339.84
769.828	15404.24
770.164	15435.43
770.5	15484.69
770.836	15655.08
771.171	15703.89
771.507	15760.62
771.842	15895.3
772.178	15971.68
772.513	16143.66
772.849	16152.47
773.184	16230.89
773.519	16307.04
773.855	16371.45
774.19	16433.82
774.525	16599.69
774.86	16633.81
775.195	16651.21
775.53	16754.94
775.865	16719.46
776.2	16777.77
776.535	16754.49
776.87	16906.12
777.205	16896.18
777.539	16972.34
777.874	17103.86
778.209	17019.57
778.543	17062.96
778.878	17041.94
779.212	17083.07
779.547	17140.47
779.881	17188.38
780.215	17221.6
780.55	17308.15
780.884	17194.7
781.218	17276.51
781.552	17328.26
781.886	17309.95
782.22	17385.43
782.554	17292.1
782.888	17168.49
783.222	17201.48
783.556	17203.52
783.889	17161.03
784.223	17082.39
784.557	17121.71
784.89	17235.61
785.224	17117.42
785.557	17081.94
785.891	17121.94
786.224	17156.96
786.558	17187.47
786.891	17093.46
787.224	17054.82
787.557	17017.98
787.891	17109.06
788.224	17054.37
788.557	17098.43
788.89	17056.85
789.223	17017.76
789.556	16940.47
789.888	17022.28
790.221	16907.48
790.554	16825.22
790.887	16865.9
791.219	16778.44
791.552	16834.94
791.884	16835.62
792.217	16813.92
792.549	16722.85
792.882	16684.21
793.214	16632.01
793.546	16678.56
793.879	16552.01
794.211	16493.03
794.543	16600.14
794.875	16559.47
795.207	16611.22
795.539	16497.09
795.871	16545
796.203	16420.03
796.535	16375.97
796.867	16345.46
797.198	16322.86
797.53	16268.85
797.862	16205.12
798.193	16171.68
798.525	16130.78
798.856	16192.7
799.188	15973.27
799.519	15919.71
799.85	15899.14
800.182	15959.26
800.513	15922.87
800.844	15878.81
801.175	15865.92
801.506	15953.61
801.837	15864.57
802.168	15692.37
802.499	15761.97
802.83	15652.37
803.161	15594.07
803.491	15603.56
803.822	15614.41
804.153	15586.61
804.483	15493.73
804.814	15484.24
805.145	15492.15
805.475	15495.31
805.805	15422.55
806.136	15333.96
806.466	15404.24
806.796	15373.51
807.126	15243.12
807.457	15191.37
807.787	15154.76
808.117	15157.02
808.447	15136
808.777	15182.33
809.107	15012.16
809.436	15084.7
809.766	15070.69
810.096	14987.76
810.426	14992.28
810.755	15025.27
811.085	14923.35
811.414	14851.71
811.744	14815.78
812.073	14772.39
812.403	14800.87
812.732	14753.64
813.061	14625.73
813.39	14606.97
813.719	14605.39
814.049	14748.67
814.378	14607.88
814.707	14566.3
815.036	14497.15
815.365	14525.85
815.693	14396.13
816.022	14416.7
816.351	14300.32
816.68	14276.81
817.008	14319.98
817.337	14278.4
817.665	14195.91
817.994	14324.72
818.322	14262.8
818.651	14142.81
818.979	14200.88
819.307	14131.05
819.636	14103.26
819.964	14076.14
820.292	14138.51
820.62	14140.09
820.948	14109.81
821.276	14105.29
821.604	14112.07
821.932	14076.14
822.259	14108.68
822.587	14022.81
822.915	14059.42
823.243	14126.08
823.57	14112.98
823.898	14043.83
824.225	13999.08
824.553	14072.07
824.88	14018.97
825.207	14034.56
825.535	13992.53
825.862	14058.97
826.189	14016.71
826.516	14094.67
826.843	14138.06
827.17	14174.9
827.497	14175.12
827.824	14104.16
828.151	14169.7
828.478	14171.51
828.805	14225.06
829.131	14109.13
829.458	14027.78
829.785	14046.31
830.111	14081.79
830.438	14133.09
830.764	14106.87
831.09	14137.16
831.417	14024.84
831.743	14135.35
832.069	14045.18
832.395	13980.32
832.722	14129.25
833.048	13936.48
833.374	14068.01
833.7	13935.81
834.026	13962.47
834.351	14075.01
834.677	13928.12
835.003	13898.29
835.329	13960.44
835.654	13955.69
835.98	13951.85
836.306	13872.98
836.631	13859.88
836.956	13897.16
837.282	13874.11
837.607	13835.47
837.932	13799.31
838.258	13843.38
838.583	13726.77
838.908	13749.6
839.233	13764.28
839.558	13645.87
839.883	13673.89
840.208	13568.13
840.533	13578.75
840.858	13550.73
841.182	13589.83
841.507	13571.75
841.832	13542.6
842.156	13491.52
842.481	13514.8
842.805	13552.54
843.13	13412.66
843.454	13376.95
843.778	13395.26
844.103	13321.58
844.427	13250.4
844.751	13282.26
845.075	13292.88
845.399	13218.99
845.723	13113.91
846.047	13117.3
846.371	13036.39
846.695	13028.26
847.019	12929.96
847.343	12977.19
847.666	12800.24
847.99	12810.64
848.313	12755.27
848.637	12730.64
848.96	12651.77
849.284	12665.56
849.607	12471.89
849.931	12474.6
850.254	12513.7
850.577	12300.59
850.9	12334.04
851.223	12233.03
851.546	12226.92
851.869	12173.59
852.192	12206.81
852.515	12030.55
852.838	12043.2
853.161	12031.9
853.483	11922.75
853.806	11966.37
854.129	11995.29
854.451	11868.97
854.774	11826.26
855.096	11757.33
855.419	11774.05
855.741	11676.43
856.063	11675.3
856.385	11630.1
856.708	11561.86
857.03	11520.5
857.352	11549.88
857.674	11434.18
857.996	11416.1
858.318	11391.69
858.64	11389.43
858.961	11309.43
859.283	11396.66
859.605	11239.61
859.926	11282.54
860.248	11285.03
860.57	11180.4
860.891	11206.84
861.212	11167.07
861.534	11121.87
861.855	11026.96
862.176	11065.15
862.498	11087.07
862.819	11071.02
863.14	11016.33
863.461	10996
863.782	11042.55
864.103	10992.38
864.424	10871.25
864.745	10968.43
865.065	10895.89
865.386	10833.06
865.707	10916.22
866.027	10782.89
866.348	10861.99
866.668	10843.23
866.989	10807.07
867.309	10739.96
867.63	10782.89
867.95	10739.28
868.27	10712.84
868.59	10686.85
868.91	10740.86
869.23	10629.9
869.55	10651.37
869.87	10660.19
870.19	10593.52
870.51	10669.68
870.83	10600.3
871.15	10566.85
871.469	10640.07
871.789	10493.64
872.109	10505.61
872.428	10410.7
872.748	10487.99
873.067	10466.52
873.386	10501.77
873.706	10482.56
874.025	10393.98
874.344	10295.68
874.663	10409.8
874.982	10395.11
875.301	10370.25
875.62	10363.24
875.939	10241.21
876.258	10356.46
876.577	10265.17
876.896	10339.74
877.214	10234.43
877.533	10243.02
877.852	10253.87
878.17	10202.57
878.489	10222.23
878.807	10191.27
879.125	10177.49
879.444	10189.69
879.762	10073.08
880.08	10084.83
880.398	9997.15
880.716	10113.99
881.034	10054.55
881.352	9985.63
881.67	9986.08
881.988	9925.74
882.306	9960.77
882.624	9893.43
882.941	9896.36
883.259	9848.46
883.577	9811.62
883.894	9813.88
884.212	9777.72
884.529	9808.91
884.846	9698.63
885.164	9702.47
885.481	9719.87
885.798	9617.95
886.115	9632.42
886.432	9617.28
886.75	9572.3
887.067	9582.93
887.383	9546.77
887.7	9573.21
888.017	9553.55
888.334	9549.25
888.651	9563.94
888.967	9505.19
889.284	9335.25
889.6	9393.1
889.917	9323.05
890.233	9398.75
890.55	9284.18
890.866	9354.01
891.182	9273.1
891.498	9262.93
891.815	9203.27
892.131	9120.34
892.447	9201.02
892.763	9127.57
893.079	9091.19
893.395	9039.21
893.71	9080.34
894.026	9038.99
894.342	9014.35
894.657	8953.34
894.973	9006.22
895.289	8877.63
895.604	8878.99
895.92	8818.65
896.235	8747.92
896.55	8806
896.865	8721.03
897.181	8765.55
897.496	8702.95
897.811	8653.46
898.126	8650.07
898.441	8574.59
898.756	8625.89
899.071	8529.85
899.386	8522.16
899.7	8443.75
900.015	8443.75
900.33	8392
900.644	8273.81
900.959	8343.41
901.273	8377.08
901.588	8278.1
901.902	8230.42
902.216	8202.85
902.531	8235.39
902.845	8195.84
903.159	8095.96
903.473	8083.08
903.787	8084.21
904.101	8003.76
904.415	8034.49
904.729	7951.1
905.042	7881.05
905.356	7909.3
905.67	7848.73
905.984	7879.02
906.297	7862.75
906.611	7767.38
906.924	7790.2
907.237	7752.92
907.551	7639.93
907.864	7649.42
908.177	7637.21
908.491	7610.77
908.804	7581.62
909.117	7524
909.43	7465.69
909.743	7533.49
910.056	7472.47
910.368	7460.04
910.681	7380.95
910.994	7383.21
911.307	7371.68
911.619	7284.46
911.932	7288.98
912.244	7216.43
912.557	7236.55
912.869	7181.41
913.181	7149.54
913.494	7097.57
913.806	7043.11
914.118	7111.58
914.43	7025.71
914.742	7040.39
915.054	6950.23
915.366	6989.32
915.678	6926.27
915.99	6900.74
916.302	6844.47
916.613	6848.31
916.925	6818.25
917.236	6809.44
917.548	6765.6
917.859	6722.21
918.171	6684.7
918.482	6653.06
918.794	6616
919.105	6602.89
919.416	6558.82
919.727	6519.96
920.038	6538.03
920.349	6498.49
920.66	6488.77
920.971	6497.81
921.282	6439.96
921.593	6426.85
921.903	6374.42
922.214	6343.46
922.525	6389.56
922.835	6323.58
923.146	6258.95
923.456	6247.65
923.767	6178.5
924.077	6258.49
924.387	6251.94
924.697	6134.66
925.008	6128.55
925.318	6115.45
925.628	6062.57
925.938	6109.57
926.248	6021.66
926.558	5978.73
926.867	5953.42
927.177	5939.41
927.487	5879.97
927.796	5866.87
928.106	5872.06
928.416	5881.78
928.725	5867.77
929.034	5762.69
929.344	5830.03
929.653	5784.83
929.962	5715.01
930.271	5678.85
930.581	5668
930.89	5672.07
931.199	5629.36
931.508	5621.9
931.817	5612.18
932.125	5559.98
932.434	5569.25
932.743	5528.34
933.051	5467.1
933.36	5501.9
933.669	5411.96
933.977	5424.39
934.286	5448.57
934.594	5443.6
934.902	5323.6
935.21	5359.76
935.519	5394.11
935.827	5377.84
936.135	5298.07
936.443	5282.7
936.751	5248.8
937.059	5237.5
937.367	5224.85
937.674	5186.21
937.982	5186.43
938.29	5155.02
938.597	5130.84
938.905	5054.91
939.213	5074.8
939.52	5027.79
939.827	5072.54
940.135	4996.83
940.442	4971.75
940.749	4971.75
941.056	4983.72
941.363	4877.51
941.67	4934.91
941.977	4915.25
942.284	4887.23
942.591	4804.75
942.898	4822.15
943.205	4794.13
943.511	4790.06
943.818	4767.23
944.125	4760.91
944.431	4692.89
944.738	4656.5
945.044	4641.36
945.35	4669.83
945.657	4620.34
945.963	4610.18
946.269	4622.6
946.575	4554.36
946.881	4559.1
947.187	4514.58
947.493	4549.84
947.799	4511.42
948.105	4439.78
948.41	4424.87
948.716	4433
949.022	4400.92
949.327	4411.54
949.633	4312.56
949.938	4382.16
950.244	4344.42
950.549	4289.28
950.854	4304.19
951.16	4299.9
951.465	4282.73
951.77	4261.26
952.075	4232.11
952.38	4218.1
952.685	4205.89
952.99	4139.23
953.294	4208.6
953.599	4137.19
953.904	4115.95
954.209	4106.46
954.513	4061.94
954.818	4052
955.122	4034.37
955.426	4006.35
955.731	4032.34
956.035	4017.65
956.339	4011.32
956.643	3991.43
956.948	3952.57
957.252	3934.49
957.556	3953.92
957.86	3881.61
958.163	3901.95
958.467	3860.59
958.771	3856.97
959.075	3866.01
959.378	3847.26
959.682	3766.36
959.985	3781.95
960.289	3750.31
960.592	3727.94
960.896	3764.32
961.199	3742.85
961.502	3705.79
961.805	3693.59
962.108	3673.93
962.411	3703.98
962.714	3614.72
963.017	3638.22
963.32	3628.51
963.623	3555.06
963.926	3631.44
964.228	3562.75
964.531	3587.15
964.833	3552.8
965.136	3501.96
965.438	3526.81
965.741	3479.36
966.043	3464.89
966.345	3459.92
966.648	3464.67
966.95	3470.32
967.252	3419.02
967.554	3412.69
967.856	3359.59
968.158	3342.19
968.46	3356.42
968.761	3328.85
969.063	3349.87
969.365	3322.53
969.666	3309.64
969.968	3284.33
970.269	3283.43
970.571	3285.69
970.872	3260.15
971.174	3192.13
971.475	3241.85
971.776	3214.05
972.077	3163.43
972.378	3170.67
972.679	3178.12
972.98	3136.54
973.281	3112.36
973.582	3110.33
973.883	3143.55
974.183	3098.12
974.484	3082.76
974.785	3069.2
975.085	3087.5
975.386	3060.16
975.686	3039.37
975.986	3032.59
976.287	2999.37
976.587	2968.41
976.887	2979.03
977.187	2982.87
977.487	2943.33
977.787	2882.99
978.087	2931.35
978.387	2902.88
978.687	2911.69
978.987	2888.64
979.286	2845.25
979.586	2849.77
979.885	2813.39
980.185	2821.52
980.484	2778.81
980.784	2793.73
981.083	2804.35
981.382	2764.8
981.682	2767.06
981.981	2746.5
982.28	2730.68
982.579	2711.47
982.878	2729.09
983.177	2696.33
983.475	2725.03
983.774	2664.92
984.073	2648.19
984.372	2679.38
984.67	2628.08
984.969	2621.08
985.267	2563.68
985.566	2595.77
985.864	2586.73
986.162	2579.72
986.461	2559.16
986.759	2600.74
987.057	2531.81
987.355	2522.55
987.653	2533.17
987.951	2517.35
988.249	2514.64
988.547	2479.84
988.844	2458.37
989.142	2441.87
989.44	2419.5
989.737	2447.29
990.035	2411.59
990.332	2419.27
990.63	2376.11
990.927	2447.75
991.224	2358.03
991.521	2381.31
991.819	2350.12
992.116	2357.58
992.413	2364.13
992.71	2307.41
993.006	2315.32
993.303	2297.69
993.6	2317.13
993.897	2285.94
994.193	2288.88
994.49	2267.86
994.787	2260.41
995.083	2250.24
995.379	2229.67
995.676	2192.84
995.972	2232.84
996.268	2209.33
996.565	2179.73
996.861	2177.25
997.157	2199.39
997.453	2144.03
997.749	2152.84
998.044	2160.97
998.34	2150.35
998.636	2102.9
998.932	2109.22
999.227	2097.7
999.523	2083.69
999.818	2049.56
1000.114	2051.6
1000.409	2040.53
1000.704	2025.84
1001	2034.65
1001.295	2002.79
1001.59	1981.09
1001.885	2001.88
1002.18	1982.9
1002.475	1953.52
1002.77	1953.3
1003.065	1950.58
1003.359	1942.9
1003.654	1942
1003.949	1947.42
1004.243	1918.49
1004.538	1917.59
1004.832	1880.08
1005.127	1860.87
1005.421	1853.64
1005.715	1857.71
1006.009	1857.25
1006.304	1834.43
1006.598	1830.36
1006.892	1798.5
1007.186	1800.31
1007.48	1800.76
1007.773	1778.61
1008.067	1786.52
1008.361	1760.98
1008.655	1775.22
1008.948	1745.39
1009.242	1732.51
1009.535	1742.91
1009.829	1701.33
1010.122	1694.77
1010.415	1715.56
1010.708	1677.6
1011.001	1676.69
1011.295	1657.71
1011.588	1668.33
1011.881	1653.42
1012.173	1637.6
1012.466	1658.16
1012.759	1618.62
1013.052	1619.52
1013.344	1590.82
1013.637	1574.77
1013.93	1565.28
1014.222	1589.92
1014.514	1556.7
1014.807	1546.08
1015.099	1558.05
1015.391	1559.63
1015.683	1499.97
1015.976	1476.7
1016.268	1489.35
1016.56	1486.64
1016.851	1491.61
1017.143	1478.51
1017.435	1450.26
1017.727	1480.99
1018.018	1470.82
1018.31	1415.68
1018.602	1432.86
1018.893	1418.85
1019.185	1386.98
1019.476	1415.46
1019.767	1405.06
1020.058	1391.05
1020.35	1392.41
1020.641	1379.75
1020.932	1372.52
1021.223	1353.76
1021.514	1311.73
1021.804	1320.77
1022.095	1301.56
1022.386	1341.33
1022.677	1287.32
1022.967	1299.08
1023.258	1277.16
1023.548	1278.51
1023.839	1287.78
1024.129	1274.22
1024.419	1256.37
1024.709	1277.83
1025	1233.54
1025.29	1263.6
1025.58	1235.35
1025.87	1207.78
1026.16	1214.56
1026.449	1225.63
1026.739	1197.61
1027.029	1175.92
1027.319	1178.63
1027.608	1159.87
1027.898	1152.19
1028.187	1152.64
1028.477	1154.45
1028.766	1163.94
1029.055	1145.63
1029.344	1154
1029.634	1108.57
1029.923	1114.22
1030.212	1114
1030.501	1100.21
1030.79	1094.11
1031.078	1101.34
1031.367	1081.91
1031.656	1084.62
1031.945	1054.34
1032.233	1063.38
1032.522	1067.67
1032.81	1026.54
1033.099	1043.26
1033.387	1018.86
1033.675	1049.82
1033.963	1020.21
1034.251	1033.77
1034.54	1020.67
1034.828	986.09
1035.116	1015.92
1035.403	997.16
1035.691	982.02
1035.979	997.62
1036.267	978.63
1036.554	991.29
1036.842	924.4
1037.129	929.37
1037.417	944.06
1037.704	950.16
1037.992	962.59
1038.279	932.31
1038.566	947.22
1038.853	947.22
1039.14	947.22
