Data from hue_190_FLMS001491_00074.txt Node
Date: Tue Feb 07 16:45:45 GMT 2017
User: dcchb
Spectrometer: FLMS00149
Trigger mode: 0
Integration Time (sec): 2.000000E-2
Scans to average: 10
Electric dark correction enabled: true
Nonlinearity correction enabled: false
Boxcar width: 0
XAxis mode: Wavelengths
Number of Pixels in Spectrum: 2048
>>>>>Begin Spectral Data<<<<<
341.393	0.61
341.776	0.61
342.16	0.61
342.543	-63.8
342.927	-66.06
343.31	-64.02
343.693	-76.9
344.077	-63.57
344.46	-61.31
344.843	-49.79
345.226	-50.92
345.61	-21.99
345.993	-18.15
346.376	-0.75
346.759	6.93
347.142	23.21
347.525	47.16
347.908	57.55
348.291	71.34
348.674	93.26
349.057	107.95
349.44	131.23
349.823	131.9
350.206	159.93
350.588	194.27
350.971	187.5
351.354	214.84
351.737	251.9
352.119	246.93
352.502	258.45
352.884	280.37
353.267	272.24
353.65	278.57
354.032	299.36
354.414	290.32
354.797	300.26
355.179	319.69
355.562	321.28
355.944	320.6
356.326	323.31
356.709	325.34
357.091	347.72
357.473	343.42
357.855	332.12
358.238	334.84
358.62	334.16
359.002	322.18
359.384	327.83
359.766	331.22
360.148	334.84
360.53	344.33
360.912	341.62
361.294	340.49
361.676	333.71
362.057	334.84
362.439	320.6
362.821	302.52
363.203	332.35
363.584	324.21
363.966	334.84
364.348	307.94
364.729	304.33
365.111	306.59
365.493	305.23
365.874	305.01
366.256	302.07
366.637	301.84
367.019	337.1
367.4	310.2
367.781	321.73
368.163	319.47
368.544	324.67
368.925	293.71
369.306	313.37
369.688	260.26
370.069	325.34
370.45	309.75
370.831	295.74
371.212	307.94
371.593	291
371.974	313.37
372.355	299.58
372.736	324.21
373.117	329.64
373.498	325.34
373.879	300.71
374.26	295.06
374.641	321.05
375.021	309.07
375.402	300.26
375.783	319.24
376.163	328.73
376.544	295.74
376.925	310.66
377.305	330.09
377.686	336.19
378.066	332.12
378.447	304.78
378.827	295.29
379.208	328.51
379.588	327.15
379.968	319.92
380.349	338.68
380.729	330.32
381.109	326.7
381.489	335.97
381.87	347.72
382.25	316.98
382.63	317.21
383.01	336.19
383.39	339.81
383.77	333.03
384.15	354.04
384.53	331.67
384.91	334.16
385.29	334.16
385.67	330.99
386.049	358.34
386.429	342.97
386.809	336.42
387.189	347.49
387.568	367.15
387.948	366.02
388.328	324.89
388.707	349.3
389.087	338.23
389.466	336.87
389.846	364.89
390.225	369.64
390.605	360.15
390.984	345.68
391.363	357.89
391.743	361.5
392.122	357.21
392.501	363.31
392.881	359.47
393.26	379.58
393.639	360.82
394.018	359.24
394.397	369.64
394.776	369.19
395.155	385.68
395.534	369.41
395.913	371.9
396.292	377.32
396.671	393.82
397.05	394.04
397.429	378.68
397.808	381.84
398.186	377.32
398.565	402.18
398.944	367.38
399.323	396.3
399.701	383.87
400.08	385.23
400.458	398.56
400.837	403.76
401.215	408.05
401.594	381.84
401.972	396.3
402.351	415.74
402.729	392.91
403.107	396.76
403.486	385.91
403.864	425.68
404.242	415.51
404.62	410.77
404.999	441.73
405.377	404.21
405.755	437.66
406.133	447.83
406.511	452.57
406.889	451.67
407.267	461.16
407.645	453.48
408.023	448.28
408.401	484.44
408.779	476.98
409.156	464.78
409.534	468.17
409.912	477.88
410.29	491.67
410.667	513.59
411.045	504.77
411.422	519.46
411.8	539.8
412.178	532.8
412.555	540.03
412.933	549.29
413.31	544.55
413.687	551.55
414.065	559.91
414.442	572.57
414.819	591.78
415.197	594.49
415.574	601.04
415.951	586.35
416.328	620.48
416.705	614.6
417.082	634.71
417.46	642.62
417.837	644.66
418.214	668.16
418.591	674.26
418.967	666.13
419.344	686.92
419.721	663.87
420.098	688.95
420.475	715.62
420.852	737.54
421.228	736.41
421.605	722.85
421.982	744.32
422.358	759.23
422.735	757.65
423.111	749.97
423.488	807.14
423.864	793.81
424.241	805.11
424.617	837.42
424.994	832.68
425.37	843.52
425.746	854.37
426.123	883.97
426.499	883.3
426.875	924.42
427.251	897.53
427.627	927.81
428.003	953.8
428.379	970.3
428.756	956.29
429.132	957.87
429.507	986.34
429.883	987.25
430.259	1019.79
430.635	1015.95
431.011	1034.25
431.387	1046.68
431.763	1064.08
432.138	1079.45
432.514	1110.18
432.89	1077.64
433.265	1126
433.641	1127.36
434.016	1163.29
434.392	1167.36
434.767	1220.91
435.143	1257.52
435.518	1246.22
435.894	1276.73
436.269	1319.89
436.644	1313.12
437.02	1341.59
437.395	1334.81
437.77	1347.69
438.145	1387.01
438.52	1413
438.895	1456.16
439.271	1463.62
439.646	1476.95
440.021	1513.56
440.395	1516.95
440.77	1506.33
441.145	1549.49
441.52	1587.01
441.895	1579.77
442.27	1614.35
442.645	1649.15
443.019	1617.74
443.394	1656.38
443.769	1673.56
444.143	1681.24
444.518	1702.71
444.892	1695.48
445.267	1733.22
445.641	1748.36
446.016	1746.78
446.39	1789.26
446.764	1811.63
447.139	1817.96
447.513	1833.1
447.887	1815.93
448.262	1835.14
448.636	1847.79
449.01	1911.97
449.384	1916.72
449.758	1914.23
450.132	1957.84
450.506	1938.41
450.88	1961.46
451.254	1985.64
451.628	2031.29
452.002	2063.38
452.376	2053.66
452.75	2069.48
453.123	2121.46
453.497	2137.95
453.871	2152.42
454.244	2192.87
454.618	2181.34
454.992	2221.11
455.365	2239.42
455.739	2290.26
456.112	2315.35
456.486	2349.47
456.859	2362.81
457.232	2380.88
457.606	2382.24
457.979	2442.13
458.352	2481.22
458.725	2490.03
459.099	2506.98
459.472	2559.41
459.845	2578.39
460.218	2615
460.591	2654.32
460.964	2644.38
461.337	2717.15
461.71	2757.82
462.083	2787.65
462.456	2795.56
462.829	2791.49
463.201	2889.12
463.574	2883.24
463.947	2939.74
464.32	3020.87
464.692	3010.02
465.065	3047.98
465.438	3046.4
465.81	3122.56
466.183	3132.95
466.555	3236.23
466.928	3250.47
467.3	3241.88
467.672	3328.43
468.045	3392.38
468.417	3376.79
468.789	3421.99
469.161	3482.55
469.534	3539.95
469.906	3591.93
470.278	3648.42
470.65	3685.26
471.022	3744.92
471.394	3785.59
471.766	3862.2
472.138	3915.08
472.51	3959.6
472.882	4075.75
473.253	4093.83
473.625	4152.14
473.997	4234.17
474.369	4270.33
474.74	4353.49
475.112	4380.61
475.484	4520.26
475.855	4587.15
476.227	4613.37
476.598	4717.09
476.97	4811.33
477.341	4876.19
477.713	4926.58
478.084	5028.72
478.455	5103.75
478.827	5171.32
479.198	5317.76
479.569	5328.6
479.94	5506.68
480.311	5524.3
480.682	5661.93
481.053	5790.06
481.424	5906.21
481.795	5951.64
482.166	6030.51
482.537	6131.29
482.908	6226.21
483.279	6297.84
483.65	6411.74
484.021	6523.37
484.391	6595.69
484.762	6642.92
485.133	6719.53
485.503	6853.53
485.874	7041.55
486.244	7022.34
486.615	7164.49
486.985	7335.33
487.356	7361.09
487.726	7434.31
488.097	7621.2
488.467	7646.96
488.837	7799.5
489.207	7874.3
489.578	8041.07
489.948	8112.94
490.318	8141.41
490.688	8190.22
491.058	8357.22
491.428	8476.99
491.798	8494.17
492.168	8632.02
492.538	8710.43
492.908	8793.82
493.278	8868.62
493.648	8930.32
494.017	8921.95
494.387	9087.83
494.757	9110.88
495.126	9182.74
495.496	9289.18
495.866	9311.55
496.235	9421.15
496.605	9503.41
496.974	9485.56
497.344	9535.27
497.713	9582.28
498.082	9649.39
498.452	9822.72
498.821	9825.89
499.19	9812.1
499.559	9911.08
499.928	9913.79
500.298	10005.77
500.667	10006.45
501.036	10052.32
501.405	10103.17
501.774	10072.43
502.143	10133.9
502.512	10177.97
502.88	10260.45
503.249	10169.38
503.618	10331.41
503.987	10379.09
504.356	10401.46
504.724	10400.79
505.093	10353.33
505.462	10455.25
505.83	10440.78
506.199	10461.12
506.567	10605.98
506.936	10473.55
507.304	10660.67
507.672	10730.95
508.041	10708.8
508.409	10777.05
508.777	10790.38
509.145	10775.24
509.514	10759.87
509.882	10848.23
510.25	10849.36
510.618	10888.68
510.986	10850.04
511.354	10891.39
511.722	10961.9
512.09	11043.25
512.458	10960.09
512.826	10987.21
513.193	11032.18
513.561	11076.47
513.929	11092.97
514.297	11083.93
514.664	11140.88
515.032	11164.83
515.4	11208.22
515.767	11122.35
516.135	11171.16
516.502	11074.44
516.869	11187.88
517.237	11231.05
517.604	11191.27
517.972	11224.27
518.339	11224.27
518.706	11240.54
519.073	11171.39
519.44	11257.26
519.808	11248.22
520.175	11223.14
520.542	11326.86
520.909	11282.57
521.276	11251.61
521.643	11291.38
522.009	11281.67
522.376	11343.81
522.743	11284.15
523.11	11372.51
523.477	11408.67
523.843	11398.27
524.21	11389.23
524.577	11470.14
524.943	11378.39
525.31	11384.49
525.676	11490.7
526.043	11460.42
526.409	11439.85
526.776	11436.24
527.142	11391.49
527.508	11419.06
527.874	11447.99
528.241	11392.17
528.607	11387.43
528.973	11379.29
529.339	11390.59
529.705	11283.25
530.071	11347.65
530.437	11282.12
530.803	11325.06
531.169	11318.28
531.535	11186.53
531.901	11184.72
532.267	11195.34
532.632	11185.85
532.998	11165.96
533.364	11131.39
533.73	11018.4
534.095	11085.29
534.461	11022.01
534.826	11064.95
535.192	10936.59
535.557	11023.59
535.923	10903.82
536.288	10881
536.653	10866.76
537.019	10704.96
537.384	10734.11
537.749	10711.06
538.114	10617.73
538.479	10625.86
538.845	10560.56
539.21	10516.94
539.575	10455.7
539.94	10536.6
540.305	10445.53
540.67	10359.88
541.034	10308.36
541.399	10244.18
541.764	10242.82
542.129	10184.97
542.494	10121.02
542.858	10121.92
543.223	10072.66
543.587	10000.57
543.952	10010.51
544.316	9921.7
544.681	9878.77
545.045	9848.03
545.41	9831.76
545.774	9737.98
546.138	9706.11
546.503	9640.35
546.867	9574.59
547.231	9614.82
547.595	9567.14
547.959	9432.68
548.324	9383.86
548.688	9408.27
549.052	9334.15
549.416	9306.8
549.779	9236.07
550.143	9275.39
550.507	9197.88
550.871	9125.57
551.235	9070.43
551.599	9165.79
551.962	8965.12
552.326	9018.68
552.689	8987.72
553.053	8861.62
553.417	8844.67
553.78	8852.58
554.143	8775.52
554.507	8776.65
554.87	8757.21
555.234	8801.28
555.597	8642.64
555.96	8658.46
556.323	8624.11
556.686	8598.57
557.05	8600.16
557.413	8522.19
557.776	8538.24
558.139	8443.32
558.502	8418.92
558.865	8440.84
559.228	8452.59
559.59	8458.69
559.953	8382.76
560.316	8449.42
560.679	8326.26
561.041	8350.67
561.404	8283.33
561.767	8351.12
562.129	8183.22
562.492	8276.77
562.854	8245.81
563.217	8240.84
563.579	8238.81
563.941	8246.04
564.304	8295.53
564.666	8267.28
565.028	8212.37
565.39	8224.35
565.753	8215.76
566.115	8267.51
566.477	8235.65
566.839	8244.23
567.201	8215.31
567.563	8217.34
567.925	8182.77
568.287	8245.81
568.648	8194.29
569.01	8178.92
569.372	8209.43
569.734	8133.73
570.095	8181.41
570.457	8227.06
570.819	8202.88
571.18	8231.13
571.542	8225.93
571.903	8171.92
572.265	8225.02
572.626	8212.82
572.987	8262.31
573.349	8259.15
573.71	8166.27
574.071	8155.87
574.432	8235.42
574.794	8262.09
575.155	8144.8
575.516	8149.77
575.877	8193.84
576.238	8230.22
576.599	8166.72
576.96	8224.35
577.32	8136.66
577.681	8171.24
578.042	8182.77
578.403	8220.5
578.763	8168.98
579.124	8164.01
579.485	8213.05
579.845	8157
580.206	8194.97
580.566	8137.79
580.927	8142.31
581.287	8146.16
581.648	8093.05
582.008	8185.48
582.368	8119.04
582.728	8152.71
583.089	8133.5
583.449	8050.34
583.809	8091.24
584.169	8106.61
584.529	8083.78
584.889	8138.47
585.249	8066.38
585.609	8044.69
585.969	8095.76
586.329	8038.59
586.688	8053.28
587.048	7961.75
587.408	8015.09
587.768	8000.17
588.127	8015.09
588.487	7912.94
588.846	7975.76
589.206	7952.04
589.565	7957.46
589.925	7981.64
590.284	7972.38
590.643	7970.57
591.003	7975.99
591.362	7974.18
591.721	7921.3
592.08	7901.19
592.44	7970.57
592.799	7881.76
593.158	7829.55
593.517	7872.72
593.876	7898.93
594.235	7832.04
594.593	7849.44
594.952	7936.44
595.311	7804.7
595.67	7842.89
596.029	7875.65
596.387	7898.25
596.746	7811.02
597.104	7855.54
597.463	7777.35
597.822	7816.9
598.18	7806.96
598.538	7761.31
598.897	7765.15
599.255	7777.13
599.613	7844.47
599.972	7784.13
600.33	7802.89
600.688	7742.1
601.046	7804.92
601.404	7791.36
601.762	7771.7
602.12	7784.13
602.478	7793.62
602.836	7820.06
603.194	7717.24
603.552	7751.14
603.91	7813.96
604.268	7775.32
604.625	7766.5
604.983	7765.15
605.341	7719.5
605.698	7753.17
606.056	7771.02
606.413	7806.73
606.771	7785.04
607.128	7753.62
607.485	7760.86
607.843	7722.44
608.2	7725.6
608.557	7798.59
608.914	7746.84
609.272	7766.96
609.629	7774.64
609.986	7819.16
610.343	7811.02
610.7	7794.75
611.057	7791.59
611.414	7786.62
611.771	7818.03
612.127	7798.59
612.484	7818.71
612.841	7876.56
613.198	7850.12
613.554	7729.44
613.911	7856.22
614.267	7773.06
614.624	7823.9
614.98	7792.27
615.337	7807.18
615.693	7867.75
616.05	7852.15
616.406	7872.26
616.762	7877.91
617.118	7840.63
617.475	7886.5
617.831	7886.05
618.187	7845.15
618.543	7835.66
618.899	7891.93
619.255	7875.2
619.611	7904.35
619.967	7933.73
620.323	7936.22
620.678	7910.23
621.034	7881.08
621.39	7829.78
621.746	7828.65
622.101	7939.16
622.457	7867.07
622.812	7905.71
623.168	7893.96
623.523	7877.01
623.879	7942.77
624.234	7856.67
624.589	7879.95
624.945	7913.39
625.3	7843.34
625.655	7887.86
626.01	7855.32
626.365	7884.92
626.72	7905.94
627.075	7851.47
627.43	7875.65
627.785	7828.88
628.14	7860.74
628.495	7844.02
628.85	7822.1
629.205	7817.58
629.559	7874.07
629.914	7823
630.269	7865.03
630.623	7832.94
630.978	7801.53
631.332	7785.26
631.687	7865.71
632.041	7799.95
632.396	7806.28
632.75	7702.1
633.104	7754.75
633.459	7714.08
633.813	7683.34
634.167	7727.41
634.521	7717.47
634.875	7712.27
635.229	7700.97
635.583	7653.06
635.937	7668.88
636.291	7656.9
636.645	7637.92
636.999	7588.43
637.352	7648.09
637.706	7595.89
638.06	7639.28
638.413	7566.96
638.767	7530.13
639.121	7503.46
639.474	7470.47
639.828	7524.7
640.181	7527.42
640.534	7559.28
640.888	7495.55
641.241	7530.35
641.594	7516.57
641.947	7575.32
642.301	7475.44
642.654	7529.9
643.007	7512.05
643.36	7465.04
643.713	7545.72
644.066	7491.71
644.419	7475.44
644.771	7443.12
645.124	7396.35
645.477	7375.33
645.83	7301.88
646.182	7249.91
646.535	7246.74
646.888	7216.91
647.24	7185.28
647.593	7266.4
647.945	7198.16
648.298	7165.39
648.65	7170.81
649.002	7208.78
649.355	7234.99
649.707	7179.85
650.059	7317.25
650.411	7331.26
650.763	7308.44
651.115	7406.51
651.467	7368.55
651.819	7348.66
652.171	7403.35
652.523	7402.45
652.875	7344.6
653.227	7357.02
653.578	7426.17
653.93	7405.61
654.282	7360.64
654.633	7353.18
654.985	7327.42
655.337	7406.29
655.688	7401.77
656.039	7459.85
656.391	7338.49
656.742	7372.84
657.094	7345.95
657.445	7387.53
657.796	7356.35
658.147	7367.19
658.498	7416.68
658.849	7421.2
659.2	7384.14
659.551	7388.44
659.902	7402.9
660.253	7428.21
660.604	7429.56
660.955	7390.47
661.306	7470.02
661.656	7372.62
662.007	7347.76
662.358	7397.7
662.708	7437.25
663.059	7470.69
663.409	7416.68
663.76	7440.41
664.11	7450.81
664.461	7479.28
664.811	7427.3
665.161	7422.11
665.511	7382.79
665.862	7451.71
666.212	7498.94
666.562	7400.86
666.912	7430.69
667.262	7436.12
667.612	7544.59
667.962	7465.04
668.312	7453.97
668.662	7525.16
669.011	7487.64
669.361	7394.76
669.711	7385.95
670.06	7399.28
670.41	7353.18
670.76	7411.94
671.109	7413.75
671.459	7395.22
671.808	7400.64
672.157	7375.55
672.507	7395.22
672.856	7400.41
673.205	7379.62
673.554	7392.96
673.904	7355.44
674.253	7434.08
674.602	7338.49
674.951	7271.38
675.3	7263.24
675.649	7315.67
675.998	7292.84
676.346	7302.11
676.695	7409.23
677.044	7343.24
677.393	7340.08
677.741	7311.38
678.09	7329.68
678.438	7318.61
678.787	7336.91
679.135	7236.58
679.484	7245.16
679.832	7273.86
680.181	7266.86
680.529	7253.98
680.877	7136.69
681.225	7191.83
681.573	7217.82
681.922	7165.84
682.27	7166.29
682.618	7169.23
682.966	7119.97
683.314	7099.4
683.661	7067.31
684.009	7074.32
684.357	7088.33
684.705	7081.33
685.053	7064.38
685.4	7063.7
685.748	7016.02
686.095	7020.31
686.443	6972.85
686.79	6929.24
687.138	6970.14
687.485	6973.76
687.832	6909.35
688.18	6962.91
688.527	6879.3
688.874	6837.94
689.221	6843.82
689.568	6813.31
689.915	6848.11
690.262	6799.75
690.609	6787.55
690.956	6760.2
691.303	6804.27
691.65	6733.54
691.997	6641.11
692.344	6641.34
692.69	6663.93
693.037	6695.35
693.383	6581.9
693.73	6576.03
694.077	6536.03
694.423	6545.07
694.769	6496.26
695.116	6480.89
695.462	6473.66
695.808	6444.28
696.155	6479.08
696.501	6414
696.847	6399.76
697.193	6343.04
697.539	6394.79
697.885	6295.36
698.231	6262.14
698.577	6316.6
698.923	6261.69
699.269	6230.27
699.614	6228.47
699.96	6140.33
700.306	6153.67
700.651	6084.97
700.997	6082.93
701.342	6074.8
701.688	6046.32
702.033	6047.68
702.379	6014.23
702.724	6014.91
703.069	5989.15
703.415	5940.34
703.76	5979.66
704.105	6005.42
704.45	5925.2
704.795	5852.66
705.14	5861.02
705.485	5828.7
705.83	5844.07
706.175	5858.08
706.52	5808.14
706.865	5772.43
707.209	5760.46
707.554	5786.9
707.899	5776.05
708.243	5742.15
708.588	5716.16
708.932	5698.31
709.277	5657.63
709.621	5657.41
709.966	5673.68
710.31	5630.06
710.654	5586.22
710.998	5531.54
711.342	5556.17
711.687	5576.05
712.031	5538.77
712.375	5516.85
712.719	5548.71
713.063	5524.76
713.407	5560.69
713.75	5500.35
714.094	5508.03
714.438	5454.25
714.782	5450.41
715.125	5448.15
715.469	5484.3
715.812	5399.11
716.156	5413.57
716.499	5385.32
716.843	5423.29
717.186	5372.67
717.53	5418.09
717.873	5364.53
718.216	5421.26
718.559	5354.36
718.902	5376.51
719.246	5337.19
719.589	5333.35
719.932	5344.65
720.275	5363.4
720.617	5349.17
720.96	5314.37
721.303	5302.16
721.646	5294.93
721.989	5257.64
722.331	5357.08
722.674	5293.35
723.016	5282.05
723.359	5300.13
723.701	5279.34
724.044	5279.11
724.386	5220.13
724.729	5218.78
725.071	5265.78
725.413	5280.02
725.755	5275.27
726.097	5221.71
726.439	5194.82
726.782	5228.04
727.124	5237.76
727.465	5176.74
727.807	5218.1
728.149	5217.65
728.491	5223.52
728.833	5219.68
729.175	5179.68
729.516	5141.49
729.858	5163.64
730.199	5188.95
730.541	5222.16
730.882	5179.68
731.224	5244.31
731.565	5208.83
731.906	5222.16
732.248	5207.25
732.589	5210.64
732.93	5178.55
733.271	5233.92
733.612	5188.49
733.953	5190.3
734.294	5182.17
734.635	5208.83
734.976	5226.68
735.317	5200.47
735.658	5217.87
735.999	5254.48
736.339	5179
736.68	5261.94
737.021	5265.78
737.361	5247.02
737.702	5279.79
738.042	5254.93
738.383	5283.86
738.723	5262.16
739.063	5279.79
739.404	5247.02
739.744	5258.77
740.084	5261.94
740.424	5266.68
740.764	5299.9
741.104	5324.31
741.444	5292.22
741.784	5351.2
742.124	5329.28
742.464	5383.29
742.804	5392.78
743.143	5383.52
743.483	5414.02
743.823	5471.88
744.162	5466
744.502	5516.39
744.841	5464.64
745.181	5561.37
745.52	5553.46
745.86	5576.28
746.199	5601.82
746.538	5661.48
746.877	5702.83
747.216	5701.02
747.556	5809.04
747.895	5826.22
748.234	5873
748.573	5898.76
748.911	5969.49
749.25	6006.55
749.589	6040.22
749.928	6105.98
750.267	6186.66
750.605	6226.43
750.944	6271.63
751.283	6361.57
751.621	6473.43
751.96	6508.23
752.298	6668.45
752.636	6646.31
752.975	6813.99
753.313	6800.88
753.651	7012.63
753.989	7024.6
754.327	7171.04
754.666	7249
755.004	7398.15
755.342	7490.58
755.679	7686.05
756.017	7729.44
756.355	7900.06
756.693	8000.17
757.031	8185.7
757.368	8291.01
757.706	8471.12
758.044	8566.26
758.381	8696.2
758.719	8860.49
759.056	9050.99
759.394	9142.29
759.731	9244.21
760.068	9461.38
760.405	9646.23
760.743	9794.25
761.08	9933.23
761.417	10103.84
761.754	10312.2
762.091	10482.14
762.428	10615.7
762.765	10782.24
763.102	10947.21
763.438	11109.47
763.775	11295.68
764.112	11469.68
764.449	11633.97
764.785	11891.82
765.122	11946.96
765.458	12080.74
765.795	12288.87
766.131	12534.29
766.467	12601.63
766.804	12729.31
767.14	12831
767.476	13109.42
767.812	13194.38
768.148	13473.25
768.485	13511.21
768.821	13619.91
769.157	13728.61
769.492	13895.61
769.828	14106.23
770.164	14070.29
770.5	14293.56
770.836	14367.91
771.171	14459.89
771.507	14621.69
771.842	14698.75
772.178	14819.65
772.513	14897.84
772.849	14955.47
773.184	15045.41
773.519	15157.95
773.855	15244.73
774.19	15380.32
774.525	15483.36
774.86	15576.47
775.195	15643.13
775.53	15637.71
775.865	15670.7
776.2	15749.57
776.535	15766.07
776.87	15840.42
777.205	15846.07
777.539	15943.69
777.874	16077.7
778.209	15892.62
778.543	15955.44
778.878	16033.18
779.212	16112.27
779.547	16098.26
779.881	16199.05
780.215	16196.34
780.55	16291.93
780.884	16272.04
781.218	16345.94
781.552	16322.89
781.886	16341.87
782.22	16314.75
782.554	16335.32
782.888	16306.85
783.222	16283.34
783.556	16298.71
783.889	16272.72
784.223	16275.21
784.557	16307.3
784.89	16273.63
785.224	16338.26
785.557	16316.56
785.891	16280.41
786.224	16314.53
786.558	16337.35
786.891	16192.27
787.224	16246.96
787.557	16235.66
787.891	16299.61
788.224	16164.93
788.557	16204.93
788.89	16247.19
789.223	16247.64
789.556	16254.64
789.888	16192.05
790.221	16163.12
790.554	16140.52
790.887	16186.4
791.219	16036.12
791.552	16077.47
791.884	16021.43
792.217	16038.6
792.549	15950.7
792.882	15865.27
793.214	15893.97
793.546	15872.05
793.879	15847.87
794.211	15832.96
794.543	15810.59
794.875	15926.06
795.207	15821.43
795.539	15797.03
795.871	15774.2
796.203	15696.47
796.535	15649.01
796.867	15664.38
797.198	15605.17
797.53	15588.45
797.862	15584.6
798.193	15552.97
798.525	15428.45
798.856	15535.34
799.188	15328.11
799.519	15336.02
799.85	15275.91
800.182	15308.91
800.513	15305.06
800.844	15202.47
801.175	15261.9
801.506	15281.11
801.837	15210.6
802.168	15126.09
802.499	15146.65
802.83	15065.52
803.161	14966.99
803.491	15031.4
803.822	14965.86
804.153	14886.09
804.483	14910.05
804.814	14829.6
805.145	14823.04
805.475	14740.78
805.805	14767.22
806.136	14797.51
806.466	14745.76
806.796	14672.09
807.126	14564.29
807.457	14639.54
807.787	14601.58
808.117	14598.87
808.447	14554.35
808.777	14610.84
809.107	14493.33
809.436	14486.33
809.766	14437.52
810.096	14405.65
810.426	14405.2
810.755	14377.18
811.085	14357.52
811.414	14363.62
811.744	14249.95
812.073	14244.53
812.403	14192.55
812.732	14104.42
813.061	14159.33
813.39	14103.97
813.719	14052.22
814.049	14139.67
814.378	14027.36
814.707	13983.52
815.036	13960.01
815.365	13930.41
815.693	13800.7
816.022	13893.8
816.351	13887.02
816.68	13746.91
817.008	13780.81
817.337	13637.31
817.665	13705.33
817.994	13701.26
818.322	13664.2
818.651	13679.8
818.979	13625.33
819.307	13694.26
819.636	13618.55
819.964	13550.53
820.292	13628.5
820.62	13653.58
820.948	13477.09
821.276	13600.48
821.604	13579.23
821.932	13566.8
822.259	13594.15
822.587	13561.61
822.915	13500.14
823.243	13570.19
823.57	13473.7
823.898	13535.62
824.225	13505.79
824.553	13508.27
824.88	13500.37
825.207	13587.14
825.535	13529.52
825.862	13639.8
826.189	13513.47
826.516	13654.26
826.843	13688.61
827.17	13595.05
827.497	13682.28
827.824	13613.58
828.151	13554.83
828.478	13593.47
828.805	13674.15
829.131	13527.71
829.458	13607.48
829.785	13517.54
830.111	13557.09
830.438	13600.25
830.764	13558.89
831.09	13612.23
831.417	13470.31
831.743	13521.83
832.069	13545.56
832.395	13471.89
832.722	13565
833.048	13479.8
833.374	13541.04
833.7	13442.97
834.026	13459.24
834.351	13560.7
834.677	13478.22
835.003	13520.7
835.329	13466.02
835.654	13549.86
835.98	13423.98
836.306	13383.31
836.631	13340.37
836.956	13376.3
837.282	13455.62
837.607	13322.29
837.932	13346.47
838.258	13327.71
838.583	13329.3
838.908	13258.56
839.233	13314.83
839.558	13255.63
839.883	13211.33
840.208	13114.61
840.533	13075.97
840.858	13132.47
841.182	13109.64
841.507	13094.27
841.832	12999.59
842.156	13012.24
842.481	13027.84
842.805	13011.11
843.13	12968.4
843.454	12931.79
843.778	12921.62
844.103	12897.22
844.427	12857.22
844.751	12891.57
845.075	12748.29
845.399	12802.98
845.723	12642.76
846.047	12697
846.371	12539.71
846.695	12678.24
847.019	12546.49
847.343	12475.31
847.666	12414.97
847.99	12345.82
848.313	12348.76
848.637	12276.22
848.96	12201.87
849.284	12272.15
849.607	12095.66
849.931	12006.39
850.254	12062.21
850.577	11926.4
850.9	11873.29
851.223	11858.6
851.546	11823.57
851.869	11671.03
852.192	11765.95
852.515	11703.35
852.838	11666.97
853.161	11706.74
853.483	11547.2
853.806	11570.7
854.129	11575.9
854.451	11449.57
854.774	11439.63
855.096	11402.79
855.419	11360.76
855.741	11303.81
856.063	11229.01
856.385	11292.74
856.708	11229.46
857.03	11177.94
857.352	11191.5
857.674	11106.98
857.996	11082.58
858.318	11102.01
858.64	11083.93
858.961	10963.26
859.283	10938.17
859.605	10906.08
859.926	10997.38
860.248	10925.97
860.57	10801
860.891	10867.67
861.212	10822.24
861.534	10858.17
861.855	10754.67
862.176	10720.33
862.498	10674
862.819	10717.84
863.14	10704.28
863.461	10664.06
863.782	10616.6
864.103	10661.57
864.424	10605.53
864.745	10601.01
865.065	10496.15
865.386	10574.79
865.707	10447.34
866.027	10500.22
866.348	10439.88
866.668	10415.02
866.989	10425.87
867.309	10382.71
867.63	10376.15
867.95	10371.41
868.27	10403.72
868.59	10324.63
868.91	10342.03
869.23	10288.92
869.55	10296.16
869.87	10316.95
870.19	10247.8
870.51	10366.44
870.83	10255.7
871.15	10164.63
871.469	10274.46
871.789	10218.42
872.109	10153.56
872.428	10135.48
872.748	10088.93
873.067	10201.92
873.386	10099.1
873.706	10125.76
874.025	10010.51
874.344	10049.83
874.663	10033.34
874.982	10017.75
875.301	9974.36
875.62	9952.44
875.939	9984.53
876.258	9974.13
876.577	9867.01
876.896	9943.62
877.214	9835.83
877.533	9909.27
877.852	9887.58
878.17	9893.23
878.489	9820.24
878.807	9817.07
879.125	9822.5
879.444	9826.56
879.762	9728.04
880.08	9756.28
880.398	9724.42
880.716	9696.85
881.034	9667.47
881.352	9689.39
881.67	9608.26
881.988	9640.58
882.306	9617.98
882.624	9613.91
882.941	9513.35
883.259	9550.41
883.577	9500.92
883.894	9509.28
884.212	9524.42
884.529	9485.33
884.846	9412.34
885.164	9434.94
885.481	9476.06
885.798	9388.84
886.115	9332.11
886.432	9376.63
886.75	9302.06
887.067	9361.94
887.383	9264.09
887.7	9307.03
888.017	9230.42
888.334	9188.39
888.651	9213.02
888.967	9145.45
889.284	9112.23
889.6	9173.47
889.917	9111.55
890.233	9030.2
890.55	9030.88
890.866	9007.38
891.182	8986.36
891.498	8987.72
891.815	8934.38
892.131	8955.4
892.447	8889.64
892.763	8872.24
893.079	8841.73
893.395	8771.9
893.71	8752.02
894.026	8704.11
894.342	8692.36
894.657	8660.72
894.973	8656.2
895.289	8667.27
895.604	8668.4
895.92	8565.81
896.235	8566.94
896.55	8513.6
896.865	8580.27
897.181	8427.73
897.496	8441.74
897.811	8419.6
898.126	8386.83
898.441	8354.96
898.756	8273.61
899.071	8302.99
899.386	8269.32
899.7	8218.47
900.015	8165.14
900.33	8104.58
900.644	8065.93
900.959	8118.59
901.273	8091.69
901.588	7979.15
901.902	8076.33
902.216	7936.9
902.531	7918.59
902.845	7894.64
903.159	7889.67
903.473	7873.62
903.787	7772.15
904.101	7842.66
904.415	7808.31
904.729	7769.22
905.042	7715.88
905.356	7675.89
905.67	7696.22
905.984	7614.19
906.297	7583.46
906.611	7612.61
906.924	7528.54
907.237	7477.25
907.551	7471.37
907.864	7427.76
908.177	7423.46
908.491	7354.54
908.804	7341.66
909.117	7294.65
909.43	7249.23
909.743	7209.91
910.056	7312.73
910.368	7255.78
910.681	7236.58
910.994	7138.05
911.307	7165.84
911.619	7061.44
911.932	7037.03
912.244	6972.63
912.557	6996.81
912.869	6932.4
913.181	6944.38
913.494	6901.67
913.806	6815.12
914.118	6846.53
914.43	6777.15
914.742	6839.75
915.054	6763.37
915.366	6738.28
915.678	6741.45
915.99	6685.18
916.302	6663.93
916.613	6638.85
916.925	6630.04
917.236	6581.45
917.548	6526.54
917.859	6578.29
918.171	6505.3
918.482	6468.91
918.794	6439.08
919.105	6435.47
919.416	6434.79
919.727	6379.42
920.038	6355.02
920.349	6382.59
920.66	6324.28
920.971	6302.14
921.282	6346.88
921.593	6285.41
921.903	6150.95
922.214	6171.74
922.525	6153.44
922.835	6079.54
923.146	6088.36
923.456	6041.58
923.767	5995.03
924.077	6040
924.387	6021.92
924.697	5991.18
925.008	5947.34
925.318	5894.46
925.628	5967
925.938	5889.49
926.248	5838.42
926.558	5789.38
926.867	5820.12
927.177	5792.77
927.487	5731.98
927.796	5666.9
928.106	5679.1
928.416	5689.05
928.725	5739.44
929.034	5675.71
929.344	5664.64
929.653	5605.88
929.962	5559.56
930.271	5564.08
930.581	5559.78
930.89	5487.92
931.199	5464.19
931.508	5475.04
931.817	5498.77
932.125	5443.63
932.434	5421.71
932.743	5360.01
933.051	5348.72
933.36	5307.13
933.669	5299.68
933.977	5289.51
934.286	5308.49
934.594	5240.24
934.902	5210.64
935.21	5181.49
935.519	5191.21
935.827	5174.93
936.135	5122.28
936.443	5122.05
936.751	5110.53
937.059	5092.68
937.367	5054.49
937.674	5028.95
937.982	5061.72
938.29	4996.41
938.597	5012
938.905	4981.95
939.213	4951.44
939.52	4888.16
939.827	4940.59
940.135	4852.23
940.442	4841.84
940.749	4856.52
941.056	4855.17
941.363	4791.67
941.67	4759.58
941.977	4712.35
942.284	4703.08
942.591	4708.73
942.898	4683.42
943.205	4717.77
943.511	4650.65
943.818	4647.49
944.125	4581.5
944.431	4565.23
944.738	4574.72
945.044	4595.97
945.35	4526.82
945.657	4499.25
945.963	4478.91
946.269	4542.86
946.575	4421.96
946.881	4436.87
947.187	4421.96
947.493	4386.93
947.799	4391.68
948.105	4371.11
948.41	4346.48
948.716	4323.21
949.022	4318.69
949.327	4305.35
949.633	4203.43
949.938	4285.92
950.244	4270.1
950.549	4237.11
950.854	4173.83
951.16	4176.77
951.465	4167.28
951.77	4141.06
952.075	4128.86
952.38	4120.27
952.685	4141.52
952.99	4059.94
953.294	4005.47
953.599	4058.81
953.904	3990.78
954.209	3988.98
954.513	4044.34
954.818	3966.38
955.122	3953.72
955.426	3913.95
955.731	3918.24
956.035	3876.21
956.339	3862.65
956.643	3909.43
956.948	3855.42
957.252	3864.69
957.556	3804.8
957.86	3814.97
958.163	3825.82
958.467	3790.56
958.771	3768.64
959.075	3769.55
959.378	3728.42
959.682	3730
959.985	3712.6
960.289	3705.82
960.592	3625.37
960.896	3661.75
961.199	3614.07
961.502	3661.98
961.805	3577.46
962.108	3574.07
962.411	3559.16
962.714	3563.23
963.017	3535.66
963.32	3541.08
963.623	3484.36
963.926	3551.02
964.228	3510.35
964.531	3468.76
964.833	3427.41
965.136	3428.09
965.438	3422.21
965.741	3424.47
966.043	3416.79
966.345	3343.12
966.648	3379.05
966.95	3330.69
967.252	3316
967.554	3297.92
967.856	3318.49
968.158	3277.36
968.46	3257.7
968.761	3259.05
969.063	3285.27
969.365	3217.92
969.666	3245.27
969.968	3200.98
970.269	3174.08
970.571	3150.36
970.872	3194.2
971.174	3156.46
971.475	3115.78
971.776	3139.51
972.077	3099.28
972.378	3096.8
972.679	3087.98
972.98	3062.22
973.281	3055.67
973.582	3038.95
973.883	3028.78
974.183	3005.05
974.484	3001.66
974.785	2996.46
975.085	3006.18
975.386	2997.82
975.686	2968.44
975.986	2949.23
976.287	2945.84
976.587	2903.81
976.887	2926.63
977.187	2897.71
977.487	2871.49
977.787	2857.03
978.087	2825.62
978.387	2836.69
978.687	2823.36
978.987	2778.39
979.286	2817.26
979.586	2809.12
979.885	2793.75
980.185	2750.14
980.484	2733.19
980.784	2756.69
981.083	2697.71
981.382	2723.02
981.682	2712.63
981.981	2678.28
982.28	2694.32
982.579	2664.94
982.878	2669.01
983.177	2639.18
983.475	2646.87
983.774	2628.56
984.073	2620.43
984.372	2579.07
984.67	2575.23
984.969	2585.85
985.267	2573.42
985.566	2572.52
985.864	2545.17
986.162	2520.99
986.461	2515.34
986.759	2470.82
987.057	2486.42
987.355	2484.16
987.653	2485.06
987.951	2442.35
988.249	2424.72
988.547	2425.85
988.844	2450.03
989.142	2408.45
989.44	2397.15
989.737	2372.97
990.035	2346.31
990.332	2379.53
990.63	2375.01
990.927	2342.69
991.224	2367.1
991.521	2314.44
991.819	2308.12
992.116	2297.95
992.413	2297.5
992.71	2286.2
993.006	2266.08
993.303	2278.74
993.6	2258.85
993.897	2273.99
994.193	2261.56
994.49	2225.41
994.787	2226.76
995.083	2208.46
995.379	2203.94
995.676	2167.33
995.972	2177.05
996.268	2158.06
996.565	2149.48
996.861	2167.33
997.157	2130.95
997.453	2115.35
997.749	2097.5
998.044	2109.48
998.34	2095.69
998.636	2075.58
998.932	2069.03
999.227	2056.82
999.523	2048.24
999.818	2043.27
1000.114	2034.68
1000.409	2006.2
1000.704	1996.04
1001	2019.54
1001.295	1983.61
1001.59	1968.24
1001.885	1974.57
1002.18	1924.85
1002.475	1929.37
1002.77	1926.66
1003.065	1911.29
1003.359	1909.03
1003.654	1914.23
1003.949	1903.61
1004.243	1873.33
1004.538	1865.19
1004.832	1852.08
1005.127	1870.61
1005.421	1830.39
1005.715	1826.1
1006.009	1810.96
1006.304	1812.09
1006.598	1815.25
1006.892	1772.31
1007.186	1807.79
1007.48	1783.39
1007.773	1762.82
1008.067	1756.27
1008.361	1720.11
1008.655	1712.2
1008.948	1721.69
1009.242	1691.86
1009.535	1706.33
1009.829	1700.9
1010.122	1670.39
1010.415	1683.73
1010.708	1654.35
1011.001	1636.95
1011.295	1652.54
1011.588	1614.58
1011.881	1615.93
1012.173	1597.18
1012.466	1597.4
1012.759	1609.38
1013.052	1632.2
1013.344	1565.09
1013.637	1582.71
1013.93	1558.31
1014.222	1576.61
1014.514	1562.6
1014.807	1538.65
1015.099	1521.02
1015.391	1541.58
1015.683	1471.98
1015.976	1502.04
1016.268	1485.31
1016.56	1474.69
1016.851	1492.55
1017.143	1461.81
1017.435	1461.36
1017.727	1437.41
1018.018	1458.65
1018.31	1428.59
1018.602	1424.07
1018.893	1417.52
1019.185	1409.61
1019.476	1412.32
1019.767	1391.08
1020.058	1366.45
1020.35	1347.69
1020.641	1354.47
1020.932	1339.1
1021.223	1328.26
1021.514	1326.67
1021.804	1295.71
1022.095	1300.69
1022.386	1286.9
1022.677	1273.12
1022.967	1285.09
1023.258	1274.25
1023.548	1294.13
1023.839	1271.31
1024.129	1291.42
1024.419	1258.88
1024.709	1240.12
1025	1240.12
1025.29	1224.53
1025.58	1204.19
1025.87	1219.11
1026.16	1188.15
1026.449	1199.45
1026.739	1191.99
1027.029	1169.84
1027.319	1171.88
1027.608	1163.06
1027.898	1178.2
1028.187	1144.53
1028.477	1153.57
1028.766	1120.58
1029.055	1121.93
1029.344	1108.15
1029.634	1109.73
1029.923	1100.92
1030.212	1095.49
1030.501	1088.94
1030.79	1098.88
1031.078	1068.15
1031.367	1076.51
1031.656	1073.12
1031.945	1051.65
1032.233	1048.94
1032.522	1039.9
1032.81	1034.93
1033.099	1018.89
1033.387	1025.89
1033.675	1017.08
1033.963	1017.53
1034.251	1007.36
1034.54	986.57
1034.828	994.03
1035.116	961.71
1035.403	1007.13
1035.691	1012.33
1035.979	947.93
1036.267	960.81
1036.554	974.14
1036.842	930.3
1037.129	947.7
1037.417	968.49
1037.704	940.92
1037.992	902.73
1038.279	910.64
1038.566	922.62
1038.853	922.62
1039.14	922.62
