Data from hue_70_FLMS001491_95.txt Node
Date: Mon Feb 06 15:21:46 GMT 2017
User: dcchb
Spectrometer: FLMS00149
Trigger mode: 0
Integration Time (sec): 2.000000E-2
Scans to average: 10
Electric dark correction enabled: true
Nonlinearity correction enabled: false
Boxcar width: 0
XAxis mode: Wavelengths
Number of Pixels in Spectrum: 2048
>>>>>Begin Spectral Data<<<<<
341.393	1.89
341.776	1.89
342.16	1.89
342.543	-81.5
342.927	-67.94
343.31	-71.33
343.693	-74.26
344.077	-79.69
344.46	-76.75
344.843	-32.23
345.226	-28.62
345.61	-22.74
345.993	-37.88
346.376	-0.37
346.759	23.59
347.142	29.24
347.525	38.95
347.908	42.12
348.291	78.27
348.674	92.51
349.057	119.18
349.44	105.62
349.823	143.36
350.206	161.44
350.588	173.19
350.971	222.45
351.354	224.94
351.737	248.44
352.119	250.7
352.502	270.13
352.884	254.77
353.267	300.42
353.65	294.54
354.032	285.27
354.414	296.57
354.797	329.57
355.179	315.1
355.562	334.99
355.944	333.86
356.326	341.54
356.709	324.6
357.091	336.8
357.473	339.51
357.855	357.59
358.238	330.92
358.62	355.78
359.002	352.17
359.384	342.9
359.766	324.14
360.148	338.15
360.53	329.12
360.912	327.99
361.294	337.93
361.676	339.28
362.057	352.84
362.439	329.12
362.821	319.62
363.203	329.57
363.584	317.59
363.966	319.4
364.348	319.17
364.729	306.07
365.111	307.2
365.493	323.69
365.874	313.3
366.256	311.71
366.637	326.18
367.019	300.42
367.4	304.03
367.781	304.71
368.163	313.97
368.544	305.84
368.925	314.65
369.306	319.17
369.688	309.68
370.069	315.56
370.45	310.36
370.831	311.49
371.212	334.54
371.593	314.65
371.974	310.59
372.355	297.93
372.736	321.21
373.117	306.97
373.498	313.97
373.879	331.6
374.26	319.4
374.641	308.55
375.021	307.87
375.402	348.55
375.783	333.41
376.163	323.69
376.544	324.37
376.925	343.8
377.305	342.9
377.686	332.73
378.066	314.65
378.447	326.63
378.827	328.66
379.208	323.92
379.588	323.01
379.968	338.61
380.349	329.79
380.729	328.44
381.109	331.83
381.489	332.96
381.87	321.43
382.25	335.22
382.63	341.32
383.01	342.45
383.39	331.83
383.77	326.86
384.15	343.35
384.53	334.31
384.91	318.27
385.29	326.18
385.67	340.87
386.049	348.1
386.429	360.75
386.809	347.87
387.189	321.66
387.568	352.17
387.948	364.14
388.328	354.65
388.707	369.11
389.087	356.01
389.466	340.19
389.846	347.42
390.225	355.33
390.605	346.74
390.984	370.7
391.363	360.3
391.743	371.15
392.122	362.79
392.501	385.39
392.881	368.44
393.26	362.79
393.639	367.76
394.018	384.26
394.397	375.44
394.776	358.49
395.155	362.11
395.534	373.41
395.913	381.32
396.292	374.99
396.671	379.06
397.05	368.89
397.429	377.7
397.808	398.04
398.186	361.88
398.565	386.06
398.944	369.79
399.323	380.64
399.701	402.11
400.08	391.71
400.458	395.55
400.837	386.97
401.215	411.6
401.594	390.36
401.972	387.19
402.351	370.47
402.729	397.14
403.107	405.5
403.486	384.48
403.864	412.28
404.242	400.07
404.62	417.7
404.999	391.03
405.377	421.32
405.755	391.26
406.133	418.38
406.511	419.06
406.889	418.15
407.267	396.46
407.645	429.45
408.023	424.03
408.401	416.34
408.779	425.16
409.156	407.76
409.534	445.04
409.912	444.82
410.29	435.33
410.667	401.66
411.045	444.14
411.422	467.42
411.8	426.06
412.178	469.68
412.555	462.22
412.933	445.27
413.31	446.4
413.687	462.67
414.065	447.98
414.442	475.55
414.819	456.34
415.197	455.21
415.574	463.8
415.951	463.58
416.328	483.01
416.705	494.31
417.082	461.54
417.46	498.38
417.837	486.85
418.214	485.04
418.591	487.08
418.967	488.89
419.344	480.07
419.721	493.86
420.098	485.27
420.475	487.76
420.852	482.33
421.228	493.18
421.605	501.31
421.982	513.74
422.358	520.52
422.735	530.24
423.111	501.99
423.488	534.99
423.864	506.06
424.241	535.44
424.617	526.17
424.994	539.28
425.37	543.8
425.746	535.44
426.123	569.11
426.499	538.6
426.875	557.13
427.251	545.61
427.627	549.45
428.003	560.75
428.379	575.66
428.756	575.21
429.132	570.47
429.507	579.05
429.883	566.62
430.259	574.08
430.635	579.05
431.011	605.04
431.387	575.21
431.763	593.29
432.138	603.46
432.514	603.23
432.89	631.03
433.265	610.24
433.641	626.06
434.016	637.36
434.392	621.76
434.767	638.71
435.143	638.94
435.518	642.55
435.894	656.56
436.269	659.73
436.644	660.41
437.02	652.5
437.395	664.02
437.77	683
438.145	688.2
438.52	676.9
438.895	677.81
439.271	673.29
439.646	686.62
440.021	695.21
440.395	712.83
440.77	707.64
441.145	707.41
441.52	744.7
441.895	719.16
442.27	740.18
442.645	728.2
443.019	740.63
443.394	734.53
443.769	738.37
444.143	726.39
444.518	760.52
444.892	735.43
445.267	774.53
445.641	769.78
446.016	766.84
446.39	747.41
446.764	766.17
447.139	750.8
447.513	764.13
447.887	802.78
448.262	788.76
448.636	774.3
449.01	784.7
449.384	792.61
449.758	810.46
450.132	801.42
450.506	824.02
450.88	820.4
451.254	817.24
451.628	829.44
452.002	857.01
452.376	840.29
452.75	861.53
453.123	852.94
453.497	861.08
453.871	893.62
454.244	883.23
454.618	892.04
454.992	905.15
455.365	908.99
455.739	930.91
456.112	900.17
456.486	931.81
456.859	946.5
457.232	967.06
457.606	937.46
457.979	969.78
458.352	991.47
458.725	987.63
459.099	978.36
459.472	1010.45
459.845	1013.17
460.218	1026.72
460.591	1033.96
460.964	1050.68
461.337	1080.96
461.71	1070.57
462.083	1120.73
462.456	1088.19
462.829	1090.68
463.201	1130.9
463.574	1122.54
463.947	1140.62
464.32	1174.07
464.692	1154.4
465.065	1186.04
465.438	1221.52
465.81	1241.63
466.183	1251.13
466.555	1291.12
466.928	1268.98
467.3	1273.95
467.672	1324.12
468.045	1327.51
468.417	1320.95
468.789	1360.27
469.161	1381.07
469.534	1419.93
469.906	1455.19
470.278	1480.95
470.65	1479.14
471.022	1507.39
471.394	1542.19
471.766	1567.73
472.138	1608.18
472.51	1642.53
472.882	1670.55
473.253	1706.25
473.625	1736.31
473.997	1763.43
474.369	1812.24
474.74	1825.35
475.112	1889.3
475.484	1906.48
475.855	1991.22
476.227	2006.36
476.598	2057.21
476.97	2115.51
477.341	2183.98
477.713	2207.26
478.084	2270.08
478.455	2347.37
478.827	2397.08
479.198	2480.47
479.569	2522.5
479.94	2606.34
480.311	2691.77
480.682	2774.48
481.053	2827.58
481.424	2932.21
481.795	2972.66
482.166	3073.45
482.537	3138.99
482.908	3259.43
483.279	3397.06
483.65	3408.36
484.021	3573.1
484.391	3667.11
484.762	3708.01
485.133	3804.05
485.503	3908
485.874	4007.89
486.244	4093.76
486.615	4288.79
486.985	4353.19
487.356	4540.53
487.726	4609.68
488.097	4770.35
488.467	4852.39
488.837	5012.83
489.207	5102.32
489.578	5287.86
489.948	5420.06
490.318	5490.34
490.688	5651.46
491.058	5729.65
491.428	5948.63
491.798	6062.52
492.168	6210.77
492.538	6361.5
492.908	6486.47
493.278	6631.1
493.648	6769.4
494.017	6868.15
494.387	7062.72
494.757	7160.12
495.126	7321.25
495.496	7445.31
495.866	7563.05
496.235	7713.55
496.605	7932.76
496.974	8032.19
497.344	8182.47
497.713	8239.87
498.082	8426.76
498.452	8602.8
498.821	8740.65
499.19	8795.56
499.559	8965.05
499.928	9027.64
500.298	9172.27
500.667	9403.23
501.036	9392.61
501.405	9590.57
501.774	9664.92
502.143	9854.74
502.512	9911.91
502.88	10035.98
503.249	10150.33
503.618	10277.78
503.987	10401.62
504.356	10454.27
504.724	10549.41
505.093	10749.41
505.462	10830.08
505.83	10972
506.199	11135.39
506.567	11225.33
506.936	11320.24
507.304	11502.83
507.672	11580.35
508.041	11700.79
508.409	11842.94
508.777	11941.92
509.145	12026.89
509.514	12121.35
509.882	12306.88
510.25	12325.18
510.618	12362.92
510.986	12483.15
511.354	12640.88
511.722	12758.17
512.09	12931.04
512.458	12896.47
512.826	13056.69
513.193	13148.67
513.561	13211.94
513.929	13395.21
514.297	13518.6
514.664	13644.92
515.032	13696.9
515.4	13799.27
515.767	13837.01
516.135	13896.89
516.502	13910.23
516.869	14197.45
517.237	14237.9
517.604	14277
517.972	14368.52
518.339	14495.75
518.706	14519.48
519.073	14622.3
519.44	14653.26
519.808	14816.42
520.175	14919.24
520.542	15002.63
520.909	15172.12
521.276	15117.88
521.643	15318.33
522.009	15387.02
522.376	15526.91
522.743	15633.8
523.11	15702.27
523.477	15850.29
523.843	15832.21
524.21	16065.2
524.577	16102.71
524.943	16181.81
525.31	16287.57
525.676	16483.72
526.043	16517.16
526.409	16546.09
526.776	16703.83
527.142	16725.97
527.508	16799.64
527.874	16890.26
528.241	17091.39
528.607	17057.49
528.973	17183.14
529.339	17253.42
529.705	17345.62
530.071	17444.15
530.437	17585.84
530.803	17566.4
531.169	17575.67
531.535	17666.06
531.901	17596.23
532.267	17693.4
532.632	17846.85
532.998	17825.15
533.364	17938.82
533.73	17965.49
534.095	18067.63
534.461	18221.75
534.826	18182.88
535.192	18147.63
535.557	18395.31
535.923	18316.44
536.288	18323.67
536.653	18436.21
537.019	18288.19
537.384	18344.91
537.749	18515.3
538.114	18506.26
538.479	18517.11
538.845	18500.39
539.21	18529.99
539.575	18533.38
539.94	18641.63
540.305	18616.09
540.67	18615.41
541.034	18666.26
541.399	18718.91
541.764	18747.16
542.129	18835.75
542.494	18774.05
542.858	18788.07
543.223	18781.29
543.587	18880.72
543.952	18740.38
544.316	18963.65
544.681	18952.81
545.045	18977.21
545.41	18998.68
545.774	18959.81
546.138	18995.29
546.503	19025.8
546.867	18966.59
547.231	19215.4
547.595	19090.88
547.959	19119.13
548.324	19084.33
548.688	19110.54
549.052	19135.85
549.416	19106.48
549.779	19258.79
550.143	19146.93
550.507	19324.1
550.871	19390.31
551.235	19326.13
551.599	19479.57
551.962	19376.75
552.326	19476.18
552.689	19437.31
553.053	19321.38
553.417	19432.34
553.78	19641.6
554.143	19605.67
554.507	19577.65
554.87	19570.87
555.234	19752.11
555.597	19673.47
555.96	19723.41
556.323	19823.97
556.686	19779.9
557.05	19902.61
557.413	19889.51
557.776	19917.53
558.139	20044.3
558.502	20016.73
558.865	20040.91
559.228	20131.53
559.59	20129.5
559.953	20197.75
560.316	20442.71
560.679	20348.48
561.041	20375.14
561.404	20529.94
561.767	20621.24
562.129	20510.96
562.492	20702.82
562.854	20607
563.217	20736.94
563.579	20743.27
563.941	20832.98
564.304	20850.38
564.666	20963.6
565.028	20982.13
565.39	21036.59
565.753	21147.1
566.115	21111.85
566.477	21249.7
566.839	21265.74
567.201	21304.61
567.563	21330.15
567.925	21495.34
568.287	21456.7
568.648	21501.44
569.01	21545.73
569.372	21732.62
569.734	21717.48
570.095	21783.92
570.457	21861.66
570.819	21958.38
571.18	21785.95
571.542	21943.91
571.903	22025.04
572.265	22093.74
572.626	22158.15
572.987	22188.65
573.349	22165.15
573.71	22344.13
574.071	22367.18
574.432	22282.89
574.794	22488.53
575.155	22421.19
575.516	22302.1
575.877	22461.19
576.238	22433.39
576.599	22489.66
576.96	22523.33
577.32	22620.51
577.681	22602.65
578.042	22688.53
578.403	22752.03
578.763	22586.84
579.124	22788.19
579.485	22879.71
579.845	22882.65
580.206	22808.3
580.566	22815.53
580.927	22877.45
581.287	22913.15
581.648	22906.15
582.008	22927.62
582.368	22883.1
582.728	22876.32
583.089	22990.21
583.449	22901.63
583.809	22946.37
584.169	22962.87
584.529	22792.03
584.889	23011.91
585.249	22910.44
585.609	22829.99
585.969	23060.27
586.329	22927.17
586.688	22935.75
587.048	22937.33
587.408	22972.59
587.768	22876.77
588.127	22870.44
588.487	22893.72
588.846	22966.26
589.206	22995.41
589.565	22831.57
589.925	23090.33
590.284	23015.98
590.643	23001.29
591.003	22971.23
591.362	23097.56
591.721	23104.34
592.08	22972.59
592.44	22986.6
592.799	22891.91
593.158	22975.53
593.517	22895.53
593.876	23015.75
594.235	23017.11
594.593	22954.28
594.952	23034.28
595.311	23029.08
595.67	23021.85
596.029	23108.4
596.387	23122.64
596.746	23055.52
597.104	23067.5
597.463	23069.31
597.822	23178.23
598.18	23075.64
598.538	23020.95
598.897	23215.75
599.255	22955.87
599.613	23268.4
599.972	23164.9
600.33	23203.99
600.688	23083.09
601.046	23155.63
601.404	23327.83
601.762	23112.47
602.12	23422.07
602.478	23230.43
602.836	23323.54
603.194	23110.89
603.552	23227.04
603.91	23204.22
604.268	23315.86
604.625	23311.11
604.983	23271.79
605.341	23144.11
605.698	23247.84
606.056	23481.28
606.413	23314.5
606.771	23380.03
607.128	23426.59
607.485	23406.93
607.843	23392.46
608.2	23559.01
608.557	23572.12
608.914	23482.86
609.272	23582.52
609.629	23744.32
609.986	23767.14
610.343	23569.18
610.7	23794.49
611.057	23796.97
611.414	23750.42
611.771	23764.21
612.127	23902.73
612.484	23856.86
612.841	23995.39
613.198	23867.25
613.554	23932.34
613.911	24119.22
614.267	24090.07
614.624	24013.01
614.98	24065.21
615.337	24063.18
615.693	24096.63
616.05	24001.94
616.406	24279.22
616.762	24180.01
617.118	24220.24
617.475	24224.76
617.831	24287.58
618.187	24239
618.543	24203.52
618.899	24424.98
619.255	24414.13
619.611	24319.67
619.967	24365.32
620.323	24461.36
620.678	24288.71
621.034	24371.87
621.39	24343.63
621.746	24354.92
622.101	24636.05
622.457	24400.35
622.812	24509.72
623.168	24516.05
623.523	24450.29
623.879	24605.77
624.234	24468.82
624.589	24494.81
624.945	24673.56
625.3	24676.5
625.655	24540.68
626.01	24697.74
626.365	24648.25
626.72	24562.38
627.075	24600.12
627.43	24615.71
627.785	24522.15
628.14	24636.73
628.495	24696.38
628.85	24591.08
629.205	24452.78
629.559	24605.09
629.914	24571.19
630.269	24648.02
630.623	24480.8
630.978	24524.19
631.332	24531.42
631.687	24640.34
632.041	24571.19
632.396	24583.39
632.75	24446.67
633.104	24460.46
633.459	24413.45
633.813	24377.75
634.167	24389.5
634.521	24340.91
634.875	24387.01
635.229	24364.87
635.583	24233.8
635.937	24233.35
636.291	24263.4
636.645	24251.65
636.999	24133.46
637.352	24331.87
637.706	24182.73
638.06	24071.09
638.413	24105.89
638.767	24093.69
639.121	24145.21
639.474	23934.6
639.828	23944.99
640.181	24123.07
640.534	24038.77
640.888	23946.35
641.241	23935.05
641.594	23934.82
641.947	23959.45
642.301	23948.83
642.654	24015.72
643.007	23916.29
643.36	23884.43
643.713	23916.52
644.066	23932.56
644.419	23745
644.771	23610.99
645.124	23492.8
645.477	23401.96
645.83	23282.41
646.182	23215.07
646.535	23011.23
646.888	23256.2
647.24	23107.05
647.593	23149.98
647.945	23231.34
648.298	22969.42
648.65	23022.98
649.002	23004.9
649.355	23034.73
649.707	23021.17
650.059	23178.23
650.411	23333.48
650.763	23390.66
651.115	23632.91
651.467	23539.35
651.819	23542.74
652.171	23465.68
652.523	23497.55
652.875	23394.5
653.227	23331.22
653.578	23557.21
653.93	23439.02
654.282	23490.99
654.633	23374.61
654.985	23369.19
655.337	23463.65
655.688	23444.67
656.039	23537.54
656.391	23383.65
656.742	23375.52
657.094	23396.08
657.445	23475.85
657.796	23453.48
658.147	23380.94
658.498	23401.96
658.849	23343.88
659.2	23303.88
659.551	23340.94
659.902	23413.48
660.253	23416.42
660.604	23394.95
660.955	23306.14
661.306	23383.2
661.656	23360.37
662.007	23350.88
662.358	23295.97
662.708	23348.17
663.059	23383.42
663.409	23189.31
663.76	23351.79
664.11	23418
664.461	23403.09
664.811	23447.38
665.161	23400.83
665.511	23360.37
665.862	23463.87
666.212	23415.97
666.562	23383.42
666.912	23417.32
667.262	23326.7
667.612	23468.17
667.962	23366.02
668.312	23246.93
668.662	23311.11
669.011	23293.94
669.361	23250.09
669.711	23292.35
670.06	23411.67
670.41	23219.59
670.76	23221.85
671.109	23334.39
671.459	23293.71
671.808	23248.29
672.157	23270.21
672.507	23242.41
672.856	23075.41
673.205	23217.1
673.554	23220.27
673.904	23141.62
674.253	23274.73
674.602	23261.62
674.951	22820.73
675.3	22749.77
675.649	23131.23
675.998	23057.11
676.346	23030.44
676.695	23116.77
677.044	22806.49
677.393	22927.84
677.741	23023.66
678.09	22981.18
678.438	22886.04
678.787	22970.1
679.135	22894.17
679.484	22833.38
679.832	22888.75
680.181	22712.71
680.529	22808.98
680.877	22807.62
681.225	22743.67
681.573	22861.86
681.922	22709.54
682.27	22655.76
682.618	22637
682.966	22584.35
683.314	22503.45
683.661	22466.61
684.009	22443.11
684.357	22321.53
684.705	22313.62
685.053	22336.45
685.4	22202.21
685.748	22160.41
686.095	22227.75
686.443	21997.25
686.79	22141.88
687.138	22115.21
687.485	22052.61
687.832	21976.91
688.18	22053.06
688.527	21817.82
688.874	21866.63
689.221	21782.79
689.568	21659.85
689.915	21650.14
690.262	21654.66
690.609	21617.37
690.956	21507.54
691.303	21423.48
691.65	21312.97
691.997	21334.21
692.344	21180.54
692.69	21215.57
693.037	21216.02
693.383	21030.72
693.73	21156.14
694.077	20978.97
694.423	20928.12
694.769	20947.56
695.116	20751.18
695.462	20814.23
695.808	20716.83
696.155	20725.87
696.501	20547.57
696.847	20518.19
697.193	20372.88
697.539	20440.9
697.885	20333.11
698.231	20288.59
698.577	20269.38
698.923	20227.8
699.269	20057.41
699.614	19996.85
699.96	19982.84
700.306	19928.15
700.651	19876.62
700.997	19740.58
701.342	19736.51
701.688	19588.27
702.033	19607.93
702.379	19523.64
702.724	19467.37
703.069	19484.54
703.415	19396.18
703.76	19249.07
704.105	19288.39
704.45	19253.82
704.795	19224.21
705.14	19085.01
705.485	19054.5
705.83	18988.06
706.175	19065.8
706.52	18978.79
706.865	18820.38
707.209	18796.2
707.554	18761.4
707.899	18703.1
708.243	18671.01
708.588	18562.53
708.932	18447.28
709.277	18353.73
709.621	18466.94
709.966	18326.16
710.31	18508.07
710.654	18214.07
710.998	18246.61
711.342	18195.54
711.687	18164.35
712.031	18030.12
712.375	17972.72
712.719	18106.95
713.063	18054.98
713.407	18077.35
713.75	17893.85
714.094	17925.94
714.438	17828.54
714.782	17945.38
715.125	17791.03
715.469	17763.69
715.812	17692.95
716.156	17732.27
716.499	17718.71
716.843	17605.72
717.186	17594.2
717.53	17655.44
717.873	17748.32
718.216	17562.11
718.559	17441.21
718.902	17342.45
719.246	17367.99
719.589	17377.93
719.932	17355.79
720.275	17292.06
720.617	17357.59
720.96	17162.57
721.303	17185.17
721.646	17273.75
721.989	17111.5
722.331	17190.82
722.674	17094.32
723.016	17099.3
723.359	17138.17
723.701	17182.68
724.044	17040.54
724.386	16892.07
724.729	17021.11
725.071	16981.56
725.413	16920.32
725.755	16868.57
726.097	16810.26
726.439	16787.21
726.782	16750.38
727.124	16918.74
727.465	16841.22
727.807	16806.65
728.149	16742.02
728.491	16721
728.833	16849.81
729.175	16721.45
729.516	16632.19
729.858	16694.34
730.199	16629.93
730.541	16632.64
730.882	16637.84
731.224	16677.16
731.565	16521.46
731.906	16650.04
732.248	16541.12
732.589	16490.05
732.93	16504.96
733.271	16542.93
733.612	16566.65
733.953	16475.58
734.294	16410.5
734.635	16396.72
734.976	16428.58
735.317	16466.54
735.658	16428.81
735.999	16397.17
736.339	16461.12
736.68	16496.37
737.021	16329.15
737.361	16348.36
737.702	16423.16
738.042	16422.03
738.383	16383.16
738.723	16465.19
739.063	16393.55
739.404	16425.19
739.744	16374.12
740.084	16339.99
740.424	16411.63
740.764	16303.61
741.104	16491.85
741.444	16366.89
741.784	16307.23
742.124	16421.57
742.464	16324.4
742.804	16300
743.143	16383.61
743.483	16385.64
743.823	16417.96
744.162	16388.81
744.502	16368.47
744.841	16375.7
745.181	16511.52
745.52	16502.7
745.86	16588.35
746.199	16459.54
746.538	16548.58
746.877	16567.56
747.216	16638.74
747.556	16570.95
747.895	16663.38
748.234	16558.97
748.573	16610.04
748.911	16674.22
749.25	16682.81
749.589	16744.96
749.928	16739.76
750.267	16763.71
750.605	16784.5
750.944	16902.69
751.283	16842.35
751.621	17040.54
751.96	16957.15
752.298	17060.43
752.636	17156.24
752.975	17131.16
753.313	17101.1
753.651	17241.89
753.989	17263.81
754.327	17312.4
754.666	17296.35
755.004	17544.48
755.342	17521.66
755.679	17616.34
756.017	17537.7
756.355	17713.29
756.693	17679.85
757.031	17866.73
757.368	17834.87
757.706	17983.11
758.044	17981.98
758.381	17997.8
758.719	18078.03
759.056	18131.13
759.394	18214.75
759.731	18096.33
760.068	18317.57
760.405	18357.34
760.743	18442.31
761.08	18494.51
761.417	18498.58
761.754	18604.34
762.091	18676.2
762.428	18688.63
762.765	18639.82
763.102	18757.78
763.438	18762.76
763.775	18732.47
764.112	18839.36
764.449	18948.06
764.785	18862.64
765.122	18880.27
765.458	18897.89
765.795	18981.73
766.131	18927.72
766.467	19038.91
766.804	19069.64
767.14	18933.82
767.476	18981.73
767.812	18963.65
768.148	19059.02
768.485	18976.76
768.821	18999.36
769.157	18955.97
769.492	19116.64
769.828	19075.74
770.164	18983.99
770.5	19098.34
770.836	19010.88
771.171	18960.26
771.507	19018.79
771.842	18868.06
772.178	18928.63
772.513	18865.58
772.849	18938.12
773.184	18800.95
773.519	18814.28
773.855	18835.97
774.19	18748.52
774.525	18746.71
774.86	18714.62
775.195	18678.01
775.53	18732.47
775.865	18611.8
776.2	18607.73
776.535	18513.27
776.87	18504.46
777.205	18425.14
777.539	18410.67
777.874	18473.72
778.209	18406.38
778.543	18304.69
778.878	18191.92
779.212	18302.65
779.547	18093.85
779.881	18225.82
780.215	18043.68
780.55	18061.53
780.884	18030.35
781.218	17991.7
781.552	17996.67
781.886	17907.41
782.22	17802.1
782.554	17753.52
782.888	17659.28
783.222	17599.62
783.556	17534.99
783.889	17503.58
784.223	17379.06
784.557	17356.24
784.89	17372.51
785.224	17351.72
785.557	17219.97
785.891	17363.24
786.224	17195.56
786.558	17205.96
786.891	16973.2
787.224	17010.03
787.557	16967.1
787.891	16894.1
788.224	16837.16
788.557	16877.61
788.89	16825.41
789.223	16827.89
789.556	16661.34
789.888	16620.44
790.221	16537.73
790.554	16464.96
790.887	16488.69
791.219	16445.3
791.552	16344.29
791.884	16267.23
792.217	16291.86
792.549	16266.32
792.882	16138.42
793.214	16035.37
793.546	16077.85
793.879	16045.54
794.211	15939.33
794.543	15992.43
794.875	15962.15
795.207	15940.68
795.539	15925.09
795.871	15788.37
796.203	15711.08
796.535	15598.32
796.867	15567.13
797.198	15507.93
797.53	15514.48
797.862	15389.96
798.193	15440.58
798.525	15360.13
798.856	15357.65
799.188	15225.22
799.519	15210.98
799.85	15076.75
800.182	15142.51
800.513	15134.15
800.844	14892.57
801.175	15005.34
801.506	15083.53
801.837	14964.89
802.168	14879.24
802.499	14820.71
802.83	14762.86
803.161	14725.57
803.491	14728.96
803.822	14727.61
804.153	14568.74
804.483	14540.27
804.814	14539.82
805.145	14467.27
805.475	14481.29
805.805	14402.87
806.136	14315.19
806.466	14366.26
806.796	14279.26
807.126	14230.67
807.457	14245.81
807.787	14164.46
808.117	14062.54
808.447	14030.45
808.777	14101.63
809.107	14025.25
809.436	13990.9
809.766	14010.11
810.096	13860.29
810.426	13898.7
810.755	13909.55
811.085	13825.48
811.414	13902.32
811.744	13698.71
812.073	13648.99
812.403	13609.67
812.732	13549.11
813.061	13683.57
813.39	13548.2
813.719	13508.43
814.049	13542.78
814.378	13506.4
814.707	13384.59
815.036	13468.88
815.365	13359.96
815.693	13296.01
816.022	13305.27
816.351	13234.54
816.68	13142.34
817.008	13234.54
817.337	13103.24
817.665	13015.56
817.994	13112.96
818.322	13075.67
818.651	13072.51
818.979	13021.66
819.307	13077.71
819.636	12985.05
819.964	12890.37
820.292	12939.41
820.62	12902.57
820.948	12922.46
821.276	12913.19
821.604	12815.57
821.932	12884.49
822.259	12973.75
822.587	12818.5
822.915	12824.38
823.243	12787.77
823.57	12855.34
823.898	12912.51
824.225	12800.65
824.553	12778.96
824.88	12806.08
825.207	12774.66
825.535	12827.54
825.862	12831.61
826.189	12811.73
826.516	12846.75
826.843	12838.17
827.17	12864.83
827.497	12856.92
827.824	12860.76
828.151	12833.87
828.478	12884.49
828.805	12900.54
829.131	12828.9
829.458	12790.93
829.785	12635.23
830.111	12790.93
830.438	12798.84
830.764	12794.32
831.09	12798.17
831.417	12680.88
831.743	12730.82
832.069	12721.56
832.395	12661.9
832.722	12756.36
833.048	12701.22
833.374	12734.44
833.7	12730.6
834.026	12764.95
834.351	12683.14
834.677	12765.4
835.003	12614.67
835.329	12676.36
835.654	12686.53
835.98	12576.25
836.306	12568.57
836.631	12543.71
836.956	12560.43
837.282	12534.67
837.607	12486.99
837.932	12527.44
838.258	12426.2
838.583	12480.89
838.908	12322.47
839.233	12405.18
839.558	12369.25
839.883	12419.19
840.208	12332.64
840.533	12274.56
840.858	12277.05
841.182	12254
841.507	12275.47
841.832	12202.02
842.156	12270.95
842.481	12165.87
842.805	12160.67
843.13	12094.46
843.454	12193.21
843.778	12074.12
844.103	12047.45
844.427	12022.59
844.751	11958.64
845.075	11993.67
845.399	11842.26
845.723	11846.1
846.047	11925.19
846.371	11815.37
846.695	11781.24
847.019	11689.04
847.343	11601.59
847.666	11594.81
847.99	11499.44
848.313	11532.66
848.637	11441.82
848.96	11416.06
849.284	11430.29
849.607	11280.69
849.931	11245.44
850.254	11244.53
850.577	11147.36
850.9	11095.84
851.223	11102.84
851.546	11118.89
851.869	10973.81
852.192	10998.89
852.515	10871.44
852.838	10852.45
853.161	10824.66
853.483	10717.09
853.806	10748.28
854.129	10688.62
854.451	10727.71
854.774	10607.26
855.096	10595.51
855.419	10643.42
855.741	10578.34
856.063	10452.69
856.385	10534.5
856.708	10445.01
857.03	10435.06
857.352	10361.62
857.674	10377.89
857.996	10342.64
858.318	10308.51
858.64	10267.16
858.961	10257.22
859.283	10240.49
859.605	10153.94
859.926	10179.25
860.248	10128.18
860.57	10005.25
860.891	10053.15
861.212	10067.39
861.534	10040.05
861.855	10031.69
862.176	10028.97
862.498	9977.22
862.819	10024
863.14	9878.02
863.461	9863.1
863.782	9872.59
864.103	9833.72
864.424	9815.42
864.745	9838.92
865.065	9809.54
865.386	9764.8
865.707	9779.04
866.027	9714.86
866.348	9774.29
866.668	9697.91
866.989	9709.66
867.309	9687.97
867.63	9648.87
867.95	9650.23
868.27	9638.7
868.59	9679.6
868.91	9593.05
869.23	9542.21
869.55	9587.4
869.87	9575.2
870.19	9528.65
870.51	9532.04
870.83	9584.24
871.15	9453.17
871.469	9489.1
871.789	9481.87
872.109	9428.99
872.428	9384.92
872.748	9422.21
873.067	9420.85
873.386	9431.93
873.706	9433.06
874.025	9363
874.344	9276.9
874.663	9337.24
874.982	9319.16
875.301	9321.65
875.62	9354.19
875.939	9228.77
876.258	9209.79
876.577	9243.91
876.896	9173.63
877.214	9137.7
877.533	9171.82
877.852	9167.53
878.17	9169.34
878.489	9127.3
878.807	9109.9
879.125	9127.08
879.444	9162.33
879.762	9054.99
880.08	9081.2
880.398	9046.85
880.716	9006.18
881.034	9013.41
881.352	9066.74
881.67	8948.32
881.988	8978.61
882.306	8932.96
882.624	8879.85
882.941	8867.42
883.259	8858.16
883.577	8819.51
883.894	8772.06
884.212	8781.77
884.529	8756.01
884.846	8768.22
885.164	8763.02
885.481	8746.07
885.798	8742
886.115	8670.14
886.432	8685.96
886.75	8652.06
887.067	8622.23
887.383	8615
887.7	8600.31
888.017	8569.12
888.334	8622.91
888.651	8558.73
888.967	8504.49
889.284	8432.63
889.6	8460.88
889.917	8419.07
890.233	8366.87
890.55	8327.55
890.866	8298.4
891.182	8329.58
891.498	8331.62
891.815	8323.03
892.131	8251.17
892.447	8250.94
892.763	8230.15
893.079	8171.62
893.395	8172.75
893.71	8147.89
894.026	8083.71
894.342	8088.69
894.657	8015.69
894.973	8017.05
895.289	8016.15
895.604	7993.32
895.92	7911.52
896.235	7915.58
896.55	7913.1
896.865	7871.74
897.181	7837.62
897.496	7845.08
897.811	7823.83
898.126	7711.52
898.441	7688.7
898.756	7738.19
899.071	7706.55
899.386	7688.47
899.7	7629.26
900.015	7600.11
900.33	7565.76
900.644	7493
900.959	7570.06
901.273	7452.77
901.588	7457.52
901.902	7470.17
902.216	7503.16
902.531	7393.34
902.845	7406.44
903.159	7293.45
903.473	7331.87
903.787	7296.84
904.101	7203.51
904.415	7289.38
904.729	7193.79
905.042	7164.42
905.356	7090.75
905.67	7144.3
905.984	7120.12
906.297	7038.09
906.611	7020.69
906.924	7013.23
907.237	7011.88
907.551	7008.71
907.864	6937.3
908.177	6918.55
908.491	6869.51
908.804	6806.46
909.117	6874.48
909.43	6821.37
909.743	6774.82
910.056	6726.01
910.368	6714.71
910.681	6687.37
910.994	6671.32
911.307	6626.13
911.619	6590.42
911.932	6631.32
912.244	6594.71
912.557	6558.56
912.869	6449.86
913.181	6469.97
913.494	6477.2
913.806	6444.66
914.118	6459.35
914.43	6382.74
914.742	6400.14
915.054	6309.07
915.366	6260.94
915.678	6265.68
915.99	6252.58
916.302	6211.45
916.613	6201.28
916.925	6206.02
917.236	6128.96
917.548	6136.42
917.859	6132.58
918.171	6075.18
918.482	6127.38
918.794	5992.24
919.105	6036.08
919.416	5989.98
919.727	6013.94
920.038	5903.88
920.349	5920.16
920.66	5866.6
920.971	5874.28
921.282	5850.55
921.593	5826.82
921.903	5765.36
922.214	5759.48
922.525	5749.54
922.835	5762.87
923.146	5704.79
923.456	5677.22
923.767	5618.69
924.077	5612.14
924.387	5594.06
924.697	5610.78
925.008	5532.82
925.318	5545.93
925.628	5465.7
925.938	5474.74
926.248	5467.29
926.558	5400.39
926.867	5413.28
927.177	5384.35
927.487	5382.32
927.796	5331.92
928.106	5343.9
928.416	5320.85
928.725	5340.28
929.034	5213.06
929.344	5291.47
929.653	5216.67
929.962	5153.17
930.271	5146.84
930.581	5146.84
930.89	5101.19
931.199	5080.4
931.508	5065.71
931.817	5097.8
932.125	5009.67
932.434	5077.24
932.743	4972.16
933.051	4967.41
933.36	4907.53
933.669	4923.57
933.977	4884.93
934.286	4911.37
934.594	4872.95
934.902	4827.08
935.21	4843.12
935.519	4827.53
935.827	4803.57
936.135	4767.19
936.443	4740.3
936.751	4727.64
937.059	4683.13
937.367	4731.26
937.674	4681.32
937.982	4644.71
938.29	4636.35
938.597	4609.68
938.905	4599.29
939.213	4564.48
939.52	4555.22
939.827	4537.37
940.135	4550.02
940.442	4473.64
940.749	4481.77
941.056	4433.87
941.363	4421.44
941.67	4407.43
941.977	4426.86
942.284	4371.04
942.591	4364.94
942.898	4350.93
943.205	4347.32
943.511	4340.54
943.818	4303.47
944.125	4270.48
944.431	4254.44
944.738	4260.99
945.044	4175.57
945.35	4180.31
945.657	4174.89
945.963	4183.25
946.269	4104.84
946.575	4124.5
946.881	4093.31
947.187	4118.39
947.493	4091.95
947.799	4078.85
948.105	4092.18
948.41	4006.76
948.716	4017.15
949.022	4003.14
949.327	3994.33
949.633	3962.24
949.938	3915.46
950.244	3946.87
950.549	3914.78
950.854	3904.84
951.16	3886.08
951.465	3865.07
951.77	3829.36
952.075	3848.35
952.38	3785.3
952.685	3806.76
952.99	3778.29
953.294	3782.13
953.599	3773.32
953.904	3725.86
954.209	3725.86
954.513	3711.4
954.818	3667.56
955.122	3667.33
955.426	3677.28
955.731	3623.27
956.035	3641.57
956.339	3557.96
956.643	3580.33
956.948	3562.7
957.252	3583.95
957.556	3534
957.86	3515.02
958.163	3529.26
958.467	3506.66
958.771	3489.71
959.075	3449.49
959.378	3448.36
959.682	3454.68
959.985	3396.83
960.289	3440.67
960.592	3402.71
960.896	3358.19
961.199	3355.7
961.502	3362.48
961.805	3334.23
962.108	3280
962.411	3321.35
962.714	3308.25
963.017	3291.07
963.32	3283.84
963.623	3239.32
963.926	3270.06
964.228	3218.98
964.531	3183.28
964.833	3204.29
965.136	3197.74
965.438	3172.2
965.741	3149.83
966.043	3142.38
966.345	3131.75
966.648	3101.47
966.95	3108.93
967.252	3084.98
967.554	3074.35
967.856	3059.67
968.158	3019.44
968.46	3048.82
968.761	3012.43
969.063	2981.02
969.365	2994.36
969.666	2961.36
969.968	2953.45
970.269	2954.58
970.571	2945.54
970.872	2947.35
971.174	2915.04
971.475	2934.7
971.776	2924.53
972.077	2888.14
972.378	2878.2
972.679	2884.08
972.98	2852.44
973.281	2843.63
973.582	2846.34
973.883	2779.22
974.183	2756.85
974.484	2786.23
974.785	2739.67
975.085	2716.4
975.386	2750.75
975.686	2738.32
975.986	2735.38
976.287	2721.14
976.587	2687.25
976.887	2689.96
977.187	2701.26
977.487	2687.02
977.787	2663.07
978.087	2664.2
978.387	2604.76
978.687	2616.97
978.987	2591.43
979.286	2600.69
979.586	2617.19
979.885	2526.57
980.185	2540.13
980.484	2527.25
980.784	2524.99
981.083	2520.47
981.382	2515.27
981.682	2522.96
981.981	2523.41
982.28	2482.96
982.579	2431.89
982.878	2481.83
983.177	2454.48
983.475	2406.8
983.774	2444.99
984.073	2421.72
984.372	2401.83
984.67	2408.38
984.969	2374.03
985.267	2413.81
985.566	2395.28
985.864	2348.72
986.162	2353.47
986.461	2306.01
986.759	2323.87
987.057	2322.51
987.355	2313.24
987.653	2287.48
987.951	2263.98
988.249	2283.87
988.547	2292.45
988.844	2274.38
989.142	2265.34
989.44	2254.26
989.737	2256.07
990.035	2204.77
990.332	2206.58
990.63	2189.41
990.927	2145.34
991.224	2180.14
991.521	2178.56
991.819	2174.49
992.116	2156.19
992.413	2164.77
992.71	2145.57
993.006	2116.64
993.303	2157.09
993.6	2090.88
993.897	2117.77
994.193	2083.65
994.49	2073.25
994.787	2033.25
995.083	2054.49
995.379	2054.04
995.676	2049.52
995.972	2023.99
996.268	2033.93
996.565	1976.76
996.861	1976.98
997.157	1994.61
997.453	1974.72
997.749	1948.96
998.044	1940.6
998.34	1950.77
998.636	1935.63
998.932	1905.12
999.227	1900.83
999.523	1875.74
999.818	1906.25
1000.114	1877.32
1000.409	1875.29
1000.704	1871.67
1001	1838
1001.295	1805.91
1001.59	1846.36
1001.885	1831.45
1002.18	1837.1
1002.475	1838.68
1002.77	1798.91
1003.065	1805.01
1003.359	1777.44
1003.654	1776.08
1003.949	1770.43
1004.243	1778.34
1004.538	1747.38
1004.832	1740.38
1005.127	1730.21
1005.421	1714.39
1005.715	1694.05
1006.009	1720.72
1006.304	1712.58
1006.598	1687.05
1006.892	1679.36
1007.186	1648.4
1007.48	1667.61
1007.773	1647.5
1008.067	1641.4
1008.361	1640.72
1008.655	1602.53
1008.948	1614.28
1009.242	1601.62
1009.535	1593.49
1009.829	1566.15
1010.122	1612.7
1010.415	1561.63
1010.708	1567.73
1011.001	1563.89
1011.295	1529.08
1011.588	1534.51
1011.881	1485.02
1012.173	1525.02
1012.466	1521.63
1012.759	1518.91
1013.052	1482.53
1013.344	1494.73
1013.637	1487.73
1013.93	1448.41
1014.222	1459.93
1014.514	1465.36
1014.807	1432.36
1015.099	1421.97
1015.391	1415.41
1015.683	1441.85
1015.976	1409.99
1016.268	1401.63
1016.56	1396.21
1016.851	1394.4
1017.143	1383.55
1017.435	1380.61
1017.727	1379.26
1018.018	1365.02
1018.31	1335.19
1018.602	1348.98
1018.893	1318.02
1019.185	1329.09
1019.476	1315.53
1019.767	1297.23
1020.058	1288.86
1020.35	1304.46
1020.641	1277.11
1020.932	1250.22
1021.223	1260.62
1021.514	1243.67
1021.804	1242.09
1022.095	1235.98
1022.386	1227.62
1022.677	1214.97
1022.967	1217.91
1023.258	1210.9
1023.548	1192.14
1023.839	1203.22
1024.129	1176.1
1024.419	1188.08
1024.709	1163.9
1025	1154.18
1025.29	1155.99
1025.58	1136.78
1025.87	1137
1026.16	1153.27
1026.449	1166.83
1026.739	1129.55
1027.029	1135.42
1027.319	1084.8
1027.608	1120.73
1027.898	1080.06
1028.187	1080.96
1028.477	1094.75
1028.766	1089.32
1029.055	1081.41
1029.344	1066.5
1029.634	1056.55
1029.923	1053.62
1030.212	1047.29
1030.501	1014.07
1030.79	1016.33
1031.078	1010
1031.367	1010.23
1031.656	1002.77
1031.945	1018.59
1032.233	985.6
1032.522	1003.67
1032.81	983.56
1033.099	993.5
1033.387	973.17
1033.675	998.93
1033.963	946.95
1034.251	972.71
1034.54	941.53
1034.828	957.8
1035.116	930.68
1035.403	940.4
1035.691	899.5
1035.979	923.45
1036.267	915.31
1036.554	910.8
1036.842	884.36
1037.129	870.57
1037.417	909.44
1037.704	890
1037.992	887.97
1038.279	887.07
1038.566	864.24
1038.853	864.24
1039.14	864.24
