Data from hue_320_FLMS001491_51.txt Node
Date: Mon Feb 06 15:47:23 GMT 2017
User: dcchb
Spectrometer: FLMS00149
Trigger mode: 0
Integration Time (sec): 2.000000E-2
Scans to average: 10
Electric dark correction enabled: true
Nonlinearity correction enabled: false
Boxcar width: 0
XAxis mode: Wavelengths
Number of Pixels in Spectrum: 2048
>>>>>Begin Spectral Data<<<<<
341.393	-10.86
341.776	-10.86
342.16	-10.86
342.543	-59.45
342.927	-69.39
343.31	-54.7
343.693	-73.68
344.077	-63.29
344.46	-62.61
344.843	-82.27
345.226	-46.11
345.61	-19.67
345.993	-30.07
346.376	2.7
346.759	40.21
347.142	1.12
347.525	39.76
347.908	61.68
348.291	75.92
348.674	93.54
349.057	117.5
349.44	144.39
349.823	137.16
350.206	155.24
350.588	183.71
350.971	207.66
351.354	213.09
351.737	224.39
352.119	258.74
352.502	265.06
352.884	272.3
353.267	301.9
353.65	298.28
354.032	286.98
354.414	304.38
354.797	320.88
355.179	310.26
355.562	312.29
355.944	326.3
356.326	320.66
356.709	343.71
357.091	350.71
357.473	327.43
357.855	340.54
358.238	347.77
358.62	325.18
359.002	334.44
359.384	338.06
359.766	324.5
360.148	359.3
360.53	350.26
360.912	330.82
361.294	331.73
361.676	326.08
362.057	343.25
362.439	314.78
362.821	326.53
363.203	319.98
363.584	306.64
363.966	313.88
364.348	335.34
364.729	308.23
365.111	324.27
365.493	321.79
365.874	316.81
366.256	317.27
366.637	305.29
367.019	324.5
367.4	323.37
367.781	321.56
368.163	308
368.544	322.69
368.925	326.3
369.306	323.14
369.688	311.84
370.069	303.48
370.45	329.24
370.831	300.32
371.212	310.49
371.593	314.78
371.974	300.99
372.355	310.03
372.736	320.88
373.117	328.34
373.498	320.43
373.879	330.37
374.26	310.94
374.641	307.1
375.021	319.75
375.402	333.08
375.783	315.23
376.163	300.09
376.544	336.47
376.925	333.31
377.305	317.04
377.686	299.86
378.066	323.14
378.447	332.86
378.827	348.68
379.208	317.49
379.588	323.82
379.968	305.97
380.349	333.31
380.729	330.37
381.109	328.34
381.489	312.07
381.87	330.37
382.25	312.29
382.63	351.84
383.01	358.17
383.39	339.19
383.77	330.82
384.15	327.21
384.53	323.37
384.91	346.87
385.29	341.22
385.67	341.9
386.049	368.34
386.429	382.57
386.809	351.62
387.189	346.64
387.568	337.38
387.948	360.2
388.328	340.54
388.707	343.48
389.087	347.77
389.466	350.94
389.846	380.99
390.225	361.56
390.605	337.83
390.984	357.49
391.363	370.82
391.743	385.29
392.122	372.63
392.501	360.43
392.881	359.75
393.26	374.89
393.639	370.15
394.018	383.25
394.397	373.08
394.776	369.02
395.155	379.86
395.534	373.76
395.913	363.37
396.292	402.24
396.671	374.89
397.05	361.78
397.429	388.9
397.808	365.63
398.186	388.22
398.565	387.55
398.944	400.43
399.323	394.1
399.701	393.87
400.08	392.74
400.458	402.91
400.837	407.66
401.215	397.94
401.594	393.2
401.972	410.6
402.351	411.73
402.729	395.91
403.107	395.68
403.486	422.8
403.864	439.07
404.242	432.29
404.62	422.35
404.999	438.17
405.377	414.21
405.755	430.93
406.133	437.26
406.511	441.78
406.889	463.25
407.267	475.45
407.645	443.36
408.023	451.5
408.401	450.6
408.779	477.49
409.156	467.09
409.534	471.16
409.912	462.12
410.29	470.71
410.667	483.81
411.045	484.04
411.422	501.22
411.8	493.31
412.178	490.59
412.555	522.46
412.933	502.12
413.31	502.12
413.687	522.91
414.065	522.46
414.442	527.43
414.819	538.28
415.197	541.67
415.574	571.95
415.951	560.2
416.328	576.69
416.705	566.75
417.082	570.59
417.46	585.96
417.837	587.32
418.214	580.76
418.591	594.32
418.967	605.17
419.344	599.52
419.721	617.6
420.098	629.12
420.475	647.43
420.852	647.2
421.228	657.82
421.605	655.11
421.982	660.31
422.358	659.4
422.735	671.15
423.111	663.47
423.488	685.84
423.864	675
424.241	702.11
424.617	700.76
424.994	726.52
425.37	717.26
425.746	719.74
426.123	755.45
426.499	733.3
426.875	719.29
427.251	734.2
427.627	773.52
428.003	778.95
428.379	779.63
428.756	775.56
429.132	754.99
429.507	786.63
429.883	794.99
430.259	798.16
430.635	825.95
431.011	813.3
431.387	838.83
431.763	845.39
432.138	862.56
432.514	852.17
432.89	860.08
433.265	884.93
433.641	889.68
434.016	880.87
434.392	917.93
434.767	926.74
435.143	934.65
435.518	915.22
435.894	928.32
436.269	958.15
436.644	983.69
437.02	976.01
437.395	953.18
437.77	1006.74
438.145	988.43
438.52	993.63
438.895	1022.78
439.271	1010.81
439.646	1034.08
440.021	1062.1
440.395	1063.01
440.77	1068.21
441.145	1066.4
441.52	1089.45
441.895	1062.1
442.27	1106.4
442.645	1089.67
443.019	1107.75
443.394	1105.95
443.769	1077.02
444.143	1096.23
444.518	1116.34
444.892	1104.82
445.267	1146.85
445.641	1100.07
446.016	1101.43
446.39	1140.52
446.764	1125.61
447.139	1125.15
447.513	1141.88
447.887	1142.33
448.262	1157.47
448.636	1172.16
449.01	1176.23
449.384	1186.17
449.758	1167.64
450.132	1185.72
450.506	1192.95
450.88	1178.49
451.254	1188.66
451.628	1192.72
452.002	1217.13
452.376	1213.29
452.75	1203.12
453.123	1228.2
453.497	1252.83
453.871	1228.43
454.244	1245.38
454.618	1276.79
454.992	1300.52
455.365	1292.83
455.739	1278.6
456.112	1274.08
456.486	1307.75
456.859	1331.02
457.232	1343.23
457.606	1337.58
457.979	1383.9
458.352	1385.26
458.725	1383.45
459.099	1369.44
459.472	1391.36
459.845	1387.29
460.218	1418.93
460.591	1419.38
460.964	1441.3
461.337	1484.92
461.71	1464.13
462.083	1469.78
462.456	1448.08
462.829	1460.29
463.201	1517.46
463.574	1499.61
463.947	1555.2
464.32	1539.15
464.692	1566.5
465.065	1549.32
465.438	1544.8
465.81	1586.84
466.183	1567.85
466.555	1611.24
466.928	1630.45
467.3	1633.39
467.672	1676.55
468.045	1704.12
468.417	1699.15
468.789	1706.16
469.161	1688.76
469.534	1742.31
469.906	1783.89
470.278	1771.69
470.65	1794.51
471.022	1793.61
471.394	1817.57
471.766	1812.82
472.138	1826.83
472.51	1862.08
472.882	1900.95
473.253	1912.25
473.625	1927.84
473.997	1917.68
474.369	1949.77
474.74	2005.36
475.112	1998.35
475.484	2022.98
475.855	2045.36
476.227	2085.81
476.598	2124
476.97	2122.19
477.341	2153.6
477.713	2202.64
478.084	2214.62
478.455	2203.09
478.827	2227.5
479.198	2314.73
479.569	2319.25
479.94	2384.33
480.311	2368.51
480.682	2398.34
481.053	2435.63
481.424	2480.82
481.795	2496.87
482.166	2517.89
482.537	2559.92
482.908	2556.08
483.279	2611.67
483.65	2647.15
484.021	2675.85
484.391	2716.52
484.762	2721.95
485.133	2715.85
485.503	2750.2
485.874	2775.51
486.244	2800.14
486.615	2850.76
486.985	2855.96
487.356	2924.88
487.726	2937.76
488.097	3008.27
488.467	3036.74
488.837	3049.85
489.207	3059.11
489.578	3070.41
489.948	3128.04
490.318	3172.33
490.688	3178.66
491.058	3201.71
491.428	3210.07
491.798	3268.6
492.168	3330.97
492.538	3373.46
492.908	3387.69
493.278	3347.92
493.648	3385.43
494.017	3425.21
494.387	3460.91
494.757	3503.4
495.126	3490.52
495.496	3505.88
495.866	3493.91
496.235	3553.79
496.605	3599.67
496.974	3574.58
497.344	3653
497.713	3629.04
498.082	3660.45
498.452	3684.63
498.821	3706.33
499.19	3732.77
499.559	3752.88
499.928	3763.5
500.298	3751.3
500.667	3790.85
501.036	3813.44
501.405	3823.39
501.774	3839.21
502.143	3884.18
502.512	3856.16
502.88	3858.87
503.249	3901.58
503.618	3903.84
503.987	3853.9
504.356	3987.23
504.724	3977.06
505.093	3967.57
505.462	3944.97
505.83	3993.1
506.199	3975.47
506.567	4090.73
506.936	4008.47
507.304	4105.64
507.672	4075.81
508.041	4077.84
508.409	4137.28
508.777	4137.73
509.145	4180.44
509.514	4161.01
509.882	4186.54
510.25	4196.26
510.618	4144.28
510.986	4175.02
511.354	4224.73
511.722	4255.47
512.09	4277.39
512.458	4286.65
512.826	4296.37
513.193	4301.57
513.561	4311.96
513.929	4369.36
514.297	4352.19
514.664	4331.4
515.032	4380.89
515.4	4389.47
515.767	4375.46
516.135	4383.83
516.502	4375.01
516.869	4440.55
517.237	4442.35
517.604	4456.14
517.972	4476.25
518.339	4527.32
518.706	4498.85
519.073	4511.28
519.44	4509.7
519.808	4592.41
520.175	4589.02
520.542	4579.75
520.909	4559.64
521.276	4604.84
521.643	4643.03
522.009	4671.73
522.376	4636.25
522.743	4686.42
523.11	4716.92
523.477	4755.34
523.843	4740.43
524.21	4770.26
524.577	4812.97
524.943	4797.15
525.31	4868.33
525.676	4868.33
526.043	4891.61
526.409	4932.74
526.776	4934.77
527.142	4937.48
527.508	4972.96
527.874	5018.61
528.241	5013.19
528.607	5043.02
528.973	5072.17
529.339	5068.33
529.705	5104.94
530.071	5113.52
530.437	5211.37
530.803	5212.5
531.169	5239.17
531.535	5239.85
531.901	5224.03
532.267	5294.31
532.632	5288.21
532.998	5316.23
533.364	5363.01
533.73	5332.05
534.095	5397.81
534.461	5439.16
534.826	5381.54
535.192	5463.57
535.557	5462.89
535.923	5506.96
536.288	5493.4
536.653	5541.08
537.019	5553.51
537.384	5618.37
537.749	5602.55
538.114	5598.26
538.479	5646.62
538.845	5659.95
539.21	5687.52
539.575	5690.68
539.94	5755.54
540.305	5754.41
540.67	5792.83
541.034	5791.47
541.399	5785.14
541.764	5854.3
542.129	5874.41
542.494	5871.24
542.858	5853.62
543.223	5911.92
543.587	5950.34
543.952	5956.67
544.316	5973.61
544.681	6047.74
545.045	6096.1
545.41	6122.54
545.774	6125.02
546.138	6107.4
546.503	6163.67
546.867	6178.35
547.231	6182.65
547.595	6226.94
547.959	6212.48
548.324	6267.84
548.688	6269.65
549.052	6298.8
549.416	6311.23
549.779	6305.36
550.143	6357.56
550.507	6371.57
550.871	6390.1
551.235	6422.87
551.599	6459.48
551.962	6480.27
552.326	6449.31
552.689	6523.88
553.053	6467.84
553.417	6534.28
553.78	6652.92
554.143	6575.18
554.507	6627.16
554.87	6609.08
555.234	6696.98
555.597	6611.34
555.96	6641.85
556.323	6686.14
556.686	6702.41
557.05	6728.4
557.413	6760.03
557.776	6758.23
558.139	6793.03
558.502	6786.93
558.865	6816.3
559.228	6891.33
559.59	6904.89
559.953	6912.12
560.316	6940.59
560.679	6966.36
561.041	6994.38
561.404	7023.08
561.767	7072.57
562.129	7002.51
562.492	7115.05
562.854	7081.38
563.217	7105.11
563.579	7148.72
563.941	7182.4
564.304	7156.86
564.666	7190.98
565.028	7184.2
565.39	7250.64
565.753	7314.82
566.115	7281.6
566.477	7325.22
566.839	7315.27
567.201	7388.49
567.563	7392.33
567.925	7414.48
568.287	7476.85
568.648	7464.65
569.01	7506.23
569.372	7566.11
569.734	7552.33
570.095	7593.46
570.457	7639.33
570.819	7683.17
571.18	7715.04
571.542	7751.42
571.903	7844.98
572.265	7840.91
572.626	7858.08
572.987	7898.08
573.349	7934.92
573.71	7985.76
574.071	8049.72
574.432	8084.29
574.794	8128.13
575.155	8196.15
575.516	8193.89
575.877	8261.69
576.238	8308.69
576.599	8457.62
576.96	8467.11
577.32	8542.81
577.681	8635.69
578.042	8743.26
578.403	8771.73
578.763	8904.84
579.124	8926.76
579.485	9031.16
579.845	9208.33
580.206	9228.44
580.566	9371.94
580.927	9480.19
581.287	9588.89
581.648	9686.28
582.008	9882.89
582.368	10011.7
582.728	10117.69
583.089	10298.92
583.449	10449.65
583.809	10572.14
584.169	10740.04
584.529	10942.75
584.889	11208.05
585.249	11308.16
585.609	11462.74
585.969	11671.09
586.329	11802.39
586.688	12117.41
587.048	12332.77
587.408	12549.26
587.768	12688.69
588.127	12972.98
588.487	13163.48
588.846	13494.55
589.206	13617.93
589.565	13899.96
589.925	14225.6
590.284	14494.75
590.643	14755.08
591.003	15041.62
591.362	15339.7
591.721	15579.01
592.08	15833.24
592.44	16166.79
592.799	16381.02
593.158	16655.82
593.517	17015.81
593.876	17207.89
594.235	17533.76
594.593	17848.33
594.952	18090.36
595.311	18460.74
595.67	18698.25
596.029	19091.24
596.387	19327.39
596.746	19698
597.104	19849.86
597.463	20159.23
597.822	20571.87
598.18	20761.02
598.538	21080.56
598.897	21502.02
599.255	21627.67
599.613	22097.03
599.972	22292.96
600.33	22617.24
600.688	22828.54
601.046	23206.61
601.404	23513.27
601.762	23810.21
602.12	24213.81
602.478	24389.4
602.836	24705.55
603.194	24850.41
603.552	25225.31
603.91	25439.09
604.268	25757.27
604.625	25907.55
604.983	26429.35
605.341	26450.14
605.698	26807.19
606.056	27049.22
606.413	27269.55
606.771	27602.42
607.128	27843.55
607.485	27982.98
607.843	28118.57
608.2	28611.89
608.557	28757.42
608.914	28991.54
609.272	29398.31
609.629	29455.48
609.986	29755.36
610.343	29855.25
610.7	30250.49
611.057	30452.74
611.414	30577.49
611.771	30911.72
612.127	31107.19
612.484	31237.36
612.841	31509.21
613.198	31606.84
613.554	31758.47
613.911	32039.14
614.267	32228.29
614.624	32278.69
614.98	32498.34
615.337	32802.97
615.693	32975.84
616.05	33076.63
616.406	33276.63
616.762	33375.61
617.118	33494.25
617.475	33699.66
617.831	33849.94
618.187	33999.54
618.543	34390.49
618.899	34423.49
619.255	34508.46
619.611	34611.96
619.967	34802.23
620.323	35037.26
620.678	35160.19
621.034	35039.74
621.39	35194.54
621.746	35308.21
622.101	35724.7
622.457	35563.34
622.812	35793.4
623.168	36001.53
623.523	36049.43
623.879	36160.62
624.234	35955.65
624.589	36325.58
624.945	36439.71
625.3	36401.74
625.655	36478.8
626.01	36760.15
626.365	36648.29
626.72	36715.4
627.075	36686.93
627.43	36815.29
627.785	36787.72
628.14	37058.45
628.495	37052.12
628.85	37199.23
629.205	37076.53
629.559	37332.56
629.914	37207.37
630.269	37284.43
630.623	37249.85
630.978	37196.52
631.332	37411.66
631.687	37478.55
632.041	37315.84
632.396	37596.74
632.75	37355.16
633.104	37455.72
633.459	37359.46
633.813	37369.85
634.167	37553.12
634.521	37469.06
634.875	37527.59
635.229	37472.22
635.583	37326.01
635.937	37467.02
636.291	37602.61
636.645	37568.94
636.999	37578.21
637.352	37708.6
637.706	37472.45
638.06	37666.79
638.413	37546.57
638.767	37498.66
639.121	37625.89
639.474	37475.16
639.828	37472.45
640.181	37581.6
640.534	37590.86
640.888	37596.51
641.241	37400.58
641.594	37513.35
641.947	37428.83
642.301	37508.83
642.654	37540.24
643.007	37481.49
643.36	37483.52
643.713	37431.32
644.066	37748.82
644.419	37454.59
644.771	37213.02
645.124	36855.74
645.477	36691.22
645.83	36637.67
646.182	36414.17
646.535	36376.43
646.888	36463.43
647.24	36233.61
647.593	36504.79
647.945	36425.69
648.298	36176.21
648.65	36263.67
649.002	36238.81
649.355	36406.94
649.707	36243.1
650.059	36393.83
650.411	36706.14
650.763	36919.92
651.115	37252.34
651.467	37121.72
651.819	37111.1
652.171	36929.64
652.523	37015.96
652.875	36970.77
653.227	36885.34
653.578	37120.37
653.93	36969.86
654.282	36924.44
654.633	36730.55
654.985	36890.09
655.337	37041.27
655.688	36887.38
656.039	37064.32
656.391	36607.61
656.742	36780.26
657.094	36820.49
657.445	36993.59
657.796	36817.1
658.147	36765.57
658.498	36889.19
658.849	36770.77
659.2	36830.43
659.551	36816.19
659.902	36942.29
660.253	36751.56
660.604	36941.16
660.955	36622.75
661.306	36773.71
661.656	36544.56
662.007	36722.41
662.358	36759.47
662.708	36729.64
663.059	36637.44
663.409	36512.92
663.76	36901.39
664.11	36744.56
664.461	36830.66
664.811	36845.34
665.161	36662.98
665.511	36693.94
665.862	36612.13
666.212	36728.06
666.562	36721.51
666.912	36609.87
667.262	36648.29
667.612	36552.92
667.962	36644.22
668.312	36716.08
668.662	36736.65
669.011	36627.72
669.361	36663.2
669.711	36578.69
670.06	36494.17
670.41	36420.5
670.76	36397.67
671.109	36528.97
671.459	36389.54
671.808	36491.68
672.157	36554.05
672.507	36359.71
672.856	36313.38
673.205	36480.16
673.554	36470.44
673.904	36425.69
674.253	36674.28
674.602	36518.8
674.951	36034.52
675.3	35725.6
675.649	36192.93
675.998	36347.5
676.346	36340.5
676.695	36492.36
677.044	36051.02
677.393	36214.4
677.741	36319.26
678.09	36143.67
678.438	36157.45
678.787	36274.74
679.135	36199.94
679.484	35932.6
679.832	36137.11
680.181	35891.02
680.529	36107.74
680.877	35908.87
681.225	35853.05
681.573	36108.64
681.922	35716.79
682.27	35633.4
682.618	35677.01
682.966	35637.47
683.314	35637.01
683.661	35533.29
684.009	35379.17
684.357	35352.95
684.705	35295.33
685.053	35359.96
685.4	35272.28
685.748	35209
686.095	35127.2
686.443	35042.45
686.79	34998.16
687.138	35014.88
687.485	35018.05
687.832	34844.04
688.18	34958.39
688.527	34866.41
688.874	34731.73
689.221	34683.37
689.568	34556.37
689.915	34503.03
690.262	34509.81
690.609	34450.83
690.956	34371.51
691.303	34300.55
691.65	34153.44
691.997	34085.19
692.344	33932.88
692.69	33950.96
693.037	33976.72
693.383	33574.24
693.73	33842.71
694.077	33523.85
694.423	33649.95
694.769	33454.7
695.116	33440.91
695.462	33327.02
695.808	33373.12
696.155	33244.08
696.501	33039.8
696.847	33025.33
697.193	32943.75
697.539	32921.15
697.885	32693.82
698.231	32623.08
698.577	32752.12
698.923	32528.4
699.269	32381.96
699.614	32289.08
699.96	32212.7
700.306	32254.05
700.651	31962.54
700.997	31891.8
701.342	31930.22
701.688	31883.89
702.033	31811.8
702.379	31922.08
702.724	31796.89
703.069	31793.27
703.415	31507.63
703.76	31398.26
704.105	31416.33
704.45	31357.58
704.795	31264.93
705.14	31104.93
705.485	30998.27
705.83	31000.07
706.175	31125.95
706.52	31023.8
706.865	30849.12
707.209	30779.52
707.554	30612.74
707.899	30669.46
708.243	30538.62
708.588	30570.03
708.932	30402.12
709.277	30266.76
709.621	30324.61
709.966	30146.54
710.31	30210.04
710.654	29897.5
710.998	29853.66
711.342	30026.32
711.687	29800.78
712.031	29753.33
712.375	29789.49
712.719	29784.06
713.063	29708.13
713.407	29794
713.75	29584.52
714.094	29386.56
714.438	29430.62
714.782	29493.67
715.125	29323.73
715.469	29292.1
715.812	29115.15
716.156	28977.53
716.499	29038.09
716.843	29029.96
717.186	28905.89
717.53	28979.79
717.873	28926.46
718.216	28768.95
718.559	28724.2
718.902	28597.43
719.246	28670.87
719.589	28509.07
719.932	28495.06
720.275	28433.59
720.617	28523.53
720.96	28344.1
721.303	28345.68
721.646	28299.13
721.989	28099.59
722.331	28284.89
722.674	28222.97
723.016	28308.62
723.359	28073.15
723.701	28145.69
724.044	27949.53
724.386	27808.75
724.729	27966.48
725.071	27886.71
725.413	27882.64
725.755	27810.33
726.097	27722.87
726.439	27634.51
726.782	27683.33
727.124	27772.81
727.465	27552.93
727.807	27522.43
728.149	27432.03
728.491	27535.53
728.833	27513.61
729.175	27307.52
729.516	27290.12
729.858	27129.44
730.199	27250.12
730.541	27190.91
730.882	27173.73
731.224	27186.62
731.565	27120.85
731.906	27087.18
732.248	27076.56
732.589	26951.59
732.93	26771.94
733.271	26840.64
733.612	26909.33
733.953	26845.83
734.294	26763.12
734.635	26662.56
734.976	26790.92
735.317	26621.21
735.658	26500.98
735.999	26457.82
736.339	26552.28
736.68	26613.3
737.021	26519.51
737.361	26387.09
737.702	26551.15
738.042	26288.33
738.383	26277.26
738.723	26308.22
739.063	26252.4
739.404	26350.25
739.744	26183.03
740.084	26131.05
740.424	26135.12
740.764	26146.64
741.104	26101.67
741.444	25985.07
741.784	25952.52
742.124	25905.29
742.464	25744.17
742.804	25812.19
743.143	25717.95
743.483	25806.76
743.823	25698.97
744.162	25642.02
744.502	25672.31
744.841	25588.24
745.181	25689.93
745.52	25448.58
745.86	25546.43
746.199	25434.12
746.538	25441.35
746.877	25395.25
747.216	25406.78
747.556	25385.76
747.895	25369.26
748.234	25214.46
748.573	25273.9
748.911	25181.7
749.25	25087.46
749.589	25087.91
749.928	25129.72
750.267	25033.68
750.605	24955.04
750.944	24950.06
751.283	24879.11
751.621	24866.22
751.96	24710.07
752.298	24848.15
752.636	24770.41
752.975	24589.17
753.313	24496.74
753.651	24703.07
753.989	24544.43
754.327	24436.18
754.666	24362.51
755.004	24426.01
755.342	24455.61
755.679	24333.58
756.017	24112.12
756.355	24304.88
756.693	24082.06
757.031	24139.24
757.368	24015.17
757.706	23875.52
758.044	23856.99
758.381	23848.62
758.719	23682.08
759.056	23817.89
759.394	23688.85
759.731	23503.32
760.068	23485.92
760.405	23544.9
760.743	23361.86
761.08	23452.93
761.417	23318.24
761.754	23379.71
762.091	23202.31
762.428	23141.52
762.765	23066.95
763.102	23084.58
763.438	22931.13
763.775	22931.59
764.112	22806.39
764.449	22887.97
764.785	22728.43
765.122	22529.11
765.458	22422.67
765.795	22447.98
766.131	22375.89
766.467	22274.43
766.804	22192.62
767.14	22126.18
767.476	22078.28
767.812	22008.22
768.148	21991.72
768.485	21835.8
768.821	21690.49
769.157	21734.33
769.492	21655.24
769.828	21507.67
770.164	21398.29
770.5	21329.82
770.836	21442.81
771.171	21248.01
771.507	21139.54
771.842	21090.28
772.178	21016.16
772.513	21030.62
772.849	20906.33
773.184	20843.05
773.519	20770.51
773.855	20718.99
774.19	20635.38
774.525	20589.05
774.86	20601.93
775.195	20500.24
775.53	20361.71
775.865	20271.32
776.2	20177.99
776.535	19948.61
776.87	20026.8
777.205	20092.34
777.539	19869.52
777.874	19831.33
778.209	19726.25
778.543	19608.28
778.878	19614.39
779.212	19520.38
779.547	19440.38
779.881	19492.35
780.215	19326.48
780.55	19455.75
780.884	19106.6
781.218	19139.14
781.552	19159.93
781.886	19123.32
782.22	18958.58
782.554	18874.07
782.888	18729.89
783.222	18625.26
783.556	18540.97
783.889	18616.9
784.223	18466.39
784.557	18310.24
784.89	18403.12
785.224	18270.92
785.557	18279.28
785.891	18163.12
786.224	18183.91
786.558	18077.48
786.891	17999.29
787.224	17938.05
787.557	17891.04
787.891	17849.46
788.224	17693.31
788.557	17776.47
788.89	17675.23
789.223	17649.69
789.556	17563.14
789.888	17415.8
790.221	17410.38
790.554	17284.73
790.887	17218.06
791.219	17273.66
791.552	17061.46
791.884	17050.61
792.217	16902.59
792.549	16986.88
792.882	16909.6
793.214	16692.43
793.546	16868.47
793.879	16645.65
794.211	16548.48
794.543	16582.15
794.875	16559.78
795.207	16580.57
795.539	16501.47
795.871	16504.18
796.203	16400.68
796.535	16204.08
796.867	16220.58
797.198	16216.06
797.53	16175.61
797.862	16030.75
798.193	16116.85
798.525	15956.4
798.856	15999.57
799.188	15828.04
799.519	15822.39
799.85	15753.24
800.182	15683.64
800.513	15735.17
800.844	15512.8
801.175	15536.3
801.506	15535.62
801.837	15501.73
802.168	15454.49
802.499	15367.72
802.83	15362.52
803.161	15329.75
803.491	15272.35
803.822	15277.78
804.153	15116.2
804.483	15035.3
804.814	14984
805.145	14992.59
805.475	15052.47
805.805	14901.29
806.136	14854.74
806.466	14970.89
806.796	14821.07
807.126	14733.16
807.457	14737.45
807.787	14719.6
808.117	14686.15
808.447	14540.62
808.777	14697.23
809.107	14562.09
809.436	14532.49
809.766	14447.74
810.096	14454.3
810.426	14378.82
810.755	14404.58
811.085	14303.11
811.414	14317.58
811.744	14114.19
812.073	14204.36
812.403	14152.61
812.732	14150.12
813.061	14053.4
813.39	13988.77
813.719	13948.32
814.049	14036
814.378	13936.34
814.707	13872.84
815.036	13942.9
815.365	13791.26
815.693	13654.99
816.022	13641.89
816.351	13743.58
816.68	13609.57
817.008	13623.58
817.337	13508.11
817.665	13480.76
817.994	13554.21
818.322	13433.53
818.651	13397.83
818.979	13383.81
819.307	13409.58
819.636	13366.87
819.964	13251.39
820.292	13406.19
820.62	13317.83
820.948	13197.15
821.276	13332.74
821.604	13240.77
821.932	13279.18
822.259	13276.47
822.587	13280.09
822.915	13197.83
823.243	13307.66
823.57	13156.93
823.898	13245.06
824.225	13224.72
824.553	13217.27
824.88	13163.93
825.207	13258.62
825.535	13120.54
825.862	13225.17
826.189	13182.01
826.516	13236.7
826.843	13261.78
827.17	13254.33
827.497	13241.45
827.824	13203.93
828.151	13257.04
828.478	13118.06
828.805	13250.03
829.131	13168.68
829.458	13089.13
829.785	13106.99
830.111	13082.13
830.438	13139.98
830.764	13165.06
831.09	13199.86
831.417	13009.14
831.743	13228.79
832.069	13055.24
832.395	13037.84
832.722	13153.54
833.048	13012.75
833.374	13100.43
833.7	12953.32
834.026	13015.69
834.351	13025.18
834.677	13039.42
835.003	13038.29
835.329	12948.35
835.654	12996.25
835.98	12961.9
836.306	12961.68
836.631	12826.32
836.956	12968.01
837.282	12933.66
837.607	12851.4
837.932	12764.62
838.258	12825.19
838.583	12862.7
838.908	12763.04
839.233	12808.69
839.558	12643.5
839.883	12670.16
840.208	12612.54
840.533	12724.85
840.858	12554.68
841.182	12607.34
841.507	12643.5
841.832	12567.57
842.156	12543.84
842.481	12550.62
842.805	12433.33
843.13	12500.45
843.454	12381.36
843.778	12375.25
844.103	12321.7
844.427	12332.77
844.751	12332.54
845.075	12247.35
845.399	12224.75
845.723	12235.6
846.047	12224.52
846.371	12129.61
846.695	12100.91
847.019	11987.24
847.343	11971.2
847.666	11883.97
847.99	11785.66
848.313	11815.04
848.637	11761.94
848.96	11659.57
849.284	11712.45
849.607	11646.91
849.931	11576.18
850.254	11487.59
850.577	11410.99
850.9	11356.75
851.223	11379.8
851.546	11290.76
851.869	11256.87
852.192	11245.57
852.515	11226.36
852.838	11097.32
853.161	11129.41
853.483	11071.11
853.806	11025.68
854.129	10985.01
854.451	10955.86
854.774	10952.92
855.096	10844.9
855.419	10849.64
855.741	10835.86
856.063	10720.16
856.385	10743.66
856.708	10700.5
857.03	10666.6
857.352	10661.17
857.674	10640.16
857.996	10644
858.318	10565.81
858.64	10538.92
858.961	10550.67
859.283	10453.04
859.605	10414.85
859.926	10442.2
860.248	10424.12
860.57	10358.36
860.891	10331.24
861.212	10334.4
861.534	10265.48
861.855	10270.45
862.176	10309.77
862.498	10242.43
862.819	10163.33
863.14	10208.53
863.461	10230.9
863.782	10129.66
864.103	10160.4
864.424	10063.68
864.745	10136.44
865.065	10116.33
865.386	10124.92
865.707	10020.06
866.027	10060.06
866.348	10016.67
866.668	10000.85
866.989	9939.16
867.309	9883.57
867.63	9936.9
867.95	9904.13
868.27	9815.55
868.59	9811.48
868.91	9869.33
869.23	9877.92
869.55	9778.26
869.87	9838.37
870.19	9872.27
870.51	9827.75
870.83	9815.55
871.15	9741.88
871.469	9700.52
871.789	9736.23
872.109	9709.79
872.428	9657.36
872.748	9674.53
873.067	9679.96
873.386	9613.52
873.706	9616.68
874.025	9541.66
874.344	9574.2
874.663	9559.73
874.982	9534.42
875.301	9516.8
875.62	9556.57
875.939	9538.72
876.258	9506.18
876.577	9449.91
876.896	9491.94
877.214	9512.28
877.533	9402.9
877.852	9369.01
878.17	9403.35
878.489	9397.48
878.807	9411.49
879.125	9347.54
879.444	9341.44
879.762	9316.13
880.08	9337.59
880.398	9278.39
880.716	9231.38
881.034	9242.68
881.352	9233.19
881.67	9164.49
881.988	9222.79
882.306	9220.99
882.624	9150.03
882.941	9133.08
883.259	9082.91
883.577	9057.83
883.894	9086.07
884.212	9015.12
884.529	9013.99
884.846	8998.17
885.164	8971.5
885.481	8931.28
885.798	8976.47
886.115	8879.98
886.432	8856.7
886.75	8830.94
887.067	8869.81
887.383	8761.11
887.7	8855.12
888.017	8822.35
888.334	8766.31
888.651	8737.38
888.967	8717.95
889.284	8670.94
889.6	8646.99
889.917	8667.55
890.233	8687.89
890.55	8579.2
890.866	8621.23
891.182	8531.29
891.498	8573.77
891.815	8541.46
892.131	8479.54
892.447	8473.89
892.763	8373.55
893.079	8421.23
893.395	8423.72
893.71	8343.72
894.026	8346.21
894.342	8302.37
894.657	8261.69
894.973	8302.14
895.289	8235.02
895.604	8201.13
895.92	8185.99
896.235	8115.48
896.55	8146.21
896.865	8121.58
897.181	8103.95
897.496	8061.24
897.811	8025.76
898.126	7937.18
898.441	7975.82
898.756	7928.59
899.071	7892.43
899.386	7920.23
899.7	7816.5
900.015	7761.59
900.33	7784.19
900.644	7753
900.959	7753.91
901.273	7734.7
901.588	7702.16
901.902	7635.27
902.216	7644.98
902.531	7585.78
902.845	7592.55
903.159	7533.12
903.473	7523.18
903.787	7454.03
904.101	7474.82
904.415	7424.88
904.729	7394.14
905.042	7402.73
905.356	7342.17
905.67	7281.6
905.984	7273.01
906.297	7342.62
906.611	7236.86
906.924	7260.59
907.237	7211.1
907.551	7192.79
907.864	7132.45
908.177	7110.08
908.491	7102.85
908.804	7087.48
909.117	7030.99
909.43	7004.32
909.743	6961.84
910.056	6947.83
910.368	6912.12
910.681	6889.07
910.994	6900.14
911.307	6834.38
911.619	6764.33
911.932	6830.77
912.244	6730.2
912.557	6780.37
912.869	6664.22
913.181	6652.47
913.494	6648.85
913.806	6665.8
914.118	6553.49
914.43	6551.9
914.742	6527.5
915.054	6499.02
915.366	6496.99
915.678	6424.9
915.99	6398.01
916.302	6396.65
916.613	6331.57
916.925	6356.43
917.236	6327.96
917.548	6241.63
917.859	6282.98
918.171	6222.65
918.482	6222.65
918.794	6197.56
919.105	6175.42
919.416	6185.36
919.727	6101.75
920.038	6086.61
920.349	6040.51
920.66	6041.18
920.971	6032.82
921.282	5995.53
921.593	5989.88
921.903	5909.21
922.214	5882.54
922.525	5857.46
922.835	5879.38
923.146	5811.36
923.456	5812.04
923.767	5792.83
924.077	5769.33
924.387	5699.27
924.697	5683.68
925.008	5731.36
925.318	5673.96
925.628	5620.18
925.938	5606.84
926.248	5582.44
926.558	5597.58
926.867	5599.16
927.177	5565.26
927.487	5529.78
927.796	5455.21
928.106	5479.39
928.416	5436.91
928.725	5463.12
929.034	5404.59
929.344	5387.87
929.653	5366.17
929.962	5337.02
930.271	5246.63
930.581	5296.8
930.89	5227.42
931.199	5250.7
931.508	5210.02
931.817	5226.06
932.125	5165.95
932.434	5157.14
932.743	5111.94
933.051	5091.15
933.36	5071.49
933.669	4991.04
933.977	5038.05
934.286	5000.98
934.594	4966.41
934.902	4954.88
935.21	4910.37
935.519	4944.26
935.827	4924.38
936.135	4866.07
936.443	4838.5
936.751	4833.53
937.059	4831.27
937.367	4730.93
937.674	4768
937.982	4767.77
938.29	4761.44
938.597	4733.87
938.905	4703.82
939.213	4674.21
939.52	4619.3
939.827	4717.83
940.135	4659.07
940.442	4609.36
940.749	4566.87
941.056	4650.71
941.363	4574.1
941.67	4539.08
941.977	4496.36
942.284	4474.9
942.591	4462.47
942.898	4478.51
943.205	4456.82
943.511	4420.21
943.818	4416.59
944.125	4352.41
944.431	4363.26
944.738	4374.33
945.044	4340.89
945.35	4287.56
945.657	4222.93
945.963	4272.42
946.269	4233.32
946.575	4245.75
946.881	4192.19
947.187	4192.87
947.493	4183.38
947.799	4188.12
948.105	4144.06
948.41	4118.07
948.716	4117.62
949.022	4085.53
949.327	4040.78
949.633	4045.76
949.938	4017.06
950.244	4030.84
950.549	3986.77
950.854	3952.42
951.16	3943.39
951.465	3988.36
951.77	3932.31
952.075	3902.48
952.38	3881.01
952.685	3892.54
952.99	3858.42
953.294	3869.49
953.599	3859.55
953.904	3815.25
954.209	3798.76
954.513	3782.49
954.818	3729.61
955.122	3735.71
955.426	3700.68
955.731	3728.48
956.035	3688.48
956.339	3686.22
956.643	3676.95
956.948	3663.17
957.252	3663.39
957.556	3645.09
957.86	3590.63
958.163	3635.82
958.467	3591.08
958.771	3539.55
959.075	3574.81
959.378	3488.26
959.682	3549.05
959.985	3491.65
960.289	3511.31
960.592	3476.28
960.896	3441.93
961.199	3432.44
961.502	3425.66
961.805	3413
962.108	3397.41
962.411	3376.39
962.714	3378.65
963.017	3358.99
963.32	3304.76
963.623	3327.36
963.926	3322.61
964.228	3318.54
964.531	3301.37
964.833	3254.14
965.136	3244.87
965.438	3244.19
965.741	3245.55
966.043	3220.01
966.345	3167.36
966.648	3209.84
966.95	3210.3
967.252	3133.01
967.554	3141.6
967.856	3147.7
968.158	3116.74
968.46	3103.63
968.761	3076.74
969.063	3040.81
969.365	3073.8
969.666	3006.46
969.968	3061.83
970.269	3015.27
970.571	2978.21
970.872	3013.47
971.174	3022.05
971.475	2985.9
971.776	2997.87
972.077	2954.26
972.378	2945.45
972.679	2949.06
972.98	2951.32
973.281	2926.91
973.582	2853.92
973.883	2900.7
974.183	2864.54
974.484	2840.82
974.785	2821.61
975.085	2827.03
975.386	2818.89
975.686	2822.06
975.986	2813.92
976.287	2796.52
976.587	2767.6
976.887	2759.01
977.187	2763.98
977.487	2752
977.787	2712.23
978.087	2705.45
978.387	2714.26
978.687	2721.72
978.987	2695.73
979.286	2681.95
979.586	2617.09
979.885	2639.01
980.185	2597.66
980.484	2628.17
980.784	2581.16
981.083	2593.82
981.382	2563.08
981.682	2584.32
981.981	2556.53
982.28	2516.08
982.579	2526.47
982.878	2547.49
983.177	2517.66
983.475	2484.21
983.774	2451.45
984.073	2489.19
984.372	2462.97
984.67	2397.89
984.969	2431.33
985.267	2443.31
985.566	2413.26
985.864	2430.43
986.162	2389.3
986.461	2412.35
986.759	2370.77
987.057	2394.73
987.355	2345.69
987.653	2325.12
987.951	2352.92
988.249	2326.7
988.547	2317.44
988.844	2276.99
989.142	2322.64
989.44	2279.25
989.737	2296.2
990.035	2274.05
990.332	2279.02
990.63	2251.23
990.927	2217.78
991.224	2251.9
991.521	2240.38
991.819	2238.35
992.116	2166.71
992.413	2203.32
992.71	2173.26
993.006	2201.06
993.303	2169.42
993.6	2137.33
993.897	2164.22
994.193	2145.92
994.49	2134.84
994.787	2133.26
995.083	2098.01
995.379	2097.11
995.676	2083.55
995.972	2047.16
996.268	2065.24
996.565	2066.6
996.861	2025.47
997.157	2029.54
997.453	2029.99
997.749	2006.26
998.044	1994.06
998.34	1970.33
998.636	1977.56
998.932	1978.69
999.227	1951.12
999.523	1965.13
999.818	1942.53
1000.114	1931.46
1000.409	1906.6
1000.704	1915.42
1001	1897.11
1001.295	1883.1
1001.59	1870.22
1001.885	1878.58
1002.18	1869.32
1002.475	1849.2
1002.77	1864.12
1003.065	1834.74
1003.359	1809.2
1003.654	1800.62
1003.949	1779.37
1004.243	1792.26
1004.538	1783.22
1004.832	1768.98
1005.127	1759.71
1005.421	1747.74
1005.715	1737.12
1006.009	1727.62
1006.304	1757.68
1006.598	1698.25
1006.892	1700.96
1007.186	1707.96
1007.48	1696.66
1007.773	1697.57
1008.067	1677.23
1008.361	1665.03
1008.655	1639.04
1008.948	1655.76
1009.242	1637.91
1009.535	1621.86
1009.829	1616.44
1010.122	1606.5
1010.415	1629.55
1010.708	1600.17
1011.001	1574.86
1011.295	1564.69
1011.588	1564.24
1011.881	1555.88
1012.173	1541.41
1012.466	1497.8
1012.759	1538.93
1013.052	1529.44
1013.344	1528.99
1013.637	1516.33
1013.93	1483.11
1014.222	1498.93
1014.514	1467.97
1014.807	1457.12
1015.099	1462.32
1015.391	1449.21
1015.683	1426.39
1015.976	1444.02
1016.268	1421.42
1016.56	1412.15
1016.851	1442.21
1017.143	1378.93
1017.435	1375.32
1017.727	1375.54
1018.018	1380.51
1018.31	1389.78
1018.602	1369.67
1018.893	1341.42
1019.185	1373.74
1019.476	1350.23
1019.767	1370.35
1020.058	1312.95
1020.35	1333.96
1020.641	1333.51
1020.932	1282.66
1021.223	1282.89
1021.514	1284.02
1021.804	1280.18
1022.095	1258.26
1022.386	1268.43
1022.677	1241.31
1022.967	1226.85
1023.258	1259.16
1023.548	1212.16
1023.839	1206.96
1024.129	1206.06
1024.419	1206.51
1024.709	1216.23
1025	1171.03
1025.29	1193.4
1025.58	1174.42
1025.87	1171.93
1026.16	1175.55
1026.449	1153.63
1026.739	1153.85
1027.029	1156.79
1027.319	1121.31
1027.608	1112.72
1027.898	1109.79
1028.187	1117.92
1028.477	1098.49
1028.766	1103.46
1029.055	1085.61
1029.344	1065.49
1029.634	1077.7
1029.923	1085.83
1030.212	1058.04
1030.501	1055.55
1030.79	1091.71
1031.078	1037.47
1031.367	1045.16
1031.656	992.95
1031.945	1007.64
1032.233	1018.72
1032.522	1009.9
1032.81	995.21
1033.099	1000.19
1033.387	1002.22
1033.675	993.63
1033.963	963.58
1034.251	959.51
1034.54	985.04
1034.828	929.45
1035.116	960.41
1035.403	966.06
1035.691	927.87
1035.979	944.59
1036.267	939.85
1036.554	931.71
1036.842	920.64
1037.129	923.35
1037.417	902.79
1037.704	916.12
1037.992	914.99
1038.279	898.49
1038.566	886.52
1038.853	886.52
1039.14	886.52
