Data from hue_60_FLMS001491_83.txt Node
Date: Mon Feb 06 15:18:02 GMT 2017
User: dcchb
Spectrometer: FLMS00149
Trigger mode: 0
Integration Time (sec): 2.000000E-2
Scans to average: 10
Electric dark correction enabled: true
Nonlinearity correction enabled: false
Boxcar width: 0
XAxis mode: Wavelengths
Number of Pixels in Spectrum: 2048
>>>>>Begin Spectral Data<<<<<
341.393	4.05
341.776	4.05
342.16	4.05
342.543	-65.78
342.927	-49.05
343.31	-61.03
343.693	-42.05
344.077	-73.23
344.46	-58.54
344.843	-49.73
345.226	-41.82
345.61	-33.01
345.993	-20.35
346.376	4.51
346.759	6.31
347.142	17.39
347.525	36.37
347.908	36.82
348.291	83.15
348.674	99.87
349.057	95.35
349.44	136.25
349.823	146.2
350.206	169.47
350.588	214.44
350.971	211.73
351.354	237.27
351.737	252.86
352.119	247.89
352.502	261
352.884	278.62
353.267	272.07
353.65	286.31
354.032	290.37
354.414	298.74
354.797	312.52
355.179	338.06
355.562	325.18
355.944	312.07
356.326	332.86
356.709	321.56
357.091	349.13
357.473	334.67
357.855	331.05
358.238	331.95
358.62	332.18
359.002	338.96
359.384	343.93
359.766	338.51
360.148	338.96
360.53	352.52
360.912	336.93
361.294	340.77
361.676	359.52
362.057	342.58
362.439	328.11
362.821	326.3
363.203	333.08
363.584	352.74
363.966	342.35
364.348	341.67
364.729	325.18
365.111	341.22
365.493	315.46
365.874	319.98
366.256	325.4
366.637	325.85
367.019	318.4
367.4	322.92
367.781	322.46
368.163	326.3
368.544	306.42
368.925	298.28
369.306	324.72
369.688	310.03
370.069	326.98
370.45	328.79
370.831	333.99
371.212	311.16
371.593	325.4
371.974	312.07
372.355	306.19
372.736	300.99
373.117	316.36
373.498	319.3
373.879	319.53
374.26	328.79
374.641	307.32
375.021	326.3
375.402	329.24
375.783	319.75
376.163	314.78
376.544	330.6
376.925	325.63
377.305	325.63
377.686	335.12
378.066	327.66
378.447	330.15
378.827	341.67
379.208	332.18
379.588	336.25
379.968	342.35
380.349	338.28
380.729	346.19
381.109	328.56
381.489	338.28
381.87	361.56
382.25	352.07
382.63	331.05
383.01	339.19
383.39	338.06
383.77	347.55
384.15	332.41
384.53	345.97
384.91	336.7
385.29	328.56
385.67	338.06
386.049	345.74
386.429	351.39
386.809	347.1
387.189	352.74
387.568	350.26
387.948	377.6
388.328	365.4
388.707	368.11
389.087	354.78
389.466	359.52
389.846	375.12
390.225	366.08
390.605	350.26
390.984	346.19
391.363	376.25
391.743	360.65
392.122	364.95
392.501	369.69
392.881	360.88
393.26	380.99
393.639	373.08
394.018	373.99
394.397	370.6
394.776	355
395.155	374.21
395.534	384.83
395.913	381.22
396.292	376.25
396.671	379.64
397.05	366.76
397.429	381.22
397.808	377.38
398.186	387.55
398.565	390.03
398.944	392.52
399.323	389.58
399.701	377.15
400.08	384.61
400.458	401.56
400.837	398.39
401.215	403.37
401.594	401.56
401.972	417.38
402.351	392.74
402.729	389.58
403.107	377.83
403.486	404.72
403.864	401.56
404.242	395.91
404.62	410.14
404.999	422.8
405.377	409.47
405.755	404.5
406.133	415.79
406.511	391.84
406.889	392.97
407.267	423.25
407.645	404.27
408.023	417.83
408.401	416.02
408.779	439.52
409.156	442.46
409.534	398.85
409.912	416.7
410.29	440.2
410.667	433.65
411.045	445.4
411.422	438.62
411.8	446.75
412.178	423.25
412.555	452.86
412.933	468.22
413.31	440.2
413.687	450.6
414.065	454.89
414.442	437.26
414.819	459.18
415.197	463.93
415.574	475.23
415.951	468.9
416.328	489.01
416.705	471.39
417.082	454.21
417.46	461.67
417.837	502.57
418.214	474.32
418.591	495.79
418.967	475.91
419.344	487.43
419.721	504.15
420.098	487.2
420.475	509.8
420.852	504.15
421.228	505.96
421.605	519.97
421.982	496.24
422.358	512.29
422.735	511.38
423.111	494.44
423.488	524.27
423.864	527.88
424.241	529.01
424.617	545.73
424.994	514.55
425.37	547.09
425.746	540.76
426.123	545.51
426.499	548.45
426.875	522.23
427.251	527.88
427.627	562.23
428.003	566.07
428.379	558.16
428.756	560.2
429.132	564.04
429.507	571.95
429.883	574.21
430.259	574.66
430.635	597.03
431.011	601.1
431.387	580.76
431.763	601.78
432.138	581.44
432.514	606.3
432.89	605.39
433.265	622.57
433.641	610.59
434.016	606.07
434.392	622.12
434.767	625.05
435.143	649.01
435.518	627.31
435.894	624.83
436.269	645.84
436.644	646.75
437.02	664.6
437.395	676.8
437.77	665.51
438.145	661.21
438.52	663.25
438.895	680.87
439.271	682.68
439.646	699.85
440.021	702.57
440.395	701.66
440.77	702.57
441.145	702.79
441.52	728.55
441.895	726.97
442.27	723.81
442.645	737.59
443.019	721.32
443.394	724.49
443.769	728.78
444.143	756.8
444.518	728.1
444.892	740.31
445.267	737.59
445.641	759.97
446.016	773.98
446.39	765.84
446.764	755.67
447.139	761.55
447.513	782.11
447.887	762.45
448.262	774.65
448.636	777.37
449.01	799.96
449.384	787.54
449.758	760.42
450.132	807.65
450.506	810.13
450.88	825.73
451.254	817.37
451.628	806.97
452.002	822.79
452.376	824.6
452.75	837.48
453.123	848.55
453.497	876.57
453.871	857.14
454.244	862.56
454.618	858.04
454.992	898.72
455.365	872.51
455.739	898.04
456.112	917.48
456.486	915.67
456.859	931.26
457.232	923.35
457.606	913.63
457.979	955.21
458.352	948.21
458.725	959.06
459.099	982.33
459.472	1001.32
459.845	1022.33
460.218	1013.97
460.591	1014.65
460.964	1023.46
461.337	1039.05
461.71	1062.56
462.083	1080.41
462.456	1085.61
462.829	1093.74
463.201	1112.27
463.574	1096.45
463.947	1107.98
464.32	1141.42
464.692	1171.25
465.065	1159.96
465.438	1176
465.81	1203.34
466.183	1213.51
466.555	1245.15
466.928	1247.18
467.3	1261.42
467.672	1307.75
468.045	1325.6
468.417	1331.02
468.789	1356.56
469.161	1338.03
469.534	1384.58
469.906	1395.66
470.278	1419.61
470.65	1470.23
471.022	1504.58
471.394	1546.39
471.766	1538.48
472.138	1566.72
472.51	1614.18
472.882	1651.69
473.253	1651.92
473.625	1674.29
473.997	1768.07
474.369	1775.08
474.74	1811.92
475.112	1866.15
475.484	1900.05
475.855	1983.44
476.227	1978.01
476.598	2045.58
476.97	2087.61
477.341	2150.21
477.713	2169.19
478.084	2246.48
478.455	2319.25
478.827	2382.07
479.198	2493.93
479.569	2500.03
479.94	2583.42
480.311	2695.28
480.682	2742.51
481.053	2849.85
481.424	2928.04
481.795	3027.7
482.166	3080.81
482.537	3188.83
482.908	3257.98
483.279	3368.03
483.65	3460.91
484.021	3576.61
484.391	3649.83
484.762	3785.2
485.133	3833.33
485.503	3989.94
485.874	4099.09
486.244	4197.16
486.615	4303.6
486.985	4411.17
487.356	4603.93
487.726	4681.44
488.097	4824.49
488.467	4947.43
488.837	5097.03
489.207	5247.98
489.578	5361.2
489.948	5458.83
490.318	5654.98
490.688	5756.67
491.058	5943.56
491.428	6089.54
491.798	6216.77
492.168	6417.44
492.538	6544.67
492.908	6664.9
493.278	6874.38
493.648	6965.45
494.017	7126.35
494.387	7287.03
494.757	7478.66
495.126	7660.12
495.496	7725.43
495.866	7922.04
496.235	8057.85
496.605	8204.97
496.974	8368.81
497.344	8567.44
497.713	8748
498.082	8816.25
498.452	8972.63
498.821	9140.54
499.19	9286.75
499.559	9410.59
499.928	9553.63
500.298	9712.5
500.667	9894.41
501.036	9941.65
501.405	10144.35
501.774	10206.72
502.143	10465.25
502.512	10528.52
502.88	10791.34
503.249	10838.12
503.618	10984.56
503.987	11098.9
504.356	11254.83
504.724	11386.35
505.093	11556.52
505.462	11570.53
505.83	11807.81
506.199	11948.15
506.567	12180.23
506.936	12310.4
507.304	12468.36
507.672	12542.03
508.041	12715.58
508.409	12886.88
508.777	13015.46
509.145	13145.63
509.514	13245.06
509.882	13418.39
510.25	13416.81
510.618	13683.69
510.986	13813.63
511.354	13988.77
511.722	13998.26
512.09	14291.81
512.458	14234.64
512.826	14471.47
513.193	14557.12
513.561	14760.05
513.929	14868.07
514.297	14997.78
514.664	15140.38
515.032	15252.47
515.4	15444.1
515.767	15578.56
516.135	15603.87
516.502	15602.74
516.869	15912.11
517.237	16079.34
517.604	16012.45
517.972	16317.07
518.339	16465.09
518.706	16498.31
519.073	16637.51
519.44	16700.34
519.808	16911.18
520.175	17032.76
520.542	17296.71
520.909	17431.39
521.276	17482.01
521.643	17684.27
522.009	17761.1
522.376	17961.55
522.743	18066.63
523.11	18296.68
523.477	18493.74
523.843	18510.01
524.21	18743.22
524.577	18913.39
524.943	18909.77
525.31	19154.74
525.676	19370.1
526.043	19428.63
526.409	19537.33
526.776	19823.65
527.142	19856.19
527.508	19994.26
527.874	20070.64
528.241	20262.73
528.607	20380.24
528.973	20574.81
529.339	20575.72
529.705	20817.74
530.071	20945.65
530.437	20983.84
530.803	21161.01
531.169	21303.38
531.535	21297.73
531.901	21432.64
532.267	21525.75
532.632	21672.86
532.998	21733.88
533.364	21994.21
533.73	21998.28
534.095	22047.77
534.461	22245.95
534.826	22356.23
535.192	22464.93
535.557	22651.59
535.923	22754.87
536.288	22626.51
536.653	22864.02
537.019	22793.28
537.384	22960.96
537.749	23025.82
538.114	23166.61
538.479	23193.95
538.845	23215.42
539.21	23303.1
539.575	23435.53
539.94	23483.21
540.305	23630.55
540.67	23660.38
541.034	23658.35
541.399	23862.64
541.764	23944.22
542.129	23989.19
542.494	24025.12
542.858	24122.74
543.223	24178.79
543.587	24336.3
543.952	24368.16
544.316	24417.65
544.681	24473.92
545.045	24630.75
545.41	24813.34
545.774	24786.68
546.138	24731.54
546.503	24867.35
546.867	24904.42
547.231	25241.36
547.595	25224.41
547.959	25226.22
548.324	25368.13
548.688	25392.09
549.052	25381.24
549.416	25454.01
549.779	25576.26
550.143	25583.95
550.507	25737.39
550.871	25817.61
551.235	26010.83
551.599	26192.52
551.962	26275.45
552.326	26261.67
552.689	26415.79
553.053	26291.27
553.417	26376.02
553.78	26729.68
554.143	26748.66
554.507	26804.03
554.87	26794.54
555.234	27133.74
555.597	26990.46
555.96	27126.05
556.323	27345.48
556.686	27228.65
557.05	27545.93
557.413	27587.06
557.776	27613.95
558.139	27838.12
558.502	27826.15
558.865	27880.83
559.228	28131
559.59	28247.38
559.953	28268.17
560.316	28523.53
560.679	28598.1
561.041	28725.11
561.404	28909.96
561.767	28995.16
562.129	29038.77
562.492	29269.72
562.854	29257.75
563.217	29367.8
563.579	29507.68
563.941	29642.37
564.304	29875.58
564.666	30043.94
565.028	30204.39
565.39	30171.17
565.753	30417.49
566.115	30468.56
566.477	30555.57
566.839	30638.95
567.201	30821.77
567.563	30883.24
567.925	31065.38
568.287	31040.3
568.648	31120.52
569.01	31385.38
569.372	31554.86
569.734	31454.3
570.095	31682.77
570.457	31739.26
570.819	31899.71
571.18	31902.42
571.542	32039.6
571.903	32105.81
572.265	32358.23
572.626	32393.94
572.987	32338.34
573.349	32502.63
573.71	32706.7
574.071	32681.39
574.432	32851.33
574.794	33129.51
575.155	32981.49
575.516	32991.21
575.877	33123.86
576.238	33064.2
576.599	33374.93
576.96	33306.68
577.32	33439.33
577.681	33572.66
578.042	33527.24
578.403	33685.88
578.763	33628.25
579.124	33817.85
579.485	33875.03
579.845	33976.49
580.206	33896.27
580.566	33836.38
580.927	33902.6
581.287	34056.72
581.648	33852.66
582.008	34027.57
582.368	34158.41
582.728	34127.68
583.089	34219.65
583.449	34244.74
583.809	34279.54
584.169	34338.07
584.529	34239.54
584.889	34579.19
585.249	34347.56
585.609	34119.99
585.969	34410.38
586.329	34453.09
586.688	34411.28
587.048	34459.64
587.408	34344.62
587.768	34491.51
588.127	34389.82
588.487	34298.52
588.846	34416.93
589.206	34279.76
589.565	34537.38
589.925	34482.02
590.284	34516.59
590.643	34565.63
591.003	34677.04
591.362	34784.61
591.721	34651.73
592.08	34764.27
592.44	34769.02
592.799	34822.12
593.158	34717.72
593.517	34734.67
593.876	34917.26
594.235	34809.69
594.593	34747.77
594.952	34810.82
595.311	34781.44
595.67	34792.07
596.029	35058.27
596.387	35073.87
596.746	35153.41
597.104	35103.02
597.463	34952.06
597.822	35222.11
598.18	35175.11
598.538	35097.14
598.897	35292.84
599.255	35086.97
599.613	35470.47
599.972	35251.94
600.33	35391.37
600.688	35274.54
601.046	35477.47
601.404	35621.65
601.762	35504.82
602.12	35653.96
602.478	35704.36
602.836	35767.86
603.194	35607.41
603.552	35724.24
603.91	35704.58
604.268	35883.79
604.625	35628.2
604.983	35907.29
605.341	35659.39
605.698	35910
606.056	36084.23
606.413	36102.99
606.771	36237.9
607.128	36291.01
607.485	36094.4
607.843	36114.06
608.2	36441.74
608.557	36479.25
608.914	36382.31
609.272	36468.86
609.629	36621.17
609.986	36774.39
610.343	36608.74
610.7	36865.01
611.057	36877.21
611.414	36854.61
611.771	36931.44
612.127	37069.52
612.484	37030.2
612.841	37167.14
613.198	37126.92
613.554	37112.91
613.911	37398.1
614.267	37358.33
614.624	37332.56
614.98	37483.07
615.337	37641.48
615.693	37524.42
616.05	37391.77
616.406	37794.02
616.762	37610.07
617.118	37599
617.475	37629.28
617.831	37699.11
618.187	37812.55
618.543	37894.81
618.899	38077.85
619.255	38085.76
619.611	38106.1
619.967	38172.77
620.323	38267.23
620.678	38236.49
621.034	38013.9
621.39	38196.95
621.746	38087.12
622.101	38604.17
622.457	38364.63
622.812	38366.89
623.168	38459.77
623.523	38465.64
623.879	38586.99
624.234	38256.38
624.589	38475.58
624.945	38497.73
625.3	38542.93
625.655	38653.88
626.01	38599.87
626.365	38673.55
626.72	38719.42
627.075	38696.14
627.43	38538.86
627.785	38663.38
628.14	38681.23
628.495	38699.31
628.85	38666.31
629.205	38496.37
629.559	38843.03
629.914	38620.44
630.269	38791.73
630.623	38579.31
630.978	38545.19
631.332	38595.36
631.687	38709.02
632.041	38705.41
632.396	38595.58
632.75	38533.89
633.104	38733.43
633.459	38455.7
633.813	38584.73
634.167	38583.38
634.521	38454.57
634.875	38490.73
635.229	38406.66
635.583	38334.35
635.937	38380.45
636.291	38442.82
636.645	38365.76
636.999	38153.11
637.352	38306.78
637.706	38075.59
638.06	38233.78
638.413	38114.92
638.767	38275.36
639.121	38242.37
639.474	38019.78
639.828	37968.93
640.181	38089.61
640.534	38077.85
640.888	38102.94
641.241	38001.92
641.594	38110.85
641.947	38056.84
642.301	37855.49
642.654	37921.7
643.007	37897.29
643.36	37920.34
643.713	37759.9
644.066	38024.75
644.419	37770.97
644.771	37495.05
645.124	37159.69
645.477	36999.69
645.83	36876.08
646.182	36770.77
646.535	36614.62
646.888	36734.39
647.24	36571.45
647.593	36809.87
647.945	36697.33
648.298	36494.62
648.65	36493.26
649.002	36385.92
649.355	36630.44
649.707	36422.08
650.059	36660.72
650.411	37038.79
650.763	36978.45
651.115	37462.28
651.467	37284.43
651.819	37166.01
652.171	37266.58
652.523	37105.9
652.875	37158.78
653.227	37052.34
653.578	37307.25
653.93	37162.62
654.282	37073.81
654.633	37057.77
654.985	37017.77
655.337	37020.93
655.688	36936.42
656.039	37140.25
656.391	36797.89
656.742	36901.16
657.094	37026.58
657.445	36975.96
657.796	36919.24
658.147	36838.57
658.498	36780.94
658.849	37034.27
659.2	36833.59
659.551	36766.48
659.902	36954.95
660.253	36853.71
660.604	36846.02
660.955	36857.77
661.306	36831.79
661.656	36775.74
662.007	36686.7
662.358	36773.26
662.708	36768.96
663.059	36845.57
663.409	36496.43
663.76	36756.99
664.11	36787.49
664.461	36742.52
664.811	36740.94
665.161	36812.58
665.511	36597.44
665.862	36628.18
666.212	36676.76
666.562	36772.13
666.912	36836.53
667.262	36653.49
667.612	36661.85
667.962	36570.1
668.312	36528.29
668.662	36676.99
669.011	36663.2
669.361	36606.71
669.711	36580.94
670.06	36501.85
670.41	36567.61
670.76	36481.06
671.109	36528.52
671.459	36486.48
671.808	36428.18
672.157	36591.34
672.507	36167.4
672.856	36219.37
673.205	36289.65
673.554	36508.18
673.904	36215.3
674.253	36555.18
674.602	36310.44
674.951	35868.2
675.3	35687.64
675.649	36303.44
675.998	36178.47
676.346	36180.05
676.695	36286.49
677.044	35976.22
677.393	35973.5
677.741	36223.67
678.09	36010.56
678.438	35919.49
678.787	35898.25
679.135	35980.28
679.484	35791.59
679.832	35919.95
680.181	35693.51
680.529	35932.6
680.877	35814.41
681.225	35708.88
681.573	35889.21
681.922	35648.99
682.27	35653.96
682.618	35580.52
682.966	35467.75
683.314	35554.53
683.661	35436.12
684.009	35358.38
684.357	35293.3
684.705	35145.95
685.053	35354.08
685.4	35152.51
685.748	35036.35
686.095	35070.93
686.443	34993.42
686.79	34971.72
687.138	34951.38
687.485	34927.43
687.832	34785.29
688.18	34678.85
688.527	34561.56
688.874	34569.92
689.221	34632.75
689.568	34457.84
689.915	34264.62
690.262	34409.48
690.609	34370.16
690.956	34223.72
691.303	34210.84
691.65	33972.88
691.997	34013.1
692.344	33773.56
692.69	33628.25
693.037	33843.84
693.383	33482.27
693.73	33692.89
694.077	33405.21
694.423	33364.08
694.769	33253.12
695.116	33184.2
695.462	33178.55
695.808	33068.95
696.155	33037.54
696.501	32859.91
696.847	32953.7
697.193	32664.21
697.539	32809.29
697.885	32441.17
698.231	32452.01
698.577	32467.61
698.923	32375.41
699.269	32309.64
699.614	32080.95
699.96	32155.75
700.306	32059.93
700.651	31939.26
700.997	31933.84
701.342	31836.44
701.688	31691.13
702.033	31714.63
702.379	31663.79
702.724	31553.51
703.069	31473.73
703.415	31311.93
703.76	31320.97
704.105	31351.93
704.45	31223.12
704.795	31018.38
705.14	30925.27
705.485	30965.05
705.83	30710.36
706.175	30792.85
706.52	30665.62
706.865	30501.33
707.209	30526.41
707.554	30440.77
707.899	30431.5
708.243	30384.05
708.588	30358.06
708.932	30075.81
709.277	30052.53
709.621	30204.39
709.966	30012.3
710.31	29967.79
710.654	29792.65
710.998	29756.27
711.342	29833.1
711.687	29766.21
712.031	29566.89
712.375	29513.56
712.719	29470.4
713.063	29531.41
713.407	29581.81
713.75	29357.41
714.094	29361.25
714.438	29216.17
714.782	29228.82
715.125	29157.86
715.469	29136.17
715.812	29073.12
716.156	28859.34
716.499	28828.15
716.843	28947.25
717.186	28657.31
717.53	28808.04
717.873	28723.98
718.216	28722.85
718.559	28600.14
718.902	28469.75
719.246	28507.03
719.589	28351.78
719.932	28335.51
720.275	28350.2
720.617	28340.26
720.96	28343.2
721.303	28187.27
721.646	28182.52
721.989	28057.1
722.331	28162.64
722.674	27988.85
723.016	28036.76
723.359	27927.61
723.701	27984.11
724.044	27752.25
724.386	27628.86
724.729	27712.7
725.071	27661.86
725.413	27692.37
725.755	27744.34
726.097	27481.75
726.439	27354.52
726.782	27481.98
727.124	27618.47
727.465	27312.26
727.807	27394.52
728.149	27205.37
728.491	27177.12
728.833	27251.02
729.175	27158.59
729.516	27079.05
729.858	27064.81
730.199	27077.01
730.541	26948.88
730.882	26934.87
731.224	27084.25
731.565	26808.55
731.906	26820.07
732.248	26842.9
732.589	26742.33
732.93	26584.37
733.271	26646.97
733.612	26487.2
733.953	26663.47
734.294	26546.41
734.635	26527.88
734.976	26573.98
735.317	26300.54
735.658	26356.81
735.999	26507.31
736.339	26405.85
736.68	26321.78
737.021	26163.82
737.361	26172.86
737.702	26351.16
738.042	26173.76
738.383	26142.8
738.723	26176.47
739.063	25993.2
739.404	25970.38
739.744	25969.92
740.084	25894.22
740.424	26029.81
740.764	25835.46
741.104	25880.66
741.444	25772.87
741.784	25609.93
742.124	25658.97
742.464	25740.78
742.804	25646.32
743.143	25523.16
743.483	25590.95
743.823	25574.91
744.162	25475.25
744.502	25562.25
744.841	25331.98
745.181	25547.79
745.52	25367
745.86	25298.53
746.199	25275.03
746.538	25258.76
746.877	25335.14
747.216	25213.33
747.556	24996.84
747.895	25050.4
748.234	25003.85
748.573	25000.91
748.911	25030.51
749.25	24990.06
749.589	24927.01
749.928	24906
750.267	24945.09
750.605	24796.85
750.944	24796.4
751.283	24771.31
751.621	24647.02
751.96	24557.31
752.298	24500.36
752.636	24521.6
752.975	24350.53
753.313	24217.65
753.651	24452
753.989	24140.14
754.327	24229.41
754.666	24047.49
755.004	24107.6
755.342	24116.41
755.679	24139.24
756.017	23923.88
756.355	24039.13
756.693	23902.41
757.031	24018.56
757.368	23781.73
757.706	23709.87
758.044	23586.71
758.381	23736.08
758.719	23515.53
759.056	23616.77
759.394	23546.49
759.731	23426.94
760.068	23245.7
760.405	23172.03
760.743	23067.63
761.08	23233.73
761.417	23050
761.754	23086.38
762.091	22998.25
762.428	22761.42
762.765	22798.48
763.102	22783.57
763.438	22735.89
763.775	22566.62
764.112	22537.7
764.449	22548.77
764.785	22434.42
765.122	22352.84
765.458	22238.27
765.795	22284.15
766.131	22135.9
766.467	22105.85
766.804	22018.16
767.14	21957.83
767.476	21963.25
767.812	21755.12
768.148	21791.96
768.485	21685.97
768.821	21532.98
769.157	21584.73
769.492	21474.22
769.828	21499.76
770.164	21230.61
770.5	21119.88
770.836	21169.37
771.171	21114.91
771.507	21101.35
771.842	20831.98
772.178	20878.31
772.513	20823.39
772.849	20751.08
773.184	20660.01
773.519	20610.97
773.855	20537.75
774.19	20512.67
774.525	20447.81
774.86	20431.77
775.195	20290.07
775.53	20184.31
775.865	20048.5
776.2	19999.23
776.535	19843.76
776.87	19904.77
777.205	19840.59
777.539	19698.22
777.874	19806.47
778.209	19535.74
778.543	19513.6
778.878	19350.89
779.212	19451
779.547	19332.58
779.881	19348.63
780.215	19119.94
780.55	19135.75
780.884	19107.28
781.218	18961.75
781.552	19002.42
781.886	18858.7
782.22	18745.93
782.554	18761.3
782.888	18584.36
783.222	18519.72
783.556	18378.49
783.889	18428.65
784.223	18281.09
784.557	18333.06
784.89	18257.58
785.224	18194.08
785.557	18117.7
785.891	18036.8
786.224	18010.36
786.558	18002.9
786.891	17773.3
787.224	17783.93
787.557	17644.49
787.891	17671.16
788.224	17611.73
788.557	17584.61
788.89	17542.12
789.223	17406.08
789.556	17305.52
789.888	17263.94
790.221	17239.31
790.554	17116.15
790.887	17101.46
791.219	17150.5
791.552	17026.88
791.884	17034.79
792.217	16923.61
792.549	16807.91
792.882	16736.95
793.214	16655.14
793.546	16699.89
793.879	16635.93
794.211	16476.84
794.543	16486.78
794.875	16464.19
795.207	16510.29
795.539	16480.91
795.871	16422.38
796.203	16176.51
796.535	16197.53
796.867	16085.21
797.198	16047.7
797.53	16042.05
797.862	15895.61
798.193	15946.01
798.525	15794.15
798.856	15767.93
799.188	15714.6
799.519	15601.38
799.85	15580.37
800.182	15592.34
800.513	15544.89
800.844	15406.13
801.175	15482.74
801.506	15401.39
801.837	15342.63
802.168	15365.46
802.499	15324.33
802.83	15141.73
803.161	15151.9
803.491	15153.26
803.822	15101.51
804.153	15002.98
804.483	14853.83
804.814	14938.35
805.145	14867.62
805.475	14807.28
805.805	14804.34
806.136	14757.34
806.466	14722.76
806.796	14694.06
807.126	14595.76
807.457	14505.59
807.787	14512.15
808.117	14397.57
808.447	14403.9
808.777	14412.94
809.107	14349.67
809.436	14310.34
809.766	14287.29
810.096	14294.98
810.426	14216.79
810.755	14261.53
811.085	14197.13
811.414	14107.86
811.744	14059.05
812.073	13914.65
812.403	14040.07
812.732	14004.14
813.061	13878.27
813.39	13849.11
813.719	13761.43
814.049	13857.25
814.378	13854.31
814.707	13763.01
815.036	13735.44
815.365	13698.83
815.693	13515.11
816.022	13569.12
816.351	13456.36
816.68	13493.87
817.008	13545.39
817.337	13379.97
817.665	13340.2
817.994	13412.51
818.322	13411.84
818.651	13224.04
818.979	13283.25
819.307	13280.09
819.636	13151.73
819.964	13143.37
820.292	13145.18
820.62	13220.66
820.948	13174.78
821.276	13177.27
821.604	13135.23
821.932	13120.77
822.259	13106.31
822.587	13056.82
822.915	13019.53
823.243	13203.25
823.57	13072.86
823.898	13119.19
824.225	13065.63
824.553	13044.61
824.88	13045.52
825.207	13086.2
825.535	13038.06
825.862	13039.19
826.189	13017.04
826.516	13016.37
826.843	13059.53
827.17	13029.47
827.497	13131.62
827.824	13084.16
828.151	13079.19
828.478	13055.91
828.805	13039.19
829.131	12968.46
829.458	12975.01
829.785	12907.9
830.111	12984.05
830.438	13031.73
830.764	12950.83
831.09	12963.03
831.417	12944.5
831.743	12968.46
832.069	12985.41
832.395	13000.1
832.722	12930.04
833.048	12975.92
833.374	12984.5
833.7	12851.17
834.026	12884.62
834.351	12928.69
834.677	12920.32
835.003	12825.19
835.329	12894.11
835.654	12790.84
835.98	12813.43
836.306	12876.48
836.631	12730.95
836.956	12838.74
837.282	12746.09
837.607	12733.44
837.932	12684.85
838.258	12655.25
838.583	12645.53
838.908	12676.71
839.233	12617.73
839.558	12593.1
839.883	12533.44
840.208	12467.91
840.533	12476.72
840.858	12547.23
841.182	12491.86
841.507	12498.87
841.832	12386.55
842.156	12371.86
842.481	12378.64
842.805	12418.87
843.13	12266.33
843.454	12307.46
843.778	12265.2
844.103	12246.44
844.427	12226.33
844.751	12152.21
845.075	12105.2
845.399	12096.39
845.723	12002.61
846.047	12051.19
846.371	11949.95
846.695	11967.13
847.019	11822.05
847.343	11766.23
847.666	11764.42
847.99	11727.36
848.313	11615.05
848.637	11665.22
848.96	11641.04
849.284	11562.39
849.607	11460.02
849.931	11456.63
850.254	11390.65
850.577	11265.45
850.9	11191.1
851.223	11241.27
851.546	11214.38
851.869	11083.99
852.192	11133.03
852.515	11040.37
852.838	11003.54
853.161	10944.56
853.483	10985.91
853.806	10859.59
854.129	10844.9
854.451	10838.34
854.774	10757.44
855.096	10764.67
855.419	10676.09
855.741	10691.91
856.063	10634.28
856.385	10702.76
856.708	10585.47
857.03	10524
857.352	10596.77
857.674	10539.14
857.996	10455.53
858.318	10436.55
858.64	10400.62
858.961	10375.76
859.283	10317.68
859.605	10297.57
859.926	10321.97
860.248	10284.46
860.57	10258.93
860.891	10217.8
861.212	10192.03
861.534	10160.4
861.855	10151.13
862.176	10136.89
862.498	10168.31
862.819	10105.93
863.14	10132.83
863.461	10079.72
863.782	9980.97
864.103	10036.78
864.424	10001.76
864.745	9915.88
865.065	9960.18
865.386	9950.68
865.707	9874.75
866.027	9925.37
866.348	9856.45
866.668	9887.18
866.989	9838.82
867.309	9806.51
867.63	9797.47
867.95	9761.31
868.27	9698.94
868.59	9789.56
868.91	9731.03
869.23	9660.3
869.55	9685.38
869.87	9729.45
870.19	9621.88
870.51	9668.88
870.83	9760.41
871.15	9594.08
871.469	9640.64
871.789	9655.33
872.109	9631.6
872.428	9547.76
872.748	9620.52
873.067	9531.49
873.386	9560.64
873.706	9585.5
874.025	9497.82
874.344	9472.96
874.663	9493.3
874.982	9416.01
875.301	9440.19
875.62	9417.37
875.939	9381.89
876.258	9397.93
876.577	9280.42
876.896	9373.07
877.214	9238.61
877.533	9320.19
877.852	9279.52
878.17	9353.64
878.489	9308.44
878.807	9258.73
879.125	9269.35
879.444	9259.63
879.762	9214.21
880.08	9199.97
880.398	9142.57
880.716	9173.76
881.034	9146.64
881.352	9123.36
881.67	9098.05
881.988	9155.9
882.306	9059.86
882.624	9075
882.941	8978.05
883.259	8940.54
883.577	8984.61
883.894	8939.19
884.212	8972.63
884.529	8881.11
884.846	8909.13
885.164	8908.45
885.481	8836.36
885.798	8826.42
886.115	8829.81
886.432	8786.65
886.75	8758.4
887.067	8726.31
887.383	8777.61
887.7	8701
888.017	8704.39
888.334	8694.67
888.651	8681.57
888.967	8628.23
889.284	8614.22
889.6	8557.95
889.917	8516.15
890.233	8551.63
890.55	8532.64
890.866	8583.71
891.182	8418.3
891.498	8421.91
891.815	8458.29
892.131	8376.26
892.447	8374
892.763	8370.39
893.079	8311.63
893.395	8247.9
893.71	8240.9
894.026	8245.19
894.342	8272.31
894.657	8166.1
894.973	8151.86
895.289	8144.63
895.604	8114.57
895.92	8126.1
896.235	8058.53
896.55	8089.04
896.865	8032.32
897.181	7999.1
897.496	7951.87
897.811	7917.74
898.126	7887.69
898.441	7848.82
898.756	7910.96
899.071	7853.79
899.386	7884.98
899.7	7769.05
900.015	7721.82
900.33	7683.85
900.644	7697.18
900.959	7695.15
901.273	7602.95
901.588	7640.24
901.902	7470.3
902.216	7524.53
902.531	7481.82
902.845	7475.04
903.159	7452.67
903.473	7392.56
903.787	7352.79
904.101	7329.28
904.415	7345.1
904.729	7393.01
905.042	7254.26
905.356	7226.01
905.67	7202.51
905.984	7224.65
906.297	7155.96
906.611	7113.92
906.924	7160.02
907.237	7083.64
907.551	7114.83
907.864	7085
908.177	6994.15
908.491	6990.99
908.804	6993.47
909.117	6888.62
909.43	6935.62
909.743	6885.45
910.056	6873.03
910.368	6813.14
910.681	6801.39
910.994	6799.81
911.307	6774.05
911.619	6684.1
911.932	6699.92
912.244	6643.65
912.557	6669.87
912.869	6590.32
913.181	6587.38
913.494	6581.96
913.806	6481.17
914.118	6519.14
914.43	6498.35
914.742	6452.25
915.054	6460.83
915.366	6358.69
915.678	6390.1
915.99	6309.2
916.302	6297
916.613	6216.32
916.925	6265.81
917.236	6327.96
917.548	6204.12
917.859	6232.14
918.171	6156.89
918.482	6112.14
918.794	6139.03
919.105	6124.8
919.416	6051.58
919.727	6100.39
920.038	6072.37
920.349	6002.31
920.66	5940.39
920.971	5948.76
921.282	5925.71
921.593	5863.79
921.903	5877.35
922.214	5867.85
922.525	5869.89
922.835	5791.25
923.146	5747.86
923.456	5741.98
923.767	5673.96
924.077	5689.1
924.387	5663.11
924.697	5635.77
925.008	5680.51
925.318	5603.23
925.628	5604.36
925.938	5571.82
926.248	5529.33
926.558	5492.95
926.867	5487.3
927.177	5512.61
927.487	5430.35
927.796	5346.96
928.106	5450.46
928.416	5363.69
928.725	5333.63
929.034	5342.67
929.344	5274.2
929.653	5288.66
929.962	5233.97
930.271	5224.71
930.581	5189.23
930.89	5141.09
931.199	5105.16
931.508	5172.96
931.817	5130.7
932.125	5157.14
932.434	5118.27
932.743	5049.12
933.051	5012.51
933.36	5008.44
933.669	4946.3
933.977	4972.06
934.286	4983.58
934.594	4933.42
934.902	4883.25
935.21	4881.44
935.519	4905.85
935.827	4851.61
936.135	4836.02
936.443	4770.26
936.751	4775.23
937.059	4738.62
937.367	4781.33
937.674	4716.92
937.982	4710.14
938.29	4683.25
938.597	4681.9
938.905	4646.64
939.213	4619.98
939.52	4622.92
939.827	4642.12
940.135	4599.19
940.442	4622.46
940.749	4540.66
941.056	4531.39
941.363	4479.64
941.67	4458.85
941.977	4461.79
942.284	4459.53
942.591	4412.98
942.898	4378.4
943.205	4352.87
943.511	4357.39
943.818	4390.6
944.125	4318.74
944.431	4298.63
944.738	4259.76
945.044	4290.49
945.35	4272.64
945.657	4192.19
945.963	4251.63
946.269	4168.69
946.575	4205.07
946.881	4132.76
947.187	4180.67
947.493	4151.97
947.799	4108.35
948.105	4053.21
948.41	4056.83
948.716	4067.22
949.022	4035.81
949.327	4018.64
949.633	3955.81
949.938	3998.52
950.244	3934.8
950.549	3960.11
950.854	3932.31
951.16	3901.8
951.465	3906.1
951.77	3921.01
952.075	3855.48
952.38	3811.64
952.685	3821.81
952.99	3796.5
953.294	3761.47
953.599	3765.31
953.904	3790.85
954.209	3746.55
954.513	3690.28
954.818	3718.31
955.122	3695.48
955.426	3656.84
955.731	3661.58
956.035	3671.53
956.339	3642.15
956.643	3671.98
956.948	3555.82
957.252	3602.38
957.556	3567.12
957.86	3547.46
958.163	3492.1
958.467	3554.69
958.771	3524.64
959.075	3518.99
959.378	3502.04
959.682	3483.06
959.985	3451.19
960.289	3424.08
960.592	3431.53
960.896	3431.76
961.199	3429.5
961.502	3375.04
961.805	3352.67
962.108	3369.39
962.411	3375.04
962.714	3333.68
963.017	3328.49
963.32	3326.45
963.623	3309.73
963.926	3294.36
964.228	3266.34
964.531	3220.47
964.833	3242.84
965.136	3225.44
965.438	3189.73
965.741	3192.44
966.043	3200.13
966.345	3198.55
966.648	3154.71
966.95	3141.82
967.252	3104.54
967.554	3119
967.856	3099.57
968.158	3062.96
968.46	3041.71
968.761	3062.05
969.063	3039
969.365	3017.76
969.666	3019.34
969.968	2975.05
970.269	2968.04
970.571	3005.78
970.872	2972.56
971.174	2980.92
971.475	2907.03
971.776	2942.51
972.077	2907.03
972.378	2895.5
972.679	2886.69
972.98	2857.09
973.281	2863.87
973.582	2859.57
973.883	2847.82
974.183	2817.54
974.484	2824.54
974.785	2823.41
975.085	2750.65
975.386	2794.49
975.686	2772.79
975.986	2750.2
976.287	2700.71
976.587	2707.94
976.887	2718.11
977.187	2716.3
977.487	2687.6
977.787	2671.33
978.087	2654.61
978.387	2676.3
978.687	2658.22
978.987	2645.57
979.286	2601.73
979.586	2636.98
979.885	2604.21
980.185	2595.17
980.484	2573.25
980.784	2556.53
981.083	2585
981.382	2552.69
981.682	2538.68
981.981	2507.26
982.28	2507.49
982.579	2503.87
982.878	2504.55
983.177	2479.24
983.475	2449.19
983.774	2421.39
984.073	2454.61
984.372	2446.25
984.67	2451.22
984.969	2402.63
985.267	2425.68
985.566	2376.42
985.864	2375.52
986.162	2380.04
986.461	2362.64
986.759	2385.69
987.057	2337.1
987.355	2348.17
987.653	2324.67
987.951	2311.56
988.249	2294.39
988.547	2320.38
988.844	2331.68
989.142	2304.11
989.44	2245.8
989.737	2263.66
990.035	2244.45
990.332	2232.7
990.63	2237.44
990.927	2192.7
991.224	2187.05
991.521	2201.51
991.819	2179.14
992.116	2138.46
992.413	2173.04
992.71	2143.66
993.006	2152.92
993.303	2115.41
993.6	2129.2
993.897	2094.85
994.193	2085.81
994.49	2105.92
994.787	2079.48
995.083	2072.02
995.379	2076.09
995.676	2052.14
995.972	2026.6
996.268	2046.26
996.565	2017.11
996.861	2026.6
997.157	2002.65
997.453	1986.15
997.749	1989.09
998.044	1952.7
998.34	1961.06
998.636	1955.41
998.932	1944.79
999.227	1921.97
999.523	1918.13
999.818	1953.61
1000.114	1930.78
1000.409	1950.9
1000.704	1902.99
1001	1905.7
1001.295	1854.4
1001.59	1879.03
1001.885	1858.47
1002.18	1817.11
1002.475	1842.42
1002.77	1804.23
1003.065	1804.01
1003.359	1797.9
1003.654	1792.26
1003.949	1798.13
1004.243	1757.68
1004.538	1774.63
1004.832	1761.07
1005.127	1757
1005.421	1731.69
1005.715	1728.08
1006.009	1736.66
1006.304	1718.13
1006.598	1727.62
1006.892	1688.3
1007.186	1667.29
1007.48	1642.65
1007.773	1667.51
1008.067	1654.18
1008.361	1657.57
1008.655	1648.53
1008.948	1631.13
1009.242	1628.87
1009.535	1608.98
1009.829	1604.69
1010.122	1570.34
1010.415	1602.2
1010.708	1583.67
1011.001	1553.39
1011.295	1566.5
1011.588	1563.56
1011.881	1556.56
1012.173	1536.67
1012.466	1530.34
1012.759	1539.38
1013.052	1505.03
1013.344	1513.17
1013.637	1467.74
1013.93	1484.24
1014.222	1483.34
1014.514	1461.64
1014.807	1483.34
1015.099	1420.06
1015.391	1449.44
1015.683	1438.37
1015.976	1429.78
1016.268	1391.36
1016.56	1391.36
1016.851	1404.69
1017.143	1394.98
1017.435	1387.29
1017.727	1388.42
1018.018	1366.5
1018.31	1369.89
1018.602	1371.25
1018.893	1327.63
1019.185	1310.69
1019.476	1304.81
1019.767	1329.22
1020.058	1306.39
1020.35	1291.7
1020.641	1298.03
1020.932	1310.91
1021.223	1285.83
1021.514	1254.64
1021.804	1265.04
1022.095	1285.15
1022.386	1225.04
1022.677	1201.99
1022.967	1217.58
1023.258	1218.71
1023.548	1230.24
1023.839	1186.85
1024.129	1190.46
1024.419	1188.66
1024.709	1202.89
1025	1154.31
1025.29	1171.03
1025.58	1156.57
1025.87	1144.81
1026.16	1143.68
1026.449	1165.38
1026.739	1133.97
1027.029	1115.44
1027.319	1127.64
1027.608	1103.69
1027.898	1104.14
1028.187	1116.57
1028.477	1073.18
1028.766	1070.47
1029.055	1062.78
1029.344	1050.58
1029.634	1066.17
1029.923	1037.92
1030.212	1042.22
1030.501	1040.64
1030.79	1047.64
1031.078	1049.68
1031.367	1023.24
1031.656	1020.52
1031.945	1011.71
1032.233	1014.65
1032.522	1003.58
1032.81	972.39
1033.099	984.37
1033.387	980.07
1033.675	967.87
1033.963	970.36
1034.251	957.25
1034.54	980.53
1034.828	940.75
1035.116	927.19
1035.403	940.07
1035.691	911.6
1035.979	932.16
1036.267	940.07
1036.554	929.9
1036.842	930.36
1037.129	913.63
1037.417	905.05
1037.704	893.75
1037.992	890.36
1038.279	888.1
1038.566	875.9
1038.853	875.9
1039.14	875.9
