Data from hue_200_FLMS001491_00075.txt Node
Date: Tue Feb 07 16:43:55 GMT 2017
User: dcchb
Spectrometer: FLMS00149
Trigger mode: 0
Integration Time (sec): 2.000000E-2
Scans to average: 10
Electric dark correction enabled: true
Nonlinearity correction enabled: false
Boxcar width: 0
XAxis mode: Wavelengths
Number of Pixels in Spectrum: 2048
>>>>>Begin Spectral Data<<<<<
341.393	-22.33
341.776	-22.33
342.16	-22.33
342.543	-65.94
342.927	-65.94
343.31	-82.22
343.693	-51.03
344.077	-61.88
344.46	-52.84
344.843	-44.25
345.226	-43.35
345.61	-55.78
345.993	-13.52
346.376	-11.48
346.759	34.17
347.142	31
347.525	20.38
347.908	65.13
348.291	64.9
348.674	81.62
349.057	119.14
349.44	136.08
349.823	152.58
350.206	166.82
350.588	199.13
350.971	219.25
351.354	208.85
351.737	251.79
352.119	252.47
352.502	262.86
352.884	273.26
353.267	295.85
353.65	274.16
354.032	317.77
354.414	308.96
354.797	326.81
355.179	331.56
355.562	310.09
355.944	324.1
356.326	327.72
356.709	331.56
357.091	342.63
357.473	321.39
357.855	346.7
358.238	345.12
358.62	367.94
359.002	353.48
359.384	331.79
359.766	345.57
360.148	342.18
360.53	325.46
360.912	346.7
361.294	336.3
361.676	320.71
362.057	342.41
362.439	333.14
362.821	348.73
363.203	320.94
363.584	306.93
363.966	320.94
364.348	342.41
364.729	307.83
365.111	300.6
365.493	330.2
365.874	313.48
366.256	309.19
366.637	312.35
367.019	319.36
367.4	295.85
367.781	305.12
368.163	286.59
368.544	312.12
368.925	335.17
369.306	344.44
369.688	323.42
370.069	316.42
370.45	310.99
370.831	320.26
371.212	295.85
371.593	303.76
371.974	318.9
372.355	323.2
372.736	324.55
373.117	326.59
373.498	299.47
373.879	318.9
374.26	319.58
374.641	322.97
375.021	331.79
375.402	332.91
375.783	316.87
376.163	321.62
376.544	317.32
376.925	321.16
377.305	316.42
377.686	324.78
378.066	330.66
378.447	322.75
378.827	320.71
379.208	330.66
379.588	319.58
379.968	340.6
380.349	338.79
380.729	342.63
381.109	327.04
381.489	344.67
381.87	318.68
382.25	339.02
382.63	336.76
383.01	340.15
383.39	354.38
383.77	346.25
384.15	350.77
384.53	339.47
384.91	348.06
385.29	369.3
385.67	327.72
386.049	353.93
386.429	355.51
386.809	356.87
387.189	369.07
387.568	354.61
387.948	355.51
388.328	356.87
388.707	363.65
389.087	350.54
389.466	355.97
389.846	365.46
390.225	381.73
390.605	377.89
390.984	383.31
391.363	386.47
391.743	362.29
392.122	366.36
392.501	362.07
392.881	383.08
393.26	388.51
393.639	360.48
394.018	373.59
394.397	383.54
394.776	394.16
395.155	379.24
395.534	402.74
395.913	384.44
396.292	398.9
396.671	403.42
397.05	383.54
397.429	394.83
397.808	397.09
398.186	404.78
398.565	399.81
398.944	403.2
399.323	420.82
399.701	425.79
400.08	413.59
400.458	423.08
400.837	426.47
401.215	399.35
401.594	423.76
401.972	440.71
402.351	423.31
402.729	428.73
403.107	442.06
403.486	433.03
403.864	442.06
404.242	442.52
404.62	448.84
404.999	443.87
405.377	452.69
405.755	436.42
406.133	456.75
406.511	482.06
406.889	486.58
407.267	486.36
407.645	480.03
408.023	503.08
408.401	495.62
408.779	506.02
409.156	512.12
409.534	502.63
409.912	516.19
410.29	527.49
410.667	549.41
411.045	537.2
411.422	563.87
411.8	575.85
412.178	583.53
412.555	608.16
412.933	598.67
413.31	579.69
413.687	613.36
414.065	626.92
414.442	637.31
414.819	663.75
415.197	640.7
415.574	648.61
415.951	657.2
416.328	684.32
416.705	701.04
417.082	725.45
417.46	703.53
417.837	705.11
418.214	705.56
418.591	731.1
418.967	730.42
419.344	754.37
419.721	780.59
420.098	752.11
420.475	770.64
420.852	792.11
421.228	832.11
421.605	841.6
421.982	835.27
422.358	842.96
422.735	885.44
423.111	882.73
423.488	901.71
423.864	917.31
424.241	936.97
424.617	955.05
424.994	973.8
425.37	994.14
425.746	959.11
426.123	1001.82
426.499	1032.11
426.875	1017.19
427.251	1040.24
427.627	1057.87
428.003	1096.96
428.379	1122.5
428.756	1106.68
429.132	1148.49
429.507	1133.8
429.883	1153.23
430.259	1176.06
430.635	1186.68
431.011	1184.87
431.387	1232.78
431.763	1265.32
432.138	1246.56
432.514	1267.13
432.89	1292.89
433.265	1328.6
433.641	1360.91
434.016	1367.01
434.392	1399.1
434.767	1418.54
435.143	1433.23
435.518	1463.28
435.894	1498.08
436.269	1500.57
436.644	1528.82
437.02	1607.91
437.395	1601.58
437.77	1645.87
438.145	1642.26
438.52	1684.74
438.895	1712.31
439.271	1709.15
439.646	1770.84
440.021	1781.46
440.395	1845.87
440.77	1797.28
441.145	1851.07
441.52	1879.77
441.895	1877.06
442.27	1909.37
442.645	1953.66
443.019	1968.8
443.394	1942.59
443.769	1976.26
444.143	2031.4
444.518	2054
444.892	2098.74
445.267	2085.19
445.641	2127.44
446.016	2141.68
446.39	2124.96
446.764	2147.1
447.139	2158.86
447.513	2182.81
447.887	2193.43
448.262	2241.57
448.636	2267.1
449.01	2252.64
449.384	2271.4
449.758	2303.48
450.132	2352.97
450.506	2342.81
450.88	2346.2
451.254	2375.8
451.628	2416.7
452.002	2428.23
452.376	2434.78
452.75	2456.93
453.123	2477.49
453.497	2510.48
453.871	2553.65
454.244	2582.35
454.618	2629.35
454.992	2632.29
455.365	2678.62
455.739	2744.6
456.112	2729.01
456.486	2727.88
456.859	2792.29
457.232	2856.69
457.606	2839.52
457.979	2880.42
458.352	2931.72
458.725	2969.68
459.099	2986.18
459.472	3052.62
459.845	3088.77
460.218	3088.32
460.591	3111.82
460.964	3121.99
461.337	3218.26
461.71	3252.39
462.083	3267.53
462.456	3328.09
462.829	3339.84
463.201	3358.37
463.574	3422.55
463.947	3461.87
464.32	3542.77
464.692	3552.27
465.065	3606.28
465.438	3628.42
465.81	3667.52
466.183	3719.49
466.555	3799.04
466.928	3793.16
467.3	3819.83
467.672	3863.44
468.045	4029.31
468.417	3952.71
468.789	4005.59
469.161	4094.85
469.534	4152.7
469.906	4206.26
470.278	4265.01
470.65	4272.25
471.022	4335.3
471.394	4398.34
471.766	4482.86
472.138	4482.41
472.51	4602.18
472.882	4699.35
473.253	4670.65
473.625	4742.97
473.997	4862.06
474.369	4916.07
474.74	4947.26
475.112	4969.18
475.484	5085.33
475.855	5155.16
476.227	5203.07
476.598	5366.45
476.97	5387.92
477.341	5483.51
477.713	5617.97
478.084	5621.36
478.455	5754.02
478.827	5790.62
479.198	5956.5
479.569	5975.25
479.94	6107.68
480.311	6139.09
480.682	6243.72
481.053	6382.02
481.424	6489.82
481.795	6525.97
482.166	6621.56
482.537	6678.96
482.908	6809.13
483.279	6850.26
483.65	6963.02
484.021	7121.89
484.391	7126.63
484.762	7210.93
485.133	7310.36
485.503	7354.88
485.874	7518.04
486.244	7613.85
486.615	7700.63
486.985	7791.7
487.356	7925.71
487.726	7988.08
488.097	8121.41
488.467	8122.09
488.837	8282.99
489.207	8376.55
489.578	8494.06
489.948	8526.37
490.318	8642.75
490.688	8654.73
491.058	8732.47
491.428	8838.91
491.798	8928.62
492.168	9079.35
492.538	9116.64
492.908	9190.76
493.278	9252
493.648	9228.95
494.017	9355.28
494.387	9494.03
494.757	9538.55
495.126	9611.09
495.496	9511.43
495.866	9622.16
496.235	9730.86
496.605	9860.57
496.974	9817.19
497.344	9864.19
497.713	9916.84
498.082	9987.12
498.452	10089.04
498.821	10050.4
499.19	10112.09
499.559	10205.65
499.928	10143.73
500.298	10224.86
500.667	10320.67
501.036	10309.6
501.405	10377.85
501.774	10372.65
502.143	10395.93
502.512	10479.77
502.88	10514.79
503.249	10475.47
503.618	10595.47
503.987	10543.72
504.356	10663.04
504.724	10624.85
505.093	10684.96
505.462	10644.96
505.83	10675.47
506.199	10771.96
506.567	10850.83
506.936	10878.4
507.304	10891.96
507.672	10840.66
508.041	10968.34
508.409	11024.84
508.777	11079.98
509.145	11012.41
509.514	11094.44
509.882	11133.53
510.25	11084.72
510.618	11115.23
510.986	11111.16
511.354	11188.67
511.722	11304.83
512.09	11265.96
512.458	11198.17
512.826	11316.13
513.193	11284.27
513.561	11317.03
513.929	11331.04
514.297	11352.51
514.664	11496.24
515.032	11422.79
515.4	11481.77
515.767	11410.82
516.135	11473.86
516.502	11373.53
516.869	11518.38
517.237	11507.54
517.604	11402.91
517.972	11535.11
518.339	11545.28
518.706	11536.24
519.073	11476.8
519.44	11604.93
519.808	11528.33
520.175	11535.56
520.542	11689.45
520.909	11635.22
521.276	11585.27
521.643	11675.89
522.009	11711.15
522.376	11731.49
522.743	11683.8
523.11	11805.61
523.477	11829.56
523.843	11710.69
524.21	11845.38
524.577	11859.62
524.943	11841.31
525.31	11818.04
525.676	11841.76
526.043	11860.75
526.409	11903.91
526.776	11904.14
527.142	11889.22
527.508	11900.07
527.874	11886.28
528.241	11862.1
528.607	11864.82
528.973	11948.65
529.339	11752.73
529.705	11890.58
530.071	11875.21
530.437	11818.49
530.803	11794.99
531.169	11878.37
531.535	11719.28
531.901	11751.6
532.267	11640.19
532.632	11686.97
532.998	11678.61
533.364	11689.23
533.73	11649.91
534.095	11603.58
534.461	11628.44
534.826	11606.29
535.192	11590.02
535.557	11589.79
535.923	11490.36
536.288	11497.37
536.653	11440.42
537.019	11352.74
537.384	11316.13
537.749	11351.38
538.114	11306.41
538.479	11242.23
538.845	11184.38
539.21	11080.2
539.575	11196.58
539.94	11058.51
540.305	11077.04
540.67	11034.33
541.034	10901.45
541.399	10984.16
541.764	10888.12
542.129	10866.42
542.494	10831.4
542.858	10779.87
543.223	10649.03
543.587	10658.75
543.952	10583.72
544.316	10597.96
544.681	10501.46
545.045	10510.05
545.41	10479.09
545.774	10456.49
546.138	10382.59
546.503	10343.73
546.867	10304.4
547.231	10282.71
547.595	10239.1
547.959	10197.29
548.324	10127.46
548.688	10100.79
549.052	9998.42
549.416	10072.55
549.779	9910.74
550.143	9952.78
550.507	9923.62
550.871	9852.44
551.235	9783.51
551.599	9797.52
551.962	9708.04
552.326	9646.12
552.689	9697.19
553.053	9565.67
553.417	9559.34
553.78	9636.4
554.143	9501.49
554.507	9543.29
554.87	9475.95
555.234	9478.89
555.597	9374.71
555.96	9355.5
556.323	9311.44
556.686	9307.59
557.05	9325.67
557.413	9320.48
557.776	9267.14
558.139	9232.12
558.502	9137.43
558.865	9154.38
559.228	9210.2
559.59	9161.61
559.953	9120.25
560.316	9188.73
560.679	9132.68
561.041	9128.16
561.404	9154.38
561.767	9127.03
562.129	9048.62
562.492	9167.71
562.854	9008.85
563.217	8998.9
563.579	9018.79
563.941	9022.63
564.304	9014.95
564.666	8998.68
565.028	9018.79
565.39	9002.97
565.753	9056.08
566.115	9002.97
566.477	8988.05
566.839	8987.38
567.201	9044.78
567.563	9017.21
567.925	9051.56
568.287	9071.89
568.648	9026.47
569.01	9017.66
569.372	9005.23
569.734	9038
570.095	9005.23
570.457	8990.54
570.819	8998.22
571.18	8987.6
571.542	8996.42
571.903	9058.79
572.265	9032.12
572.626	8956.19
572.987	9007.72
573.349	8989.64
573.71	9044.1
574.071	9060.82
574.432	9060.82
574.794	9133.59
575.155	8991.44
575.516	8951.22
575.877	8975.4
576.238	9021.95
576.599	9068.28
576.96	8987.6
577.32	9033.93
577.681	9043.42
578.042	9049.3
578.403	8957.09
578.763	9082.52
579.124	8997.55
579.485	9073.02
579.845	9065.34
580.206	8951.22
580.566	8963.2
580.927	9037.32
581.287	9074.83
581.648	8992.35
582.008	9012.69
582.368	9034.38
582.728	9002.52
583.089	9009.07
583.449	8988.73
583.809	9009.3
584.169	8915.06
584.529	8938.34
584.889	9007.49
585.249	8982.41
585.609	8946.47
585.969	9026.7
586.329	8934.27
586.688	8988.73
587.048	8946.25
587.408	8976.98
587.768	8920.71
588.127	8901.5
588.487	8906.25
588.846	8965.46
589.206	8897.44
589.565	8879.36
589.925	8996.42
590.284	8922.75
590.643	8884.78
591.003	8790.09
591.362	8897.66
591.721	8872.8
592.08	8855.63
592.44	8884.78
592.799	8884.55
593.158	8856.53
593.517	8797.78
593.876	8807.04
594.235	8794.39
594.593	8827.83
594.952	8841.62
595.311	8753.26
595.67	8759.13
596.029	8867.38
596.387	8757.33
596.746	8805.91
597.104	8749.87
597.463	8777.21
597.822	8880.71
598.18	8757.55
598.538	8716.88
598.897	8791.68
599.255	8737.89
599.613	8761.85
599.972	8733.6
600.33	8773.15
600.688	8730.89
601.046	8698.34
601.404	8781.28
601.762	8744.67
602.12	8712.58
602.478	8823.77
602.836	8791.68
603.194	8702.41
603.552	8693.83
603.91	8670.77
604.268	8729.53
604.625	8722.98
604.983	8690.66
605.341	8672.58
605.698	8679.14
606.056	8690.21
606.413	8647.95
606.771	8755.29
607.128	8725.69
607.485	8702.19
607.843	8703.54
608.2	8741.28
608.557	8832.35
608.914	8655.86
609.272	8703.77
609.629	8753.26
609.986	8791.68
610.343	8746.25
610.7	8736.31
611.057	8808.85
611.414	8744.22
611.771	8718.01
612.127	8849.3
612.484	8775.4
612.841	8723.65
613.198	8776.99
613.554	8752.58
613.911	8843.43
614.267	8811.11
614.624	8796.65
614.98	8783.54
615.337	8801.84
615.693	8821.96
616.05	8840.94
616.406	8844.33
616.762	8849.98
617.118	8797.78
617.475	8793.71
617.831	8864.44
618.187	8853.37
618.543	8847.72
618.899	8914.84
619.255	8896.08
619.611	8845.91
619.967	8942.63
620.323	8969.52
620.678	8834.61
621.034	8847.04
621.39	8855.4
621.746	8914.84
622.101	8938.56
622.457	8860.83
622.812	8804.78
623.168	8929.53
623.523	8925.68
623.879	8899.02
624.234	8901.73
624.589	8899.47
624.945	8876.65
625.3	8875.97
625.655	8892.69
626.01	8893.59
626.365	8862.18
626.72	8870.77
627.075	8868.51
627.43	8851.56
627.785	8807.49
628.14	8860.83
628.495	8857.44
628.85	8796.65
629.205	8794.84
629.559	8910.09
629.914	8782.18
630.269	8791
630.623	8769.53
630.978	8749.42
631.332	8833.71
631.687	8802.97
632.041	8789.87
632.396	8786.03
632.75	8728.85
633.104	8715.07
633.459	8706.03
633.813	8710.77
634.167	8652.02
634.521	8713.94
634.875	8706.71
635.229	8671.9
635.583	8711.45
635.937	8551.46
636.291	8619.7
636.645	8604.79
636.999	8525.24
637.352	8671
637.706	8570.44
638.06	8594.62
638.413	8553.26
638.767	8634.39
639.121	8585.58
639.474	8552.36
639.828	8549.87
640.181	8521.85
640.534	8513.04
640.888	8499.25
641.241	8437.56
641.594	8510.78
641.947	8531.34
642.301	8494.28
642.654	8504.45
643.007	8544.68
643.36	8412.02
643.713	8482.53
644.066	8529.08
644.419	8477.33
644.771	8398.24
645.124	8318.92
645.477	8337.68
645.83	8268.3
646.182	8181.97
646.535	8127.74
646.888	8232.37
647.24	8179.49
647.593	8219.71
647.945	8151.01
648.298	8136.55
648.65	8090.45
649.002	8073.95
649.355	8146.49
649.707	8134.29
650.059	8165.7
650.411	8271.69
650.763	8339.71
651.115	8387.84
651.467	8347.85
651.819	8368.18
652.171	8360.05
652.523	8337.9
652.875	8348.98
653.227	8324.12
653.578	8365.92
653.93	8278.47
654.282	8296.77
654.633	8304.46
654.985	8275.08
655.337	8329.31
655.688	8348.07
656.039	8395.53
656.391	8354.85
656.742	8337
657.094	8329.09
657.445	8383.78
657.796	8311.91
658.147	8347.62
658.498	8353.72
658.849	8390.33
659.2	8370.44
659.551	8358.01
659.902	8381.74
660.253	8362.08
660.604	8381.74
660.955	8367.28
661.306	8433.94
661.656	8398.69
662.007	8430.56
662.358	8395.53
662.708	8396.21
663.059	8427.17
663.409	8331.57
663.76	8426.04
664.11	8413.83
664.461	8412.02
664.811	8422.65
665.161	8492.25
665.511	8441.4
665.862	8472.36
666.212	8444.11
666.562	8435.07
666.912	8470.33
667.262	8475.75
667.612	8457.9
667.962	8451.8
668.312	8482.08
668.662	8498.58
669.011	8460.16
669.361	8407.05
669.711	8427.62
670.06	8330.9
670.41	8434.17
670.76	8398.47
671.109	8431.91
671.459	8412.7
671.808	8409.31
672.157	8391.91
672.507	8345.13
672.856	8374.06
673.205	8313.27
673.554	8331.35
673.904	8395.75
674.253	8334.96
674.602	8348.3
674.951	8226.94
675.3	8233.5
675.649	8376.55
675.998	8251.35
676.346	8305.13
676.695	8319.82
677.044	8205.25
677.393	8267.62
677.741	8288.86
678.09	8287.96
678.438	8265.14
678.787	8274.63
679.135	8219.04
679.484	8167.29
679.832	8154.86
680.181	8131.81
680.529	8139.26
680.877	8117.57
681.225	8145.82
681.573	8186.27
681.922	8175.42
682.27	8109.21
682.618	8114.63
682.966	8063.56
683.314	8064.01
683.661	8018.14
684.009	8104.24
684.357	8003.45
684.705	7944.92
685.053	7977.01
685.4	7928.87
685.748	7934.07
686.095	7926.61
686.443	7862.89
686.79	7872.83
687.138	7868.76
687.485	7820.18
687.832	7806.62
688.18	7859.5
688.527	7782.89
688.874	7767.3
689.221	7748.31
689.568	7702.66
689.915	7669.67
690.262	7659.95
690.609	7655.43
690.956	7654.76
691.303	7570.92
691.65	7551.71
691.997	7469.45
692.344	7507.42
692.69	7502.67
693.037	7481.65
693.383	7403.46
693.73	7421.32
694.077	7422.45
694.423	7393.29
694.769	7342.9
695.116	7353.07
695.462	7334.99
695.808	7273.52
696.155	7307.42
696.501	7234.43
696.847	7206.41
697.193	7151.94
697.539	7199.63
697.885	7131.15
698.231	7109.01
698.577	7028.33
698.923	7061.33
699.269	7030.82
699.614	6937.94
699.96	6928.22
700.306	6899.75
700.651	6935.68
700.997	6921.67
701.342	6876.92
701.688	6836.25
702.033	6810.71
702.379	6782.69
702.724	6770.94
703.069	6775.68
703.415	6657.49
703.76	6734.55
704.105	6682.8
704.45	6614.11
704.795	6628.34
705.14	6607.55
705.485	6590.6
705.83	6538.4
706.175	6601.68
706.52	6571.17
706.865	6516.71
707.209	6478.74
707.554	6467.67
707.899	6452.53
708.243	6394.22
708.588	6412.08
708.932	6374.11
709.277	6342.7
709.621	6339.31
709.966	6288.24
710.31	6296.37
710.654	6286.43
710.998	6286.2
711.342	6268.35
711.687	6256.6
712.031	6259.54
712.375	6189.94
712.719	6212.31
713.063	6208.47
713.407	6158.3
713.75	6156.04
714.094	6137.06
714.438	6147.45
714.782	6133.44
715.125	6074.23
715.469	6087.34
715.812	6036.27
716.156	6040.79
716.499	6101.58
716.843	6086.44
717.186	6024.97
717.53	6123.05
717.873	6072.65
718.216	6029.04
718.559	6018.42
718.902	6017.29
719.246	6027.68
719.589	5963.05
719.932	5942.03
720.275	5976.16
720.617	5947.68
720.96	5947.23
721.303	5946.1
721.646	5964.41
721.989	5938.19
722.331	5879.44
722.674	5938.64
723.016	5968.02
723.359	5871.3
723.701	5930.51
724.044	5880.11
724.386	5900.23
724.729	5914.69
725.071	5896.38
725.413	5838.98
725.755	5869.94
726.097	5819.1
726.439	5804.64
726.782	5820.68
727.124	5862.94
727.465	5862.49
727.807	5822.04
728.149	5885.76
728.491	5818.65
728.833	5823.62
729.175	5784.07
729.516	5810.29
729.858	5834.01
730.199	5842.37
730.541	5843.28
730.882	5858.19
731.224	5874.46
731.565	5828.14
731.906	5803.96
732.248	5829.72
732.589	5813
732.93	5809.16
733.271	5837.4
733.612	5814.8
733.953	5797.63
734.294	5811.64
734.635	5840.57
734.976	5855.48
735.317	5876.72
735.658	5870.17
735.999	5900.23
736.339	5778.42
736.68	5876.27
737.021	5797.86
737.361	5874.01
737.702	5863.62
738.042	5869.49
738.383	5912.2
738.723	5878.53
739.063	5923.5
739.404	5928.7
739.744	5918.3
740.084	5930.28
740.424	5907.68
740.764	6017.29
741.104	6020.45
741.444	5973.22
741.784	6034.01
742.124	6008.25
742.464	6006.44
742.804	6094.12
743.143	6122.82
743.483	6095.93
743.823	6075.36
744.162	6149.03
744.502	6184.74
744.841	6172.54
745.181	6242.36
745.52	6277.84
745.86	6312.64
746.199	6331.4
746.538	6319.88
746.877	6343.38
747.216	6480.55
747.556	6474.22
747.895	6554.45
748.234	6547.89
748.573	6572.98
748.911	6666.31
749.25	6742.24
749.589	6812.74
749.928	6894.32
750.267	6951.95
750.605	6972.51
750.944	7107.43
751.283	7146.07
751.621	7267.87
751.96	7323.24
752.298	7358.72
752.636	7495.44
752.975	7543.12
753.313	7635.32
753.651	7823.79
753.989	7942.66
754.327	7956.67
754.666	8145.59
755.004	8235.31
755.342	8406.38
755.679	8519.82
756.017	8583.77
756.355	8851.34
756.693	8969.98
757.031	9033.48
757.368	9172.23
757.706	9293.13
758.044	9540.13
758.381	9670.3
758.719	9836.62
759.056	10056.73
759.394	10131.3
759.731	10292.2
760.068	10505.98
760.405	10652.87
760.743	10795.46
761.08	11014.44
761.417	11202.23
761.754	11264.15
762.091	11552.96
762.428	11700.98
762.765	11882.89
763.102	12025.26
763.438	12263.45
763.775	12371.69
764.112	12648.07
764.449	12834.28
764.785	12984.33
765.122	13044.45
765.458	13274.5
765.795	13396.53
766.131	13570.76
766.467	13775.27
766.804	13898.21
767.14	13984.53
767.476	14207.35
767.812	14272.89
768.148	14485.54
768.485	14635.82
768.821	14766.21
769.157	14847.34
769.492	14981.8
769.828	15210.49
770.164	15209.36
770.5	15319.19
770.836	15580.2
771.171	15621.78
771.507	15697.03
771.842	15763.02
772.178	15883.01
772.513	16023.8
772.849	16106.06
773.184	16194.64
773.519	16329.56
773.855	16434.19
774.19	16458.59
774.525	16518.48
774.86	16559.83
775.195	16715.31
775.53	16728.19
775.865	16834.63
776.2	16835.31
776.535	16901.74
776.87	16955.53
777.205	16953.49
777.539	17025.81
777.874	17154.85
778.209	17040.72
778.543	17179.25
778.878	17168.18
779.212	17225.8
779.547	17187.61
779.881	17404.1
780.215	17283.43
780.55	17378.57
780.884	17388.51
781.218	17380.6
781.552	17446.59
781.886	17478.23
782.22	17446.59
782.554	17478.23
782.888	17348.06
783.222	17358
783.556	17390.77
783.889	17334.05
784.223	17364.11
784.557	17364.11
784.89	17433.71
785.224	17450.21
785.557	17322.75
785.891	17395.74
786.224	17324.78
786.558	17339.7
786.891	17319.81
787.224	17202.53
787.557	17275.52
787.891	17273.26
788.224	17199.59
788.557	17257.22
788.89	17394.39
789.223	17388.06
789.556	17232.81
789.888	17162.75
790.221	17179.48
790.554	17037.11
790.887	17194.17
791.219	17033.94
791.552	17105.13
791.884	17060.61
792.217	16976.77
792.549	16936.55
792.882	16938.35
793.214	16832.82
793.546	16946.94
793.879	16814.06
794.211	16758.25
794.543	16816.78
794.875	16701.75
795.207	16815.65
795.539	16750.79
795.871	16793.27
796.203	16664.24
796.535	16554.86
796.867	16537.23
797.198	16559.15
797.53	16504.47
797.862	16422.89
798.193	16427.63
798.525	16369.1
798.856	16451.14
799.188	16245.04
799.519	16252.27
799.85	16204.59
800.182	16243.23
800.513	16185.83
800.844	16126.85
801.175	16203.23
801.506	16079.39
801.837	16008.89
802.168	16001.88
802.499	16009.79
802.83	15926.18
803.161	15916.91
803.491	15882.34
803.822	15942.67
804.153	15830.13
804.483	15676.01
804.814	15636.24
805.145	15688.44
805.475	15636.92
805.805	15664.26
806.136	15593.76
806.466	15550.59
806.796	15634.43
807.126	15530.48
807.457	15429.92
807.787	15452.52
808.117	15410.48
808.447	15377.72
808.777	15422.91
809.107	15259.98
809.436	15268.34
809.766	15277.61
810.096	15152.41
810.426	15088.69
810.755	15186.31
811.085	15187.44
811.414	15167.78
811.744	15139.98
812.073	15035.35
812.403	14998.07
812.732	14946.54
813.061	14984.28
813.39	14798.75
813.719	14798.52
814.049	14922.36
814.378	14822.03
814.707	14742.48
815.036	14785.64
815.365	14738.19
815.693	14594.91
816.022	14658.64
816.351	14559.43
816.68	14599.21
817.008	14600.79
817.337	14463.62
817.665	14475.59
817.994	14480.79
818.322	14467.46
818.651	14366.9
818.979	14366.67
819.307	14371.19
819.636	14385.2
819.964	14254.81
820.292	14360.57
820.62	14397.63
820.948	14238.31
821.276	14356.5
821.604	14362.15
821.932	14358.76
822.259	14263.17
822.587	14248.26
822.915	14329.61
823.243	14330.29
823.57	14285.77
823.898	14305.2
824.225	14264.75
824.553	14229.5
824.88	14224.75
825.207	14229.27
825.535	14303.4
825.862	14339.1
826.189	14208.03
826.516	14280.12
826.843	14307.91
827.17	14389.27
827.497	14314.24
827.824	14302.94
828.151	14414.13
828.478	14281.93
828.805	14334.58
829.131	14343.17
829.458	14309.72
829.785	14132.78
830.111	14338.65
830.438	14340.46
830.764	14327.12
831.09	14400.79
831.417	14226.79
831.743	14319.67
832.069	14345.65
832.395	14305.65
832.722	14296.62
833.048	14272.89
833.374	14258.88
833.7	14197.18
834.026	14199.22
834.351	14231.76
834.677	14223.85
835.003	14214.58
835.329	14225.43
835.654	14185.43
835.98	14060.92
836.306	14176.62
836.631	14110.86
836.956	14180.01
837.282	14122.83
837.607	14101.59
837.932	14107.02
838.258	14021.37
838.583	14026.34
838.908	13989.28
839.233	13925.78
839.558	13930.52
839.883	13828.61
840.208	13897.3
840.533	13854.59
840.858	13902.73
841.182	13838.55
841.507	13823.63
841.832	13796.06
842.156	13722.85
842.481	13665.45
842.805	13693.02
843.13	13714.71
843.454	13676.74
843.778	13599.91
844.103	13488.95
844.427	13521.72
844.751	13536.86
845.075	13592
845.399	13554.04
845.723	13379.13
846.047	13438.79
846.371	13276.98
846.695	13340.03
847.019	13143.2
847.343	13165.12
847.666	13147.04
847.99	13060.26
848.313	13069.76
848.637	12986.37
848.96	12884.45
849.284	12930.1
849.607	12728.97
849.931	12799.93
850.254	12721.29
850.577	12674.29
850.9	12493.05
851.223	12508.64
851.546	12460.05
851.869	12444.91
852.192	12452.37
852.515	12361.3
852.838	12321.75
853.161	12347.97
853.483	12261.19
853.806	12119.95
854.129	12210.57
854.451	12180.51
854.774	12061.87
855.096	12014.64
855.419	12005.83
855.741	11940.07
856.063	11801.99
856.385	11830.47
856.708	11844.25
857.03	11762.22
857.352	11763.12
857.674	11776.23
857.996	11679.96
858.318	11584.37
858.64	11580.08
858.961	11615.1
859.283	11605.61
859.605	11564.94
859.926	11530.13
860.248	11486.52
860.57	11464.15
860.891	11507.99
861.212	11339.18
861.534	11304.6
861.855	11317.71
862.176	11330.82
862.498	11281.1
862.819	11226.87
863.14	11231.84
863.461	11192.74
863.782	11261.44
864.103	11233.42
864.424	11143.48
864.745	11187.09
865.065	11070.26
865.386	11075.01
865.707	11104.61
866.027	11050.15
866.348	11026.42
866.668	11072.75
866.989	10983.93
867.309	10977.38
867.63	11038.17
867.95	10915.69
868.27	10884.5
868.59	10924.27
868.91	10874.11
869.23	10892.41
869.55	10822.13
869.87	10867.33
870.19	10871.39
870.51	10850.83
870.83	10854.9
871.15	10791.62
871.469	10765.64
871.789	10847.21
872.109	10695.58
872.428	10723.83
872.748	10699.87
873.067	10725.18
873.386	10729.7
873.706	10710.72
874.025	10629.82
874.344	10546.66
874.663	10628.46
874.982	10615.58
875.301	10591.4
875.62	10516.15
875.939	10550.5
876.258	10532.65
876.577	10482.25
876.896	10390.05
877.214	10441.35
877.533	10369.94
877.852	10391.63
878.17	10383.95
878.489	10390.73
878.807	10462.82
879.125	10396.61
879.444	10357.74
879.762	10345.31
880.08	10363.61
880.398	10291.07
880.716	10263.5
881.034	10261.69
881.352	10233.22
881.67	10170.85
881.988	10211.75
882.306	10129.27
882.624	10113.67
882.941	10092.66
883.259	10060.12
883.577	10062.83
883.894	10021.7
884.212	10014.02
884.529	9999.33
884.846	9962.72
885.164	9978.76
885.481	9902.83
885.798	9929.27
886.115	9785.77
886.432	9835.94
886.75	9847.24
887.067	9802.95
887.383	9763.4
887.7	9797.07
888.017	9729.96
888.334	9704.42
888.651	9738.77
888.967	9683.4
889.284	9650.64
889.6	9644.08
889.917	9546.46
890.233	9553.46
890.55	9520.7
890.866	9521.83
891.182	9432.79
891.498	9444.77
891.815	9442.05
892.131	9389.4
892.447	9274.83
892.763	9332.45
893.079	9268.73
893.395	9286.35
893.71	9231.89
894.026	9308.05
894.342	9168.16
894.657	9147.15
894.973	9144.21
895.289	9111.67
895.604	9050.43
895.92	9017.88
896.235	9003.42
896.55	8977.89
896.865	8979.92
897.181	8879.13
897.496	8899.47
897.811	8847.72
898.126	8866.93
898.441	8808.17
898.756	8797.1
899.071	8678.46
899.386	8706.03
899.7	8710.32
900.015	8650.89
900.33	8574.73
900.644	8507.39
900.959	8567.73
901.273	8526.82
901.588	8515.98
901.902	8438.24
902.216	8461.06
902.531	8392.36
902.845	8393.49
903.159	8308.52
903.473	8303.55
903.787	8352.14
904.101	8192.6
904.415	8222.2
904.729	8143.56
905.042	8096.78
905.356	8150.11
905.67	8125.25
905.984	8085.03
906.297	8010.91
906.611	7975.65
906.924	7983.34
907.237	7928.42
907.551	7898.37
907.864	7887.97
908.177	7879.84
908.491	7810.23
908.804	7773.85
909.117	7700.18
909.43	7645.49
909.743	7589.22
910.056	7698.37
910.368	7587.64
910.681	7560.07
910.994	7605.72
911.307	7554.42
911.619	7474.2
911.932	7414.31
912.244	7385.61
912.557	7349
912.869	7364.59
913.181	7304.48
913.494	7272.39
913.806	7207.76
914.118	7224.26
914.43	7220.87
914.742	7199.63
915.054	7142
915.366	7134.09
915.678	7100.42
915.99	7050.25
916.302	6983.81
916.613	6981.1
916.925	6980.42
917.236	6983.14
917.548	6897.04
917.859	6911.27
918.171	6875.79
918.482	6808.68
918.794	6775.46
919.105	6771.39
919.416	6735.91
919.727	6668.57
920.038	6697.27
920.349	6650.71
920.66	6609.81
920.971	6626.31
921.282	6639.64
921.593	6539.31
921.903	6490.49
922.214	6504.05
922.525	6488.91
922.835	6522.58
923.146	6390.38
923.456	6410.04
923.767	6384.96
924.077	6373.21
924.387	6341.8
924.697	6292.08
925.008	6259.31
925.318	6287.33
925.628	6262.02
925.938	6204.4
926.248	6133.89
926.558	6126.89
926.867	6130.28
927.177	6073.55
927.487	6123.05
927.796	6020.9
928.106	6019.77
928.416	6003.73
928.725	5957.85
929.034	5940.45
929.344	5956.04
929.653	5960.79
929.962	5873.79
930.271	5888.7
930.581	5856.61
930.89	5815.26
931.199	5758.31
931.508	5780.23
931.817	5722.6
932.125	5725.09
932.434	5742.26
932.743	5695.26
933.051	5621.14
933.36	5657.97
933.669	5600.57
933.977	5536.17
934.286	5566
934.594	5533.68
934.902	5516.06
935.21	5459.56
935.519	5530.29
935.827	5494.14
936.135	5420.46
936.443	5421.82
936.751	5373.46
937.059	5352.44
937.367	5336.4
937.674	5348.6
937.982	5253.24
938.29	5234.03
938.597	5232.67
938.905	5162.84
939.213	5181.6
939.52	5144.31
939.827	5183.86
940.135	5090.98
940.442	5113.13
940.749	5097.99
941.056	5081.04
941.363	5048.72
941.67	5025.9
941.977	5014.15
942.284	4960.82
942.591	4936.41
942.898	4910.65
943.205	4927.14
943.511	4886.92
943.818	4862.74
944.125	4890.08
944.431	4850.31
944.738	4839.24
945.044	4784.1
945.35	4790.88
945.657	4740.93
945.963	4722.86
946.269	4744.32
946.575	4744.32
946.881	4628.17
947.187	4605.35
947.493	4636.53
947.799	4599.92
948.105	4620.49
948.41	4582.07
948.716	4580.03
949.022	4549.08
949.327	4488.74
949.633	4465.24
949.938	4516.99
950.244	4486.25
950.549	4413.26
950.854	4443.54
951.16	4386.14
951.465	4409.64
951.77	4360.61
952.075	4359.25
952.38	4329.87
952.685	4338.01
952.99	4265.47
953.294	4271.57
953.599	4195.19
953.904	4237.67
954.209	4236.77
954.513	4220.04
954.818	4157.22
955.122	4161.29
955.426	4148.41
955.731	4168.29
956.035	4137.79
956.339	4106.38
956.643	4118.13
956.948	4031.12
957.252	4050.78
957.556	4019.37
957.86	4022.99
958.163	4011.46
958.467	3949.32
958.771	3924.91
959.075	3909.09
959.378	3930.56
959.682	3922.65
959.985	3870.9
960.289	3890.79
960.592	3865.7
960.896	3831.13
961.199	3822.09
961.502	3781.41
961.805	3795.42
962.108	3724.24
962.411	3738.7
962.714	3729.44
963.017	3725.37
963.32	3706.84
963.623	3657.57
963.926	3643.11
964.228	3660.06
964.531	3613.73
964.833	3624.13
965.136	3596.11
965.438	3581.19
965.741	3605.37
966.043	3570.12
966.345	3518.37
966.648	3531.25
966.95	3506.62
967.252	3489.44
967.554	3479.05
967.856	3482.66
968.158	3416.45
968.46	3458.26
968.761	3447.18
969.063	3449.44
969.365	3387.3
969.666	3377.13
969.968	3381.2
970.269	3357.47
970.571	3370.12
970.872	3343.68
971.174	3302.33
971.475	3291.03
971.776	3270.46
972.077	3250.35
972.378	3250.13
972.679	3250.13
972.98	3232.27
973.281	3162.22
973.582	3245.61
973.883	3210.13
974.183	3163.35
974.484	3181.2
974.785	3136.23
975.085	3136.46
975.386	3118.6
975.686	3075.89
975.986	3103.01
976.287	3102.11
976.587	3026.63
976.887	3030.25
977.187	3075.67
977.487	3041.54
977.787	3003.13
978.087	2974.2
978.387	3018.95
978.687	2973.75
978.987	2914.32
979.286	2918.16
979.586	2929.91
979.885	2941.89
980.185	2893.75
980.484	2905.5
980.784	2886.29
981.083	2857.82
981.382	2844.26
981.682	2883.13
981.981	2804.49
982.28	2812.17
982.579	2795.22
982.878	2812.62
983.177	2769.91
983.475	2744.15
983.774	2788.22
984.073	2745.05
984.372	2712.06
984.67	2706.86
984.969	2706.64
985.267	2711.16
985.566	2720.87
985.864	2640.65
986.162	2644.27
986.461	2654.21
986.759	2658.28
987.057	2616.24
987.355	2608.11
987.653	2613.76
987.951	2620.99
988.249	2578.28
988.547	2559.75
988.844	2536.25
989.142	2572.18
989.44	2500.09
989.737	2503.48
990.035	2477.04
990.332	2458.51
990.63	2451.73
990.927	2477.49
991.224	2472.97
991.521	2440.43
991.819	2439.98
992.116	2424.16
992.413	2393.43
992.71	2379.41
993.006	2378.28
993.303	2368.57
993.6	2351.84
993.897	2346.42
994.193	2339.87
994.49	2341.22
994.787	2335.57
995.083	2313.2
995.379	2269.36
995.676	2291.51
995.972	2242.02
996.268	2270.27
996.565	2242.7
996.861	2251.06
997.157	2212.87
997.453	2220.32
997.749	2210.38
998.044	2184.62
998.34	2197.72
998.636	2216.26
998.932	2184.62
999.227	2142.13
999.523	2158.18
999.818	2131.74
1000.114	2172.41
1000.409	2109.82
1000.704	2069.59
1001	2053.32
1001.295	2077.5
1001.59	2062.14
1001.885	2043.6
1002.18	2035.7
1002.475	2031.18
1002.77	2058.07
1003.065	1967.67
1003.359	1986.2
1003.654	1978.97
1003.949	1962.48
1004.243	1973.55
1004.538	1971.06
1004.832	1958.63
1005.127	1963.15
1005.421	1897.62
1005.715	1876.83
1006.009	1891.97
1006.304	1931.97
1006.598	1879.09
1006.892	1851.07
1007.186	1842.71
1007.48	1836.83
1007.773	1839.09
1008.067	1855.36
1008.361	1811.52
1008.655	1811.52
1008.948	1792.54
1009.242	1782.82
1009.535	1803.38
1009.829	1759.54
1010.122	1748.47
1010.415	1764.97
1010.708	1714.57
1011.001	1742.37
1011.295	1708.92
1011.588	1704.63
1011.881	1718.42
1012.173	1693.33
1012.466	1689.94
1012.759	1661.24
1013.052	1660.34
1013.344	1647.91
1013.637	1625.31
1013.93	1603.62
1014.222	1600.45
1014.514	1627.8
1014.807	1612.88
1015.099	1611.53
1015.391	1588.02
1015.683	1612.66
1015.976	1582.15
1016.268	1558.65
1016.56	1551.87
1016.851	1527.46
1017.143	1543.96
1017.435	1500.57
1017.727	1517.06
1018.018	1486.78
1018.31	1489.49
1018.602	1496.5
1018.893	1451.76
1019.185	1441.36
1019.476	1437.52
1019.767	1456.95
1020.058	1427.35
1020.35	1428.25
1020.641	1434.81
1020.932	1384.41
1021.223	1397.07
1021.514	1402.04
1021.804	1372.44
1022.095	1401.14
1022.386	1352.55
1022.677	1368.37
1022.967	1345.09
1023.258	1315.04
1023.548	1331.53
1023.839	1322.95
1024.129	1306
1024.419	1298.99
1024.709	1314.36
1025	1292.21
1025.29	1296.28
1025.58	1279.1
1025.87	1268.26
1026.16	1254.25
1026.449	1246.34
1026.739	1227.58
1027.029	1253.57
1027.319	1215.15
1027.608	1209.73
1027.898	1195.04
1028.187	1204.08
1028.477	1195.27
1028.766	1207.69
1029.055	1146.9
1029.344	1153.23
1029.634	1138.32
1029.923	1123.63
1030.212	1146.9
1030.501	1154.14
1030.79	1113.46
1031.078	1134.25
1031.367	1118.66
1031.656	1097.64
1031.945	1089.51
1032.233	1106.23
1032.522	1072.33
1032.81	1062.61
1033.099	1069.62
1033.387	1075.27
1033.675	1047.47
1033.963	1054.48
1034.251	1036.85
1034.54	1009.73
1034.828	1020.81
1035.116	1019.45
1035.403	1020.13
1035.691	1022.16
1035.979	1006.57
1036.267	1001.15
1036.554	986.91
1036.842	978.77
1037.129	986.23
1037.417	973.8
1037.704	972.67
1037.992	972.9
1038.279	943.97
1038.566	949.62
1038.853	949.62
1039.14	949.62
