Data from hue_36_FLMS001491_00001.txt Node
Date: Tue Feb 07 17:29:18 GMT 2017
User: dcchb
Spectrometer: FLMS00149
Trigger mode: 0
Integration Time (sec): 2.000000E-2
Scans to average: 10
Electric dark correction enabled: true
Nonlinearity correction enabled: false
Boxcar width: 0
XAxis mode: Wavelengths
Number of Pixels in Spectrum: 2048
>>>>>Begin Spectral Data<<<<<
341.393	-31.71
341.776	-31.71
342.16	-31.71
342.543	-35.1
342.927	-62.44
343.31	-78.94
343.693	-94.53
344.077	-67.41
344.46	-42.33
344.843	-51.82
345.226	-37.13
345.61	-44.59
345.993	-21.76
346.376	-9.11
346.759	10.55
347.142	12.13
347.525	43.77
347.908	84.9
348.291	86.93
348.674	100.49
349.057	108.85
349.44	121.28
349.823	144.78
350.206	170.32
350.588	203.99
350.971	224.1
351.354	231.11
351.737	230.66
352.119	256.65
352.502	282.18
352.884	282.63
353.267	310.43
353.65	298.9
354.032	288.96
354.414	313.14
354.797	326.47
355.179	323.76
355.562	333.71
355.944	319.24
356.326	343.88
356.709	348.85
357.091	320.37
357.473	344.55
357.855	362.63
358.238	345.91
358.62	360.37
359.002	351.33
359.384	350.65
359.766	351.56
360.148	351.33
360.53	346.36
360.912	335.06
361.294	356.76
361.676	348.62
362.057	344.55
362.439	332.35
362.821	341.84
363.203	327.83
363.584	350.43
363.966	335.74
364.348	313.82
364.729	326.25
365.111	333.93
365.493	311.33
365.874	315.4
366.256	329.41
366.637	342.07
367.019	318.34
367.4	302.52
367.781	316.31
368.163	331.22
368.544	287.61
368.925	296.42
369.306	319.92
369.688	319.24
370.069	300.71
370.45	327.38
370.831	293.48
371.212	339.58
371.593	323.76
371.974	313.82
372.355	311.33
372.736	321.5
373.117	318.57
373.498	334.61
373.879	335.74
374.26	324.21
374.641	307.94
375.021	306.14
375.402	314.5
375.783	337.1
376.163	330.99
376.544	340.71
376.925	327.83
377.305	316.08
377.686	326.02
378.066	326.02
378.447	325.8
378.827	324.89
379.208	336.42
379.588	345.46
379.968	326.93
380.349	340.49
380.729	345.23
381.109	340.03
381.489	334.84
381.87	338.45
382.25	344.78
382.63	334.38
383.01	341.39
383.39	337.55
383.77	342.97
384.15	335.29
384.53	321.05
384.91	356.76
385.29	357.43
385.67	363.99
386.049	357.89
386.429	360.37
386.809	354.72
387.189	358.34
387.568	343.2
387.948	366.02
388.328	357.43
388.707	373.93
389.087	336.19
389.466	368.51
389.846	360.6
390.225	349.98
390.605	377.32
390.984	356.76
391.363	361.95
391.743	357.21
392.122	377.09
392.501	369.64
392.881	378.68
393.26	372.35
393.639	371.67
394.018	370.77
394.397	374.16
394.776	368.28
395.155	389.07
395.534	379.35
395.913	363.99
396.292	380.26
396.671	360.37
397.05	383.87
397.429	396.08
397.808	383.2
398.186	396.76
398.565	389.52
398.944	393.59
399.323	387.72
399.701	426.58
400.08	388.17
400.458	383.87
400.837	410.54
401.215	394.95
401.594	413.48
401.972	381.39
402.351	392.24
402.729	406.02
403.107	389.52
403.486	417.09
403.864	380.94
404.242	408.51
404.62	416.64
404.999	406.92
405.377	407.83
405.755	431.78
406.133	426.13
406.511	408.51
406.889	415.74
407.267	437.21
407.645	461.16
408.023	443.99
408.401	420.48
408.779	432.91
409.156	476.75
409.534	456.19
409.912	435.17
410.29	418
410.667	457.09
411.045	448.73
411.422	442.63
411.8	435.85
412.178	462.29
412.555	456.19
412.933	463.42
413.31	453.7
413.687	467.71
414.065	479.01
414.442	483.08
414.819	499.8
415.197	479.01
415.574	505.68
415.951	471.33
416.328	475.85
416.705	487.83
417.082	465
417.46	483.53
417.837	498.67
418.214	505
418.591	493.25
418.967	489.18
419.344	507.26
419.721	515.62
420.098	530.31
420.475	527.15
420.852	529.41
421.228	527.15
421.605	506.36
421.982	516.98
422.358	522.4
422.735	532.57
423.111	551.55
423.488	549.29
423.864	533.02
424.241	521.72
424.617	547.49
424.994	544.55
425.37	583.64
425.746	566.47
426.123	561.95
426.499	559.46
426.875	572.57
427.251	554.27
427.627	606.24
428.003	569.41
428.379	556.98
428.756	580.48
429.132	587.48
429.507	589.52
429.883	613.02
430.259	622.74
430.635	589.29
431.011	610.31
431.387	639.01
431.763	629.52
432.138	630.2
432.514	627.48
432.89	657.31
433.265	636.75
433.641	641.04
434.016	661.38
434.392	672.45
434.767	656.18
435.143	658.44
435.518	676.75
435.894	664.77
436.269	680.82
436.644	684.88
437.02	704.32
437.395	696.18
437.77	724.2
438.145	704.77
438.52	697.54
438.895	720.36
439.271	719.68
439.646	713.81
440.021	741.83
440.395	744.09
440.77	723.98
441.145	723.98
441.52	754.26
441.895	741.38
442.27	767.14
442.645	739.12
443.019	777.76
443.394	760.14
443.769	772.34
444.143	754.49
444.518	775.95
444.892	776.63
445.267	808.5
445.641	786.58
446.016	784.32
446.39	829.96
446.764	815.5
447.139	808.95
447.513	810.53
447.887	812.79
448.262	825.67
448.636	817.76
449.01	833.81
449.384	828.38
449.758	820.25
450.132	852.79
450.506	860.92
450.88	875.84
451.254	858.66
451.628	858.21
452.002	858.21
452.376	862.73
452.75	899.57
453.123	879
453.497	891.21
453.871	907.48
454.244	910.87
454.618	926.91
454.992	919
455.365	937.76
455.739	978.21
456.112	986.8
456.486	952.45
456.859	970.53
457.232	990.64
457.606	981.82
457.979	1006.91
458.352	1021.15
458.725	1019.79
459.099	1026.12
459.472	1073.12
459.845	1057.3
460.218	1081.71
460.591	1078.55
460.964	1078.32
461.337	1084.42
461.71	1131.43
462.083	1122.61
462.456	1143.85
462.829	1142.27
463.201	1136.17
463.574	1158.32
463.947	1174.14
464.32	1194.25
464.692	1208.49
465.065	1236.28
465.438	1224.3
465.81	1259.33
466.183	1274.02
466.555	1288.48
466.928	1314.02
467.3	1326
467.672	1334.36
468.045	1361.93
468.417	1403.96
468.789	1400.8
469.161	1396.05
469.534	1448.7
469.906	1448.25
470.278	1450.51
470.65	1509.49
471.022	1531.41
471.394	1560.79
471.766	1591.07
472.138	1596.27
472.51	1623.39
472.882	1661.13
473.253	1674.01
473.625	1732.31
473.997	1736.83
474.369	1762.14
474.74	1808.47
475.112	1839.2
475.484	1920.56
475.855	1928.92
476.227	1974.34
476.598	2014.79
476.97	2005.53
477.341	2098.41
477.713	2123.04
478.084	2180.89
478.455	2220.89
478.827	2265.63
479.198	2324.16
479.569	2385.63
479.94	2490.71
480.311	2510.15
480.682	2568
481.053	2666.75
481.424	2695.23
481.795	2746.75
482.166	2800.76
482.537	2862.45
482.908	2950.81
483.279	3057.48
483.65	3133.41
484.021	3212.95
484.391	3245.27
484.762	3363
485.133	3434.42
485.503	3429.44
485.874	3541.98
486.244	3675.99
486.615	3746.5
486.985	3822.65
487.356	3934.52
487.726	4030.11
488.097	4101.74
488.467	4172.48
488.837	4262.42
489.207	4377.67
489.578	4492.01
489.948	4552.13
490.318	4694.5
490.688	4715.51
491.058	4856.3
491.428	4923.87
491.798	5008.61
492.168	5190.98
492.538	5236.85
492.908	5303.97
493.278	5389.84
493.648	5461.93
494.017	5554.81
494.387	5657.63
494.757	5753
495.126	5877.51
495.496	5930.85
495.866	6057.17
496.235	6122.25
496.605	6225.75
496.974	6316.37
497.344	6411.06
497.713	6459.65
498.082	6555.92
498.452	6681.11
498.821	6771.28
499.19	6806.76
499.559	6904.61
499.928	6962.46
500.298	7041.55
500.667	7167.65
501.036	7138.27
501.405	7288.1
501.774	7275.44
502.143	7412.39
502.512	7492.16
502.88	7568.32
503.249	7612.16
503.618	7719.05
503.987	7840.4
504.356	7821.19
504.724	7964.47
505.093	7997.01
505.462	8068.19
505.83	8144.35
506.199	8162.2
506.567	8319.26
506.936	8304.34
507.304	8458.24
507.672	8524.45
508.041	8595.64
508.409	8620.27
508.777	8748.85
509.145	8781.39
509.514	8876.08
509.882	8918.11
510.25	8935.74
510.618	9098.45
510.986	9131.21
511.354	9205.34
511.722	9232
512.09	9410.98
512.458	9391.77
512.826	9431.32
513.193	9488.04
513.561	9529.62
513.929	9623.41
514.297	9664.76
514.664	9705.44
515.032	9761.25
515.4	9916.28
515.767	9932.55
516.135	10035.82
516.502	9925.54
516.869	10110.4
517.237	10130.51
517.604	10131.41
517.972	10216.61
518.339	10331.41
518.706	10330.28
519.073	10379.77
519.44	10438.98
519.808	10584.96
520.175	10605.98
520.542	10694.79
520.909	10722.13
521.276	10697.05
521.643	10847.33
522.009	10959.42
522.376	11046.19
522.743	11105.4
523.11	11176.36
523.477	11278.73
523.843	11275.11
524.21	11392.62
524.577	11502
524.943	11551.72
525.31	11568.44
525.676	11723.46
526.043	11706.97
526.409	11831.03
526.776	11983.57
527.142	11985.83
527.508	12086.62
527.874	12125.26
528.241	12205.26
528.607	12258.36
528.973	12317.8
529.339	12367.51
529.705	12461.07
530.071	12571.12
530.437	12593.95
530.803	12765.47
531.169	12806.6
531.535	12753.49
531.901	12838.01
532.267	12896.77
532.632	12963.88
532.998	13059.25
533.364	13162.3
533.73	13163.65
534.095	13312.12
534.461	13327.71
534.826	13420.59
535.192	13386.02
535.557	13502.4
535.923	13506.47
536.288	13609.06
536.653	13597.54
537.019	13561.83
537.384	13682.96
537.749	13762.28
538.114	13803.41
538.479	13876.4
538.845	13897.42
539.21	13858.32
539.575	13989.39
539.94	14083.17
540.305	14204.3
540.67	14163.62
541.034	14241.36
541.399	14294.24
541.764	14344.18
542.129	14434.35
542.494	14430.51
542.858	14512.09
543.223	14488.59
543.587	14591.64
543.952	14684.52
544.316	14759.77
544.681	14691.52
545.045	14847.45
545.41	14862.36
545.774	14852.42
546.138	14934.68
546.503	14951.17
546.867	14988.69
547.231	15204.95
547.595	15201.56
547.959	15242.24
548.324	15251.05
548.688	15300.32
549.052	15394.55
549.416	15445.62
549.779	15498.28
550.143	15601.1
550.507	15576.47
550.871	15640.65
551.235	15602.91
551.599	15753.64
551.962	15764.03
552.326	15832.96
552.689	15929.23
553.053	15782.57
553.417	15889.91
553.78	16124.03
554.143	16056.68
554.507	16139.62
554.87	16196.57
555.234	16339.61
555.597	16318.37
555.96	16442.66
556.323	16416.9
556.686	16594.3
557.05	16584.13
557.413	16645.37
557.776	16603.11
558.139	16796.55
558.502	16856.89
558.865	16832.71
559.228	16895.53
559.59	16999.48
559.953	16926.72
560.316	17210.1
560.679	17116.32
561.041	17215.07
561.404	17347.95
561.767	17450.09
562.129	17370.77
562.492	17539.81
562.854	17552.46
563.217	17527.83
563.579	17651.89
563.941	17704.32
564.304	17805.34
564.666	17902.74
565.028	17972.56
565.39	17991.32
565.753	18144.99
566.115	18115.84
566.477	18210.75
566.839	18257.75
567.201	18346.34
567.563	18270.18
567.925	18635.6
568.287	18574.13
568.648	18503.4
569.01	18747.69
569.372	18844.41
569.734	18795.82
570.095	18906.55
570.457	19049.82
570.819	19107.68
571.18	19145.19
571.542	19191.97
571.903	19259.31
572.265	19380.89
572.626	19352.87
572.987	19554.67
573.349	19585.86
573.71	19643.03
574.071	19825.17
574.432	19945.62
574.794	20123.69
575.155	20113.98
575.516	20047.76
575.877	20215.22
576.238	20508.54
576.599	20538.82
576.96	20604.36
577.32	20699.27
577.681	20796.44
578.042	20994.18
578.403	21083.67
578.763	21264.23
579.124	21334.28
579.485	21486.37
579.845	21668.51
580.206	21810.88
580.566	21858.56
580.927	21903.99
581.287	22140.82
581.648	22312.34
582.008	22555.72
582.368	22538.32
582.728	22841.81
583.089	22898.54
583.449	23108.25
583.809	23155.03
584.169	23546.2
584.529	23589.37
584.889	23968.79
585.249	24017.6
585.609	24079.97
585.969	24455.78
586.329	24623.46
586.688	24903.46
587.048	25014.41
587.408	25239.27
587.768	25491.24
588.127	25583.44
588.487	25841.51
588.846	26224.55
589.206	26130.99
589.565	26436.52
589.925	26730.3
590.284	26970.52
590.643	27241.7
591.003	27473.11
591.362	27746.77
591.721	27915.35
592.08	28096.14
592.44	28482.34
592.799	28624.71
593.158	28792.17
593.517	28991.71
593.876	29293.17
594.235	29395.77
594.593	29676.66
594.952	30011.12
595.311	30216.54
595.67	30313.71
596.029	30708.5
596.387	30937.87
596.746	31242.95
597.104	31249.28
597.463	31485.66
597.822	31836.15
598.18	31857.62
598.538	32099.42
598.897	32451.51
599.255	32286.54
599.613	33014.2
599.972	33010.59
600.33	33250.58
600.688	33130.36
601.046	33622.32
601.404	33699.61
601.762	34037.68
602.12	34396.31
602.478	34293.26
602.836	34559.02
603.194	34706.59
603.552	35042.62
603.91	34869.75
604.268	35227.25
604.625	35300.47
604.983	35624.3
605.341	35565.77
605.698	35995.37
606.056	36232.42
606.413	36152.88
606.771	36370.5
607.128	36522.13
607.485	36589.02
607.843	36732.75
608.2	37116.02
608.557	37240.31
608.914	37211.15
609.272	37446.18
609.629	37571.82
609.986	37887.29
610.343	37918.48
610.7	38275.08
611.057	38267.4
611.414	38200.73
611.771	38457.22
612.127	38772.92
612.484	38774.5
612.841	38979.7
613.198	39048.17
613.554	39034.84
613.911	39446.58
614.267	39328.39
614.624	39349.63
614.98	39650.64
615.337	39897.41
615.693	39795.95
616.05	40001.82
616.406	40277.51
616.762	40159.33
617.118	40253.79
617.475	40263.73
617.831	40462.82
618.187	40660.78
618.543	40579.43
618.899	40958.17
619.255	40894.22
619.611	40837.5
619.967	41145.06
620.323	41280.2
620.678	41142.12
621.034	41147.55
621.39	41210.37
621.746	41235.68
622.101	41733.3
622.457	41417.15
622.812	41714.54
623.168	41604.94
623.523	41648.1
623.879	41900.52
624.234	41672.73
624.589	41877.92
624.945	42028.65
625.3	42118.6
625.655	42110.91
626.01	42178.26
626.365	42230.68
626.72	42037.47
627.075	42309.33
627.43	42286.95
627.785	42241.08
628.14	42279.27
628.495	42385.93
628.85	42289.89
629.205	42340.51
629.559	42523.33
629.914	42234.07
630.269	42360.85
630.623	42321.08
630.978	42315.88
631.332	42434.29
631.687	42603.1
632.041	42371.92
632.396	42540.73
632.75	42440.85
633.104	42534.4
633.459	42283.11
633.813	42408.08
634.167	42331.25
634.521	42302.55
634.875	42416.67
635.229	42371.7
635.583	42271.36
635.937	42303
636.291	42302.77
636.645	42346.16
636.999	42182.78
637.352	42343.45
637.706	42201.31
638.06	42428.87
638.413	42213.06
638.767	42152.72
639.121	42288.08
639.474	42068.65
639.828	42146.39
640.181	42151.14
640.534	42150.46
640.888	42006.96
641.241	41881.99
641.594	42060.29
641.947	42128.09
642.301	42028.43
642.654	42074.08
643.007	42063.46
643.36	42065.04
643.713	41949.56
644.066	42080.63
644.419	41846.51
644.771	41599.06
645.124	41195.91
645.477	41141.9
645.83	40893.32
646.182	40877.05
646.535	40863.04
646.888	40897.39
647.24	40591.86
647.593	40894.9
647.945	40782.81
648.298	40637.73
648.65	40645.64
649.002	40314.35
649.355	40661.91
649.707	40673.44
650.059	40903.49
650.411	41214.66
650.763	41231.61
651.115	41722
651.467	41540.53
651.819	41410.14
652.171	41355.68
652.523	41337.15
652.875	41267.09
653.227	41204.95
653.578	41437.94
653.93	41407.2
654.282	41248.34
654.633	41098.74
654.985	41185.06
655.337	41198.85
655.688	41319.07
656.039	41290.6
656.391	41120.66
656.742	41139.64
657.094	41139.64
657.445	41288.34
657.796	41136.47
658.147	41243.82
658.498	40922.47
658.849	41124.5
659.2	41215.34
659.551	41015.12
659.902	41129.7
660.253	41157.04
660.604	41133.76
660.955	40970.6
661.306	41110.49
661.656	41039.98
662.007	41056.7
662.358	40873.43
662.708	40905.97
663.059	40937.16
663.409	40675.92
663.76	41111.62
664.11	40987.55
664.461	40995.69
664.811	41006.08
665.161	41031.39
665.511	40869.59
665.862	40881.57
666.212	40971.51
666.562	40982.35
666.912	40905.75
667.262	40901.23
667.612	40762.25
667.962	41091.05
668.312	40812.42
668.662	41144.84
669.011	41040.43
669.361	40920.44
669.711	40788.01
670.06	40803.38
670.41	40687.67
670.76	40628.92
671.109	40932.86
671.459	40702.36
671.808	40726.54
672.157	40767.67
672.507	40638.86
672.856	40548.69
673.205	40642.25
673.554	40781.23
673.904	40524.51
674.253	40861.23
674.602	40818.74
674.951	40185.09
675.3	39900.12
675.649	40395.93
675.998	40536.72
676.346	40490.62
676.695	40732.64
677.044	40319.1
677.393	40443.16
677.741	40538.52
678.09	40314.58
678.438	40302.82
678.787	40376.72
679.135	40380.79
679.484	40135.15
679.832	40312.09
680.181	40070.29
680.529	40210.85
680.877	39985.77
681.225	40000.01
681.573	40215.37
681.922	39999.78
682.27	39784.87
682.618	39884.76
682.966	39778.77
683.314	39832.55
683.661	39902.38
684.009	39506.24
684.357	39461.72
684.705	39436.18
685.053	39618.55
685.4	39444.77
685.748	39257.88
686.095	39243.19
686.443	39024.67
686.79	39119.35
687.138	39219.46
687.485	39124.1
687.832	38980.37
688.18	39036.19
688.527	38813.6
688.874	38754.16
689.221	38819.47
689.568	38654.51
689.915	38658.57
690.262	38595.98
690.609	38562.76
690.956	38406.6
691.303	38224.69
691.65	38172.26
691.997	38124.12
692.344	38066.73
692.69	37943.34
693.037	37933.4
693.383	37653.18
693.73	37649.11
694.077	37516.23
694.423	37591.71
694.769	37384.26
695.116	37277.37
695.462	37283.47
695.808	37298.38
696.155	37231.72
696.501	37012.29
696.847	36990.6
697.193	36772.52
697.539	36977.94
697.885	36633.99
698.231	36518.97
698.577	36622.24
698.923	36442.81
699.269	36321.46
699.614	36066.55
699.96	35942.94
700.306	36179.77
700.651	35925.54
700.997	35887.57
701.342	35715.37
701.688	35698.65
702.033	35701.36
702.379	35656.62
702.724	35465.66
703.069	35499.79
703.415	35084.88
703.76	35240.36
704.105	35126.92
704.45	35176.63
704.795	34874.72
705.14	34909.07
705.485	34754.95
705.83	34620.26
706.175	34787.49
706.52	34684.44
706.865	34452.13
707.209	34398.57
707.554	34244.23
707.899	34372.81
708.243	34198.13
708.588	34225.92
708.932	33975.53
709.277	33942.31
709.621	33821.19
709.966	33591.59
710.31	33692.15
710.654	33476.79
710.998	33395.44
711.342	33579.16
711.687	33553.17
712.031	33402.67
712.375	33251.26
712.719	33239.96
713.063	33314.08
713.407	33315.89
713.75	33086.29
714.094	33153.63
714.438	33057.37
714.782	33076.12
715.125	32875.68
715.469	33036.8
715.812	32772.85
716.156	32631.84
716.499	32629.81
716.843	32687.21
717.186	32341.68
717.53	32593.87
717.873	32501.22
718.216	32403.37
718.559	32221.23
718.902	32005.19
719.246	32084.28
719.589	32060.78
719.932	31927.23
720.275	32010.16
720.617	31787.34
720.96	31818.53
721.303	31616.05
721.646	31782.37
721.989	31561.81
722.331	31740.56
722.674	31604.75
723.016	31573.79
723.359	31479.55
723.701	31584.64
724.044	31339.22
724.386	31091.99
724.729	31371.53
725.071	31214.93
725.413	31126.79
725.755	31274.59
726.097	31059.45
726.439	30983.52
726.782	30979.68
727.124	31055.61
727.465	30806.35
727.807	30855.39
728.149	30778.56
728.491	30757.99
728.833	30742.4
729.175	30644.32
729.516	30620.37
729.858	30523.87
730.199	30480.71
730.541	30593.02
730.882	30486.36
731.224	30495.4
731.565	30309.87
731.906	30377.89
732.248	30371.56
732.589	30152.58
732.93	30157.1
733.271	30047.05
733.612	30139.48
733.953	30161.17
734.294	29908.3
734.635	29894.74
734.976	30016.54
735.317	29799.15
735.658	29823.55
735.999	29811.8
736.339	29743.1
736.68	29826.72
737.021	29712.14
737.361	29517.35
737.702	29644.57
738.042	29609.09
738.383	29503.11
738.723	29612.26
739.063	29377.24
739.404	29565.93
739.744	29440.29
740.084	29405.94
740.424	29387.18
740.764	29203.46
741.104	29228.77
741.444	29187.64
741.784	28977.02
742.124	29043.23
742.464	29062.44
742.804	28973.63
743.143	28959.62
743.483	28983.35
743.823	28766.86
744.162	28767.76
744.502	28904.03
744.841	28645.05
745.181	28731.6
745.52	28613.19
745.86	28706.52
746.199	28607.09
746.538	28502.91
746.877	28581.1
747.216	28566.86
747.556	28476.92
747.895	28485.51
748.234	28380.43
748.573	28263.37
748.911	28292.52
749.25	28314.89
749.589	28099.53
749.928	28124.16
750.267	28265.4
750.605	28033.77
750.944	27956.48
751.283	27884.85
751.621	28073.32
751.96	27790.84
752.298	27786.32
752.636	27801.46
752.975	27679.2
753.313	27631.97
753.651	27682.37
753.989	27476.5
754.327	27489.83
754.666	27352.66
755.004	27426.55
755.342	27402.15
755.679	27361.02
756.017	27161.7
756.355	27300.23
756.693	27137.52
757.031	27171.19
757.368	26983.63
757.706	27074.47
758.044	26815.95
758.381	26906.57
758.719	26737.98
759.056	26790.64
759.394	26754.48
759.731	26546.8
760.068	26423.19
760.405	26439.23
760.743	26269.52
761.08	26430.87
761.417	26192.69
761.754	26177.77
762.091	26058
762.428	26081.05
762.765	25923.09
763.102	25963.54
763.438	25742.3
763.775	25741.63
764.112	25701.85
764.449	25665.92
764.785	25664.34
765.122	25471.8
765.458	25309.77
765.795	25294.18
766.131	25292.37
766.467	25074.75
766.804	24970.57
767.14	24869.56
767.476	25101.87
767.812	24878.82
768.148	24882.89
768.485	24667.53
768.821	24546.18
769.157	24599.28
769.492	24372.4
769.828	24319.52
770.164	24149.35
770.5	24238.61
770.836	24169.69
771.171	24055.79
771.507	23999.07
771.842	23715.24
772.178	23712.07
772.513	23639.31
772.849	23659.65
773.184	23506.88
773.519	23554.79
773.855	23459.88
774.19	23159.32
774.525	23242.26
774.86	23177.4
775.195	23028.7
775.53	23062.37
775.865	23090.62
776.2	22753.46
776.535	22646.11
776.87	22688.37
777.205	22489.73
777.539	22377.65
777.874	22475.04
778.209	22316.18
778.543	22263.52
778.878	22141.49
779.212	22152.12
779.547	22061.72
779.881	22037.54
780.215	21812.92
780.55	21854.5
780.884	21750.09
781.218	21687.72
781.552	21723.88
781.886	21508.52
782.22	21391.68
782.554	21397.56
782.888	21200.05
783.222	21137.23
783.556	20925.25
783.889	20951.02
784.223	20717.8
784.557	20739.72
784.89	20790.57
785.224	20624.7
785.557	20508.99
785.891	20499.28
786.224	20523.01
786.558	20466.51
786.891	20221.77
787.224	20250.47
787.557	20170.25
787.891	20108.78
788.224	20107.65
788.557	20011.83
788.89	19965.28
789.223	20003.02
789.556	19782.69
789.888	19814.78
790.221	19652.75
790.554	19495.24
790.887	19482.13
791.219	19521
791.552	19391.28
791.884	19358.52
792.217	19187
792.549	19130.05
792.882	19049.82
793.214	19018.19
793.546	19095.7
793.879	18849.38
794.211	18817.74
794.543	18964.63
794.875	18786.78
795.207	18786.1
795.539	18656.84
795.871	18593.79
796.203	18557.63
796.535	18347.92
796.867	18410.52
797.198	18325.55
797.53	18210.3
797.862	18131.66
798.193	18192.22
798.525	18048.27
798.856	18094.14
799.188	17834.94
799.519	17816.64
799.85	17755.17
800.182	17827.94
800.513	17776.64
800.844	17650.31
801.175	17625.68
801.506	17675.4
801.837	17469.07
802.168	17441.73
802.499	17509.75
802.83	17336.65
803.161	17387.27
803.491	17322.86
803.822	17265.01
804.153	17075.19
804.483	17045.81
804.814	17032.7
805.145	16933.5
805.475	16917.68
805.805	16846.04
806.136	16867.51
806.466	16895.3
806.796	16752.94
807.126	16703.44
807.457	16653.95
807.787	16700.06
808.117	16478.37
808.447	16466.39
808.777	16519.95
809.107	16408.76
809.436	16336
809.766	16366.05
810.096	16311.14
810.426	16220.07
810.755	16268.43
811.085	16163.12
811.414	16136
811.744	16023.24
812.073	15899.4
812.403	15982.79
812.732	15878.83
813.061	15908.44
813.39	15826.63
813.719	15770.81
814.049	15845.16
814.378	15731.27
814.707	15724.04
815.036	15704.15
815.365	15510.71
815.693	15455.12
816.022	15490.6
816.351	15365.63
816.68	15378.06
817.008	15435
817.337	15234.11
817.665	15174.22
817.994	15290.15
818.322	15211.28
818.651	15180.77
818.979	15066.65
819.307	15170.15
819.636	15106.2
819.964	14973.1
820.292	15065.97
820.62	15104.62
820.948	15028.46
821.276	15095.35
821.604	14930.84
821.932	14999.31
822.259	15016.71
822.587	14946.2
822.915	14893.32
823.243	15006.99
823.57	14836.83
823.898	15016.48
824.225	14832.31
824.553	14915.92
824.88	14919.99
825.207	14904.85
825.535	15021.46
825.862	14945.98
826.189	14929.25
826.516	14927.22
826.843	14957.05
827.17	14926.32
827.497	14940.55
827.824	14889.48
828.151	14957.28
828.478	14867.56
828.805	14992.08
829.131	14901.23
829.458	14947.56
829.785	14713.89
830.111	14862.36
830.438	14892.19
830.764	14817.39
831.09	14869.59
831.417	14695.59
831.743	14781.24
832.069	14873.66
832.395	14759.77
832.722	14812.65
833.048	14814
833.374	14698.98
833.7	14662.59
834.026	14618.75
834.351	14593.9
834.677	14693.33
835.003	14685.19
835.329	14723.61
835.654	14703.27
835.98	14580.56
836.306	14658.75
836.631	14604.52
836.956	14670.28
837.282	14644.29
837.607	14549.15
837.932	14485.65
838.258	14403.84
838.583	14426.89
838.908	14343.73
839.233	14391.19
839.558	14402.04
839.883	14358.87
840.208	14316.16
840.533	14170.86
840.858	14241.14
841.182	14272.32
841.507	14218.31
841.832	14097.86
842.156	14147.58
842.481	14125.89
842.805	14071.2
843.13	14012.67
843.454	14027.58
843.778	13892.9
844.103	13920.02
844.427	13931.54
844.751	13932.67
845.075	13943.07
845.399	13814.48
845.723	13757.31
846.047	13773.8
846.371	13569.52
846.695	13638.21
847.019	13532.23
847.343	13455.62
847.666	13411.1
847.99	13379.46
848.313	13362.97
848.637	13219.24
848.96	13198
849.284	13166.81
849.607	13052.69
849.931	13059.25
850.254	13018.8
850.577	12871.91
850.9	12871.46
851.223	12901.96
851.546	12789.2
851.869	12793.04
852.192	12734.74
852.515	12629.88
852.838	12675.98
853.161	12611.12
853.483	12557.57
853.806	12497.23
854.129	12500.84
854.451	12408.42
854.774	12387.85
855.096	12391.69
855.419	12267.4
855.741	12232.83
856.063	12119.84
856.385	12161.64
856.708	12149.67
857.03	12078.48
857.352	12100.85
857.674	12008.43
857.996	11996.9
858.318	11907.41
858.64	11864.7
858.961	11811.6
859.283	11701.99
859.605	11787.19
859.926	11814.53
860.248	11706.74
860.57	11698.83
860.891	11602.79
861.212	11683.01
861.534	11565.5
861.855	11595.33
862.176	11511.04
862.498	11608.44
862.819	11527.99
863.14	11555.78
863.461	11424.49
863.782	11413.19
864.103	11419.29
864.424	11426.97
864.745	11412.96
865.065	11388.56
865.386	11285.73
865.707	11307.43
866.027	11300.2
866.348	11304.94
866.668	11324.83
866.989	11190.14
867.309	11164.83
867.63	11166.64
867.95	11209.13
868.27	11082.58
868.59	11127.09
868.91	11159.86
869.23	11098.39
869.55	11050.26
869.87	11144.72
870.19	11080.54
870.51	11028.11
870.83	11027.21
871.15	11013.2
871.469	10940.66
871.789	11039.64
872.109	10913.31
872.428	10929.36
872.748	10918.96
873.067	10909.02
873.386	10842.58
873.706	10890.94
874.025	10846.2
874.344	10772.75
874.663	10842.81
874.982	10786.31
875.301	10759.65
875.62	10696.15
875.939	10712.19
876.258	10745.64
876.577	10672.87
876.896	10724.17
877.214	10581.8
877.533	10625.41
877.852	10597.39
878.17	10595.58
878.489	10633.32
878.807	10642.81
879.125	10544.06
879.444	10549.48
879.762	10587
880.08	10506.32
880.398	10455.93
880.716	10397.17
881.034	10444.17
881.352	10498.18
881.67	10441.69
881.988	10392.88
882.306	10436.04
882.624	10288.47
882.941	10291.41
883.259	10226.33
883.577	10192.2
883.894	10215.71
884.212	10192.2
884.529	10182.49
884.846	10141.13
885.164	10128.93
885.481	10145.2
885.798	10075.14
886.115	10006.67
886.432	9976.62
886.75	10014.58
887.067	10001.02
887.383	9990.4
887.7	9961.93
888.017	9985.2
888.334	9936.84
888.651	9890.29
888.967	9850.52
889.284	9802.61
889.6	9759.9
889.917	9670.64
890.233	9734.59
890.55	9670.41
890.866	9669.28
891.182	9678.32
891.498	9591.99
891.815	9558.32
892.131	9536.63
892.447	9566.68
892.763	9557.87
893.079	9471.77
893.395	9467.48
893.71	9404.2
894.026	9429.29
894.342	9397.65
894.657	9371.43
894.973	9312
895.289	9199.69
895.604	9275.17
895.92	9250.53
896.235	9153.81
896.55	9177.54
896.865	9147.03
897.181	9050.09
897.496	9135.73
897.811	9030.88
898.126	8964.67
898.441	8967.83
898.756	9003.53
899.071	8912.24
899.386	8967.15
899.7	8865.01
900.015	8860.71
900.33	8724.67
900.644	8713.6
900.959	8766.48
901.273	8730.55
901.588	8621.17
901.902	8591.79
902.216	8642.19
902.531	8613.71
902.845	8569.87
903.159	8531.68
903.473	8441.52
903.787	8455.53
904.101	8370.78
904.415	8392.93
904.729	8391.35
905.042	8313.16
905.356	8251.92
905.67	8284.91
905.984	8253.95
906.297	8282.65
906.611	8086.5
906.924	8198.36
907.237	8132.6
907.551	8087.63
907.864	8043.11
908.177	8013.96
908.491	8006.95
908.804	7960.85
909.117	7948.19
909.43	7902.09
909.743	7809.44
910.056	7852.38
910.368	7802.44
910.681	7764.47
910.994	7777.58
911.307	7733.51
911.619	7615.32
911.932	7692.38
912.244	7539.84
912.557	7589.79
912.869	7510.92
913.181	7505.95
913.494	7457.59
913.806	7416.91
914.118	7454.87
914.43	7316.35
914.742	7357.48
915.054	7283.35
915.366	7285.61
915.678	7207.65
915.99	7232.28
916.302	7238.84
916.613	7181.89
916.925	7119.06
917.236	7157.71
917.548	7096.24
917.859	7117.48
918.171	7038.84
918.482	7012.4
918.794	6949.35
919.105	6960.2
919.416	6889.69
919.727	6948.45
920.038	6847.43
920.349	6784.38
920.66	6816.7
920.971	6798.62
921.282	6769.92
921.593	6717.94
921.903	6702.58
922.214	6650.83
922.525	6626.65
922.835	6582.58
923.146	6576.03
923.456	6486.31
923.767	6523.15
924.077	6462.58
924.387	6457.61
924.697	6394.34
925.008	6404.96
925.318	6345.53
925.628	6367.9
925.938	6303.72
926.248	6274.11
926.558	6284.28
926.867	6213.55
927.177	6215.13
927.487	6126.77
927.796	6120.22
928.106	6101.24
928.416	6072.99
928.725	6078.41
929.034	6041.35
929.344	6080
929.653	6051.75
929.962	5994.8
930.271	5944.63
930.581	5933.33
930.89	5885.2
931.199	5832.09
931.508	5860.34
931.817	5854.24
932.125	5798.87
932.434	5747.12
932.743	5717.07
933.051	5707.58
933.36	5720.68
933.669	5645.88
933.977	5666.67
934.286	5594.81
934.594	5641.36
934.902	5600.91
935.21	5529.05
935.519	5470.07
935.827	5521.59
936.135	5491.76
936.443	5410.18
936.751	5386.68
937.059	5395.49
937.367	5383.97
937.674	5397.75
937.982	5342.39
938.29	5335.83
938.597	5291.09
938.905	5283.86
939.213	5272.56
939.52	5207.48
939.827	5249.28
940.135	5193.01
940.442	5199.34
940.749	5154.6
941.056	5170.41
941.363	5097.87
941.67	5124.31
941.977	5061.04
942.284	4990.31
942.591	5023.07
942.898	5007.71
943.205	4993.24
943.511	4983.75
943.818	4946.92
944.125	4870.99
944.431	4894.72
944.738	4932.68
945.044	4885.22
945.35	4821.72
945.657	4813.36
945.963	4767.04
946.269	4732.69
946.575	4757.32
946.881	4699.69
947.187	4639.58
947.493	4701.27
947.799	4686.13
948.105	4642.52
948.41	4621.5
948.716	4619.69
949.022	4635.06
949.327	4540.15
949.633	4523.43
949.938	4570.66
950.244	4517.1
950.549	4462.18
950.854	4415.18
951.16	4467.83
951.465	4431.9
951.77	4423.77
952.075	4397.1
952.38	4371.57
952.685	4366.37
952.99	4298.8
953.294	4305.13
953.599	4283.88
953.904	4281.62
954.209	4207.05
954.513	4257.22
954.818	4249.31
955.122	4214.51
955.426	4207.05
955.731	4129.54
956.035	4129.76
956.339	4149.2
956.643	4127.73
956.948	4090.9
957.252	4087.05
957.556	4072.82
957.86	4023.1
958.163	4004.12
958.467	4028.07
958.771	3983.55
959.075	3937.9
959.378	3961.18
959.682	3916.21
959.985	3920.96
960.289	3886.38
960.592	3887.96
960.896	3888.87
961.199	3848.19
961.502	3859.26
961.805	3800.51
962.108	3814.29
962.411	3784.46
962.714	3758.02
963.017	3760.96
963.32	3751.47
963.623	3717.12
963.926	3684.35
964.228	3699.72
964.531	3648.42
964.833	3649.1
965.136	3645.26
965.438	3580.4
965.741	3613.39
966.043	3537.24
966.345	3582.43
966.648	3580.85
966.95	3552.83
967.252	3509.44
967.554	3534.07
967.856	3523.9
968.158	3472.83
968.46	3494.07
968.761	3472.61
969.063	3441.65
969.365	3440.97
969.666	3453.62
969.968	3395.32
970.269	3375.21
970.571	3373.4
970.872	3348.09
971.174	3325.72
971.475	3308.54
971.776	3296.11
972.077	3323.68
972.378	3258.37
972.679	3253.86
972.98	3205.27
973.281	3247.98
973.582	3201.2
973.883	3217.02
974.183	3178.6
974.484	3176.57
974.785	3177.47
975.085	3125.72
975.386	3131.6
975.686	3122.79
975.986	3142.45
976.287	3144.93
976.587	3045.27
976.887	3080.53
977.187	3022.22
977.487	3048.89
977.787	3020.87
978.087	2979.74
978.387	2959.63
978.687	2975.67
978.987	3007.99
979.286	2942.68
979.586	2952.39
979.885	2927.99
980.185	2892.51
980.484	2904.03
980.784	2923.69
981.083	2899.74
981.382	2874.88
981.682	2863.36
981.981	2840.53
982.28	2832.17
982.579	2806.86
982.878	2796.69
983.177	2790.36
983.475	2763.92
983.774	2778.16
984.073	2740.42
984.372	2765.73
984.67	2730.48
984.969	2737.48
985.267	2708.33
985.566	2718.05
985.864	2666.98
986.162	2708.56
986.461	2656.36
986.759	2668.56
987.057	2591.73
987.355	2601.44
987.653	2617.49
987.951	2601.89
988.249	2579.75
988.547	2592.63
988.844	2587.88
989.142	2540.2
989.44	2567.32
989.737	2513.31
990.035	2520.32
990.332	2523.93
990.63	2510.6
990.927	2483.71
991.224	2489.36
991.521	2447.77
991.819	2450.26
992.116	2452.29
992.413	2411.84
992.71	2366.42
993.006	2397.61
993.303	2376.82
993.6	2356.93
993.897	2347.44
994.193	2325.52
994.49	2329.81
994.787	2320.09
995.083	2339.98
995.379	2326.87
995.676	2294.56
995.972	2302.47
996.268	2273.54
996.565	2261.34
996.861	2245.97
997.157	2223.83
997.453	2230.15
997.749	2219.98
998.044	2200.78
998.34	2221.57
998.636	2236.03
998.932	2184.28
999.227	2178.4
999.523	2180.89
999.818	2154.45
1000.114	2140.66
1000.409	2140.66
1000.704	2100.21
1001	2117.61
1001.295	2076.26
1001.59	2101.8
1001.885	2089.37
1002.18	2053.21
1002.475	2062.47
1002.77	2020.44
1003.065	2018.86
1003.359	2012.31
1003.654	2005.53
1003.949	2008.69
1004.243	2009.37
1004.538	1971.63
1004.832	1986.09
1005.127	1967.34
1005.421	1944.29
1005.715	1947
1006.009	1950.84
1006.304	1888.47
1006.598	1881.01
1006.892	1912.87
1007.186	1869.03
1007.48	1884.85
1007.773	1861.58
1008.067	1822.71
1008.361	1859.32
1008.655	1804.4
1008.948	1795.81
1009.242	1813.22
1009.535	1803.05
1009.829	1808.92
1010.122	1804.85
1010.415	1761.24
1010.708	1747.68
1011.001	1707.23
1011.295	1721.24
1011.588	1728.02
1011.881	1690.73
1012.173	1687.57
1012.466	1702.48
1012.759	1699.77
1013.052	1661.58
1013.344	1651.64
1013.637	1704.97
1013.93	1674.46
1014.222	1617.97
1014.514	1630.62
1014.807	1608.47
1015.099	1594.01
1015.391	1574.13
1015.683	1590.62
1015.976	1591.53
1016.268	1577.06
1016.56	1545.2
1016.851	1549.72
1017.143	1559.66
1017.435	1539.55
1017.727	1530.74
1018.018	1549.72
1018.31	1521.25
1018.602	1495.94
1018.893	1471.98
1019.185	1480.79
1019.476	1465.65
1019.767	1467.91
1020.058	1490.96
1020.35	1461.13
1020.641	1428.59
1020.932	1412.77
1021.223	1426.11
1021.514	1418.42
1021.804	1392.21
1022.095	1345.43
1022.386	1357.63
1022.677	1368.48
1022.967	1377.07
1023.258	1347.24
1023.548	1368.03
1023.839	1305.21
1024.129	1301.82
1024.419	1300.46
1024.709	1289.39
1025	1304.53
1025.29	1308.6
1025.58	1275.38
1025.87	1278.77
1026.16	1264.3
1026.449	1274.02
1026.739	1259.78
1027.029	1237.18
1027.319	1242.16
1027.608	1230.63
1027.898	1198.99
1028.187	1209.39
1028.477	1192.67
1028.766	1175.94
1029.055	1161.93
1029.344	1170.29
1029.634	1171.2
1029.923	1152.22
1030.212	1152.22
1030.501	1146.57
1030.79	1119.45
1031.078	1149.05
1031.367	1127.81
1031.656	1127.36
1031.945	1108.83
1032.233	1094.36
1032.522	1100.24
1032.81	1088.94
1033.099	1071.77
1033.387	1083.06
1033.675	1064.76
1033.963	1057.98
1034.251	1073.35
1034.54	1010.98
1034.828	1044.2
1035.116	1044.2
1035.403	1028.83
1035.691	1024.08
1035.979	989.73
1036.267	1015.95
1036.554	1010.75
1036.842	996.51
1037.129	994.71
1037.417	982.73
1037.704	982.05
1037.992	975.27
1038.279	972.33
1038.566	975.04
1038.853	975.04
1039.14	975.04
