Data from hue_180_FLMS001491_00093.txt Node
Date: Tue Feb 07 16:47:44 GMT 2017
User: dcchb
Spectrometer: FLMS00149
Trigger mode: 0
Integration Time (sec): 2.000000E-2
Scans to average: 10
Electric dark correction enabled: true
Nonlinearity correction enabled: false
Boxcar width: 0
XAxis mode: Wavelengths
Number of Pixels in Spectrum: 2048
>>>>>Begin Spectral Data<<<<<
341.393	-9.66
341.776	-9.66
342.16	-9.66
342.543	-70.45
342.927	-57.12
343.31	-56.67
343.693	-64.35
344.077	-72.94
344.46	-57.12
344.843	-52.37
345.226	-41.75
345.61	-28.42
345.993	-23.67
346.376	-19.83
346.759	7.06
347.142	26.27
347.525	41.86
347.908	59.72
348.291	87.96
348.674	94.97
349.057	99.26
349.44	129.32
349.823	137
350.206	142.2
350.588	215.42
350.971	205.02
351.354	219.71
351.737	235.08
352.119	243.89
352.502	252.71
352.884	281.63
353.267	281.41
353.65	286.6
354.032	301.29
354.414	311.69
354.797	301.74
355.179	318.92
355.562	305.81
355.944	322.99
356.326	325.25
356.709	332.03
357.091	332.93
357.473	331.12
357.855	326.6
358.238	337.22
358.62	332.7
359.002	328.86
359.384	350.1
359.766	331.57
360.148	327.05
360.53	339.93
360.912	331.8
361.294	329.99
361.676	326.83
362.057	335.87
362.439	334.28
362.821	337.22
363.203	335.19
363.584	326.83
363.966	320.95
364.348	328.64
364.729	302.42
365.111	309.2
365.493	315.08
365.874	324.57
366.256	313.27
366.637	321.18
367.019	306.26
367.4	303.33
367.781	317.11
368.163	315.3
368.544	306.04
368.925	306.72
369.306	332.48
369.688	325.25
370.069	324.57
370.45	279.82
370.831	308.07
371.212	312.36
371.593	287.28
371.974	305.81
372.355	293.38
372.736	309.88
373.117	323.66
373.498	300.16
373.879	304.68
374.26	330.44
374.641	309.65
375.021	307.17
375.402	327.51
375.783	325.47
376.163	329.54
376.544	332.7
376.925	319.6
377.305	323.66
377.686	334.51
378.066	321.18
378.447	322.99
378.827	325.7
379.208	327.28
379.588	330.44
379.968	331.57
380.349	339.48
380.729	327.28
381.109	328.64
381.489	349.2
381.87	351.69
382.25	330.67
382.63	321.86
383.01	344
383.39	340.61
383.77	332.48
384.15	322.76
384.53	347.84
384.91	343.32
385.29	358.01
385.67	338.58
386.049	353.04
386.429	345.13
386.809	361.4
387.189	350.1
387.568	342.87
387.948	361.4
388.328	359.37
388.707	346.71
389.087	354.85
389.466	355.08
389.846	365.47
390.225	362.08
390.605	374.51
390.984	365.92
391.363	365.24
391.743	380.61
392.122	369.54
392.501	390.1
392.881	362.08
393.26	381.06
393.639	372.48
394.018	386.26
394.397	376.32
394.776	374.96
395.155	393.49
395.534	356.88
395.913	371.12
396.292	370.67
396.671	378.13
397.05	401.18
397.429	396.66
397.808	410.67
398.186	390.78
398.565	391.91
398.944	408.63
399.323	391.91
399.701	384.23
400.08	399.82
400.458	400.05
400.837	416.32
401.215	414.51
401.594	412.93
401.972	412.25
402.351	425.58
402.729	428.29
403.107	405.24
403.486	424.9
403.864	422.19
404.242	429.65
404.62	422.87
404.999	441.63
405.377	455.41
405.755	448.18
406.133	447.95
406.511	453.83
406.889	458.58
407.267	443.66
407.645	481.17
408.023	475.52
408.401	459.93
408.779	482.3
409.156	472.36
409.534	470.33
409.912	489.76
410.29	482.76
410.667	509.2
411.045	521.17
411.422	503.77
411.8	522.3
412.178	534.51
412.555	515.75
412.933	537.22
413.31	536.09
413.687	556.88
414.065	549.65
414.442	563.21
414.819	563.43
415.197	589.42
415.574	580.15
415.951	587.84
416.328	570.21
416.705	608.4
417.082	614.5
417.46	628.29
417.837	607.05
418.214	621.74
418.591	642.3
418.967	630.1
419.344	645.69
419.721	669.19
420.098	678.91
420.475	696.76
420.852	691.34
421.228	704.22
421.605	691.34
421.982	720.94
422.358	716.2
422.735	719.13
423.111	750.09
423.488	750.77
423.864	744.22
424.241	793.71
424.617	790.77
424.994	777.66
425.37	811.79
425.746	815.63
426.123	843.42
426.499	823.99
426.875	838
427.251	833.93
427.627	872.8
428.003	888.39
428.379	890.43
428.756	870.09
429.132	902.63
429.507	923.42
429.883	940.6
430.259	925.91
430.635	917.32
431.011	945.34
431.387	994.15
431.763	971.56
432.138	995.96
432.514	991.44
432.89	1033.48
433.265	1030.99
433.641	1017.88
434.016	1053.14
434.392	1081.38
434.767	1101.04
435.143	1091.78
435.518	1117.77
435.894	1156.18
436.269	1176.75
436.644	1186.92
437.02	1195.51
437.395	1204.77
437.77	1215.84
438.145	1245.67
438.52	1266.24
438.895	1279.8
439.271	1289.29
439.646	1313.02
440.021	1322.96
440.395	1338.78
440.77	1339.68
441.145	1383.97
441.52	1371.09
441.895	1435.72
442.27	1380.13
442.645	1428.04
443.019	1458.1
443.394	1442.05
443.769	1477.76
444.143	1470.3
444.518	1479.34
444.892	1464.42
445.267	1527.25
445.641	1506.01
446.016	1531.77
446.39	1564.31
446.764	1571.09
447.139	1554.14
447.513	1573.12
447.887	1584.42
448.262	1605.21
448.636	1593.01
449.01	1618.55
449.384	1659.67
449.758	1663.52
450.132	1687.02
450.506	1689.73
450.88	1694.93
451.254	1741.71
451.628	1747.36
452.002	1769.05
452.376	1766.34
452.75	1770.63
453.123	1795.04
453.497	1843.17
453.871	1841.36
454.244	1875.71
454.618	1885.2
454.992	1907.35
455.365	1933.79
455.739	1934.24
456.112	2011.08
456.486	1999.55
456.859	2003.62
457.232	2089.72
457.606	2064.86
457.979	2072.32
458.352	2133.56
458.725	2143.05
459.099	2165.2
459.472	2193.9
459.845	2198.64
460.218	2251.75
460.591	2265.53
460.964	2295.82
461.337	2307.11
461.71	2377.4
462.083	2395.25
462.456	2396.15
462.829	2424.85
463.201	2454.23
463.574	2487
463.947	2518.63
464.32	2591.4
464.692	2620.78
465.065	2646.54
465.438	2674.79
465.81	2738.74
466.183	2729.48
466.555	2803.15
466.928	2814.45
467.3	2812.41
467.672	2886.08
468.045	2959.98
468.417	2976.48
468.789	3001.79
469.161	3018.73
469.534	3094.89
469.906	3145.96
470.278	3162.46
470.65	3245.17
471.022	3292.17
471.394	3352.06
471.766	3425.96
472.138	3427.99
472.51	3507.08
472.882	3574.2
473.253	3602.67
473.625	3661.2
473.997	3741.88
474.369	3791.37
474.74	3822.33
475.112	3898.03
475.484	4015.09
475.855	4050.35
476.227	4125.15
476.598	4245.82
476.97	4325.82
477.341	4357.46
477.713	4427.96
478.084	4504.34
478.455	4606.94
478.827	4673.15
479.198	4821.4
479.569	4854.39
479.94	5011
480.311	5065.46
480.682	5177.77
481.053	5295.74
481.424	5395.85
481.795	5462.51
482.166	5526.69
482.537	5632.68
482.908	5775.5
483.279	5848.72
483.65	5988.15
484.021	6082.38
484.391	6192.66
484.762	6207.58
485.133	6320.12
485.503	6408.02
485.874	6497.51
486.244	6622.71
486.615	6743.83
486.985	6876.03
487.356	7026.54
487.726	7029.25
488.097	7224.5
488.467	7250.49
488.837	7410.71
489.207	7462.91
489.578	7625.62
489.948	7725.05
490.318	7819.51
490.688	7829.46
491.058	8021.77
491.428	8119.84
491.798	8204.36
492.168	8382.21
492.538	8420.17
492.908	8594.86
493.278	8624.01
493.648	8648.64
494.017	8770.22
494.387	8820.84
494.757	8925.92
495.126	9042.76
495.496	9072.59
495.866	9093.83
496.235	9170.44
496.605	9303.54
496.974	9338.57
497.344	9514.16
497.713	9407.72
498.082	9503.31
498.452	9678.45
498.821	9676.64
499.19	9685.9
499.559	9756.86
499.928	9783.08
500.298	9859.46
500.667	10061.94
501.036	9993.92
501.405	10074.82
501.774	10059.23
502.143	10100.58
502.512	10170.41
502.88	10270.75
503.249	10299.45
503.618	10300.35
503.987	10359.33
504.356	10389.61
504.724	10500.57
505.093	10412.21
505.462	10528.82
505.83	10569.04
506.199	10647.23
506.567	10651.75
506.936	10681.81
507.304	10747.8
507.672	10776.5
508.041	10789.6
508.409	10892.88
508.777	10949.83
509.145	10968.13
509.514	10913.44
509.882	10979.2
510.25	10967
510.618	11024.17
510.986	10986.43
511.354	11050.61
511.722	11152.08
512.09	11207.9
512.458	11159.76
512.826	11222.81
513.193	11251.74
513.561	11262.13
513.929	11284.96
514.297	11335.8
514.664	11325.41
515.032	11342.36
515.4	11416.93
515.767	11425.29
516.135	11521.34
516.502	11308.23
516.869	11623.48
517.237	11475.46
517.604	11421.9
517.972	11535.12
518.339	11588.23
518.706	11582.58
519.073	11534.22
519.44	11608.34
519.808	11650.37
520.175	11548.23
520.542	11722.46
520.909	11687.21
521.276	11684.27
521.643	11686.3
522.009	11672.29
522.376	11782.8
522.743	11733.08
523.11	11734.89
523.477	11906.86
523.843	11767.43
524.21	11928.78
524.577	11910.48
524.943	11890.59
525.31	11986.86
525.676	11965.62
526.043	11933.53
526.409	11954.77
526.776	11993.19
527.142	12042.68
527.508	12037.93
527.874	12092.39
528.241	12087.87
528.607	12012.17
528.973	12018.05
529.339	11974.43
529.705	12019.18
530.071	12058.95
530.437	12049.46
530.803	12042
531.169	11974.2
531.535	11977.37
531.901	11996.13
532.267	11913.87
532.632	11965.84
532.998	11852.17
533.364	11977.82
533.73	11828.9
534.095	11858.28
534.461	11828.9
534.826	11771.95
535.192	11802.91
535.557	11839.29
535.923	11716.13
536.288	11676.59
536.653	11687.43
537.019	11597.72
537.384	11584.84
537.749	11611.28
538.114	11551.62
538.479	11486.31
538.845	11483.37
539.21	11381.23
539.575	11319.76
539.94	11357.27
540.305	11376.25
540.67	11327.89
541.034	11288.12
541.399	11238.86
541.764	11140.55
542.129	11143.94
542.494	11166.99
542.858	11093.1
543.223	11072.99
543.587	11064.62
543.952	10972.65
544.316	10937.85
544.681	10934.91
545.045	10911.86
545.41	10835.48
545.774	10775.59
546.138	10813.33
546.503	10796.16
546.867	10689.49
547.231	10684.97
547.595	10619.21
547.959	10571.08
548.324	10517.75
548.688	10489.27
549.052	10481.59
549.416	10422.38
549.779	10425.77
550.143	10348.26
550.507	10411.53
550.871	10324.76
551.235	10215.83
551.599	10251.76
551.962	10218.32
552.326	10192.33
552.689	10139
553.053	10065.55
553.417	10048.38
553.78	10083.63
554.143	10034.59
554.507	10021.94
554.87	10000.92
555.234	9998.89
555.597	9942.17
555.96	9873.24
556.323	9913.47
556.686	9831.89
557.05	9853.81
557.413	9855.16
557.776	9806.13
558.139	9819.91
558.502	9751.66
558.865	9762.29
559.228	9775.62
559.59	9795.28
559.953	9719.35
560.316	9792.34
560.679	9674.6
561.041	9738.56
561.404	9720.25
561.767	9742.4
562.129	9672.34
562.492	9715.28
562.854	9719.57
563.217	9725.45
563.579	9706.69
563.941	9686.81
564.304	9658.56
564.666	9729.97
565.028	9670.31
565.39	9653.59
565.753	9707.37
566.115	9692.91
566.477	9655.4
566.839	9671.21
567.201	9716.41
567.563	9720.25
567.925	9698.78
568.287	9674.83
568.648	9662.63
569.01	9715.73
569.372	9676.86
569.734	9699.69
570.095	9713.02
570.457	9712.8
570.819	9742.4
571.18	9731.55
571.542	9751.66
571.903	9733.81
572.265	9729.07
572.626	9717.99
572.987	9713.47
573.349	9778.78
573.71	9770.65
574.071	9682.51
574.432	9696.52
574.794	9765.68
575.155	9741.72
575.516	9702.17
575.877	9670.31
576.238	9743.53
576.599	9781.72
576.96	9745.11
577.32	9762.74
577.681	9708.28
578.042	9785.11
578.403	9771.32
578.763	9750.08
579.124	9780.59
579.485	9750.31
579.845	9833.47
580.206	9672.34
580.566	9760.93
580.927	9733.13
581.287	9725
581.648	9772.68
582.008	9691.78
582.368	9692.46
582.728	9709.18
583.089	9689.75
583.449	9702.17
583.809	9733.13
584.169	9667.6
584.529	9649.52
584.889	9739.69
585.249	9617.66
585.609	9607.26
585.969	9626.7
586.329	9668.05
586.688	9632.57
587.048	9610.65
587.408	9567.04
587.768	9570.2
588.127	9565.68
588.487	9490.65
588.846	9579.01
589.206	9531.33
589.565	9471.9
589.925	9610.88
590.284	9525.23
590.643	9496.53
591.003	9475.29
591.362	9515.06
591.721	9538.34
592.08	9477.77
592.44	9507.83
592.799	9444.1
593.158	9504.21
593.517	9438.23
593.876	9435.74
594.235	9445.91
594.593	9457.43
594.952	9450.88
595.311	9366.36
595.67	9415.4
596.029	9455.85
596.387	9434.38
596.746	9381.73
597.104	9436.19
597.463	9411.56
597.822	9465.8
598.18	9343.31
598.538	9329.3
598.897	9372.47
599.255	9354.16
599.613	9413.82
599.972	9382.63
600.33	9387.38
600.688	9314.84
601.046	9313.03
601.404	9362.52
601.762	9367.27
602.12	9436.19
602.478	9371.79
602.836	9345.12
603.194	9319.59
603.552	9380.6
603.91	9343.54
604.268	9317.1
604.625	9281.39
604.983	9265.58
605.341	9260.15
605.698	9348.51
606.056	9402.07
606.413	9339.92
606.771	9381.28
607.128	9359.81
607.485	9300.15
607.843	9248.85
608.2	9393.03
608.557	9339.02
608.914	9318.68
609.272	9503.99
609.629	9358
609.986	9388.06
610.343	9333.37
610.7	9411.33
611.057	9416.31
611.414	9365.01
611.771	9377.66
612.127	9412.92
612.484	9397.1
612.841	9435.06
613.198	9366.14
613.554	9376.31
613.911	9430.77
614.267	9441.84
614.624	9402.97
614.98	9511.44
615.337	9442.07
615.693	9446.14
616.05	9430.09
616.406	9536.53
616.762	9482.07
617.118	9435.06
617.475	9441.62
617.831	9429.64
618.187	9518.68
618.543	9449.3
618.899	9534.5
619.255	9581.27
619.611	9522.29
619.967	9558
620.323	9593.93
620.678	9494.04
621.034	9489.75
621.39	9536.08
621.746	9518.68
622.101	9584.21
622.457	9513.93
622.812	9569.75
623.168	9605
623.523	9577.43
623.879	9599.35
624.234	9504.89
624.589	9510.54
624.945	9521.16
625.3	9596.64
625.655	9525.23
626.01	9502.63
626.365	9503.08
626.72	9530.2
627.075	9494.27
627.43	9474.84
627.785	9516.64
628.14	9491.78
628.495	9495.17
628.85	9521.61
629.205	9484.55
629.559	9516.87
629.914	9511.67
630.269	9490.43
630.623	9452.92
630.978	9428.06
631.332	9426.93
631.687	9408.4
632.041	9435.51
632.396	9435.29
632.75	9438.9
633.104	9364.78
633.459	9345.12
633.813	9387.83
634.167	9353.93
634.521	9323.65
634.875	9295.86
635.229	9369.98
635.583	9279.81
635.937	9299.92
636.291	9315.97
636.645	9300.15
636.999	9200.27
637.352	9270.32
637.706	9219.25
638.06	9219.7
638.413	9223.99
638.767	9165.92
639.121	9192.36
639.474	9119.59
639.828	9165.69
640.181	9164.79
640.534	9148.06
640.888	9153.04
641.241	9101.06
641.594	9116.2
641.947	9135.18
642.301	9069.87
642.654	9128.18
643.007	9132.25
643.36	8982.87
643.713	9052.47
644.066	9111.46
644.419	9007.28
644.771	8981.29
645.124	8905.13
645.477	8926.83
645.83	8894.29
646.182	8875.53
646.535	8799.83
646.888	8866.94
647.24	8786.72
647.593	8843.44
647.945	8743.78
648.298	8741.07
648.65	8686.83
649.002	8678.25
649.355	8752.59
649.707	8800.5
650.059	8836.43
650.411	8953.27
650.763	8942.87
651.115	9020.61
651.467	8935.64
651.819	8954.4
652.171	8936.32
652.523	8980.84
652.875	8944.68
653.227	8928.18
653.578	8941.52
653.93	8969.54
654.282	8884.79
654.633	8916.66
654.985	8900.39
655.337	8952.36
655.688	8981.29
656.039	9015.41
656.391	8940.16
656.742	9050.21
657.094	8953.72
657.445	9026.49
657.796	8990.55
658.147	8957.11
658.498	9018.58
658.849	9002.98
659.2	9033.04
659.551	9005.7
659.902	9045.47
660.253	9025.81
660.604	8977.67
660.955	8977.45
661.306	9031.23
661.656	9035.3
662.007	9032.59
662.358	9044.79
662.708	9066.94
663.059	8993.04
663.409	8970.22
663.76	9041.4
664.11	9057.45
664.461	9099.25
664.811	9021.51
665.161	9071.91
665.511	9015.86
665.862	9033.72
666.212	9072.59
666.562	9066.71
666.912	9004.57
667.262	9095.18
667.612	9088.18
667.962	9074.17
668.312	9076.88
668.662	9072.13
669.011	9066.03
669.361	9068.52
669.711	9077.33
670.06	9011.8
670.41	9002.76
670.76	9035.07
671.109	9014.06
671.459	9044.11
671.808	8992.59
672.157	8969.99
672.507	8913.27
672.856	8934.06
673.205	9006.6
673.554	8974.28
673.904	8973.15
674.253	8966.83
674.602	8968.18
674.951	8792.59
675.3	8772.03
675.649	8946.26
675.998	8838.47
676.346	8903.1
676.695	8915.98
677.044	8857.45
677.393	8917.11
677.741	8880.27
678.09	8853.38
678.438	8791.92
678.787	8875.76
679.135	8791.46
679.484	8825.14
679.832	8813.16
680.181	8817.23
680.529	8800.5
680.877	8718.47
681.225	8718.47
681.573	8764.35
681.922	8669.66
682.27	8701.07
682.618	8699.71
682.966	8629.89
683.314	8693.84
683.661	8601.64
684.009	8635.76
684.357	8594.18
684.705	8619.49
685.053	8657.91
685.4	8572.94
685.748	8524.58
686.095	8483
686.443	8465.82
686.79	8499.72
687.138	8458.37
687.485	8474.64
687.832	8428.31
688.18	8378.37
688.527	8367.52
688.874	8306.05
689.221	8334.3
689.568	8287.3
689.915	8253.62
690.262	8266.96
690.609	8142.67
690.956	8194.64
691.303	8225.83
691.65	8136.79
691.997	8167.75
692.344	8080.07
692.69	8012.05
693.037	8081.65
693.383	8012.95
693.73	8009.34
694.077	7939.73
694.423	7974.54
694.769	7972.5
695.116	7884.82
695.462	7903.13
695.808	7792.85
696.155	7853.86
696.501	7740.19
696.847	7765.05
697.193	7727.08
697.539	7827.2
697.885	7700.64
698.231	7688.44
698.577	7622.68
698.923	7594.43
699.269	7534.77
699.614	7563.47
699.96	7545.39
700.306	7481.44
700.651	7468.56
700.997	7435.57
701.342	7373.87
701.688	7344.95
702.033	7386.98
702.379	7325.74
702.724	7316.7
703.069	7329.58
703.415	7235.35
703.76	7249.81
704.105	7232.18
704.45	7149.47
704.795	7130.04
705.14	7135.46
705.485	7083.94
705.83	7054.56
706.175	7073.09
706.52	7055.69
706.865	7054.79
707.209	6959.42
707.554	6970.95
707.899	6929.59
708.243	6952.19
708.588	6935.47
708.932	6866.32
709.277	6848.01
709.621	6838.07
709.966	6815.02
710.31	6826.32
710.654	6716.72
710.998	6768.24
711.342	6712.65
711.687	6782.03
712.031	6679.2
712.375	6709.48
712.719	6675.14
713.063	6635.81
713.407	6701.8
713.75	6658.41
714.094	6664.51
714.438	6664.51
714.782	6615.25
715.125	6565.53
715.469	6618.19
715.812	6555.36
716.156	6532.99
716.499	6543.16
716.843	6539.77
717.186	6457.06
717.53	6539.32
717.873	6496.16
718.216	6522.14
718.559	6451.19
718.902	6489.15
719.246	6462.94
719.589	6439.66
719.932	6410.74
720.275	6478.3
720.617	6425.65
720.96	6427.01
721.303	6403.05
721.646	6448.02
721.989	6364.86
722.331	6382.49
722.674	6411.64
723.016	6424.52
723.359	6388.82
723.701	6400.34
724.044	6395.82
724.386	6343.62
724.729	6304.07
725.071	6324.18
725.413	6346.33
725.755	6317.18
726.097	6300.91
726.439	6282.6
726.782	6276.05
727.124	6371.64
727.465	6313.79
727.807	6321.25
728.149	6350.62
728.491	6281.47
728.833	6322.38
729.175	6230.18
729.516	6282.6
729.858	6226.56
730.199	6251.87
730.541	6299.1
730.882	6272.89
731.224	6268.37
731.565	6246.9
731.906	6313.11
732.248	6266.56
732.589	6218.88
732.93	6235.82
733.271	6232.66
733.612	6255.03
733.953	6277.86
734.294	6284.19
734.635	6281.7
734.976	6323.96
735.317	6305.43
735.658	6233.34
735.999	6266.78
736.339	6260
736.68	6305.65
737.021	6288.48
737.361	6328.03
737.702	6327.57
738.042	6288.03
738.383	6293.45
738.723	6374.8
739.063	6316.05
739.404	6389.49
739.744	6371.41
740.084	6300
740.424	6370.06
740.764	6364.18
741.104	6372.32
741.444	6377.29
741.784	6420.68
742.124	6438.76
742.464	6412.54
742.804	6426.55
743.143	6486.67
743.483	6482.37
743.823	6428.14
744.162	6516.04
744.502	6573.44
744.841	6542.03
745.181	6658.64
745.52	6651.18
745.86	6664.97
746.199	6662.71
746.538	6781.35
746.877	6810.05
747.216	6773.44
747.556	6821.35
747.895	6920.1
748.234	6873.55
748.573	6938.18
748.911	7057.95
749.25	7125.29
749.589	7168.68
749.928	7167.78
750.267	7264.05
750.605	7324.61
750.944	7372.74
751.283	7414.78
751.621	7530.25
751.96	7618.16
752.298	7711.49
752.636	7827.87
752.975	7888.66
753.313	7946.06
753.651	8070.8
753.989	8140.41
754.327	8256.56
754.666	8354.19
755.004	8457.46
755.342	8638.7
755.679	8673.95
756.017	8791.92
756.355	8936.77
756.693	9070.55
757.031	9169.53
757.368	9364.33
757.706	9490.43
758.044	9582.18
758.381	9688.62
758.719	9874.37
759.056	10047.7
759.394	10141.71
759.731	10246.34
760.068	10414.02
760.405	10561.81
760.743	10691.75
761.08	10862.37
761.417	10973.78
761.754	11183.49
762.091	11327.22
762.428	11491.05
762.765	11617.6
763.102	11799.29
763.438	11893.98
763.775	12105.27
764.112	12355.21
764.449	12480.41
764.785	12584.58
765.122	12679.05
765.458	12873.84
765.795	13033.61
766.131	13136.21
766.467	13300.95
766.804	13445.35
767.14	13562.64
767.476	13720.15
767.812	13928.05
768.148	13926.24
768.485	14143.87
768.821	14187.03
769.157	14456.17
769.492	14496.17
769.828	14592.44
770.164	14557.19
770.5	14786.33
770.836	14883.51
771.171	14950.62
771.507	15065.42
771.842	15085.08
772.178	15260.45
772.513	15440.33
772.849	15468.35
773.184	15452.08
773.519	15700.21
773.855	15712.19
774.19	15698.17
774.525	15750.83
774.86	15892.29
775.195	15906.53
775.53	16023.82
775.865	16036.47
776.2	16005.06
776.535	16004.83
776.87	16194.21
777.205	16169.12
777.539	16228.1
777.874	16330.47
778.209	16273.98
778.543	16262.45
778.878	16293.19
779.212	16386.07
779.547	16373.19
779.881	16515.1
780.215	16452.96
780.55	16511.71
780.884	16496.8
781.218	16473.07
781.552	16532.73
781.886	16617.47
782.22	16465.84
782.554	16521.66
782.888	16494.54
783.222	16394.2
783.556	16403.24
783.889	16447.53
784.223	16399.63
784.557	16426.74
784.89	16549.68
785.224	16430.58
785.557	16391.04
785.891	16399.63
786.224	16459.96
786.558	16380.19
786.891	16389.23
787.224	16423.58
787.557	16320.98
787.891	16347.88
788.224	16374.09
788.557	16410.25
788.89	16371.83
789.223	16425.39
789.556	16332.28
789.888	16288.22
790.221	16231.49
790.554	16169.8
790.887	16099.07
791.219	16141.1
791.552	16150.14
791.884	16054.78
792.217	16139.75
792.549	16003.93
792.882	15922.35
793.214	15963.93
793.546	15960.31
793.879	15769.13
794.211	15836.48
794.543	15878.74
794.875	15945.85
795.207	15889.58
795.539	15711.06
795.871	15854.33
796.203	15700.43
796.535	15712.41
796.867	15678.51
797.198	15705.86
797.53	15635.35
797.862	15492.3
798.193	15474.23
798.525	15379.99
798.856	15450.72
799.188	15362.82
799.519	15320.78
799.85	15197.62
800.182	15281.01
800.513	15275.14
800.844	15118.53
801.175	15288.69
801.506	15263.84
801.837	15173.67
802.168	15105.65
802.499	15066.55
802.83	15044.63
803.161	14985.2
803.491	15057.06
803.822	15099.32
804.153	14943.39
804.483	14841.25
804.814	14822.94
805.145	14773
805.475	14778.2
805.805	14800.57
806.136	14826.33
806.466	14778.65
806.796	14718.77
807.126	14546.11
807.457	14608.03
807.787	14601.71
808.117	14482.39
808.447	14449.85
808.777	14517.64
809.107	14476.51
809.436	14390.64
809.766	14436.06
810.096	14337.53
810.426	14317.65
810.755	14319.68
811.085	14300.25
811.414	14293.24
811.744	14160.81
812.073	14096.63
812.403	14137.09
812.732	14059.12
813.061	14117.43
813.39	13974.38
813.719	13991.1
814.049	14053.02
814.378	13908.39
814.707	13867.94
815.036	13972.57
815.365	13858.68
815.693	13786.81
816.022	13839.24
816.351	13712.69
816.68	13647.16
817.008	13721.5
817.337	13685.8
817.665	13617.1
817.994	13660.94
818.322	13639.25
818.651	13583.88
818.979	13501.85
819.307	13609.87
819.636	13590.43
819.964	13400.38
820.292	13531.9
820.62	13565.8
820.948	13498.68
821.276	13563.32
821.604	13581.62
821.932	13510.89
822.259	13493.49
822.587	13437.9
822.915	13443.09
823.243	13501.62
823.57	13479.48
823.898	13491.68
824.225	13418.69
824.553	13444.45
824.88	13431.79
825.207	13590.66
825.535	13537.33
825.862	13571.9
826.189	13396.77
826.516	13524.67
826.843	13498.68
827.17	13548.85
827.497	13569.19
827.824	13544.79
828.151	13491.91
828.478	13465.69
828.805	13661.17
829.131	13512.02
829.458	13527.61
829.785	13439.25
830.111	13455.52
830.438	13555.41
830.764	13476.31
831.09	13486.93
831.417	13427.27
831.743	13565.12
832.069	13494.16
832.395	13404.22
832.722	13466.6
833.048	13356.99
833.374	13381.85
833.7	13397.22
834.026	13422.53
834.351	13509.08
834.677	13439.93
835.003	13425.69
835.329	13483.09
835.654	13384.11
835.98	13362.64
836.306	13388.86
836.631	13322.19
836.956	13307.73
837.282	13258.46
837.607	13271.35
837.932	13188.41
838.258	13220.73
838.583	13235.64
838.908	13099.15
839.233	13216.43
839.558	13127.85
839.883	13153.16
840.208	13139.82
840.533	13133.5
840.858	13142.54
841.182	13064.12
841.507	13050.79
841.832	12929.66
842.156	12926.72
842.481	12922.88
842.805	12907.51
843.13	12836.56
843.454	12834.3
843.778	12818.25
844.103	12808.08
844.427	12806.27
844.751	12822.54
845.075	12730.57
845.399	12573.51
845.723	12604.02
846.047	12564.47
846.371	12501.65
846.695	12472.72
847.019	12397.7
847.343	12336.68
847.666	12368.32
847.99	12237.7
848.313	12244.93
848.637	12171.94
848.96	12198.15
849.284	12125.84
849.607	12018.27
849.931	12003.36
850.254	11968.78
850.577	11901.66
850.9	11763.59
851.223	11810.82
851.546	11687.43
851.869	11615.8
852.192	11783.48
852.515	11626.42
852.838	11543.03
853.161	11533.99
853.483	11390.49
853.806	11512.3
854.129	11399.98
854.451	11354.79
854.774	11359.31
855.096	11261.23
855.419	11261.68
855.741	11274.11
856.063	11222.59
856.385	11226.2
856.708	11183.04
857.03	11073.66
857.352	11112.31
857.674	11094.91
857.996	10948.7
858.318	11012.42
858.64	10977.85
858.961	10928.13
859.283	10865.53
859.605	10797.96
859.926	10863.95
860.248	10863.95
860.57	10725.2
860.891	10800.68
861.212	10658.99
861.534	10698.98
861.855	10651.3
862.176	10647.91
862.498	10680
862.819	10685.2
863.14	10522.94
863.461	10584.41
863.782	10498.99
864.103	10592.09
864.424	10509.16
864.745	10480.23
865.065	10404.98
865.386	10357.3
865.707	10399.33
866.027	10463.74
866.348	10389.84
866.668	10370.41
866.989	10334.25
867.309	10262.16
867.63	10320.69
867.95	10311.65
868.27	10215.61
868.59	10333.8
868.91	10217.87
869.23	10287.47
869.55	10188.26
869.87	10268.71
870.19	10205.21
870.51	10252.22
870.83	10200.01
871.15	10145.78
871.469	10151.88
871.789	10154.59
872.109	10162.05
872.428	10117.3
872.748	10066.68
873.067	10082.05
873.386	10035.05
873.706	10051.77
874.025	9985.56
874.344	9971.09
874.663	9968.61
874.982	9955.05
875.301	9937.87
875.62	9953.69
875.939	9930.42
876.258	9967.25
876.577	9810.42
876.896	9876.18
877.214	9813.58
877.533	9838.67
877.852	9730.87
878.17	9791.66
878.489	9848.84
878.807	9817.88
879.125	9762.06
879.444	9811.55
879.762	9746.01
880.08	9737.2
880.398	9713.25
880.716	9723.64
881.034	9619.01
881.352	9643.87
881.67	9593.93
881.988	9573.82
882.306	9557.09
882.624	9593.48
882.941	9519.58
883.259	9434.84
883.577	9429.87
883.894	9394.16
884.212	9416.76
884.529	9332.47
884.846	9395.74
885.164	9374.05
885.481	9333.82
885.798	9394.39
886.115	9269.19
886.432	9210.44
886.75	9242.3
887.067	9281.62
887.383	9201.85
887.7	9195.97
888.017	9156.2
888.334	9154.39
888.651	9118.01
888.967	9108.07
889.284	9073.26
889.6	8993.72
889.917	8929.09
890.233	8943.78
890.55	8929.54
890.866	8951.46
891.182	8915.53
891.498	8843.44
891.815	8775.64
892.131	8840.28
892.447	8820.16
892.763	8771.8
893.079	8707.17
893.395	8705.82
893.71	8708.75
894.026	8688.87
894.342	8671.01
894.657	8600.28
894.973	8574.97
895.289	8623.56
895.604	8573.62
895.92	8475.54
896.235	8477.8
896.55	8444.58
896.865	8401.19
897.181	8409.55
897.496	8375.88
897.811	8321.42
898.126	8314.19
898.441	8271.7
898.756	8272.83
899.071	8221.08
899.386	8144.7
899.7	8088.66
900.015	8105.83
900.33	8064.93
900.644	8065.61
900.959	8078.26
901.273	8042.78
901.588	7999.85
901.902	7963.24
902.216	7986.74
902.531	7885.5
902.845	7925.27
903.159	7815.22
903.473	7817.48
903.787	7775.9
904.101	7658.16
904.415	7672.62
904.729	7674.66
905.042	7639.63
905.356	7587.43
905.67	7598.73
905.984	7560.08
906.297	7548.78
906.611	7462.69
906.924	7448.45
907.237	7497.03
907.551	7470.14
907.864	7423.59
908.177	7344.04
908.491	7380.43
908.804	7277.38
909.117	7245.06
909.43	7247.32
909.743	7167.78
910.056	7232.63
910.368	7219.53
910.681	7106.99
910.994	7059.98
911.307	7075.8
911.619	7010.04
911.932	7015.47
912.244	7006.2
912.557	6989.25
912.869	6877.62
913.181	6846.2
913.494	6841.01
913.806	6838.29
914.118	6753.55
914.43	6749.94
914.742	6752.87
915.054	6763.95
915.366	6646.89
915.678	6674.01
915.99	6678.75
916.302	6617.06
916.613	6597.62
916.925	6569.6
917.236	6494.57
917.548	6518.53
917.859	6518.76
918.171	6456.84
918.482	6442.6
918.794	6397.85
919.105	6487.12
919.416	6343.84
919.727	6397.63
920.038	6298.2
920.349	6285.99
920.66	6294.13
920.971	6263.85
921.282	6277.18
921.593	6152.21
921.903	6180.23
922.214	6098.88
922.525	6096.85
922.835	6118.99
923.146	6075.38
923.456	6014.36
923.767	6013.23
924.077	6021.14
924.387	5932.1
924.697	5928.26
925.008	5936.85
925.318	5908.15
925.628	5888.94
925.938	5887.36
926.248	5803.52
926.558	5771.88
926.867	5764.88
927.177	5762.16
927.487	5781.6
927.796	5644.2
928.106	5650.3
928.416	5666.8
928.725	5580.47
929.034	5631.32
929.344	5606.01
929.653	5586.58
929.962	5527.59
930.271	5520.59
930.581	5540.7
930.89	5449.4
931.199	5409.18
931.508	5418.22
931.817	5427.94
932.125	5346.36
932.434	5380.25
932.743	5352.46
933.051	5290.99
933.36	5309.75
933.669	5277.21
933.977	5265.68
934.286	5267.49
934.594	5224.78
934.902	5175.29
935.21	5154.72
935.519	5161.95
935.827	5159.24
936.135	5089.87
936.443	5120.6
936.751	5043.31
937.059	5064.33
937.367	5033.37
937.674	5038.57
937.982	5011.22
938.29	4963.54
938.597	4949.3
938.905	4855.52
939.213	4875.86
939.52	4855.07
939.827	4903.2
940.135	4829.31
940.442	4862.53
940.749	4847.39
941.056	4759.03
941.363	4754.28
941.67	4714.96
941.977	4692.14
942.284	4686.49
942.591	4657.79
942.898	4671.8
943.205	4654.17
943.511	4607.17
943.818	4630.22
944.125	4536.89
944.431	4571.91
944.738	4558.81
945.044	4503.67
945.35	4485.59
945.657	4451.69
945.963	4463.22
946.269	4409.66
946.575	4461.63
946.881	4416.21
947.187	4409.21
947.493	4383.44
947.799	4347.74
948.105	4299.83
948.41	4302.32
948.716	4307.29
949.022	4293.28
949.327	4242.43
949.633	4244.46
949.938	4231.13
950.244	4233.62
950.549	4176.67
950.854	4137.12
951.16	4166.73
951.465	4172.6
951.77	4096.9
952.075	4068.2
952.38	4086.28
952.685	4073.85
952.99	4041.98
953.294	4027.07
953.599	3991.82
953.904	3988.2
954.209	3967.41
954.513	3971.25
954.818	3933.06
955.122	3907.07
955.426	3915.66
955.731	3892.61
956.035	3851.93
956.339	3899.16
956.643	3886.73
956.948	3815.78
957.252	3798.83
957.556	3804.7
957.86	3784.36
958.163	3794.76
958.467	3762.22
958.771	3720.64
959.075	3723.35
959.378	3686.29
959.682	3692.16
959.985	3694.87
960.289	3648.55
960.592	3634.76
960.896	3651.94
961.199	3621.88
961.502	3585.5
961.805	3588.89
962.108	3579.17
962.411	3524.71
962.714	3541.66
963.017	3492.17
963.32	3555.67
963.623	3495.11
963.926	3478.84
964.228	3456.46
964.531	3471.38
964.833	3420.08
965.136	3383.92
965.438	3389.35
965.741	3360.42
966.043	3351.38
966.345	3345.96
966.648	3363.13
966.95	3338.5
967.252	3323.36
967.554	3287.2
967.856	3247.88
968.158	3226.19
968.46	3230.48
968.761	3260.76
969.063	3224.15
969.365	3221.89
969.666	3235
969.968	3172.63
970.269	3168.33
970.571	3165.4
970.872	3159.52
971.174	3126.98
971.475	3104.61
971.776	3099.86
972.077	3065.96
972.378	3086.08
972.679	3082.01
972.98	3064.83
973.281	3053.08
973.582	3041.56
973.883	2993.88
974.183	2990.26
974.484	2983.71
974.785	2971.28
975.085	3003.14
975.386	2962.92
975.686	2932.18
975.986	2908.91
976.287	2964.05
976.587	2931.96
976.887	2905.52
977.187	2868.23
977.487	2859.19
977.787	2857.16
978.087	2861.68
978.387	2813.09
978.687	2823.49
978.987	2804.05
979.286	2765.86
979.586	2777.16
979.885	2738.06
980.185	2770.83
980.484	2717.27
980.784	2698.74
981.083	2692.42
981.382	2727.22
981.682	2711.17
981.981	2688.8
982.28	2650.61
982.579	2661.46
982.878	2694.9
983.177	2626.65
983.475	2634.79
983.774	2611.51
984.073	2591.17
984.372	2597.05
984.67	2554.34
984.969	2544.62
985.267	2534.45
985.566	2552.08
985.864	2501.01
986.162	2516.83
986.461	2495.81
986.759	2467.79
987.057	2502.82
987.355	2466.88
987.653	2456.26
987.951	2465.98
988.249	2436.83
988.547	2459.65
988.844	2394.34
989.142	2406.32
989.44	2399.77
989.737	2372.42
990.035	2385.08
990.332	2344.63
990.63	2345.08
990.927	2344.63
991.224	2305.76
991.521	2310.5
991.819	2320.22
992.116	2317.74
992.413	2300.79
992.71	2266.21
993.006	2287.23
993.303	2253.78
993.6	2258.53
993.897	2255.36
994.193	2216.72
994.49	2216.27
994.787	2192.77
995.083	2205.87
995.379	2165.65
995.676	2182.37
995.972	2167.01
996.268	2156.61
996.565	2145.54
996.861	2135.14
997.157	2115.93
997.453	2123.16
997.749	2106.67
998.044	2104.63
998.34	2064.63
998.636	2076.16
998.932	2054.47
999.227	2050.4
999.523	2044.07
999.818	1981.02
1000.114	2014.01
1000.409	1998.42
1000.704	1994.58
1001	1996.16
1001.295	1999.33
1001.59	1956.16
1001.885	1971.98
1002.18	1930.4
1002.475	1930.85
1002.77	1905.54
1003.065	1873.68
1003.359	1912.1
1003.654	1889.27
1003.949	1866.45
1004.243	1877.97
1004.538	1837.3
1004.832	1846.11
1005.127	1826.22
1005.421	1798.88
1005.715	1832.1
1006.009	1831.87
1006.304	1827.58
1006.598	1785.55
1006.892	1758.65
1007.186	1764.53
1007.48	1748.94
1007.773	1730.63
1008.067	1741.03
1008.361	1714.59
1008.655	1726.34
1008.948	1717.07
1009.242	1728.82
1009.535	1685.21
1009.829	1688.37
1010.122	1673.68
1010.415	1659.67
1010.708	1659.9
1011.001	1590.52
1011.295	1652.44
1011.588	1621.48
1011.881	1654.7
1012.173	1613.12
1012.466	1600.24
1012.759	1601.6
1013.052	1561.6
1013.344	1567.47
1013.637	1559.11
1013.93	1572.9
1014.222	1556.17
1014.514	1532.67
1014.807	1517.76
1015.099	1524.31
1015.391	1507.81
1015.683	1503.07
1015.976	1525.44
1016.268	1495.84
1016.56	1471.66
1016.851	1468.27
1017.143	1450.87
1017.435	1462.62
1017.727	1447.7
1018.018	1426.91
1018.31	1426.91
1018.602	1388.95
1018.893	1387.14
1019.185	1411.32
1019.476	1373.13
1019.767	1378.78
1020.058	1401.6
1020.35	1355.95
1020.641	1369.06
1020.932	1349.85
1021.223	1341.04
1021.514	1326.8
1021.804	1305.33
1022.095	1293.81
1022.386	1315.05
1022.677	1298.33
1022.967	1284.77
1023.258	1272.57
1023.548	1284.77
1023.839	1264.2
1024.129	1249.06
1024.419	1249.29
1024.709	1241.61
1025	1226.69
1025.29	1199.12
1025.58	1217.88
1025.87	1208.61
1026.16	1206.13
1026.449	1194.38
1026.739	1186.92
1027.029	1182.17
1027.319	1169.52
1027.608	1167.48
1027.898	1145.11
1028.187	1158.67
1028.477	1151.89
1028.766	1157.54
1029.055	1149.63
1029.344	1111.44
1029.634	1120.93
1029.923	1132.68
1030.212	1103.53
1030.501	1106.47
1030.79	1072.34
1031.078	1075.28
1031.367	1067.83
1031.656	1069.86
1031.945	1063.31
1032.233	1076.19
1032.522	1039.8
1032.81	1040.93
1033.099	1041.84
1033.387	1041.84
1033.675	1023.76
1033.963	1030.09
1034.251	1035.96
1034.54	1023.31
1034.828	983.76
1035.116	964.32
1035.403	960.48
1035.691	968.84
1035.979	965
1036.267	962.52
1036.554	953.03
1036.842	943.31
1037.129	930.43
1037.417	935.85
1037.704	945.34
1037.992	935.4
1038.279	912.8
1038.566	898.34
1038.853	898.34
1039.14	898.34
