Data from hue_10_FLMS001491_98.txt Node
Date: Mon Feb 06 15:32:51 GMT 2017
User: dcchb
Spectrometer: FLMS00149
Trigger mode: 0
Integration Time (sec): 2.000000E-2
Scans to average: 10
Electric dark correction enabled: true
Nonlinearity correction enabled: false
Boxcar width: 0
XAxis mode: Wavelengths
Number of Pixels in Spectrum: 2048
>>>>>Begin Spectral Data<<<<<
341.393	-12.01
341.776	-12.01
342.16	-12.01
342.543	-57.2
342.927	-60.59
343.31	-64.89
343.693	-78.67
344.077	-80.93
344.46	-63.3
344.843	-77.54
345.226	-40.48
345.61	-25.11
345.993	-0.25
346.376	12.4
346.759	-2.51
347.142	13.08
347.525	37.03
347.908	66.18
348.291	92.17
348.674	101.44
349.057	111.38
349.44	114.77
349.823	145.73
350.206	155
350.588	198.84
350.971	203.13
351.354	210.59
351.737	239.74
352.119	248.1
352.502	240.19
352.884	251.72
353.267	295.11
353.65	277.93
354.032	278.38
354.414	293.07
354.797	300.75
355.179	323.81
355.562	304.6
355.944	312.28
356.326	327.42
356.709	329.23
357.091	324.03
357.473	328.32
357.855	331.04
358.238	314.31
358.62	339.4
359.002	330.13
359.384	331.49
359.766	346.4
360.148	323.13
360.53	329.45
360.912	343.92
361.294	321.77
361.676	339.17
362.057	337.14
362.439	320.64
362.821	329.45
363.203	316.8
363.584	306.4
363.966	327.65
364.348	325.84
364.729	307.99
365.111	321.32
365.493	297.59
365.874	294.43
366.256	318.38
366.637	311.38
367.019	309.12
367.4	282.22
367.781	318.38
368.163	291.04
368.544	292.39
368.925	303.69
369.306	327.65
369.688	305.27
370.069	299.17
370.45	305.27
370.831	310.92
371.212	293.75
371.593	301.21
371.974	301.43
372.355	307.99
372.736	305.73
373.117	314.99
373.498	322.45
373.879	314.54
374.26	327.42
374.641	291.49
375.021	307.31
375.402	310.92
375.783	293.98
376.163	300.08
376.544	322.45
376.925	306.4
377.305	335.33
377.686	305.27
378.066	303.69
378.447	313.41
378.827	347.99
379.208	319.96
379.588	325.61
379.968	319.74
380.349	330.58
380.729	305.5
381.109	325.16
381.489	340.08
381.87	339.62
382.25	333.97
382.63	331.71
383.01	311.38
383.39	324.71
383.77	352.05
384.15	337.59
384.53	321.55
384.91	331.26
385.29	323.13
385.67	323.35
386.049	342.79
386.429	319.74
386.809	343.01
387.189	330.81
387.568	336.91
387.948	334.65
388.328	341.21
388.707	362
389.087	329
389.466	361.77
389.846	331.49
390.225	333.97
390.605	361.54
390.984	354.76
391.363	366.52
391.743	348.89
392.122	370.81
392.501	353.63
392.881	369
393.26	359.51
393.639	362.22
394.018	348.21
394.397	351.6
394.776	380.98
395.155	358.83
395.534	350.25
395.913	381.2
396.292	355.67
396.671	378.04
397.05	357.02
397.429	374.2
397.808	363.35
398.186	362.45
398.565	365.84
398.944	385.5
399.323	369.68
399.701	383.01
400.08	370.81
400.458	373.75
400.837	374.65
401.215	374.2
401.594	366.29
401.972	383.92
402.351	398.83
402.729	363.35
403.107	401.77
403.486	379.17
403.864	408.32
404.242	403.12
404.62	385.72
404.999	394.99
405.377	419.4
405.755	388.89
406.133	405.38
406.511	392.05
406.889	397.7
407.267	425.95
407.645	398.83
408.023	406.51
408.401	413.07
408.779	409.23
409.156	416.68
409.534	421.2
409.912	417.14
410.29	413.97
410.667	417.59
411.045	431.6
411.422	436.57
411.8	413.52
412.178	437.02
412.555	452.62
412.933	447.87
413.31	453.29
413.687	449.9
414.065	439.06
414.442	438.15
414.819	449.68
415.197	443.35
415.574	458.26
415.951	470.24
416.328	477.7
416.705	459.17
417.082	473.41
417.46	465.5
417.837	466.63
418.214	448.32
418.591	482.9
418.967	508.66
419.344	478.38
419.721	492.39
420.098	486.06
420.475	484.25
420.852	489
421.228	486.51
421.605	494.65
421.982	497.36
422.358	512.05
422.735	504.82
423.111	498.94
423.488	516.57
423.864	512.95
424.241	523.8
424.617	504.14
424.994	513.63
425.37	524.48
425.746	525.83
426.123	527.42
426.499	532.39
426.875	530.58
427.251	543.46
427.627	541.88
428.003	541.2
428.379	546.62
428.756	563.8
429.132	568.54
429.507	580.07
429.883	578.71
430.259	568.09
430.635	575.78
431.011	610.13
431.387	572.16
431.763	618.49
432.138	586.85
432.514	584.14
432.89	621.88
433.265	616
433.641	614.64
434.016	612.61
434.392	617.36
434.767	637.24
435.143	638.15
435.518	630.46
435.894	636.57
436.269	643.12
436.644	650.12
437.02	657.13
437.395	639.5
437.77	673.17
438.145	670.91
438.52	684.47
438.895	680.63
439.271	682.44
439.646	682.67
440.021	688.32
440.395	705.94
440.77	681.54
441.145	695.09
441.52	687.41
441.895	693.74
442.27	716.34
442.645	708.43
443.019	717.92
443.394	717.69
443.769	745.04
444.143	714.53
444.518	727.86
444.892	731.25
445.267	745.71
445.641	738.26
446.016	744.13
446.39	753.4
446.764	768.31
447.139	743.46
447.513	737.13
447.887	757.24
448.262	772.15
448.636	774.41
449.01	776.45
449.384	783.45
449.758	781.19
450.132	781.65
450.506	789.33
450.88	763.79
451.254	814.87
451.628	798.82
452.002	806.96
452.376	829.78
452.75	806.28
453.123	854.64
453.497	843.57
453.871	839.05
454.244	841.08
454.618	845.37
454.992	866.39
455.365	860.06
455.739	883.34
456.112	879.04
456.486	905.26
456.859	874.07
457.232	907.52
457.606	910.91
457.979	914.52
458.352	955.88
458.725	945.71
459.099	957.69
459.472	976.22
459.845	973.28
460.218	976.22
460.591	967.86
460.964	976.67
461.337	1006.05
461.71	1028.65
462.083	1037.23
462.456	1017.57
462.829	1029.32
463.201	1051.7
463.574	1065.03
463.947	1060.06
464.32	1068.64
464.692	1094.86
465.065	1090.56
465.438	1111.58
465.81	1106.84
466.183	1130.79
466.555	1177.57
466.928	1159.49
467.3	1171.47
467.672	1181.18
468.045	1225.48
468.417	1209.21
468.789	1226.15
469.161	1275.42
469.534	1230.9
469.906	1270.9
470.278	1270.67
470.65	1284.91
471.022	1330.56
471.394	1322.2
471.766	1376.88
472.138	1367.85
472.51	1398.81
472.882	1428.86
473.253	1413.27
473.625	1473.61
473.997	1462.53
474.369	1500.27
474.74	1513.38
475.112	1537.56
475.484	1558.12
475.855	1583.88
476.227	1594.28
476.598	1639.7
476.97	1638.35
477.341	1692.13
477.713	1706.37
478.084	1715.41
478.455	1771.68
478.827	1792.02
479.198	1799.92
479.569	1848.28
479.94	1892.8
480.311	1919.92
480.682	1986.36
481.053	2045.34
481.424	2033.36
481.795	2021.16
482.166	2094.83
482.537	2128.28
482.908	2173.25
483.279	2190.42
483.65	2261.38
484.021	2277.2
484.391	2305.45
484.762	2329.85
485.133	2327.59
485.503	2438.33
485.874	2456.86
486.244	2469.96
486.615	2524.43
486.985	2565.33
487.356	2636.06
487.726	2655.72
488.097	2684.42
488.467	2710.41
488.837	2780.46
489.207	2827.92
489.578	2830.86
489.948	2890.97
490.318	2922.83
490.688	2920.35
491.058	2983.85
491.428	3022.72
491.798	3075.15
492.168	3119.21
492.538	3097.29
492.908	3184.97
493.278	3234.24
493.648	3194.24
494.017	3279.21
494.387	3297.29
494.757	3339.54
495.126	3377.74
495.496	3368.47
495.866	3420.9
496.235	3450.73
496.605	3489.15
496.974	3502.48
497.344	3590.84
497.713	3558.3
498.082	3620.22
498.452	3630.38
498.821	3655.24
499.19	3683.04
499.559	3756.48
499.928	3771.62
500.298	3752.64
500.667	3779.99
501.036	3779.08
501.405	3844.39
501.774	3849.36
502.143	3906.76
502.512	3927.55
502.88	3956.03
503.249	3954.44
503.618	4005.29
503.987	3967.55
504.356	3971.84
504.724	4067.44
505.093	4059.07
505.462	4064.27
505.83	4091.39
506.199	4084.38
506.567	4138.17
506.936	4144.95
507.304	4175.46
507.672	4198.96
508.041	4252.06
508.409	4308.79
508.777	4294.77
509.145	4316.24
509.514	4295.68
509.882	4318.5
510.25	4303.59
510.618	4385.62
510.986	4376.13
511.354	4432.4
511.722	4414.54
512.09	4446.41
512.458	4448.67
512.826	4512.4
513.193	4508.78
513.561	4517.82
513.929	4524.37
514.297	4565.5
514.664	4588.78
515.032	4610.92
515.4	4652.96
515.767	4638.95
516.135	4650.92
516.502	4662.22
516.869	4740.86
517.237	4752.16
517.604	4730.47
517.972	4745.61
518.339	4766.63
518.706	4790.58
519.073	4828.32
519.44	4771.15
519.808	4861.99
520.175	4872.61
520.542	4895.89
520.909	4930.92
521.276	4864.7
521.643	4961.42
522.009	5006.39
522.376	4974.76
522.743	4985.83
523.11	5078.26
523.477	5123
523.843	5169.33
524.21	5151.47
524.577	5219.27
524.943	5186.28
525.31	5235.31
525.676	5262.88
526.043	5266.27
526.409	5308.98
526.776	5347.4
527.142	5347.4
527.508	5426.04
527.874	5433.73
528.241	5464.46
528.607	5473.95
528.973	5569.09
529.339	5506.72
529.705	5548.98
530.071	5599.6
530.437	5639.15
530.803	5666.04
531.169	5670.11
531.535	5626.72
531.901	5685.92
532.267	5746.49
532.632	5762.76
532.998	5789.2
533.364	5800.5
533.73	5840.27
534.095	5882.08
534.461	5897.9
534.826	5891.12
535.192	5964.11
535.557	6005.92
535.923	5984.22
536.288	6011.34
536.653	6041.62
537.019	6035.07
537.384	6083.88
537.749	6074.16
538.114	6083.43
538.479	6140.15
538.845	6165.01
539.21	6178.57
539.575	6185.57
539.94	6187.15
540.305	6254.04
540.67	6236.42
541.034	6302.63
541.399	6336.08
541.764	6343.76
542.129	6377.21
542.494	6390.31
542.858	6431.89
543.223	6431.44
543.587	6472.8
543.952	6527.03
544.316	6465.79
544.681	6538.33
545.045	6507.82
545.41	6572
545.774	6609.29
546.138	6655.84
546.503	6690.87
546.867	6646.8
547.231	6775.39
547.595	6699.91
547.959	6779.23
548.324	6783.75
548.688	6756.86
549.052	6803.86
549.416	6812
549.779	6828.72
550.143	6852.9
550.507	6930.64
550.871	6989.84
551.235	6942.84
551.599	7012.67
551.962	7024.42
552.326	7087.47
552.689	7052.67
553.053	7076.85
553.417	7076.17
553.78	7153
554.143	7147.81
554.507	7188.71
554.87	7091.08
555.234	7190.74
555.597	7187.81
555.96	7227.58
556.323	7257.63
556.686	7293.11
557.05	7334.02
557.413	7348.03
557.776	7359.55
558.139	7406.78
558.502	7426.22
558.865	7436.61
559.228	7483.84
559.59	7477.29
559.953	7515.25
560.316	7588.7
560.679	7603.39
561.041	7616.27
561.404	7673.22
561.767	7720.67
562.129	7708.47
562.492	7737.4
562.854	7718.86
563.217	7834.12
563.579	7837.28
563.941	7905.98
564.304	7835.47
564.666	7898.3
565.028	7913.44
565.39	8014.45
565.753	7975.58
566.115	8041.12
566.477	8104.39
566.839	8029.14
567.201	8133.09
567.563	8140.55
567.925	8135.13
568.287	8163.6
568.648	8151.4
569.01	8177.38
569.372	8266.2
569.734	8331.05
570.095	8384.61
570.457	8418.06
570.819	8421.22
571.18	8436.59
571.542	8451.95
571.903	8529.69
572.265	8578.96
572.626	8548.22
572.987	8642
573.349	8672.06
573.71	8747.54
574.071	8774.88
574.432	8832.51
574.794	8933.97
575.155	8969.23
575.516	8969
575.877	9052.84
576.238	9108.43
576.599	9213.97
576.96	9148.66
577.32	9281.31
577.681	9349.33
578.042	9470.91
578.403	9498.71
578.763	9524.24
579.124	9573.73
579.485	9685.37
579.845	9831.8
580.206	9902.31
580.566	10065.02
580.927	10110.44
581.287	10208.74
581.648	10334.39
582.008	10517.44
582.368	10540.49
582.728	10756.3
583.089	10820.25
583.449	10955.84
583.809	11095.05
584.169	11213.91
584.529	11405.1
584.889	11589.05
585.249	11680.57
585.609	11873.56
585.969	12163.04
586.329	12258.41
586.688	12401.23
587.048	12636.02
587.408	12862.23
587.768	13003.92
588.127	13184.48
588.487	13404.14
588.846	13655.21
589.206	13858.36
589.565	14110.56
589.925	14372.02
590.284	14515.97
590.643	14863.76
591.003	15075.96
591.362	15314.6
591.721	15571.99
592.08	15727.69
592.44	16119.1
592.799	16293.55
593.158	16590.72
593.517	16900.77
593.876	17124.27
594.235	17317.03
594.593	17677.7
594.952	17977.8
595.311	18184.58
595.67	18532.37
596.029	18904.33
596.387	19104.33
596.746	19364.21
597.104	19585.22
597.463	19871.31
597.822	20209.38
598.18	20479.21
598.538	20830.61
598.897	21072.86
599.255	21190.15
599.613	21832.84
599.972	21979.73
600.33	22243.23
600.688	22433.28
601.046	22836.89
601.404	23054.73
601.762	23302.18
602.12	23668.28
602.478	23897.87
602.836	24252.89
603.194	24284.98
603.552	24613.34
603.91	24744.41
604.268	25292.64
604.625	25334.9
604.983	25706.87
605.341	25807.43
605.698	26257.13
606.056	26453.29
606.413	26720.63
606.771	27009.43
607.128	27260.95
607.485	27366.94
607.843	27573.03
608.2	27863.42
608.557	28168.27
608.914	28203.98
609.272	28597.19
609.629	28959.21
609.986	29126.89
610.343	29234.01
610.7	29646.2
611.057	29723.94
611.414	29870.15
611.771	30097.71
612.127	30395.56
612.484	30513.52
612.841	30774.3
613.198	30916.45
613.554	31103.33
613.911	31316.21
614.267	31413.84
614.624	31652.47
614.98	31808.63
615.337	32153.93
615.693	32119.58
616.05	32309.86
616.406	32636.18
616.762	32665.1
617.118	32790.07
617.475	32995.04
617.831	33167.69
618.187	33443.84
618.543	33494.91
618.899	33719.09
619.255	33753.66
619.611	33879.53
619.967	34082.92
620.323	34208.79
620.678	34256.47
621.034	34345.28
621.39	34408.33
621.746	34408.33
622.101	34966.28
622.457	34764.93
622.812	34961.31
623.168	35064.36
623.523	35192.72
623.879	35310
624.234	35205.6
624.589	35379.15
624.945	35468.42
625.3	35699.15
625.655	35627.28
626.01	35702.99
626.365	35817.11
626.72	36042.19
627.075	35950.21
627.43	36007.39
627.785	35909.31
628.14	36127.61
628.495	36274.95
628.85	36115.63
629.205	36087.16
629.559	36418.22
629.914	36311.11
630.269	36359.02
630.623	36275.18
630.978	36318.79
631.332	36555.39
631.687	36636.75
632.041	36391.33
632.396	36622.29
632.75	36524.21
633.104	36600.37
633.459	36295.29
633.813	36528.05
634.167	36490.54
634.521	36774.82
634.875	36665
635.229	36737.31
635.583	36519.01
635.937	36655.28
636.291	36445.34
636.645	36691.44
636.999	36524.66
637.352	36691.21
637.706	36615.96
638.06	36603.3
638.413	36694.6
638.767	36488.73
639.121	36621.83
639.474	36496.87
639.828	36465.91
640.181	36595.39
640.534	36550.2
640.888	36507.49
641.241	36541.84
641.594	36551.33
641.947	36624.77
642.301	36543.87
642.654	36570.99
643.007	36573.25
643.36	36603.53
643.713	36499.8
644.066	36756.29
644.419	36462.29
644.771	36173.71
645.124	35885.36
645.477	35767.84
645.83	35682.88
646.182	35613.5
646.535	35500.51
646.888	35549.09
647.24	35318.82
647.593	35540.73
647.945	35467.51
648.298	35432.49
648.65	35267.07
649.002	35148.88
649.355	35436.78
649.707	35302.09
650.059	35429.1
650.411	35942.53
650.763	36008.74
651.115	36294.84
651.467	36064.11
651.819	36074.28
652.171	36122.86
652.523	35997.67
652.875	36004.22
653.227	36082.19
653.578	36156.99
653.93	36042.41
654.282	35878.8
654.633	35770.56
654.985	35962.19
655.337	36114.95
655.688	35988.63
656.039	36131.9
656.391	35855.75
656.742	35834.74
657.094	35754.51
657.445	35982.75
657.796	35843.32
658.147	35853.27
658.498	35805.58
658.849	35795.64
659.2	35952.7
659.551	35796.32
659.902	36038.8
660.253	35772.82
660.604	35765.59
660.955	35563.56
661.306	35773.95
661.656	35705.25
662.007	35686.49
662.358	35665.25
662.708	35678.13
663.059	35779.82
663.409	35571.92
663.76	35674.97
664.11	35726.04
664.461	35760.84
664.811	35784.12
665.161	35768.75
665.511	35602.43
665.862	35661.86
666.212	35837.9
666.562	35721.07
666.912	35707.73
667.262	35535.76
667.612	35666.6
667.962	35749.77
668.312	35682.42
668.662	35753.61
669.011	35656.44
669.361	35658.7
669.711	35623.22
670.06	35435.42
670.41	35409.44
670.76	35448.98
671.109	35560.62
671.459	35534.18
671.808	35563.1
672.157	35566.72
672.507	35360.85
672.856	35354.52
673.205	35327.4
673.554	35465.71
673.904	35321.3
674.253	35533.95
674.602	35510.9
674.951	34851.94
675.3	34752.5
675.649	35274.3
675.998	35238.82
676.346	35271.36
676.695	35284.47
677.044	35164.7
677.393	35246.05
677.741	35202.89
678.09	35274.98
678.438	35055.77
678.787	35126.96
679.135	35242.21
679.484	34898.04
679.832	35157.47
680.181	34907.98
680.529	35094.64
680.877	34951.82
681.225	34851.71
681.573	35222.1
681.922	34728.32
682.27	34721.54
682.618	34697.36
682.966	34680.42
683.314	34775.1
683.661	34531.27
684.009	34416.47
684.357	34370.14
684.705	34272.29
685.053	34282.69
685.4	34269.81
685.748	34081.56
686.095	34106.87
686.443	33966.31
686.79	33893.32
687.138	33981.68
687.485	33947.1
687.832	33931.28
688.18	34077.04
688.527	33639.09
688.874	33663.72
689.221	33731.29
689.568	33626.21
689.915	33495.81
690.262	33559.54
690.609	33465.98
690.956	33249.72
691.303	33263.73
691.65	33033.91
691.997	33140.12
692.344	32915.04
692.69	32880.24
693.037	32963.85
693.383	32623.97
693.73	32939.9
694.077	32593.92
694.423	32668.04
694.769	32440.02
695.116	32526.57
695.462	32374.94
695.808	32361.83
696.155	32193.93
696.501	32130.88
696.847	32111.44
697.193	31723.88
697.539	31908.29
697.885	31689.76
698.231	31692.25
698.577	31661.51
698.923	31558.01
699.269	31387.4
699.614	31245.7
699.96	31232.6
700.306	31336.32
700.651	31170.45
700.997	31075.09
701.342	31009.1
701.688	30906.73
702.033	30942.89
702.379	30792.61
702.724	30720.75
703.069	30721.42
703.415	30378.16
703.76	30453.63
704.105	30407.53
704.45	30342.45
704.795	30183.81
705.14	30154.66
705.485	30121.89
705.83	29920.77
706.175	30015.23
706.52	29863.14
706.865	29724.84
707.209	29757.16
707.554	29704.73
707.899	29662.69
708.243	29509.7
708.588	29523.72
708.932	29353.1
709.277	29349.71
709.621	29354.23
709.966	29155.14
710.31	29118.75
710.654	28894.35
710.998	28946.33
711.342	29153.78
711.687	28909.49
712.031	28752.44
712.375	28694.13
712.719	28827.24
713.063	28681.03
713.407	28794.92
713.75	28613
714.094	28617.52
714.438	28419.11
714.782	28552.22
715.125	28274.03
715.469	28417.76
715.812	28180.47
716.156	28100.02
716.499	28084.88
716.843	27977.77
717.186	27932.12
717.53	28117.88
717.873	28113.36
718.216	28005.56
718.559	27918.56
718.902	27736.64
719.246	27836.53
719.589	27575.52
719.932	27618.45
720.275	27574.61
720.617	27552.92
720.96	27507.27
721.303	27450.32
721.646	27469.08
721.989	27207.39
722.331	27315.86
722.674	27137.11
723.016	27225.24
723.359	27144.57
723.701	27230.67
724.044	26983.67
724.386	26783.45
724.729	26968.75
725.071	27106.38
725.413	27001.07
725.755	26990.45
726.097	26845.59
726.439	26761.3
726.782	26614.19
727.124	26885.37
727.465	26661.42
727.807	26651.02
728.149	26662.55
728.491	26518.82
728.833	26605.15
729.175	26410.58
729.516	26359.96
729.858	26284.93
730.199	26373.06
730.541	26344.59
730.882	26288.32
731.224	26276.12
731.565	26166.97
731.906	26174.88
732.248	26156.12
732.589	26108.66
732.93	25903.02
733.271	25928.56
733.612	26121.54
733.953	26017.82
734.294	25775.11
734.635	25873.87
734.976	25968.78
735.317	25814.89
735.658	25645.17
735.999	25766.98
736.339	25596.59
736.68	25758.39
737.021	25659.86
737.361	25548.23
737.702	25667.32
738.042	25566.08
738.383	25420.32
738.723	25517.04
739.063	25461.22
739.404	25421
739.744	25321.79
740.084	25232.08
740.424	25382.81
740.764	25281.57
741.104	25275.24
741.444	25231.17
741.784	25202.02
742.124	25182.36
742.464	25074.57
742.804	25021.91
743.143	24967.68
743.483	24996.38
743.823	24883.16
744.162	24932.65
744.502	24842.93
744.841	24890.39
745.181	24910.96
745.52	24769.94
745.86	24727.23
746.199	24825.08
746.538	24635.03
746.877	24790.73
747.216	24654.46
747.556	24729.04
747.895	24650.17
748.234	24448.82
748.573	24463.51
748.911	24430.06
749.25	24494.47
749.589	24385.32
749.928	24323.4
750.267	24437.3
750.605	24321.37
750.944	24211.54
751.283	24214.7
751.621	24267.36
751.96	24074.82
752.298	24003.63
752.636	24076.85
752.975	23983.07
753.313	23848.61
753.651	23963.86
753.989	23876.86
754.327	23775.62
754.666	23804.54
755.004	23809.29
755.342	23790.31
755.679	23732.46
756.017	23633.7
756.355	23732.91
756.693	23562.97
757.031	23552.12
757.368	23440.49
757.706	23421.28
758.044	23388.28
758.381	23322.75
758.719	23314.61
759.056	23359.36
759.394	23177.22
759.731	23054.96
760.068	23033.94
760.405	22950.1
760.743	22877.79
761.08	22997.11
761.417	22748.53
761.754	22813.84
762.091	22683.22
762.428	22548.98
762.765	22507.4
763.102	22450.91
763.438	22426.05
763.775	22367.52
764.112	22431.7
764.449	22362.77
764.785	22214.3
765.122	22049.11
765.458	22086.17
765.795	22020.64
766.131	22019.96
766.467	21965.72
766.804	21782.22
767.14	21720.08
767.476	21746.52
767.812	21718.72
768.148	21662.45
768.485	21513.53
768.821	21414.32
769.157	21345.85
769.492	21240.09
769.828	21295.23
770.164	21074.45
770.5	20979.53
770.836	21127.78
771.171	20958.97
771.507	20891.17
771.842	20701.12
772.178	20688.92
772.513	20618.19
772.849	20561.47
773.184	20601.01
773.519	20551.3
773.855	20417.06
774.19	20294.58
774.525	20175.26
774.86	20168.26
775.195	20173.45
775.53	20137.75
775.865	20056.39
776.2	19879.68
776.535	19744.09
776.87	19738.89
777.205	19637.42
777.539	19589.06
777.874	19632
778.209	19366.24
778.543	19349.52
778.878	19299.8
779.212	19284.21
779.547	19209.41
779.881	19192.01
780.215	19030.21
780.55	18996.99
780.884	18959.25
781.218	18945.46
781.552	18878.8
781.886	18811
782.22	18713.6
782.554	18643.78
782.888	18429.09
783.222	18477.23
783.556	18433.61
783.889	18298.47
784.223	18187.52
784.557	18185.03
784.89	18071.14
785.224	18049.67
785.557	18065.71
785.891	17890.35
786.224	17831.59
786.558	17755.89
786.891	17747.98
787.224	17586.85
787.557	17547.76
787.891	17540.08
788.224	17501.21
788.557	17496.91
788.89	17505.95
789.223	17379.18
789.556	17208.33
789.888	17262.12
790.221	17127.88
790.554	16990.49
790.887	17034.78
791.219	16957.49
791.552	16896.93
791.884	16875.69
792.217	16699.87
792.549	16639.76
792.882	16610.83
793.214	16485.19
793.546	16638.18
793.879	16578.97
794.211	16316.6
794.543	16428.01
794.875	16314.12
795.207	16352.31
795.539	16310.96
795.871	16301.92
796.203	16082.26
796.535	15930.63
796.867	16015.82
797.198	15953
797.53	15946.9
797.862	15823.06
798.193	15877.29
798.525	15720.91
798.856	15756.62
799.188	15647.24
799.519	15654.48
799.85	15467.36
800.182	15494.93
800.513	15556.85
800.844	15440.02
801.175	15347.82
801.506	15315.95
801.837	15330.87
802.168	15274.82
802.499	15223.75
802.83	15171.78
803.161	15071.44
803.491	15108.28
803.822	15098.78
804.153	14898.79
804.483	14863.54
804.814	14751.9
805.145	14845.68
805.475	14756.19
805.805	14667.83
806.136	14672.35
806.466	14697.21
806.796	14600.94
807.126	14509.65
807.457	14511.45
807.787	14531.79
808.117	14317.34
808.447	14318.69
808.777	14355.98
809.107	14329.99
809.436	14230.56
809.766	14268.3
810.096	14214.06
810.426	14182.88
810.755	14198.02
811.085	14124.8
811.414	14081.18
811.744	13951.24
812.073	14034.86
812.403	13972.94
812.732	13930
813.061	13816.33
813.39	13832.38
813.719	13818.37
814.049	13832.6
814.378	13730.91
814.707	13738.14
815.036	13627.86
815.365	13619.05
815.693	13404.37
816.022	13518.49
816.351	13450.24
816.68	13376.12
817.008	13439.84
817.337	13290.02
817.665	13286.4
817.994	13360.98
818.322	13303.58
818.651	13220.64
818.979	13215.67
819.307	13284.37
819.636	13087.09
819.964	13106.29
820.292	13190.13
820.62	13112.62
820.948	13109.91
821.276	13115.33
821.604	13022.45
821.932	13046.86
822.259	13120.76
822.587	13115.56
822.915	12989.46
823.243	13062.45
823.57	13043.24
823.898	13016.13
824.225	13019.06
824.553	13002.12
824.88	13008.44
825.207	13042.79
825.535	13007.31
825.862	13090.7
826.189	12979.97
826.516	13050.02
826.843	13107.88
827.17	13106.75
827.497	13132.28
827.824	13038.72
828.151	12987.88
828.478	12969.57
828.805	13039.18
829.131	12898.62
829.458	12933.64
829.785	12907.88
830.111	12977.03
830.438	13034.88
830.764	12949.46
831.09	12990.14
831.417	12880.76
831.743	12945.39
832.069	12925.51
832.395	12894.1
832.722	12969.12
833.048	12849.58
833.374	12877.6
833.7	12816.36
834.026	12885.73
834.351	12889.58
834.677	12818.39
835.003	12881.21
835.329	12777.71
835.654	12805.74
835.98	12736.13
836.306	12782.91
836.631	12711.95
836.956	12727.32
837.282	12710.15
837.607	12713.54
837.932	12645.74
838.258	12671.05
838.583	12611.84
838.908	12616.36
839.233	12499.76
839.558	12605.74
839.883	12478.74
840.208	12411.17
840.533	12472.86
840.858	12491.62
841.182	12449.14
841.507	12440.32
841.832	12383.83
842.156	12444.62
842.481	12364.39
842.805	12263.83
843.13	12297.28
843.454	12245.98
843.778	12213.44
844.103	12226.99
844.427	12174.79
844.751	12140.67
845.075	12106.32
845.399	12089.15
845.723	11964.63
846.047	11956.49
846.371	11905.87
846.695	11878.98
847.019	11834.69
847.343	11805.54
847.666	11678.53
847.99	11693.68
848.313	11647.8
848.637	11554.7
848.96	11591.08
849.284	11485.55
849.607	11464.76
849.931	11429.28
850.254	11369.39
850.577	11292.56
850.9	11250.3
851.223	11172.56
851.546	11159.45
851.869	11079.68
852.192	11188.15
852.515	11086.69
852.838	10926.24
853.161	11051.88
853.483	10946.12
853.806	10867.48
854.129	10879.69
854.451	10840.59
854.774	10718.79
855.096	10702.29
855.419	10693.7
855.741	10708.16
856.063	10620.48
856.385	10620.03
856.708	10548.17
857.03	10473.59
857.352	10513.37
857.674	10505.23
857.996	10430.66
858.318	10388.85
858.64	10401.96
858.961	10392.47
859.283	10259.59
859.605	10277.44
859.926	10228.4
860.248	10259.14
860.57	10210.1
860.891	10138.69
861.212	10201.96
861.534	10085.13
861.855	10116.09
862.176	10065.7
862.498	10129.2
862.819	10064.79
863.14	9982.76
863.461	10091.68
863.782	9961.52
864.103	10028.86
864.424	9941.63
864.745	10018.47
865.065	9915.42
865.386	9895.76
865.707	9902.08
866.027	9865.48
866.348	9869.77
866.668	9825.7
866.989	9815.98
867.309	9798.36
867.63	9806.95
867.95	9716.78
868.27	9714.52
868.59	9780.05
868.91	9759.94
869.23	9712.71
869.55	9662.99
869.87	9664.35
870.19	9629.1
870.51	9659.6
870.83	9649.89
871.15	9575.09
871.469	9638.81
871.789	9567.4
872.109	9618.02
872.428	9568.53
872.748	9553.17
873.067	9519.72
873.386	9526.05
873.706	9463
874.025	9414.87
874.344	9418.26
874.663	9453.73
874.982	9394.53
875.301	9446.05
875.62	9360.18
875.939	9317.69
876.258	9311.59
876.577	9296.22
876.896	9303.23
877.214	9314.76
877.533	9271.14
877.852	9266.39
878.17	9230.46
878.489	9248.77
878.807	9187.07
879.125	9221.65
879.444	9222.78
879.762	9168.54
880.08	9176.23
880.398	9204.48
880.716	9111.6
881.034	9126.29
881.352	9157.25
881.67	9074.54
881.988	9072.5
882.306	9010.36
882.624	8993.41
882.941	9010.13
883.259	8917.25
883.577	8968.78
883.894	8947.31
884.212	8904.37
884.529	8943.47
884.846	8867.54
885.164	8872.96
885.481	8857.14
885.798	8874.31
886.115	8773.07
886.432	8760.87
886.75	8733.98
887.067	8717.03
887.383	8733.75
887.7	8691.49
888.017	8679.07
888.334	8634.32
888.651	8639.52
888.967	8600.2
889.284	8576.7
889.6	8555.23
889.917	8465.06
890.233	8455.57
890.55	8456.25
890.866	8442.01
891.182	8402.46
891.498	8398.17
891.815	8375.8
892.131	8354.55
892.447	8315.46
892.763	8355.23
893.079	8313.2
893.395	8286.99
893.71	8190.04
894.026	8171.73
894.342	8224.61
894.657	8166.31
894.973	8127.89
895.289	8123.83
895.604	8121.11
895.92	8044.51
896.235	8072.98
896.55	8031.4
896.865	7991.85
897.181	7958.41
897.496	7976.49
897.811	7967.45
898.126	7884.96
898.441	7884.06
898.756	7798.64
899.071	7734.68
899.386	7756.38
899.7	7704.63
900.015	7656.27
900.33	7635.7
900.644	7593.44
900.959	7675.93
901.273	7591.41
901.588	7569.94
901.902	7529.04
902.216	7476.61
902.531	7487.46
902.845	7415.37
903.159	7399.1
903.473	7395.03
903.787	7393.68
904.101	7291.98
904.415	7317.29
904.729	7322.04
905.042	7235.04
905.356	7235.94
905.67	7232.78
905.984	7220.57
906.297	7177.18
906.611	7119.11
906.924	7063.29
907.237	7057.19
907.551	7013.8
907.864	7050.63
908.177	7014.7
908.491	7060.8
908.804	6953.24
909.117	6866.91
909.43	6891.54
909.743	6867.14
910.056	6840.47
910.368	6807.02
910.681	6771.09
910.994	6702.85
911.307	6699.68
911.619	6661.04
911.932	6695.16
912.244	6622.85
912.557	6649.29
912.869	6566.8
913.181	6548.73
913.494	6564.77
913.806	6509.86
914.118	6520.93
914.43	6506.24
914.742	6483.19
915.054	6411.78
915.366	6378.79
915.678	6317.09
915.99	6309.64
916.302	6263.31
916.613	6224.44
916.925	6274.61
917.236	6252.69
917.548	6247.49
917.859	6223.54
918.171	6140.83
918.482	6131.34
918.794	6083.65
919.105	6034.39
919.416	6033.49
919.727	6014.5
920.038	6028.06
920.349	5976.54
920.66	5937.22
920.971	5957.33
921.282	5926.6
921.593	5902.42
921.903	5810.89
922.214	5835.07
922.525	5790.1
922.835	5788.97
923.146	5785.58
923.456	5716.66
923.767	5694.29
924.077	5698.8
924.387	5680.05
924.697	5673.27
925.008	5607.51
925.318	5567.06
925.628	5643.67
925.938	5548.75
926.248	5487.74
926.558	5461.3
926.867	5462.2
927.177	5416.1
927.487	5392.6
927.796	5411.81
928.106	5362.09
928.416	5417.46
928.725	5328.42
929.034	5323.67
929.344	5343.56
929.653	5290.68
929.962	5264.47
930.271	5259.49
930.581	5192.6
930.89	5182.43
931.199	5156.22
931.508	5183.56
931.817	5132.72
932.125	5060.86
932.434	5069.22
932.743	5007.98
933.051	5016.79
933.36	4992.38
933.669	5005.49
933.977	4984.25
934.286	4958.26
934.594	4914.19
934.902	4914.64
935.21	4932.5
935.519	4864.93
935.827	4823.12
936.135	4828.77
936.443	4797.13
936.751	4740.41
937.059	4784.25
937.367	4723.24
937.674	4749.68
937.982	4737.47
938.29	4673.07
938.597	4673.07
938.905	4652.28
939.213	4625.16
939.52	4617.03
939.827	4602.34
940.135	4562.79
940.442	4558.04
940.749	4539.74
941.056	4513.75
941.363	4501.32
941.67	4471.04
941.977	4485.5
942.284	4414.09
942.591	4463.58
942.898	4371.83
943.205	4386.52
943.511	4350.82
943.818	4380.42
944.125	4303.59
944.431	4291.84
944.738	4307.66
945.044	4261.33
945.35	4251.16
945.657	4194.66
945.963	4209.8
946.269	4212.52
946.575	4170.71
946.881	4119.41
947.187	4118.28
947.493	4108.34
947.799	4099.75
948.105	4117.83
948.41	4054.78
948.716	4105.17
949.022	4034.44
949.327	4021.11
949.633	3995.35
949.938	3994.22
950.244	3997.61
950.549	3899.3
950.854	3898.63
951.16	3889.14
951.465	3903.37
951.77	3870.15
952.075	3875.35
952.38	3814.79
952.685	3836.93
952.99	3787.89
953.294	3779.99
953.599	3765.52
953.904	3751.74
954.209	3730.27
954.513	3735.47
954.818	3728.91
955.122	3682.59
955.426	3695.02
955.731	3694.34
956.035	3630.61
956.339	3644.85
956.643	3631.74
956.948	3602.81
957.252	3602.14
957.556	3536.15
957.86	3557.62
958.163	3557.17
958.467	3547.68
958.771	3558.3
959.075	3514.23
959.378	3474.23
959.682	3472.42
959.985	3483.95
960.289	3455.47
960.592	3406.21
960.896	3400.79
961.199	3423.61
961.502	3386.55
961.805	3331.86
962.108	3355.82
962.411	3352.2
962.714	3298.19
963.017	3295.03
963.32	3296.16
963.623	3274.91
963.926	3278.53
964.228	3250.96
964.531	3241.24
964.833	3219.32
965.136	3225.2
965.438	3200.79
965.741	3182.03
966.043	3176.84
966.345	3150.85
966.648	3125.54
966.95	3169.15
967.252	3104.07
967.554	3119.21
967.856	3086.44
968.158	3042.6
968.46	3060.68
968.761	3049.61
969.063	3019.33
969.365	3032.66
969.666	3014.58
969.968	2970.52
970.269	2974.81
970.571	2966.67
970.872	2989.95
971.174	2967.58
971.475	2917.64
971.776	2901.36
972.077	2916.05
972.378	2903.4
972.679	2872.44
972.98	2897.52
973.281	2845.32
973.582	2890.52
973.883	2844.64
974.183	2833.12
974.484	2795.15
974.785	2786.57
975.085	2775.94
975.386	2775.49
975.686	2744.31
975.986	2750.41
976.287	2754.7
976.587	2682.16
976.887	2705.21
977.187	2682.16
977.487	2719.22
977.787	2635.61
978.087	2654.37
978.387	2638.77
978.687	2674.93
978.987	2606
979.286	2605.33
979.586	2621.15
979.885	2597.87
980.185	2587.25
980.484	2572.79
980.784	2574.59
981.083	2568.72
981.382	2582.5
981.682	2520.58
981.981	2512
982.28	2493.01
982.579	2529.17
982.878	2500.47
983.177	2512
983.475	2508.15
983.774	2429.29
984.073	2454.37
984.372	2420.93
984.67	2431.55
984.969	2386.58
985.267	2391.55
985.566	2391.55
985.864	2368.95
986.162	2389.74
986.461	2381.6
986.759	2349.97
987.057	2339.57
987.355	2320.36
987.653	2339.57
987.951	2303.64
988.249	2308.16
988.547	2301.38
988.844	2324.2
989.142	2258.22
989.44	2239.91
989.737	2243.3
990.035	2256.64
990.332	2201.95
990.63	2246.24
990.927	2209.86
991.224	2169.63
991.521	2170.54
991.819	2204.89
992.116	2179.8
992.413	2151.55
992.71	2146.58
993.006	2130.31
993.303	2117.66
993.6	2112.68
993.897	2103.87
994.193	2079.24
994.49	2108.39
994.787	2111.33
995.083	2082.18
995.379	2069.52
995.676	2042.4
995.972	2053.03
996.268	2044.89
996.565	2000.82
996.861	2008.28
997.157	2018
997.453	2009.41
997.749	1975.96
998.044	1980.48
998.34	1952.24
998.636	1947.49
998.932	1953.59
999.227	1924.67
999.523	1923.09
999.818	1915.63
1000.114	1893.93
1000.409	1939.36
1000.704	1897.1
1001	1858.45
1001.295	1890.09
1001.59	1862.97
1001.885	1838.79
1002.18	1825.46
1002.475	1802.86
1002.77	1817.33
1003.065	1814.39
1003.359	1790.89
1003.654	1817.33
1003.949	1780.04
1004.243	1780.26
1004.538	1757.44
1004.832	1731.45
1005.127	1742.98
1005.421	1713.82
1005.715	1712.24
1006.009	1695.97
1006.304	1704.11
1006.598	1682.41
1006.892	1719.47
1007.186	1680.15
1007.48	1685.35
1007.773	1673.37
1008.067	1641.51
1008.361	1644.22
1008.655	1626.82
1008.948	1603.77
1009.242	1634.28
1009.535	1622.53
1009.829	1611.23
1010.122	1558.57
1010.415	1592.47
1010.708	1582.3
1011.001	1539.82
1011.295	1530.33
1011.588	1538.46
1011.881	1515.41
1012.173	1525.36
1012.466	1496.2
1012.759	1504.11
1013.052	1505.24
1013.344	1490.33
1013.637	1487.62
1013.93	1499.59
1014.222	1453.72
1014.514	1448.52
1014.807	1424.79
1015.099	1455.98
1015.391	1433.15
1015.683	1390.44
1015.976	1442.65
1016.268	1425.92
1016.56	1404.23
1016.851	1401.06
1017.143	1373.72
1017.435	1365.81
1017.727	1369.88
1018.018	1386.38
1018.31	1354.29
1018.602	1361.97
1018.893	1338.69
1019.185	1338.47
1019.476	1328.75
1019.767	1313.61
1020.058	1309.77
1020.35	1287.17
1020.641	1292.82
1020.932	1284.01
1021.223	1266.83
1021.514	1282.88
1021.804	1228.19
1022.095	1246.72
1022.386	1210.79
1022.677	1221.41
1022.967	1229.77
1023.258	1226.83
1023.548	1215.31
1023.839	1227.28
1024.129	1210.11
1024.419	1206.04
1024.709	1188.19
1025	1172.82
1025.29	1156.1
1025.58	1147.29
1025.87	1157.46
1026.16	1143.44
1026.449	1118.13
1026.739	1118.36
1027.029	1103.9
1027.319	1125.14
1027.608	1113.84
1027.898	1096.67
1028.187	1101.86
1028.477	1091.02
1028.766	1086.5
1029.055	1064.58
1029.344	1058.93
1029.634	1048.98
1029.923	1060.73
1030.212	1027.29
1030.501	1039.27
1030.79	1039.94
1031.078	1015.09
1031.367	1011.02
1031.656	1020.51
1031.945	1012.37
1032.233	1030.23
1032.522	979.61
1032.81	972.6
1033.099	972.15
1033.387	967.63
1033.675	955.43
1033.963	966.95
1034.251	953.84
1034.54	956.33
1034.828	930.57
1035.116	934.18
1035.403	931.02
1035.691	914.52
1035.979	940.29
1036.267	934.64
1036.554	914.07
1036.842	908.42
1037.129	936.22
1037.417	924.47
1037.704	915.2
1037.992	875.65
1038.279	882.89
1038.566	870.01
1038.853	870.01
1039.14	870.01
