Data from hue_200_FLMS001491_00027.txt Node
Date: Tue Feb 07 16:43:03 GMT 2017
User: dcchb
Spectrometer: FLMS00149
Trigger mode: 0
Integration Time (sec): 2.000000E-2
Scans to average: 10
Electric dark correction enabled: true
Nonlinearity correction enabled: false
Boxcar width: 0
XAxis mode: Wavelengths
Number of Pixels in Spectrum: 2048
>>>>>Begin Spectral Data<<<<<
341.393	-10.83
341.776	-10.83
342.16	-10.83
342.543	-53.32
342.927	-54.9
343.31	-72.98
343.693	-54.45
344.077	-79.08
344.46	-56.26
344.843	-47.67
345.226	-29.82
345.61	-23.94
345.993	-15.8
346.376	-28.69
346.759	8.83
347.142	11.77
347.525	48.6
347.908	59.67
348.291	73.91
348.674	96.06
349.057	109.84
349.44	124.53
349.823	139.45
350.206	164.3
350.588	196.39
350.971	202.95
351.354	220.8
351.737	245.43
352.119	263.28
352.502	261.48
352.884	267.58
353.267	273
353.65	297.86
354.032	303.51
354.414	326.56
354.797	343.73
355.179	308.93
355.562	315.94
355.944	322.72
356.326	339.21
356.709	349.16
357.091	338.08
357.473	323.62
357.855	335.37
358.238	340.8
358.62	321.14
359.002	332.21
359.384	344.64
359.766	327.69
360.148	340.57
360.53	331.53
360.912	315.03
361.294	334.02
361.676	324.75
362.057	332.43
362.439	341.02
362.821	346.45
363.203	316.62
363.584	323.17
363.966	333.79
364.348	328.82
364.729	321.36
365.111	305.77
365.493	325.43
365.874	319.33
366.256	346.45
366.637	327.24
367.019	317.52
367.4	321.36
367.781	329.27
368.163	318.88
368.544	291.31
368.925	319.55
369.306	308.25
369.688	325.66
370.069	305.54
370.45	330.63
370.831	309.84
371.212	324.53
371.593	308.25
371.974	332.43
372.355	324.07
372.736	322.72
373.117	325.43
373.498	342.15
373.879	323.4
374.26	313.45
374.641	327.69
375.021	316.39
375.402	331.76
375.783	310.29
376.163	328.37
376.544	329.95
376.925	332.89
377.305	328.82
377.686	319.78
378.066	310.51
378.447	312.77
378.827	342.38
379.208	298.76
379.588	324.98
379.968	317.97
380.349	331.3
380.729	345.77
381.109	327.24
381.489	345.99
381.87	344.41
382.25	340.57
382.63	347.8
383.01	348.93
383.39	334.69
383.77	331.98
384.15	349.61
384.53	331.53
384.91	350.29
385.29	354.81
385.67	352.55
386.049	353.68
386.429	370.85
386.809	352.32
387.189	358.87
387.568	343.06
387.948	351.64
388.328	359.33
388.707	354.81
389.087	348.93
389.466	369.5
389.846	365.43
390.225	349.84
390.605	366.33
390.984	384.64
391.363	386.44
391.743	373.79
392.122	365.65
392.501	378.08
392.881	381.02
393.26	378.08
393.639	361.36
394.018	373.56
394.397	387.57
394.776	371.3
395.155	388.03
395.534	388.03
395.913	407.91
396.292	397.52
396.671	400.91
397.05	398.2
397.429	392.32
397.808	401.13
398.186	391.19
398.565	379.67
398.944	420.34
399.323	405.65
399.701	400.91
400.08	399.33
400.458	403.62
400.837	430.51
401.215	405.88
401.594	413.79
401.972	413.11
402.351	444.52
402.729	451.08
403.107	441.13
403.486	435.71
403.864	428.93
404.242	453.79
404.62	460.57
404.999	440.91
405.377	469.83
405.755	466.67
406.133	457.18
406.511	452.21
406.889	486.78
407.267	480.23
407.645	490.4
408.023	521.58
408.401	498.31
408.779	500.57
409.156	521.36
409.534	524.07
409.912	524.97
410.29	536.72
410.667	535.37
411.045	548.93
411.422	570.85
411.8	543.5
412.178	578.98
412.555	573.11
412.933	587.12
413.31	583.28
413.687	607.68
414.065	617.17
414.442	616.04
414.819	626.89
415.197	662.82
415.574	649.04
415.951	657.4
416.328	673.44
416.705	687
417.082	672.31
417.46	691.3
417.837	723.16
418.214	726.32
418.591	705.53
418.967	748.47
419.344	739.43
419.721	758.19
420.098	777.39
420.475	772.65
420.852	798.64
421.228	790.28
421.605	801.12
421.982	796.6
422.358	838.64
422.735	863.04
423.111	871.63
423.488	867.79
423.864	898.07
424.241	905.53
424.617	934.9
424.994	945.98
425.37	958.63
425.746	969.71
426.123	989.82
426.499	973.32
426.875	1037.95
427.251	1039.53
427.627	1068.01
428.003	1050.16
428.379	1072.53
428.756	1083.15
429.132	1098.52
429.507	1131.51
429.883	1123.15
430.259	1138.74
430.635	1140.32
431.011	1164.28
431.387	1186.88
431.763	1215.12
432.138	1206.08
432.514	1236.14
432.89	1255.8
433.265	1281.79
433.641	1329.92
434.016	1326.08
434.392	1338.28
434.767	1382.35
435.143	1399.75
435.518	1462.12
435.894	1442.01
436.269	1477.49
436.644	1496.92
437.02	1537.37
437.395	1524.04
437.77	1560.88
438.145	1629.58
438.52	1624.38
438.895	1630.03
439.271	1666.86
439.646	1724.04
440.021	1758.84
440.395	1782.34
440.77	1762.23
441.145	1778.05
441.52	1850.59
441.895	1831.6
442.27	1870.47
442.645	1911.38
443.019	1921.77
443.394	1894.65
443.769	1978.27
444.143	1959.74
444.518	1965.16
444.892	2023.01
445.267	2040.19
445.641	2033.41
446.016	2120.41
446.39	2084.48
446.764	2125.61
447.139	2084.48
447.513	2152.05
447.887	2145.72
448.262	2119.73
448.636	2176
449.01	2238.37
449.384	2226.62
449.758	2268.43
450.132	2297.13
450.506	2290.8
450.88	2275.89
451.254	2341.42
451.628	2346.39
452.002	2387.3
452.376	2356.11
452.75	2418.03
453.123	2414.41
453.497	2462.77
453.871	2523.79
454.244	2568.76
454.618	2537.8
454.992	2607.86
455.365	2601.75
455.739	2675.88
456.112	2685.37
456.486	2707.29
456.859	2723.56
457.232	2787.29
457.606	2765.82
457.979	2819.6
458.352	2877.23
458.725	2898.92
459.099	2909.09
459.472	2955.42
459.845	2993.83
460.218	3030.67
460.591	3028.41
460.964	3073.15
461.337	3125.81
461.71	3138.91
462.083	3204
462.456	3204.22
462.829	3235.64
463.201	3283.09
463.574	3282.64
463.947	3359.7
464.32	3419.36
464.692	3465.01
465.065	3509.75
465.438	3573.03
465.81	3584.78
466.183	3626.81
466.555	3672.69
466.928	3725.79
467.3	3723.31
467.672	3723.31
468.045	3819.12
468.417	3832.68
468.789	3909.74
469.161	3955.39
469.534	4009.63
469.906	4104.09
470.278	4065.67
470.65	4116.29
471.022	4233.58
471.394	4285.55
471.766	4376.62
472.138	4357.19
472.51	4461.59
472.882	4508.6
473.253	4543.62
473.625	4625.43
473.997	4665.65
474.369	4716.73
474.74	4780.68
475.112	4864.07
475.484	4952.43
475.855	5019.09
476.227	5030.62
476.598	5175.92
476.97	5205.53
477.341	5332.08
477.713	5350.61
478.084	5385.18
478.455	5525.74
478.827	5590.38
479.198	5764.16
479.569	5694.1
479.94	5866.53
480.311	5861.78
480.682	6033.08
481.053	6162.11
481.424	6248.66
481.795	6230.13
482.166	6354.88
482.537	6420.18
482.908	6578.6
483.279	6631.25
483.65	6687.52
484.021	6857.46
484.391	6931.13
484.762	6955.54
485.133	6991.69
485.503	7117.57
485.874	7219.49
486.244	7307.62
486.615	7388.07
486.985	7453.15
487.356	7664.67
487.726	7692.24
488.097	7798.23
488.467	7836.64
488.837	8013.81
489.207	8080.25
489.578	8075.73
489.948	8235.73
490.318	8273.47
490.688	8374.26
491.058	8411.54
491.428	8502.16
491.798	8594.36
492.168	8733.8
492.538	8753
492.908	8793
493.278	8917.75
493.648	8926.56
494.017	9047.01
494.387	9038.87
494.757	9109.15
495.126	9239.09
495.496	9209.72
495.866	9301.92
496.235	9371.29
496.605	9398.86
496.974	9380.33
497.344	9543.27
497.713	9521.57
498.082	9576.71
498.452	9695.8
498.821	9706.2
499.19	9673.88
499.559	9731.28
499.928	9782.36
500.298	9784.62
500.667	9967.66
501.036	9857.61
501.405	9936.02
501.774	9900.32
502.143	10030.03
502.512	10014.67
502.88	10078.85
503.249	10013.76
503.618	10161.55
503.987	10215.56
504.356	10183.48
504.724	10197.49
505.093	10224.15
505.462	10281.55
505.83	10263.93
506.199	10275.68
506.567	10460.53
506.936	10455.11
507.304	10452.62
507.672	10462.79
508.041	10517.93
508.409	10496.91
508.777	10613.52
509.145	10566.29
509.514	10601.32
509.882	10671.37
510.25	10602
510.618	10605.38
510.986	10611.71
511.354	10678.15
511.722	10732.84
512.09	10753.86
512.458	10714.53
512.826	10785.04
513.193	10763.57
513.561	10754.99
513.929	10808.77
514.297	10897.35
514.664	10908.2
515.032	10936.22
515.4	10915.21
515.767	10900.52
516.135	10950.69
516.502	10822.78
516.869	10970.8
517.237	10953.85
517.604	10985.94
517.972	11026.62
518.339	11020.29
518.706	10952.95
519.073	10966.51
519.44	10984.36
519.808	11046.05
520.175	11049.44
520.542	11014.64
520.909	11129.89
521.276	10995.66
521.643	11057.58
522.009	11085.15
522.376	11114.3
522.743	11112.49
523.11	11156.78
523.477	11198.14
523.843	11173.51
524.21	11234.97
524.577	11263.67
524.943	11181.42
525.31	11225.03
525.676	11213.73
526.043	11200.85
526.409	11244.01
526.776	11256.67
527.142	11310.9
527.508	11192.71
527.874	11281.98
528.241	11226.61
528.607	11209.66
528.973	11251.47
529.339	11154.07
529.705	11210.57
530.071	11249.89
530.437	11159.27
530.803	11260.51
531.169	11243.79
531.535	11168.76
531.901	11101.19
532.267	11085.37
532.632	11039.27
532.998	11092.38
533.364	11073.17
533.73	11011.48
534.095	11022.1
534.461	10909.11
534.826	10913.17
535.192	10956.34
535.557	10959.5
535.923	10854.42
536.288	10838.37
536.653	10852.38
537.019	10731.71
537.384	10756.57
537.749	10730.58
538.114	10691.48
538.479	10624.59
538.845	10583.46
539.21	10558.15
539.575	10513.64
539.94	10491.72
540.305	10404.03
540.67	10348.89
541.034	10305.96
541.399	10321.55
541.764	10384.15
542.129	10220.99
542.494	10182.35
542.858	10162.68
543.223	10103.03
543.587	10153.65
543.952	10033.2
544.316	9991.62
544.681	9928.79
545.045	9966.98
545.41	9956.81
545.774	9919.53
546.138	9823.94
546.503	9771.51
546.867	9802.92
547.231	9736.71
547.595	9676.37
547.959	9609.7
548.324	9625.52
548.688	9580.55
549.052	9532.42
549.416	9482.93
549.779	9419.43
550.143	9400.9
550.507	9433.89
550.871	9372.42
551.235	9369.26
551.599	9284.52
551.962	9256.04
552.326	9207.68
552.689	9249.71
553.053	9082.94
553.417	9076.84
553.78	9165.65
554.143	9129.04
554.507	9032.09
554.87	9043.84
555.234	9016.27
555.597	8918.42
555.96	8940.57
556.323	8950.29
556.686	8898.76
557.05	8946.22
557.413	8872.32
557.776	8807.24
558.139	8853.11
558.502	8844.3
558.865	8804.75
559.228	8815.6
559.59	8780.12
559.953	8767.02
560.316	8892.66
560.679	8791.65
561.041	8747.81
561.404	8807.24
561.767	8781.7
562.129	8678.2
562.492	8774.92
562.854	8745.77
563.217	8689.28
563.579	8733.12
563.941	8766.56
564.304	8697.19
564.666	8725.43
565.028	8636.85
565.39	8682.5
565.753	8692.44
566.115	8724.3
566.477	8680.46
566.839	8686.57
567.201	8756.85
567.563	8741.48
567.925	8700.58
568.287	8736.73
568.648	8721.37
569.01	8729.95
569.372	8753.68
569.734	8732.89
570.095	8800.69
570.457	8707.36
570.819	8707.36
571.18	8710.97
571.542	8776.51
571.903	8780.8
572.265	8767.02
572.626	8783.51
572.987	8755.04
573.349	8723.63
573.71	8758.65
574.071	8737.19
574.432	8738.99
574.794	8783.51
575.155	8799.33
575.516	8768.6
575.877	8782.16
576.238	8721.37
576.599	8796.39
576.96	8830.52
577.32	8791.87
577.681	8812.66
578.042	8847.92
578.403	8817.18
578.763	8760.69
579.124	8810.86
579.485	8823.74
579.845	8861.02
580.206	8760.46
580.566	8762.04
580.927	8821.93
581.287	8845.88
581.648	8797.52
582.008	8812.21
582.368	8758.2
582.728	8844.98
583.089	8790.97
583.449	8769.73
583.809	8791.2
584.169	8781.48
584.529	8762.04
584.889	8829.16
585.249	8807.47
585.609	8766.34
585.969	8769.28
586.329	8775.83
586.688	8726.11
587.048	8805.21
587.408	8730.41
587.768	8773.57
588.127	8715.49
588.487	8775.15
588.846	8780.12
589.206	8747.81
589.565	8647.7
589.925	8714.59
590.284	8760.01
590.643	8727.47
591.003	8680.92
591.362	8768.82
591.721	8673.23
592.08	8680.46
592.44	8754.13
592.799	8768.15
593.158	8700.12
593.517	8740.8
593.876	8702.84
594.235	8623.52
594.593	8612.67
594.952	8629.17
595.311	8653.57
595.67	8708.03
596.029	8713.23
596.387	8708.03
596.746	8727.69
597.104	8641.37
597.463	8652.44
597.822	8658.32
598.18	8588.71
598.538	8656.28
598.897	8712.78
599.255	8664.87
599.613	8722.5
599.972	8608.15
600.33	8640.01
600.688	8622.61
601.046	8654.93
601.404	8697.41
601.762	8657.64
602.12	8687.92
602.478	8676.62
602.836	8692.21
603.194	8677.07
603.552	8634.36
603.91	8583.74
604.268	8691.54
604.625	8645.44
604.983	8609.96
605.341	8609.05
605.698	8638.21
606.056	8659.45
606.413	8597.08
606.771	8703.29
607.128	8648.15
607.485	8632.33
607.843	8648.6
608.2	8655.61
608.557	8698.54
608.914	8678.43
609.272	8706.23
609.629	8728.6
609.986	8726.56
610.343	8707.58
610.7	8748.94
611.057	8678.66
611.414	8687.02
611.771	8703.51
612.127	8702.16
612.484	8664.87
612.841	8777.18
613.198	8718.2
613.554	8778.54
613.911	8734.47
614.267	8792.78
614.624	8661.48
614.98	8739.22
615.337	8816.05
615.693	8805.21
616.05	8741.71
616.406	8769.73
616.762	8802.95
617.118	8755.49
617.475	8727.69
617.831	8845.21
618.187	8795.72
618.543	8806.56
618.899	8866.67
619.255	8813.12
619.611	8797.3
619.967	8858.99
620.323	8774.92
620.678	8781.25
621.034	8779.22
621.39	8783.29
621.746	8834.36
622.101	8885.2
622.457	8872.1
622.812	8758.88
623.168	8896.73
623.523	8815.6
623.879	8934.24
624.234	8827.58
624.589	8872.1
624.945	8828.93
625.3	8800.23
625.655	8901.7
626.01	8821.48
626.365	8855.15
626.72	8831.65
627.075	8793.23
627.43	8813.57
627.785	8803.4
628.14	8823.51
628.495	8828.03
628.85	8784.64
629.205	8772.89
629.559	8840.69
629.914	8747.13
630.269	8761.14
630.623	8777.18
630.978	8827.58
631.332	8739.67
631.687	8751.42
632.041	8734.7
632.396	8741.48
632.75	8698.99
633.104	8776.51
633.459	8706
633.813	8662.16
634.167	8665.32
634.521	8687.7
634.875	8645.44
635.229	8622.16
635.583	8654.48
635.937	8625.78
636.291	8573.8
636.645	8579.9
636.999	8551.65
637.352	8572.44
637.706	8546.68
638.06	8584.2
638.413	8526.12
638.767	8557.08
639.121	8509.85
639.474	8461.26
639.828	8532.45
640.181	8478.44
640.534	8524.54
640.888	8448.38
641.241	8439.79
641.594	8451.54
641.947	8533.12
642.301	8437.08
642.654	8489.73
643.007	8492.67
643.36	8455.61
643.713	8447.02
644.066	8464.42
644.419	8423.3
644.771	8327.48
645.124	8246.12
645.477	8189.86
645.83	8156.18
646.182	8187.14
646.535	8205
646.888	8202.06
647.24	8139.24
647.593	8203.87
647.945	8128.84
648.298	8110.54
648.65	8153.47
649.002	8013.14
649.355	8151.89
649.707	8175.39
650.059	8166.58
650.411	8190.31
650.763	8320.02
651.115	8358.66
651.467	8344.88
651.819	8317.76
652.171	8382.39
652.523	8306.46
652.875	8286.8
653.227	8326.35
653.578	8332
653.93	8325.44
654.282	8311.89
654.633	8285.22
654.985	8289.97
655.337	8279.8
655.688	8300.36
656.039	8356.63
656.391	8298.33
656.742	8300.36
657.094	8304.65
657.445	8328.61
657.796	8331.32
658.147	8282.28
658.498	8250.64
658.849	8333.81
659.2	8301.26
659.551	8323.41
659.902	8348.5
660.253	8297.65
660.604	8294.26
660.955	8253.81
661.306	8337.2
661.656	8380.13
662.007	8336.97
662.358	8418.55
662.708	8368.38
663.059	8397.99
663.409	8332.68
663.76	8372.9
664.11	8366.35
664.461	8386.69
664.811	8362.73
665.161	8346.46
665.511	8364.77
665.862	8440.24
666.212	8345.33
666.562	8334.94
666.912	8384.88
667.262	8335.61
667.612	8372
667.962	8400.25
668.312	8383.3
668.662	8394.6
669.011	8401.83
669.361	8366.35
669.711	8353.24
670.06	8322.96
670.41	8366.8
670.76	8319.8
671.109	8317.99
671.459	8360.02
671.808	8312.56
672.157	8345.78
672.507	8306.91
672.856	8320.7
673.205	8324.09
673.554	8322.28
673.904	8285.22
674.253	8316.18
674.602	8280.25
674.951	8163.19
675.3	8104.66
675.649	8222.17
675.998	8264.88
676.346	8193.25
676.695	8241.83
677.044	8158.67
677.393	8196.18
677.741	8244.09
678.09	8190.99
678.438	8145.79
678.787	8138.11
679.135	8153.92
679.484	8107.37
679.832	8121.61
680.181	8111.21
680.529	8117.77
680.877	8115.05
681.225	8073.93
681.573	8107.6
681.922	8062.85
682.27	8038.22
682.618	8005.23
682.966	8009.3
683.314	8034.38
683.661	7979.47
684.009	7992.57
684.357	7900.15
684.705	7922.52
685.053	7922.74
685.4	7948.28
685.748	7870.32
686.095	7892.01
686.443	7835.97
686.79	7808.17
687.138	7860.15
687.485	7779.02
687.832	7839.58
688.18	7757.55
688.527	7730.66
688.874	7749.64
689.221	7702.18
689.568	7671
689.915	7656.76
690.262	7628.06
690.609	7645.24
690.956	7534.51
691.303	7523.43
691.65	7525.24
691.997	7519.36
692.344	7401.4
692.69	7405.24
693.037	7468.97
693.383	7363.66
693.73	7392.36
694.077	7343.32
694.423	7327.96
694.769	7313.04
695.116	7291.12
695.462	7291.8
695.808	7241.41
696.155	7210.67
696.501	7231.91
696.847	7214.51
697.193	7111.69
697.539	7139.49
697.885	7101.75
698.231	7099.04
698.577	7044.57
698.923	7075.76
699.269	7004.8
699.614	6993.05
699.96	6931.81
700.306	6945.14
700.651	6883.67
700.997	6900.4
701.342	6838.48
701.688	6820.63
702.033	6861.3
702.379	6804.58
702.724	6766.16
703.069	6791.25
703.415	6633.74
703.76	6700.85
704.105	6691.14
704.45	6664.92
704.795	6618.6
705.14	6608.43
705.485	6640.52
705.83	6632.61
706.175	6581.08
706.52	6596.68
706.865	6565.49
707.209	6510.13
707.554	6457.92
707.899	6512.39
708.243	6439.17
708.588	6433.07
708.932	6320.75
709.277	6325.05
709.621	6372.05
709.966	6318.94
710.31	6367.08
710.654	6276.91
710.998	6341.99
711.342	6306.06
711.687	6288.89
712.031	6224.94
712.375	6232.62
712.719	6229.91
713.063	6235.78
713.407	6245.73
713.75	6198.5
714.094	6132.28
714.438	6176.35
714.782	6144.49
715.125	6171.6
715.469	6125.73
715.812	6161.66
716.156	6067.2
716.499	6080.31
716.843	6171.83
717.186	6101.1
717.53	6049.57
717.873	6116.92
718.216	6074.66
718.559	6017.03
718.902	6052.74
719.246	6058.39
719.589	6009.35
719.932	5987.88
720.275	6036.69
720.617	5987.65
720.96	5992.17
721.303	6010.93
721.646	6041.89
721.989	5935.9
722.331	5985.17
722.674	5942
723.016	5971.38
723.359	5994.43
723.701	5947.43
724.044	5916.92
724.386	5901.1
724.729	5914.89
725.071	5931.61
725.413	5906.07
725.755	5940.42
726.097	5900.88
726.439	5863.81
726.782	5889.58
727.124	5908.11
727.465	5874.89
727.807	5863.81
728.149	5901.78
728.491	5811.16
728.833	5894.55
729.175	5802.8
729.516	5863.14
729.858	5787.43
730.199	5832.63
730.541	5843.7
730.882	5895.68
731.224	5831.27
731.565	5825.17
731.906	5889.8
732.248	5839.86
732.589	5836.47
732.93	5856.58
733.271	5864.49
733.612	5842.12
733.953	5841.89
734.294	5838.28
734.635	5846.64
734.976	5835.57
735.317	5831.73
735.658	5857.49
735.999	5867.88
736.339	5836.7
736.68	5930.25
737.021	5876.02
737.361	5897.71
737.702	5880.54
738.042	5863.36
738.383	5916.02
738.723	5866.98
739.063	5876.92
739.404	5896.36
739.744	5890.48
740.084	5918.5
740.424	5944.49
740.764	5968.44
741.104	5994.21
741.444	5915.11
741.784	5964.15
742.124	5995.79
742.464	6036.47
742.804	6063.36
743.143	6065.39
743.483	6045.28
743.823	6052.28
744.162	6121.44
744.502	6140.87
744.841	6140.42
745.181	6183.35
745.52	6212.28
745.86	6225.16
746.199	6219.51
746.538	6294.54
746.877	6381.09
747.216	6386.29
747.556	6401.65
747.895	6447.53
748.234	6521.2
748.573	6532.95
748.911	6538.6
749.25	6582.21
749.589	6650.91
749.928	6730.91
750.267	6819.04
750.605	6847.74
750.944	6919.83
751.283	6971.36
751.621	7110.79
751.96	7073.95
752.298	7184.01
752.636	7332.25
752.975	7339.93
753.313	7520.95
753.651	7641.85
753.989	7742.18
754.327	7778.34
754.666	7866.93
755.004	7972.69
755.342	8144.43
755.679	8245.9
756.017	8300.59
756.355	8490.41
756.693	8604.53
757.031	8820.57
757.368	8905.32
757.706	9012.21
758.044	9186.89
758.381	9327.68
758.719	9527.9
759.056	9668.46
759.394	9772.86
759.731	9941.67
760.068	10127.66
760.405	10248.11
760.743	10379.18
761.08	10582.33
761.417	10684.93
761.754	10912.04
762.091	11124.24
762.428	11269.32
762.765	11491.69
763.102	11613.49
763.438	11782.53
763.775	11932.58
764.112	12107.94
764.449	12348.39
764.785	12484.66
765.122	12604.43
765.458	12825.67
765.795	12949.96
766.131	13191.53
766.467	13303.39
766.804	13409.83
767.14	13633.33
767.476	13829.26
767.812	13876.03
768.148	14112.19
768.485	14207.1
768.821	14331.61
769.157	14455.68
769.492	14565.96
769.828	14831.26
770.164	14840.98
770.5	14919.17
770.836	15139.73
771.171	15216.56
771.507	15280.52
771.842	15436.44
772.178	15510.79
772.513	15528.42
772.849	15732.03
773.184	15906.26
773.519	15876.66
773.855	15952.59
774.19	16073.04
774.525	16098.8
774.86	16269.64
775.195	16439.58
775.53	16338.79
775.865	16381.5
776.2	16420.83
776.535	16461.95
776.87	16518.9
777.205	16602.74
777.539	16691.33
777.874	16821.49
778.209	16737.88
778.543	16809.97
778.878	16827.82
779.212	16866.69
779.547	16871.89
779.881	17001.83
780.215	17022.84
780.55	17090.19
780.884	17022.17
781.218	17146.23
781.552	17191.88
781.886	17146.46
782.22	17036.63
782.554	17125.44
782.888	17128.6
783.222	17052.9
783.556	16985.1
783.889	17093.12
784.223	17019.23
784.557	17009.51
784.89	17127.93
785.224	17164.08
785.557	17059.9
785.891	17188.04
786.224	17147.13
786.558	17156.17
786.891	17038.21
787.224	16980.36
787.557	17001.83
787.891	17151.2
788.224	16981.71
788.557	17051.77
788.89	17019.23
789.223	17068.04
789.556	16946.24
789.888	16997.08
790.221	16878.89
790.554	16832.57
790.887	16843.64
791.219	16806.13
791.552	16863.98
791.884	16742.62
792.217	16811.32
792.549	16764.55
792.882	16674.15
793.214	16598
793.546	16697.2
793.879	16575.85
794.211	16576.53
794.543	16632.8
794.875	16545.79
795.207	16624.21
795.539	16579.47
795.871	16536.3
796.203	16419.47
796.535	16428.96
796.867	16324.78
797.198	16348.96
797.53	16399.36
797.862	16205.46
798.193	16336.08
798.525	16205.69
798.856	16256.08
799.188	16087.5
799.519	16041.4
799.85	15988.29
800.182	16092.02
800.513	16064.22
800.844	15929.09
801.175	15945.58
801.506	15951.91
801.837	15899.48
802.168	15855.64
802.499	15847.06
802.83	15746.04
803.161	15792.59
803.491	15792.59
803.822	15778.58
804.153	15696.78
804.483	15629.89
804.814	15515.76
805.145	15574.75
805.475	15490.91
805.805	15465.6
806.136	15474.86
806.466	15452.26
806.796	15493.62
807.126	15278.03
807.457	15252.95
807.787	15319.16
808.117	15242.1
808.447	15182.89
808.777	15305.15
809.107	15153.74
809.436	15114.19
809.766	15142.21
810.096	15029.9
810.426	14932.28
810.755	15075.1
811.085	15014.31
811.414	14951.03
811.744	14928.44
812.073	14834.65
812.403	14924.82
812.732	14861.32
813.061	14855.67
813.39	14772.51
813.719	14684.6
814.049	14814.09
814.378	14718.05
814.707	14579.52
815.036	14673.98
815.365	14624.94
815.693	14501.78
816.022	14537.94
816.351	14490.71
816.68	14501.78
817.008	14499.75
817.337	14315.57
817.665	14388.11
817.994	14436.47
818.322	14388.56
818.651	14327.55
818.979	14223.14
819.307	14310.82
819.636	14230.15
819.964	14183.37
820.292	14293.65
820.62	14149.7
820.948	14225.18
821.276	14241.45
821.604	14177.04
821.932	14178.4
822.259	14286.64
822.587	14221.11
822.915	14196.25
823.243	14190.83
823.57	14137.04
823.898	14191.28
824.225	14191.05
824.553	14175.69
824.88	14182.92
825.207	14202.58
825.535	14149.47
825.862	14189.47
826.189	14146.08
826.516	14172.75
826.843	14205.97
827.17	14207.55
827.497	14246.42
827.824	14191.28
828.151	14338.85
828.478	14215.91
828.805	14373.65
829.131	14292.29
829.458	14201.67
829.785	14079.42
830.111	14153.54
830.438	14298.4
830.764	14195.8
831.09	14174.1
831.417	14116.03
831.743	14198.74
832.069	14190.6
832.395	14152.64
832.722	14264.5
833.048	14182.01
833.374	14169.59
833.7	14120.09
834.026	14148.57
834.351	14197.15
834.677	14103.6
835.003	14203.71
835.329	14132.75
835.654	14117.38
835.98	14004.84
836.306	14118.06
836.631	14036.03
836.956	14085.97
837.282	14089.59
837.607	13908.35
837.932	14084.39
838.258	14020.66
838.583	13963.26
838.908	13868.35
839.233	13877.39
839.558	13869.93
839.883	13792.42
840.208	13768.69
840.533	13791.06
840.858	13716.49
841.182	13749.26
841.507	13730.27
841.832	13702.03
842.156	13664.29
842.481	13681.24
842.805	13677.17
843.13	13585.65
843.454	13535.25
843.778	13544.06
844.103	13482.37
844.427	13425.2
844.751	13466.55
845.075	13366.22
845.399	13378.87
845.723	13330.06
846.047	13364.63
846.371	13134.13
846.695	13166.9
847.019	13078.54
847.343	13053.91
847.666	13066.56
847.99	12928.94
848.313	12862.95
848.637	12867.25
848.96	12729.62
849.284	12814.14
849.607	12672.45
849.931	12673.13
850.254	12556.07
850.577	12581.38
850.9	12507.48
851.223	12479.01
851.546	12420.25
851.869	12328.96
852.192	12336.86
852.515	12233.14
852.838	12203.99
853.161	12275.62
853.483	12151.33
853.806	12097.32
854.129	12068.85
854.451	12037.89
854.774	12013.71
855.096	11918.8
855.419	11878.35
855.741	11924.67
856.063	11803.55
856.385	11841.06
856.708	11746.6
857.03	11639.03
857.352	11737.56
857.674	11672.7
857.996	11609.88
858.318	11538.02
858.64	11574.63
858.961	11498.02
859.283	11505.47
859.605	11421.63
859.926	11444.01
860.248	11394.74
860.57	11372.37
860.891	11348.42
861.212	11240.17
861.534	11347.06
861.855	11216.89
862.176	11295.99
862.498	11241.3
862.819	11245.37
863.14	11159.95
863.461	11175.54
863.782	11091.7
864.103	11173.96
864.424	11146.84
864.745	11110.91
865.065	11031.81
865.386	10968.54
865.707	11041.98
866.027	11018.71
866.348	10886.06
866.668	10956.79
866.989	10953.17
867.309	10910.01
867.63	10887.41
867.95	10888.54
868.27	10822.78
868.59	10858.94
868.91	10830.92
869.23	10851.48
869.55	10734.65
869.87	10914.53
870.19	10771.26
870.51	10749.79
870.83	10823.23
871.15	10679.51
871.469	10729.45
871.789	10734.87
872.109	10705.04
872.428	10674.31
872.748	10645.84
873.067	10608.1
873.386	10615.1
873.706	10643.58
874.025	10553.41
874.344	10553.41
874.663	10551.38
874.982	10532.62
875.301	10488.33
875.62	10525.84
875.939	10485.84
876.258	10507.99
876.577	10437.71
876.896	10490.13
877.214	10421.21
877.533	10407.65
877.852	10348.67
878.17	10400.64
878.489	10356.8
878.807	10295.56
879.125	10328.56
879.444	10296.69
879.762	10235.68
880.08	10273.42
880.398	10238.39
880.716	10242.91
881.034	10204.49
881.352	10226.86
881.67	10099.18
881.988	10179.18
882.306	10089.24
882.624	10113.42
882.941	10035.23
883.259	9995.01
883.577	9983.93
883.894	9977.38
884.212	10000.66
884.529	10009.02
884.846	9905.74
885.164	9920.88
885.481	9879.75
885.798	9847.21
886.115	9816.03
886.432	9829.36
886.75	9790.72
887.067	9715.92
887.383	9671.62
887.7	9733.09
888.017	9732.87
888.334	9704.39
888.651	9648.12
888.967	9642.7
889.284	9603.15
889.6	9508.24
889.917	9505.98
890.233	9530.84
890.55	9480.67
890.866	9500.33
891.182	9429.6
891.498	9364.06
891.815	9362.71
892.131	9358.64
892.447	9306.89
892.763	9319.32
893.079	9268.02
893.395	9253.33
893.71	9164.07
894.026	9176.5
894.342	9131.53
894.657	9073
894.973	9095.59
895.289	9022.38
895.604	9020.79
895.92	9010.17
896.235	8968.37
896.55	8941.02
896.865	8927.46
897.181	8906.9
897.496	8863.51
897.811	8836.62
898.126	8803.85
898.441	8769.95
898.756	8682.95
899.071	8613.12
899.386	8699.22
899.7	8606.34
900.015	8538.32
900.33	8470.07
900.644	8484.08
900.959	8465.1
901.273	8517.53
901.588	8465.1
901.902	8407.93
902.216	8402.28
902.531	8385.1
902.845	8345.11
903.159	8313.69
903.473	8227.37
903.787	8193.7
904.101	8148.05
904.415	8116.64
904.729	8074.83
905.042	8039.12
905.356	8033.7
905.67	8024.21
905.984	8072.12
906.297	8009.97
906.611	7923.2
906.924	7893.82
907.237	7915.29
907.551	7862.63
907.864	7779.24
908.177	7803.2
908.491	7734.05
908.804	7774.05
909.117	7664.45
909.43	7655.41
909.743	7595.75
910.056	7545.58
910.368	7561.4
910.681	7506.26
910.994	7551.68
911.307	7444.34
911.619	7365.7
911.932	7372.93
912.244	7322.99
912.557	7361.63
912.869	7265.81
913.181	7281.86
913.494	7258.35
913.806	7195.53
914.118	7210.45
914.43	7153.27
914.742	7126.38
915.054	7165.48
915.366	7088.42
915.678	7026.04
915.99	7089.55
916.302	7005.03
916.613	6890
916.925	6950.79
917.236	6953.5
917.548	6839.16
917.859	6902.66
918.171	6797.12
918.482	6829.67
918.794	6775.66
919.105	6732.27
919.416	6637.58
919.727	6713.51
920.038	6659.27
920.349	6605.72
920.66	6588.54
920.971	6612.72
921.282	6564.59
921.593	6531.82
921.903	6438.04
922.214	6435.33
922.525	6473.06
922.835	6437.81
923.146	6416.79
923.456	6387.64
923.767	6356.01
924.077	6361.88
924.387	6282.56
924.697	6248.21
925.008	6212.73
925.318	6224.03
925.628	6186.52
925.938	6192.62
926.248	6143.13
926.558	6086.41
926.867	6082.34
927.177	6038.05
927.487	6063.81
927.796	6003.02
928.106	5973.19
928.416	5923.25
928.725	5954.43
929.034	5908.11
929.344	5897.71
929.653	5885.74
929.962	5852.52
930.271	5792.4
930.581	5796.92
930.89	5771.39
931.199	5749.69
931.508	5705.4
931.817	5720.99
932.125	5744.27
932.434	5687.32
932.743	5626.31
933.051	5589.02
933.36	5584.73
933.669	5518.06
933.977	5504.28
934.286	5540.21
934.594	5535.91
934.902	5464.05
935.21	5472.86
935.519	5469.02
935.827	5399.65
936.135	5406.2
936.443	5342.7
936.751	5310.16
937.059	5315.13
937.367	5310.83
937.674	5247.56
937.982	5283.72
938.29	5220.89
938.597	5195.58
938.905	5151.97
939.213	5132.53
939.52	5122.37
939.827	5101.12
940.135	5123.5
940.442	5103.38
940.749	5080.33
941.056	5081.24
941.363	5003.5
941.67	4992.43
941.977	4992.43
942.284	4921.01
942.591	4923.5
942.898	4885.54
943.205	4909.94
943.511	4858.64
943.818	4870.17
944.125	4809.61
944.431	4872.43
944.738	4756.27
945.044	4753.79
945.35	4713.56
945.657	4702.04
945.963	4699.78
946.269	4648.03
946.575	4658.65
946.881	4618.65
947.187	4619.55
947.493	4587.92
947.799	4597.18
948.105	4588.37
948.41	4529.84
948.716	4542.04
949.022	4487.35
949.327	4501.82
949.633	4453
949.938	4458.88
950.244	4441.71
950.549	4375.94
950.854	4368.71
951.16	4383.85
951.465	4357.87
951.77	4330.07
952.075	4333.23
952.38	4314.48
952.685	4241.94
952.99	4257.53
953.294	4254.37
953.599	4188.6
953.904	4199.68
954.209	4207.14
954.513	4188.6
954.818	4139.11
955.122	4149.74
955.426	4091.21
955.731	4103.18
956.035	4084.88
956.339	4067.25
956.643	4070.87
956.948	4062.73
957.252	4016.41
957.556	4025.9
957.86	3947.93
958.163	3982.28
958.467	3959.46
958.771	3935.73
959.075	3889.18
959.378	3913.58
959.682	3863.19
959.985	3843.08
960.289	3839.46
960.592	3826.81
960.896	3808.95
961.199	3804.21
961.502	3799.69
961.805	3739.58
962.108	3742.51
962.411	3727.6
962.714	3732.57
963.017	3728.28
963.32	3733.02
963.623	3693.48
963.926	3667.49
964.228	3626.81
964.531	3606.7
964.833	3617.32
965.136	3571.9
965.438	3568.28
965.741	3538
966.043	3549.53
966.345	3515.63
966.648	3520.37
966.95	3494.61
967.252	3476.31
967.554	3437.44
967.856	3481.05
968.158	3435.86
968.46	3455.06
968.761	3407.61
969.063	3405.35
969.365	3358.8
969.666	3391.34
969.968	3332.36
970.269	3351.11
970.571	3333.03
970.872	3341.85
971.174	3262.75
971.475	3234.73
971.776	3218.23
972.077	3251
972.378	3214.17
972.679	3229.99
972.98	3171.68
973.281	3176.43
973.582	3182.53
973.883	3145.69
974.183	3121.97
974.484	3154.28
974.785	3134.17
975.085	3106.83
975.386	3095.75
975.686	3070.89
975.986	3058.46
976.287	3081.52
976.587	3022.99
976.887	3047.17
977.187	3006.94
977.487	3001.07
977.787	3002.2
978.087	2944.34
978.387	2962.42
978.687	2951.8
978.987	2909.54
979.286	2949.54
979.586	2919.94
979.885	2895.98
980.185	2933.27
980.484	2855.31
980.784	2866.61
981.083	2843.56
981.382	2825.93
981.682	2846.27
981.981	2820.5
982.28	2812.6
982.579	2771.01
982.878	2780.73
983.177	2746.61
983.475	2719.49
983.774	2752.94
984.073	2731.47
984.372	2714.75
984.67	2697.57
984.969	2720.17
985.267	2659.15
985.566	2647.63
985.864	2692.6
986.162	2614.41
986.461	2620.06
986.759	2578.48
987.057	2603.79
987.355	2572.15
987.653	2582.77
987.951	2554.07
988.249	2559.95
988.547	2555.88
988.844	2549.33
989.142	2541.19
989.44	2514.3
989.737	2478.14
990.035	2481.76
990.332	2474.75
990.63	2437.69
990.927	2427.29
991.224	2429.1
991.521	2418.03
991.819	2439.72
992.116	2409.67
992.413	2402.66
992.71	2369.22
993.006	2355.66
993.303	2354.08
993.6	2338.71
993.897	2345.72
994.193	2344.59
994.49	2328.09
994.787	2309.56
995.083	2290.8
995.379	2280.86
995.676	2291.71
995.972	2232.72
996.268	2246.06
996.565	2246.06
996.861	2237.02
997.157	2222.55
997.453	2229.33
997.749	2213.29
998.044	2193.18
998.34	2190.01
998.636	2194.31
998.932	2153.18
999.227	2148.21
999.523	2160.18
999.818	2138.94
1000.114	2142.1
1000.409	2083.58
1000.704	2109.34
1001	2062.11
1001.295	2049.23
1001.59	2056.01
1001.885	2046.74
1002.18	2044.93
1002.475	2028.21
1002.77	2013.97
1003.065	1997.25
1003.359	1973.07
1003.654	1963.35
1003.949	1956.12
1004.243	1960.87
1004.538	1917.7
1004.832	1939.85
1005.127	1928.1
1005.421	1912.05
1005.715	1905.27
1006.009	1875.45
1006.304	1877.25
1006.598	1878.61
1006.892	1856.01
1007.186	1859.63
1007.48	1839.06
1007.773	1847.2
1008.067	1842.23
1008.361	1798.38
1008.655	1778.27
1008.948	1799.06
1009.242	1782.34
1009.535	1769.23
1009.829	1760.42
1010.122	1745.5
1010.415	1741.89
1010.708	1712.06
1011.001	1736.47
1011.295	1698.95
1011.588	1685.17
1011.881	1706.41
1012.173	1695.11
1012.466	1659.41
1012.759	1663.7
1013.052	1661.89
1013.344	1660.08
1013.637	1633.42
1013.93	1620.54
1014.222	1611.5
1014.514	1593.87
1014.807	1575.11
1015.099	1556.81
1015.391	1583.48
1015.683	1573.98
1015.976	1551.61
1016.268	1559.52
1016.56	1526.98
1016.851	1537.83
1017.143	1522.69
1017.435	1522.69
1017.727	1492.4
1018.018	1482.24
1018.31	1490.37
1018.602	1481.78
1018.893	1445.85
1019.185	1434.33
1019.476	1423.93
1019.767	1431.61
1020.058	1439.52
1020.35	1418.51
1020.641	1400.43
1020.932	1401.33
1021.223	1407.21
1021.514	1369.92
1021.804	1378.51
1022.095	1357.49
1022.386	1348
1022.677	1359.98
1022.967	1330.6
1023.258	1353.42
1023.548	1331.28
1023.839	1286.53
1024.129	1299.64
1024.419	1285.63
1024.709	1289.25
1025	1277.04
1025.29	1261.22
1025.58	1252.41
1025.87	1239.3
1026.16	1249.47
1026.449	1248.12
1026.739	1224.39
1027.029	1215.8
1027.319	1211.06
1027.608	1217.61
1027.898	1184.39
1028.187	1173.99
1028.477	1179.19
1028.766	1196.14
1029.055	1190.49
1029.344	1152.3
1029.634	1167.89
1029.923	1164.05
1030.212	1137.39
1030.501	1134
1030.79	1104.62
1031.078	1078.4
1031.367	1103.26
1031.656	1087.44
1031.945	1079.99
1032.233	1112.53
1032.522	1075.69
1032.81	1075.92
1033.099	1063.94
1033.387	1059.65
1033.675	1077.05
1033.963	1052.19
1034.251	1063.26
1034.54	1022.36
1034.828	1028.69
1035.116	1035.47
1035.403	1012.19
1035.691	1001.8
1035.979	981.46
1036.267	1013.55
1036.554	978.07
1036.842	972.19
1037.129	984.62
1037.417	959.31
1037.704	964.06
1037.992	971.74
1038.279	960.67
1038.566	922.25
1038.853	922.25
1039.14	922.25
