Data from hue_130_FLMS001491_00051.txt Node
Date: Tue Feb 07 16:57:47 GMT 2017
User: dcchb
Spectrometer: FLMS00149
Trigger mode: 0
Integration Time (sec): 2.000000E-2
Scans to average: 10
Electric dark correction enabled: true
Nonlinearity correction enabled: false
Boxcar width: 0
XAxis mode: Wavelengths
Number of Pixels in Spectrum: 2048
>>>>>Begin Spectral Data<<<<<
341.393	-13.45
341.776	-13.45
342.16	-13.45
342.543	-69.04
342.927	-67.91
343.31	-53.9
343.693	-63.16
344.077	-68.36
344.46	-49.83
344.843	-37.17
345.226	-51.41
345.61	-32.2
345.993	-32.65
346.376	-13.45
346.759	13.45
347.142	45.08
347.525	25.65
347.908	54.57
348.291	51.64
348.674	91.64
349.057	120.11
349.44	134.57
349.823	159.66
350.206	169.6
350.588	212.99
350.971	191.75
351.354	219.99
351.737	245.76
352.119	242.82
352.502	256.38
352.884	275.36
353.267	286.43
353.65	295.47
354.032	302.03
354.414	299.77
354.797	310.61
355.179	314.23
355.562	300.67
355.944	346.09
356.326	348.58
356.709	341.57
357.091	307.45
357.473	339.99
357.855	329.82
358.238	348.35
358.62	346.54
359.002	341.57
359.384	331.86
359.766	354.68
360.148	349.26
360.53	334.57
360.912	334.79
361.294	341.12
361.676	334.79
362.057	315.36
362.439	333.21
362.821	343.83
363.203	326.66
363.584	321.91
363.966	328.24
364.348	322.59
364.729	327.79
365.111	306.32
365.493	307.22
365.874	311.52
366.256	312.87
366.637	311.74
367.019	320.78
367.4	339.99
367.781	322.14
368.163	321.46
368.544	307
368.925	320.1
369.306	329.6
369.688	321.01
370.069	321.23
370.45	324.17
370.831	333.89
371.212	304.74
371.593	325.98
371.974	299.77
372.355	317.17
372.736	325.98
373.117	303.38
373.498	326.66
373.879	316.94
374.26	316.04
374.641	314.46
375.021	316.49
375.402	327.11
375.783	316.94
376.163	331.4
376.544	328.47
376.925	317.84
377.305	328.92
377.686	341.8
378.066	340.44
378.447	344.74
378.827	335.92
379.208	337.05
379.588	341.57
379.968	314.23
380.349	335.7
380.729	346.54
381.109	331.4
381.489	342.7
381.87	343.15
382.25	327.79
382.63	337.73
383.01	339.09
383.39	361.23
383.77	353.32
384.15	328.47
384.53	335.92
384.91	354.91
385.29	342.25
385.67	367.33
386.049	352.42
386.429	356.71
386.809	355.81
387.189	341.35
387.568	375.47
387.948	363.49
388.328	360.78
388.707	362.14
389.087	381.12
389.466	364.4
389.846	356.94
390.225	367.33
390.605	358.97
390.984	392.87
391.363	377.05
391.743	381.12
392.122	359.2
392.501	387.22
392.881	382.02
393.26	379.54
393.639	370.95
394.018	389.93
394.397	380.89
394.776	378.86
395.155	408.46
395.534	375.02
395.913	394.9
396.292	380.67
396.671	394.68
397.05	400.78
397.429	398.29
397.808	381.57
398.186	398.52
398.565	388.13
398.944	386.54
399.323	401.68
399.701	399.42
400.08	388.35
400.458	417.05
400.837	402.14
401.215	420.89
401.594	408.24
401.972	424.06
402.351	414.79
402.729	411.85
403.107	436.03
403.486	405.98
403.864	411.85
404.242	413.89
404.62	436.49
404.999	430.61
405.377	443.94
405.755	448.91
406.133	439.42
406.511	458.86
406.889	438.29
407.267	455.24
407.645	438.07
408.023	446.65
408.401	465.64
408.779	457.95
409.156	431.29
409.534	459.31
409.912	474
410.29	475.35
410.667	488.46
411.045	462.47
411.422	467.67
411.8	468.12
412.178	469.25
412.555	480.1
412.933	489.37
413.31	490.72
413.687	501.57
414.065	521.91
414.442	509.7
414.819	496.37
415.197	508.8
415.574	505.41
415.951	518.97
416.328	515.58
416.705	504.51
417.082	531.17
417.46	518.97
417.837	523.04
418.214	525.07
418.591	532.3
418.967	530.95
419.344	549.93
419.721	542.47
420.098	542.02
420.475	569.14
420.852	536.82
421.228	546.54
421.605	556.26
421.982	592.87
422.358	570.95
422.735	591.74
423.111	564.84
423.488	566.43
423.864	586.09
424.241	584.5
424.617	589.93
424.994	601.68
425.37	606.65
425.746	565.3
426.123	587.67
426.499	597.84
426.875	618.63
427.251	628.12
427.627	642.36
428.003	643.94
428.379	645.75
428.756	651.62
429.132	649.36
429.507	653.2
429.883	651.62
430.259	658.17
430.635	660.43
431.011	659.3
431.387	686.65
431.763	692.07
432.138	705.86
432.514	690.04
432.89	693.43
433.265	737.95
433.641	720.09
434.016	706.31
434.392	747.66
434.767	736.14
435.143	725.52
435.518	760.54
435.894	735.23
436.269	767.1
436.644	763.03
437.02	760.54
437.395	777.95
437.77	800.77
438.145	786.53
438.52	829.7
438.895	795.12
439.271	811.39
439.646	802.8
440.021	847.1
440.395	833.54
440.77	822.46
441.145	841.22
441.52	881.45
441.895	848.23
442.27	841.9
442.645	867.66
443.019	864.95
443.394	862.69
443.769	881.22
444.143	869.69
444.518	880.99
444.892	901.56
445.267	884.61
445.641	902.69
446.016	933.2
446.39	922.8
446.764	930.48
447.139	938.62
447.513	960.99
447.887	956.7
448.262	918.51
448.636	937.94
449.01	944.49
449.384	940.65
449.758	937.49
450.132	972.74
450.506	980.65
450.88	987.43
451.254	985.4
451.628	986.3
452.002	1003.93
452.376	1013.65
452.75	1032.63
453.123	1031.95
453.497	1057.26
453.871	1043.25
454.244	1100.2
454.618	1069.24
454.992	1109.01
455.365	1121.89
455.739	1115.34
456.112	1153.53
456.486	1119.41
456.859	1138.16
457.232	1177.48
457.606	1173.87
457.979	1182
458.352	1192.62
458.725	1207.54
459.099	1239.63
459.472	1245.73
459.845	1269.91
460.218	1272.17
460.591	1291.6
460.964	1316.91
461.337	1317.59
461.71	1327.76
462.083	1367.53
462.456	1379.96
462.829	1371.6
463.201	1414.09
463.574	1387.2
463.947	1429.68
464.32	1479.62
464.692	1478.72
465.065	1509.9
465.438	1524.14
465.81	1537.93
466.183	1573.4
466.555	1571.82
466.928	1586.29
467.3	1626.06
467.672	1627.87
468.045	1650.69
468.417	1680.97
468.789	1739.5
469.161	1713.97
469.534	1757.13
469.906	1814.3
470.278	1836.9
470.65	1838.71
471.022	1931.81
471.394	1931.81
471.766	1949.89
472.138	1975.88
472.51	2038.93
472.882	2085.71
473.253	2135.42
473.625	2148.08
473.997	2267.62
474.369	2264.69
474.74	2303.56
475.112	2376.1
475.484	2405.7
475.855	2479.6
476.227	2564.79
476.598	2624
476.97	2665.35
477.341	2740.38
477.713	2784.9
478.084	2831
478.455	2945.12
478.827	2975.63
479.198	3110.54
479.569	3097.43
479.94	3217.2
480.311	3329.07
480.682	3440.93
481.053	3514.37
481.424	3615.84
481.795	3693.35
482.166	3765.66
482.537	3875.27
482.908	4008.6
483.279	4108.03
483.65	4221.02
484.021	4331.52
484.391	4423.73
484.762	4537.39
485.133	4638.64
485.503	4788.46
485.874	4891.74
486.244	5015.35
486.615	5204.5
486.985	5250.14
487.356	5462.79
487.726	5548.89
488.097	5705.05
488.467	5780.98
488.837	5987.3
489.207	6098.71
489.578	6212.15
489.948	6382.54
490.318	6534.18
490.688	6630.9
491.058	6809.2
491.428	6956.54
491.798	7140.26
492.168	7308.62
492.538	7424.78
492.908	7549.29
493.278	7801.72
493.648	7826.8
494.017	8006.68
494.387	8139.79
494.757	8231.53
495.126	8424.75
495.496	8440.12
495.866	8661.58
496.235	8820.45
496.605	8953.55
496.974	9086.43
497.344	9216.59
497.713	9289.81
498.082	9458.62
498.452	9597.83
498.821	9705.39
499.19	9784.71
499.559	9910.13
499.928	9984.48
500.298	10066.29
500.667	10245.72
501.036	10294.08
501.405	10571.13
501.774	10587.18
502.143	10668.31
502.512	10750.56
502.88	10854.29
503.249	10964.8
503.618	11060.39
503.987	11160.27
504.356	11200.04
504.724	11279.82
505.093	11393.26
505.462	11400.72
505.83	11568.62
506.199	11666.47
506.567	11778.11
506.936	11777.66
507.304	11948.95
507.672	12090.19
508.041	12039.34
508.409	12238.89
508.777	12233.24
509.145	12318.89
509.514	12370.86
509.882	12495.83
510.25	12515.04
510.618	12588.71
510.986	12594.58
511.354	12738.31
511.722	12729.5
512.09	12967
512.458	12883.62
512.826	12941.92
513.193	13097.4
513.561	13071.86
513.929	13175.81
514.297	13282.25
514.664	13275.24
515.032	13363.15
515.4	13435.69
515.767	13462.58
516.135	13487.22
516.502	13449.02
516.869	13608.12
517.237	13679.53
517.604	13592.07
517.972	13702.8
518.339	13756.14
518.706	13794.1
519.073	13748.23
519.44	13872.74
519.808	13941.67
520.175	13924.72
520.542	14046.07
520.909	14116.35
521.276	14030.7
521.643	14151.38
522.009	14179.85
522.376	14238.38
522.743	14266.86
523.11	14360.19
523.477	14471.37
523.843	14477.25
524.21	14531.48
524.577	14548.21
524.943	14588.2
525.31	14629.11
525.676	14757.92
526.043	14740.74
526.409	14782.32
526.776	14793.85
527.142	14816.22
527.508	14855.77
527.874	14897.12
528.241	14912.04
528.607	14883.56
528.973	14966.27
529.339	14956.33
529.705	14997.23
530.071	15054.86
530.437	15049.43
530.803	15078.81
531.169	15018.48
531.535	15025.93
531.901	14987.06
532.267	15013.5
532.632	15027.06
532.998	15061.64
533.364	15081.75
533.73	15077.68
534.095	15077.91
534.461	15055.99
534.826	15080.17
535.192	15112.94
535.557	15105.93
535.923	15108.19
536.288	15050.11
536.653	15053.95
537.019	15016.67
537.384	15021.19
537.749	14964.92
538.114	14966.95
538.479	14848.99
538.845	14949.55
539.21	14836.56
539.575	14796.11
539.94	14816.9
540.305	14824.13
540.67	14821.64
541.034	14793.85
541.399	14730.57
541.764	14757.69
542.129	14725.15
542.494	14736
542.858	14623.23
543.223	14649.9
543.587	14629.56
543.952	14546.17
544.316	14571.93
544.681	14443.12
545.045	14444.7
545.41	14448.09
545.774	14413.29
546.138	14271.83
546.503	14474.76
546.867	14360.87
547.231	14399.51
547.595	14364.93
547.959	14331.26
548.324	14314.54
548.688	14176.24
549.052	14185.05
549.416	14203.13
549.779	14188.44
550.143	14132.62
550.507	14126.3
550.871	14106.18
551.235	14031.16
551.599	14022.12
551.962	14033.87
552.326	13954.32
552.689	14003.13
553.053	13931.72
553.417	13973.53
553.78	13973.08
554.143	13909.13
554.507	13892.63
554.87	13917.04
555.234	13926.3
555.597	13799.98
555.96	13816.47
556.323	13775.12
556.686	13843.14
557.05	13872.06
557.413	13859.86
557.776	13756.14
558.139	13841.1
558.502	13812.18
558.865	13800.88
559.228	13791.16
559.59	13761.33
559.953	13733.54
560.316	13915.68
560.679	13795.46
561.041	13839.3
561.404	13825.06
561.767	13943.93
562.129	13830.26
562.492	13955
562.854	13943.7
563.217	13884.04
563.579	13839.3
563.941	14023.02
564.304	13934.89
564.666	14008.11
565.028	13902.12
565.39	13946.19
565.753	14073.19
566.115	14059.63
566.477	14084.94
566.839	14079.74
567.201	14093.53
567.563	14115.22
567.925	14118.61
568.287	14155.9
568.648	14135.11
569.01	14145.28
569.372	14272.05
569.734	14167.65
570.095	14202.68
570.457	14264.37
570.819	14266.63
571.18	14242
571.542	14301.21
571.903	14291.49
572.265	14295.56
572.626	14282.9
572.987	14331.71
573.349	14345.05
573.71	14352.73
574.071	14344.37
574.432	14377.14
574.794	14472.73
575.155	14410.13
575.516	14377.59
575.877	14456.68
576.238	14463.01
576.599	14472.05
576.96	14468.43
577.32	14429.11
577.681	14529.9
578.042	14488.77
578.403	14452.16
578.763	14533.06
579.124	14492.84
579.485	14507.98
579.845	14516.34
580.206	14411.26
580.566	14415.33
580.927	14537.58
581.287	14470.02
581.648	14500.3
582.008	14594.53
582.368	14560.63
582.728	14516.57
583.089	14514.76
583.449	14495.55
583.809	14494.87
584.169	14538.04
584.529	14386.18
584.889	14505.04
585.249	14426.4
585.609	14392.5
585.969	14576
586.329	14422.33
586.688	14544.36
587.048	14365.84
587.408	14461.43
587.768	14397.02
588.127	14330.36
588.487	14298.49
588.846	14407.87
589.206	14319.74
589.565	14293.52
589.925	14404.71
590.284	14348.89
590.643	14389.34
591.003	14327.65
591.362	14360.41
591.721	14359.51
592.08	14350.7
592.44	14366.74
592.799	14347.98
593.158	14370.36
593.517	14258.27
593.876	14322
594.235	14234.31
594.593	14271.38
594.952	14293.07
595.311	14164.03
595.67	14307.99
596.029	14314.99
596.387	14336.23
596.746	14282.68
597.104	14252.17
597.463	14163.81
597.822	14168.78
598.18	14179.85
598.538	14202.23
598.897	14237.25
599.255	14084.94
599.613	14295.33
599.972	14119.06
600.33	14206.29
600.688	14252.62
601.046	14208.33
601.404	14263.24
601.762	14256.24
602.12	14298.95
602.478	14285.84
602.836	14282.68
603.194	14223.69
603.552	14281.32
603.91	14169.01
604.268	14227.08
604.625	14290.36
604.983	14254.2
605.341	14084.04
605.698	14242.9
606.056	14339.17
606.413	14273.18
606.771	14314.54
607.128	14293.52
607.485	14229.34
607.843	14265.73
608.2	14332.62
608.557	14362.9
608.914	14340.3
609.272	14377.14
609.629	14370.36
609.986	14418.04
610.343	14333.75
610.7	14361.09
611.057	14420.75
611.414	14458.04
611.771	14411.71
612.127	14472.27
612.484	14439.51
612.841	14554.08
613.198	14409.9
613.554	14465.72
613.911	14496.91
614.267	14574.42
614.624	14466.85
614.98	14462.56
615.337	14609.45
615.693	14576
616.05	14558.6
616.406	14613.29
616.762	14532.16
617.118	14545.95
617.475	14605.15
617.831	14653.29
618.187	14628.88
618.543	14620.07
618.899	14674.53
619.255	14696.68
619.611	14681.31
619.967	14806.5
620.323	14720.18
620.678	14664.13
621.034	14687.64
621.39	14735.54
621.746	14600.18
622.101	14722.89
622.457	14705.49
622.812	14619.84
623.168	14665.72
623.523	14741.65
623.879	14783.23
624.234	14695.09
624.589	14698.03
624.945	14740.52
625.3	14758.14
625.655	14660.97
626.01	14663.46
626.365	14694.87
626.72	14636.11
627.075	14698.94
627.43	14729.44
627.785	14706.17
628.14	14708.88
628.495	14749.56
628.85	14568.32
629.205	14641.54
629.559	14790.01
629.914	14685.38
630.269	14602.89
630.623	14602.44
630.978	14590.69
631.332	14668.65
631.687	14667.07
632.041	14538.04
632.396	14683.34
632.75	14539.17
633.104	14578.49
633.459	14480.18
633.813	14447.42
634.167	14491.48
634.521	14471.14
634.875	14582.1
635.229	14471.37
635.583	14329.68
635.937	14442.22
636.291	14336.69
636.645	14459.39
636.999	14364.03
637.352	14339.85
637.706	14253.3
638.06	14344.82
638.413	14233.86
638.767	14273.86
639.121	14241.32
639.474	14295.78
639.828	14199.29
640.181	14234.09
640.534	14302.56
640.888	14208.78
641.241	14105.73
641.594	14171.94
641.947	14191.15
642.301	14130.81
642.654	14191.83
643.007	14186.63
643.36	14192.73
643.713	14110.25
644.066	14154.77
644.419	14104.15
644.771	13937.37
645.124	13955.45
645.477	13890.82
645.83	13695.8
646.182	13678.17
646.535	13665.52
646.888	13621
647.24	13566.31
647.593	13630.94
647.945	13631.84
648.298	13565.41
648.65	13514.79
649.002	13554.56
649.355	13551.85
649.707	13561.79
650.059	13576.93
650.411	13771.95
650.763	13799.52
651.115	13971.72
651.467	13833.2
651.819	13963.81
652.171	13806.3
652.523	13841.33
652.875	13886.3
653.227	13860.09
653.578	14002.23
653.93	13917.26
654.282	13819.18
654.633	13839.07
654.985	13858.51
655.337	13891.05
655.688	13902.12
656.039	13940.99
656.391	13898.96
656.742	13864.61
657.094	13878.17
657.445	13954.55
657.796	13883.36
658.147	13982.57
658.498	13857.38
658.849	13924.04
659.2	13957.94
659.551	13893.31
659.902	13996.13
660.253	13900.31
660.604	13892.86
660.955	13852.4
661.306	13900.31
661.656	13935.34
662.007	13891.5
662.358	13922.91
662.708	13917.49
663.059	13902.57
663.409	13868.45
663.76	13961.55
664.11	13963.36
664.461	13952.29
664.811	13898.05
665.161	13864.61
665.511	13870.71
665.862	13936.02
666.212	13981.67
666.562	13937.37
666.912	13929.46
667.262	13929.46
667.612	14023.47
667.962	13946.64
668.312	13869.58
668.662	14027.77
669.011	13977.6
669.361	13979.41
669.711	13919.52
670.06	13922.01
670.41	13935.79
670.76	13791.16
671.109	13938.05
671.459	13934.44
671.808	13818.73
672.157	13923.59
672.507	13792.97
672.856	13823.7
673.205	13750.94
673.554	13910.71
673.904	13851.05
674.253	13813.76
674.602	13791.61
674.951	13652.41
675.3	13554.78
675.649	13792.29
675.998	13690.83
676.346	13841.33
676.695	13786.19
677.044	13626.87
677.393	13670.04
677.741	13665.74
678.09	13577.84
678.438	13606.53
678.787	13702.13
679.135	13639.53
679.484	13505.29
679.832	13683.37
680.181	13522.02
680.529	13525.63
680.877	13476.82
681.225	13408.35
681.573	13609.92
681.922	13424.84
682.27	13472.98
682.618	13370.38
682.966	13296.03
683.314	13347.78
683.661	13430.27
684.009	13285.19
684.357	13282.7
684.705	13281.8
685.053	13225.98
685.4	13237.51
685.748	13205.87
686.095	13145.76
686.443	13049.49
686.79	12974.91
687.138	13089.49
687.485	13018.3
687.832	12961.13
688.18	13033.89
688.527	12889.72
688.874	12899.43
689.221	12835.71
689.568	12835.48
689.915	12789.83
690.262	12828.25
690.609	12736.05
690.956	12763.62
691.303	12664.86
691.65	12568.82
691.997	12562.04
692.344	12600.69
692.69	12506.45
693.037	12515.49
693.383	12417.87
693.73	12392.78
694.077	12327.02
694.423	12317.53
694.769	12223.75
695.116	12167.93
695.462	12274.82
695.808	12226.23
696.155	12118.89
696.501	12002.28
696.847	12109.85
697.193	12008.84
697.539	11992.79
697.885	11880.7
698.231	11948.73
698.577	11779.69
698.923	11822.85
699.269	11763.87
699.614	11656.3
699.96	11739.47
700.306	11673.48
700.651	11505.35
700.997	11581.5
701.342	11467.16
701.688	11490.43
702.033	11397.78
702.379	11423.54
702.724	11427.16
703.069	11438.68
703.415	11209.99
703.76	11240.72
704.105	11213.83
704.45	11209.99
704.795	11159.82
705.14	11106.26
705.485	11072.36
705.83	11080.05
706.175	11005.25
706.52	11013.61
706.865	10988.75
707.209	10877.57
707.554	10851.13
707.899	10873.05
708.243	10795.76
708.588	10907.62
708.932	10775.2
709.277	10771.81
709.621	10709.21
709.966	10721.86
710.31	10732.94
710.654	10559.16
710.998	10618.82
711.342	10584.92
711.687	10570.46
712.031	10539.5
712.375	10475.77
712.719	10471.25
713.063	10471.02
713.407	10460.63
713.75	10442.1
714.094	10444.13
714.438	10409.78
714.782	10391.03
715.125	10348.54
715.469	10337.02
715.812	10249.34
716.156	10265.15
716.499	10219.73
716.843	10249.79
717.186	10223.12
717.53	10253.85
717.873	10239.39
718.216	10146.29
718.559	10179.73
718.902	10087.76
719.246	10123.24
719.589	10107.64
719.932	10022.67
720.275	10099.51
720.617	10059.74
720.96	9982.9
721.303	10052.05
721.646	10043.46
721.989	10000.08
722.331	9973.18
722.674	10024.48
723.016	9958.72
723.359	9943.13
723.701	9962.11
724.044	9914.2
724.386	9910.36
724.729	9893.19
725.071	9894.77
725.413	9895.45
725.755	9956.01
726.097	9814.09
726.439	9859.06
726.782	9845.73
727.124	9913.75
727.465	9812.74
727.807	9804.37
728.149	9823.13
728.491	9856.13
728.833	9815
729.175	9757.14
729.516	9765.73
729.858	9782.23
730.199	9805.05
730.541	9757.82
730.882	9746.52
731.224	9757.6
731.565	9749.24
731.906	9751.04
732.248	9682.8
732.589	9704.26
732.93	9734.09
733.271	9738.16
733.612	9784.94
733.953	9770.93
734.294	9819.97
734.635	9680.08
734.976	9671.5
735.317	9657.03
735.658	9689.58
735.999	9730.48
736.339	9652.06
736.68	9750.82
737.021	9744.94
737.361	9744.72
737.702	9785.17
738.042	9734.77
738.383	9719.18
738.723	9655
739.063	9829.46
739.404	9867.88
739.744	9788.1
740.084	9788.1
740.424	9800.31
740.764	9794.43
741.104	9778.16
741.444	9869.91
741.784	9808.22
742.124	9867.88
742.464	9826.3
742.804	9917.82
743.143	9942.9
743.483	9898.84
743.823	9871.04
744.162	9952.62
744.502	9988.1
744.841	9990.81
745.181	10045.05
745.52	10042.56
745.86	10151.48
746.199	10101.99
746.538	10187.19
746.877	10226.28
747.216	10241.43
747.556	10259.05
747.895	10344.47
748.234	10403.46
748.573	10469.44
748.911	10492.94
749.25	10506.73
749.589	10600.29
749.928	10682.54
750.267	10704.24
750.605	10829.21
750.944	10853.84
751.283	10868.3
751.621	10998.47
751.96	11132.25
752.298	11250.44
752.636	11346.48
752.975	11334.28
753.313	11405.69
753.651	11598
753.989	11693.36
754.327	11753.25
754.666	11844.55
755.004	11986.69
755.342	12146.46
755.679	12301.94
756.017	12329.96
756.355	12627.35
756.693	12588.48
757.031	12785.99
757.368	12874.12
757.706	13080
758.044	13214
758.381	13410.38
758.719	13500.32
759.056	13695.35
759.394	13865.51
759.731	13906.87
760.068	14157.93
760.405	14298.04
760.743	14387.76
761.08	14604.7
761.417	14804.02
761.754	14874.3
762.091	15074.74
762.428	15165.36
762.765	15239.49
763.102	15579.36
763.438	15633.37
763.775	15859.13
764.112	16001.5
764.449	16197.2
764.785	16379.8
765.122	16332.56
765.458	16485.1
765.795	16720.8
766.131	16934.81
766.467	17000.34
766.804	17148.59
767.14	17220.23
767.476	17342.71
767.812	17466.32
768.148	17732.98
768.485	17620.21
768.821	17810.94
769.157	17917.61
769.492	17997.38
769.828	18174.78
770.164	18141.1
770.5	18339.74
770.836	18525.05
771.171	18424.94
771.507	18583.58
771.842	18682.33
772.178	18763.01
772.513	18933.17
772.849	18896.34
773.184	18856.79
773.519	19045.26
773.855	19167.07
774.19	19167.74
774.525	19141.98
774.86	19411.35
775.195	19421.52
775.53	19433.5
775.865	19377.68
776.2	19480.96
776.535	19253.17
776.87	19399.15
777.205	19412.03
777.539	19407.29
777.874	19626.94
778.209	19473.95
778.543	19562.08
778.878	19520.28
779.212	19634.85
779.547	19512.37
779.881	19612.03
780.215	19520.73
780.55	19637.79
780.884	19526.38
781.218	19565.25
781.552	19674.17
781.886	19612.25
782.22	19541.07
782.554	19573.16
782.888	19412.48
783.222	19432.6
783.556	19344.01
783.889	19445.93
784.223	19357.12
784.557	19435.76
784.89	19483.89
785.224	19448.19
785.557	19326.16
785.891	19353.05
786.224	19348.76
786.558	19326.16
786.891	19220.4
787.224	19138.59
787.557	19113.51
787.891	19073.28
788.224	19225.6
788.557	19158.25
788.89	19185.82
789.223	19195.99
789.556	19002.33
789.888	19043
790.221	19075.77
790.554	18922.55
790.887	18894.08
791.219	18890.46
791.552	18814.99
791.884	18813.63
792.217	18745.83
792.549	18706.29
792.882	18701.77
793.214	18534.99
793.546	18690.24
793.879	18579.51
794.211	18465.39
794.543	18545.61
794.875	18496.12
795.207	18444.6
795.539	18427.43
795.871	18425.84
796.203	18294.77
796.535	18198.28
796.867	18174.1
797.198	18112.18
797.53	18125.74
797.862	17973.65
798.193	18122.8
798.525	17907.44
798.856	17917.38
799.188	17847.33
799.519	17830.15
799.85	17649.59
800.182	17716.94
800.513	17712.87
800.844	17532.53
801.175	17711.96
801.506	17666.54
801.837	17523.72
802.168	17594
802.499	17556.26
802.83	17437.17
803.161	17384.74
803.491	17399.2
803.822	17439.65
804.153	17245.76
804.483	17122.83
804.814	17084.18
805.145	17157.85
805.475	17118.53
805.805	16999.89
806.136	17041.25
806.466	17098.19
806.796	17021.13
807.126	16883.06
807.457	16823.85
807.787	16829.73
808.117	16754.93
808.447	16816.39
808.777	16767.36
809.107	16687.81
809.436	16575.04
809.766	16601.26
810.096	16542.28
810.426	16463.41
810.755	16493.01
811.085	16461.83
811.414	16482.17
811.744	16368.27
812.073	16311.77
812.403	16273.36
812.732	16207.82
813.061	16293.24
813.39	16109.97
813.719	16156.98
814.049	16221.61
814.378	16038.56
814.707	16097.77
815.036	16102.51
815.365	15970.54
815.693	15878.34
816.022	15869.53
816.351	15791.56
816.68	15841.5
817.008	15789.3
817.337	15641.28
817.665	15629.53
817.994	15630.66
818.322	15678.8
818.651	15653.26
818.979	15531.91
819.307	15609.65
819.636	15615.07
819.964	15467.28
820.292	15543.66
820.62	15655.97
820.948	15497.33
821.276	15603.09
821.604	15478.12
821.932	15500.72
822.259	15461.18
822.587	15480.16
822.915	15467.95
823.243	15490.1
823.57	15408.07
823.898	15482.87
824.225	15457.56
824.553	15447.62
824.88	15514.28
825.207	15513.38
825.535	15523.32
825.862	15467.05
826.189	15483.77
826.516	15498.01
826.843	15546.14
827.17	15553.15
827.497	15507.5
827.824	15566.48
828.151	15505.47
828.478	15425.02
828.805	15561.96
829.131	15450.33
829.458	15460.95
829.785	15441.29
830.111	15494.62
830.438	15462.76
830.764	15543.89
831.09	15459.59
831.417	15357
831.743	15408.3
832.069	15423.66
832.395	15365.36
832.722	15447.62
833.048	15394.28
833.374	15335.08
833.7	15310.9
834.026	15327.62
834.351	15419.14
834.677	15300.05
835.003	15364.68
835.329	15266.38
835.654	15282.65
835.98	15295.98
836.306	15308.64
836.631	15223.44
836.956	15278.81
837.282	15303.21
837.607	15131.47
837.932	15176.21
838.258	15132.6
838.583	15102.99
838.908	14976.44
839.233	15114.97
839.558	15011.47
839.883	15049.21
840.208	14964.24
840.533	14914.98
840.858	14943.67
841.182	14950
841.507	14962.88
841.832	14769.44
842.156	14862.55
842.481	14863.45
842.805	14772.83
843.13	14736.9
843.454	14712.72
843.778	14647.41
844.103	14550.69
844.427	14584.14
844.751	14654.42
845.075	14530.8
845.399	14455.1
845.723	14504.59
846.047	14488.77
846.371	14383.92
846.695	14357.02
847.019	14208.55
847.343	14173.07
847.666	14101.21
847.99	14019.41
848.313	14100.31
848.637	14005.62
848.96	13936.7
849.284	13884.72
849.607	13661.67
849.931	13751.84
850.254	13703.26
850.577	13637.49
850.9	13515.01
851.223	13475.46
851.546	13415.13
851.869	13361.34
852.192	13458.29
852.515	13297.62
852.838	13281.35
853.161	13203.83
853.483	13175.13
853.806	13101.92
854.129	13099.43
854.451	13015.14
854.774	13014.01
855.096	12859.66
855.419	12921.81
855.741	12935.59
856.063	12853.11
856.385	12770.85
856.708	12745.99
857.03	12667.35
857.352	12674.81
857.674	12579.44
857.996	12616.73
858.318	12532.21
858.64	12551.65
858.961	12518.2
859.283	12429.16
859.605	12444.98
859.926	12438.2
860.248	12363.18
860.57	12317.98
860.891	12413.8
861.212	12200.92
861.534	12217.19
861.855	12238.21
862.176	12188.04
862.498	12176.29
862.819	12196.18
863.14	12122.05
863.461	12041.83
863.782	12105.78
864.103	12004.32
864.424	12001.83
864.745	12023.98
865.065	11932.91
865.386	11887.48
865.707	11867.15
866.027	11860.59
866.348	11861.95
866.668	11787.83
866.989	11797.77
867.309	11713.25
867.63	11801.38
867.95	11744.89
868.27	11742.18
868.59	11764.32
868.91	11715.29
869.23	11768.17
869.55	11605.91
869.87	11730.88
870.19	11621.95
870.51	11606.36
870.83	11609.3
871.15	11564.78
871.469	11579.7
871.789	11638.68
872.109	11483.2
872.428	11449.3
872.748	11538.34
873.067	11480.04
873.386	11443.2
873.706	11418.34
874.025	11396.42
874.344	11386.93
874.663	11425.35
874.982	11287.5
875.301	11394.62
875.62	11327.27
875.939	11337.89
876.258	11339.7
876.577	11259.7
876.896	11242.08
877.214	11233.04
877.533	11257.22
877.852	11174.51
878.17	11237.56
878.489	11257.67
878.807	11233.26
879.125	11153.04
879.444	11138.13
879.762	11078.69
880.08	11147.39
880.398	11091.57
880.716	11059.94
881.034	10983.33
881.352	11042.31
881.67	11004.34
881.988	10936.77
882.306	10905.59
882.624	10880.73
882.941	10872.37
883.259	10869.21
883.577	10781.52
883.894	10705.37
884.212	10787.63
884.529	10703.79
884.846	10757.57
885.164	10693.62
885.481	10637.57
885.798	10654.3
886.115	10510.12
886.432	10587.18
886.75	10584.69
887.067	10560.06
887.383	10520.97
887.7	10509.89
888.017	10488.42
888.334	10478.93
888.651	10401.2
888.967	10369.56
889.284	10388.77
889.6	10320.07
889.917	10291.14
890.233	10246.4
890.55	10171.82
890.866	10187.19
891.182	10203.01
891.498	10151.26
891.815	10094.99
892.131	10013.86
892.447	10010.02
892.763	10052.5
893.079	10061.77
893.395	9917.37
893.71	9866.52
894.026	9913.75
894.342	9881.21
894.657	9789.46
894.973	9847.76
895.289	9779.74
895.604	9792.62
895.92	9698.84
896.235	9622.68
896.55	9611.84
896.865	9628.56
897.181	9599.86
897.496	9588.56
897.811	9524.38
898.126	9495.46
898.441	9436.93
898.756	9404.16
899.071	9357.38
899.386	9303.6
899.7	9264.5
900.015	9244.62
900.33	9189.02
900.644	9241.68
900.959	9154.45
901.273	9182.7
901.588	9091.17
901.902	9025.41
902.216	9021.57
902.531	9014.57
902.845	8974.57
903.159	8904.06
903.473	8875.81
903.787	8821.8
904.101	8807.79
904.415	8765.31
904.729	8719.66
905.042	8731.18
905.356	8751.3
905.67	8632.65
905.984	8708.36
906.297	8579.32
906.611	8560.34
906.924	8525.76
907.237	8541.58
907.551	8477.86
907.864	8419.1
908.177	8403.06
908.491	8446.44
908.804	8288.93
909.117	8339.55
909.43	8269.95
909.743	8153.34
910.056	8178.43
910.368	8166.68
910.681	8128.26
910.994	8102.95
911.307	8029.05
911.619	8062.73
911.932	8048.49
912.244	7958.32
912.557	7952.67
912.869	7900.7
913.181	7852.34
913.494	7849.85
913.806	7767.14
914.118	7789.96
914.43	7699.57
914.742	7738.21
915.054	7667.03
915.366	7595.62
915.678	7592.68
915.99	7569.41
916.302	7472.23
916.613	7487.83
916.925	7482.18
917.236	7452.8
917.548	7399.92
917.859	7410.54
918.171	7380.03
918.482	7371.22
918.794	7332.58
919.105	7284.67
919.416	7262.97
919.727	7203.54
920.038	7208.74
920.349	7141.85
920.66	7102.98
920.971	7149.3
921.282	7119.25
921.593	7027.72
921.903	6991.57
922.214	6984.34
922.525	6965.35
922.835	6945.02
923.146	6877.67
923.456	6819.82
923.767	6824.79
924.077	6818.46
924.387	6829.99
924.697	6747.28
925.008	6723.55
925.318	6654.63
925.628	6683.55
925.938	6743.89
926.248	6587.74
926.558	6564.69
926.867	6542.77
927.177	6583.44
927.487	6488.3
927.796	6471.13
928.106	6468.64
928.416	6447.18
928.725	6371.92
929.034	6378.93
929.344	6372.37
929.653	6345.71
929.962	6266.16
930.271	6277.01
930.581	6254.41
930.89	6178.03
931.199	6169.22
931.508	6173.74
931.817	6161.76
932.125	6156.79
932.434	6097.58
932.743	6038.82
933.051	6059.61
933.36	6008.99
933.669	6008.09
933.977	5909.34
934.286	5949.79
934.594	5914.31
934.902	5923.57
935.21	5873.4
935.519	5881.77
935.827	5823.46
936.135	5768.77
936.443	5724.26
936.751	5737.14
937.059	5720.19
937.367	5684.94
937.674	5677.7
937.982	5687.42
938.29	5604.71
938.597	5645.61
938.905	5515.22
939.213	5572.62
939.52	5520.42
939.827	5507.31
940.135	5445.85
940.442	5420.99
940.749	5453.75
941.056	5413.76
941.363	5394.55
941.67	5405.85
941.977	5349.58
942.284	5312.06
942.591	5272.97
942.898	5244.95
943.205	5197.94
943.511	5246.08
943.818	5180.77
944.125	5148
944.431	5157.72
944.738	5127.89
945.044	5060.09
945.35	5113.2
945.657	5063.93
945.963	5068.91
946.269	5010.6
946.575	5017.16
946.881	4963.82
947.187	4983.48
947.493	4926.31
947.799	4926.54
948.105	4913.2
948.41	4911.62
948.716	4878.63
949.022	4853.09
949.327	4855.58
949.633	4788.91
949.938	4761.8
950.244	4767.67
950.549	4731.29
950.854	4698.07
951.16	4717.96
951.465	4659.43
951.77	4665.98
952.075	4604.96
952.38	4627.56
952.685	4588.69
952.99	4622.36
953.294	4618.97
953.599	4509.15
953.904	4507.57
954.209	4485.42
954.513	4468.47
954.818	4470.28
955.122	4429.6
955.426	4457.4
955.731	4402.26
956.035	4378.3
956.339	4393.44
956.643	4369.26
956.948	4327
957.252	4288.59
957.556	4243.62
957.86	4300.11
958.163	4236.84
958.467	4197.97
958.771	4227.35
959.075	4200.45
959.378	4167.69
959.682	4176.05
959.985	4134.24
960.289	4132.89
960.592	4089.95
960.896	4079.78
961.199	4063.28
961.502	4076.16
961.805	4027.8
962.108	4034.58
962.411	3977.18
962.714	3963.62
963.017	3970.4
963.32	3967.47
963.623	3901.25
963.926	3987.8
964.228	3894.25
964.531	3885.43
964.833	3875.04
965.136	3828.26
965.438	3844.08
965.741	3801.37
966.043	3793.46
966.345	3763.4
966.648	3764.31
966.95	3753.23
967.252	3731.77
967.554	3706
967.856	3696.29
968.158	3675.27
968.46	3640.7
968.761	3664.88
969.063	3620.36
969.365	3632.11
969.666	3616.74
969.968	3568.61
970.269	3567.48
970.571	3582.17
970.872	3554.82
971.174	3536.29
971.475	3493.13
971.776	3465.78
972.077	3512.56
972.378	3455.39
972.679	3491.55
972.98	3409.06
973.281	3437.31
973.582	3398.44
973.883	3430.98
974.183	3382.17
974.484	3372.23
974.785	3351.44
975.085	3352.12
975.386	3340.36
975.686	3326.81
975.986	3292.23
976.287	3291.55
976.587	3223.76
976.887	3238.9
977.187	3225.56
977.487	3234.6
977.787	3186.47
978.087	3202.29
978.387	3147.6
978.687	3180.82
978.987	3141.5
979.286	3104.21
979.586	3148.05
979.885	3071.67
980.185	3080.26
980.484	3044.33
980.784	3046.81
981.083	3010.66
981.382	3016.08
981.682	2990.54
981.981	2989.19
982.28	2981.96
982.579	2960.71
982.878	2959.58
983.177	2938.34
983.475	2931.56
983.774	2887.72
984.073	2912.13
984.372	2894.5
984.67	2896.99
984.969	2884.33
985.267	2857.21
985.566	2878.46
985.864	2820.38
986.162	2835.07
986.461	2812.92
986.759	2810.43
987.057	2754.62
987.355	2735.86
987.653	2721.85
987.951	2746.48
988.249	2703.54
988.547	2751
988.844	2709.87
989.142	2688.4
989.44	2718.46
989.737	2684.11
990.035	2638.91
990.332	2632.81
990.63	2595.3
990.927	2633.26
991.224	2580.16
991.521	2608.63
991.819	2614.06
992.116	2548.75
992.413	2557.56
992.71	2566.37
993.006	2506.71
993.303	2529.31
993.6	2502.19
993.897	2507.84
994.193	2486.83
994.49	2457.45
994.787	2467.17
995.083	2459.94
995.379	2473.27
995.676	2449.54
995.972	2400.95
996.268	2431.69
996.565	2402.99
996.861	2396.66
997.157	2377.23
997.453	2333.38
997.749	2333.38
998.044	2331.58
998.34	2338.36
998.636	2327.06
998.932	2276.21
999.227	2262.88
999.523	2247.74
999.818	2271.01
1000.114	2245.93
1000.409	2253.39
1000.704	2214.29
1001	2244.57
1001.295	2184.91
1001.59	2165.25
1001.885	2213.39
1002.18	2193.5
1002.475	2155.76
1002.77	2148.76
1003.065	2117.12
1003.359	2083.45
1003.654	2100.62
1003.949	2055.65
1004.243	2088.65
1004.538	2092.71
1004.832	2075.99
1005.127	2050.23
1005.421	2051.81
1005.715	2007.74
1006.009	2025.6
1006.304	2014.75
1006.598	1985.37
1006.892	1996.22
1007.186	1987.18
1007.48	1968.42
1007.773	1953.28
1008.067	1944.69
1008.361	1944.02
1008.655	1891.59
1008.948	1916.9
1009.242	1914.64
1009.535	1887.07
1009.829	1874.87
1010.122	1879.16
1010.415	1864.47
1010.708	1844.36
1011.001	1803.23
1011.295	1797.58
1011.588	1802.55
1011.881	1784.25
1012.173	1804.36
1012.466	1773.85
1012.759	1775.43
1013.052	1751.71
1013.344	1756.45
1013.637	1706.73
1013.93	1734.08
1014.222	1713.97
1014.514	1720.29
1014.807	1680.97
1015.099	1691.14
1015.391	1659.96
1015.683	1658.37
1015.976	1629.9
1016.268	1638.04
1016.56	1614.76
1016.851	1623.12
1017.143	1610.69
1017.435	1602.33
1017.727	1578.83
1018.018	1609.79
1018.31	1570.69
1018.602	1552.16
1018.893	1551.03
1019.185	1555.55
1019.476	1519.85
1019.767	1509.45
1020.058	1510.58
1020.35	1493.86
1020.641	1483.46
1020.932	1469.9
1021.223	1460.19
1021.514	1473.75
1021.804	1447.98
1022.095	1426.52
1022.386	1453.41
1022.677	1446.18
1022.967	1431.71
1023.258	1417.93
1023.548	1404.14
1023.839	1383.81
1024.129	1363.24
1024.419	1374.09
1024.709	1353.75
1025	1347.87
1025.29	1309.91
1025.58	1356.69
1025.87	1325.5
1026.16	1314.43
1026.449	1300.64
1026.739	1278.5
1027.029	1289.8
1027.319	1277.82
1027.608	1268.1
1027.898	1272.17
1028.187	1249.57
1028.477	1266.29
1028.766	1261.1
1029.055	1242.57
1029.344	1227.88
1029.634	1222.91
1029.923	1205.51
1030.212	1209.12
1030.501	1179.29
1030.79	1201.66
1031.078	1179.52
1031.367	1148.11
1031.656	1152.17
1031.945	1149.24
1032.233	1137.03
1032.522	1141.78
1032.81	1104.26
1033.099	1119.63
1033.387	1099.97
1033.675	1119.86
1033.963	1097.94
1034.251	1096.13
1034.54	1097.71
1034.828	1064.49
1035.116	1063.36
1035.403	1069.69
1035.691	1068.56
1035.979	1050.71
1036.267	1069.01
1036.554	1031.72
1036.842	1031.72
1037.129	1026.75
1037.417	1027.2
1037.704	1019.3
1037.992	1027.66
1038.279	1004.38
1038.566	1000.54
1038.853	1000.54
1039.14	1000.54
