Data from hue_290_FLMS001491_00095.txt Node
Date: Tue Feb 07 15:53:45 GMT 2017
User: dcchb
Spectrometer: FLMS00149
Trigger mode: 0
Integration Time (sec): 2.000000E-2
Scans to average: 10
Electric dark correction enabled: true
Nonlinearity correction enabled: false
Boxcar width: 0
XAxis mode: Wavelengths
Number of Pixels in Spectrum: 2048
>>>>>Begin Spectral Data<<<<<
341.393	-19.72
341.776	-19.72
342.16	-19.72
342.543	-62.2
342.927	-80.96
343.31	-59.49
343.693	-69.21
344.077	-80.73
344.46	-77.12
344.843	-43.22
345.226	-40.51
345.61	-38.02
345.993	-19.27
346.376	6.5
346.759	12.6
347.142	17.8
347.525	48.53
347.908	64.57
348.291	89.21
348.674	71.81
349.057	116.55
349.44	108.42
349.823	133.95
350.206	153.16
350.588	189.54
350.971	191.58
351.354	197.9
351.737	218.47
352.119	241.97
352.502	236.1
352.884	243.55
353.267	278.58
353.65	297.34
354.032	280.39
354.414	275.64
354.797	299.14
355.179	313.16
355.562	319.94
355.944	327.17
356.326	329.43
356.709	312.7
357.091	318.35
357.473	351.12
357.855	344.57
358.238	354.06
358.62	341.63
359.002	335.53
359.384	345.02
359.766	339.82
360.148	316.77
360.53	321.97
360.912	329.65
361.294	332.82
361.676	330.78
362.057	324.23
362.439	315.64
362.821	329.65
363.203	313.16
363.584	320.16
363.966	324.91
364.348	324.91
364.729	301.86
365.111	300.95
365.493	319.71
365.874	314.96
366.256	304.34
366.637	299.6
367.019	317.68
367.4	318.13
367.781	307.28
368.163	307.28
368.544	313.38
368.925	308.64
369.306	308.86
369.688	304.34
370.069	299.82
370.45	283.78
370.831	306.38
371.212	301.18
371.593	299.37
371.974	314.06
372.355	309.31
372.736	297.34
373.117	296.66
373.498	302.76
373.879	289.88
374.26	304.57
374.641	293.95
375.021	326.49
375.402	324.91
375.783	303.89
376.163	307.28
376.544	317.22
376.925	319.71
377.305	299.6
377.686	331.46
378.066	303.66
378.447	330.1
378.827	334.17
379.208	319.71
379.588	323.55
379.968	330.1
380.349	329.43
380.729	323.55
381.109	332.82
381.489	343.66
381.87	313.83
382.25	343.21
382.63	330.1
383.01	332.36
383.39	340.73
383.77	347.96
384.15	340.73
384.53	327.84
384.91	361.97
385.29	355.64
385.67	344.34
386.049	349.99
386.429	341.86
386.809	366.26
387.189	336.66
387.568	369.43
387.948	350.89
388.328	351.57
388.707	349.54
389.087	356.09
389.466	350.22
389.846	374.85
390.225	380.27
390.605	362.87
390.984	359.71
391.363	365.13
391.743	376.66
392.122	383.44
392.501	370.78
392.881	390.67
393.26	387.73
393.639	381.85
394.018	354.06
394.397	386.6
394.776	379.82
395.155	375.75
395.534	385.24
395.913	385.47
396.292	388.63
396.671	392.25
397.05	391.35
397.429	391.57
397.808	388.18
398.186	393.15
398.565	401.06
398.944	431.57
399.323	390.22
399.701	407.84
400.08	423.21
400.458	423.66
400.837	443.55
401.215	432.47
401.594	403.77
401.972	418.24
402.351	419.82
402.729	438.12
403.107	440.38
403.486	425.7
403.864	433.83
404.242	428.63
404.62	445.36
404.999	464.79
405.377	446.94
405.755	457.11
406.133	459.59
406.511	466.82
406.889	488.07
407.267	484.45
407.645	476.99
408.023	481.29
408.401	494.17
408.779	501.17
409.156	494.85
409.534	486.03
409.912	511.12
410.29	534.62
410.667	515.64
411.045	534.62
411.422	515.18
411.8	528.29
412.178	556.09
412.555	557.67
412.933	562.41
413.31	569.65
413.687	572.36
414.065	596.54
414.442	601.74
414.819	596.54
415.197	605.35
415.574	615.97
415.951	623.43
416.328	634.05
416.705	626.59
417.082	662.75
417.46	648.97
417.837	684.22
418.214	662.07
418.591	688.74
418.967	680.83
419.344	690.09
419.721	699.13
420.098	708.17
420.475	731
420.852	714.5
421.228	731.9
421.605	747.95
421.982	729.19
422.358	744.1
422.735	785.46
423.111	791.56
423.488	795.63
423.864	791.56
424.241	820.49
424.617	787.95
424.994	824.55
425.37	830.66
425.746	833.37
426.123	836.76
426.499	839.47
426.875	889.41
427.251	878.79
427.627	892.12
428.003	886.7
428.379	928.96
428.756	924.89
429.132	928.28
429.507	935.29
429.883	956.08
430.259	988.62
430.635	961.27
431.011	972.57
431.387	1002.4
431.763	1034.94
432.138	1025.23
432.514	1058.9
432.89	1039.01
433.265	1057.54
433.641	1078.11
434.016	1096.19
434.392	1118.56
434.767	1155.85
435.143	1139.35
435.518	1152.91
435.894	1188.39
436.269	1192.23
436.644	1199.91
437.02	1204.66
437.395	1187.71
437.77	1186.8
438.145	1229.29
438.52	1259.35
438.895	1278.33
439.271	1276.07
439.646	1309.51
440.021	1318.78
440.395	1313.58
440.77	1308.38
441.145	1309.29
441.52	1351.09
441.895	1357.87
442.27	1373.24
442.645	1344.99
443.019	1356.29
443.394	1365.11
443.769	1386.57
444.143	1388.83
444.518	1398.78
444.892	1388.38
445.267	1416.4
445.641	1424.09
446.016	1450.75
446.39	1433.35
446.764	1427.48
447.139	1437.42
447.513	1445.1
447.887	1441.71
448.262	1458.21
448.636	1478.32
449.01	1504.76
449.384	1481.49
449.758	1500.47
450.132	1540.02
450.506	1516.51
450.88	1516.97
451.254	1523.75
451.628	1525.78
452.002	1552.45
452.376	1558.77
452.75	1554.48
453.123	1568.26
453.497	1588.15
453.871	1612.1
454.244	1635.15
454.618	1615.49
454.992	1660.24
455.365	1658.88
455.739	1679
456.112	1713.57
456.486	1712.44
456.859	1707.7
457.232	1753.34
457.606	1744.3
457.979	1730.52
458.352	1806
458.725	1773.68
459.099	1827.92
459.472	1826.79
459.845	1859.56
460.218	1850.52
460.591	1850.06
460.964	1860.91
461.337	1910.4
461.71	1929.84
462.083	1957.18
462.456	1929.38
462.829	1972.55
463.201	1953.11
463.574	1961.25
463.947	1982.94
464.32	2021.59
464.692	2038.99
465.065	2080.57
465.438	2088.93
465.81	2088.25
466.183	2114.46
466.555	2143.39
466.928	2181.58
467.3	2147.01
467.672	2172.09
468.045	2199.66
468.417	2229.49
468.789	2225.2
469.161	2248.92
469.534	2260.9
469.906	2307.45
470.278	2365.53
470.65	2330.73
471.022	2383.38
471.394	2426.09
471.766	2439.88
472.138	2431.52
472.51	2496.38
472.882	2506.54
473.253	2520.1
473.625	2558.97
473.997	2590.61
474.369	2611.85
474.74	2647.78
475.112	2660.89
475.484	2726.2
475.855	2722.81
476.227	2704.96
476.598	2806.42
476.97	2807.78
477.341	2890.71
477.713	2857.95
478.084	2891.17
478.455	2955.35
478.827	3008.9
479.198	3056.13
479.569	3034.89
479.94	3106.53
480.311	3128.67
480.682	3196.92
481.053	3238.95
481.424	3272.63
481.795	3323.02
482.166	3319.18
482.537	3370.7
482.908	3378.61
483.279	3405.73
483.65	3492.28
484.021	3516.69
484.391	3519.17
484.762	3539.96
485.133	3624.25
485.503	3642.79
485.874	3724.59
486.244	3753.74
486.615	3790.58
486.985	3791.93
487.356	3847.07
487.726	3884.14
488.097	3933.85
488.467	3930.01
488.837	4005.94
489.207	4028.76
489.578	4091.36
489.948	4115.99
490.318	4161.42
490.688	4162.55
491.058	4186.95
491.428	4276.67
491.798	4285.48
492.168	4330.45
492.538	4407.96
492.908	4424.01
493.278	4448.19
493.648	4478.7
494.017	4503.1
494.387	4484.12
494.757	4521.41
495.126	4600.05
495.496	4592.59
495.866	4593.72
496.235	4658.35
496.605	4612.48
496.974	4707.39
497.344	4764.56
497.713	4716.2
498.082	4797.78
498.452	4820.83
498.821	4784.22
499.19	4823.77
499.559	4879.36
499.928	4858.12
500.298	4911.68
500.667	4888.63
501.036	4968.63
501.405	5045.46
501.774	4970.89
502.143	5009.53
502.512	5026.48
502.88	5041.39
503.249	5064.9
503.618	5080.49
503.987	5093.14
504.356	5061.05
504.724	5141.96
505.093	5180.6
505.462	5160.03
505.83	5243.87
506.199	5280.26
506.567	5308.5
506.936	5289.07
507.304	5319.35
507.672	5352.35
508.041	5366.81
508.409	5426.02
508.777	5408.39
509.145	5436.41
509.514	5408.16
509.882	5387.37
510.25	5454.49
510.618	5464.21
510.986	5495.84
511.354	5509.63
511.722	5521.83
512.09	5571.55
512.458	5529.97
512.826	5647.25
513.193	5628.95
513.561	5635.5
513.929	5655.61
514.297	5684.99
514.664	5705.78
515.032	5750.75
515.4	5793.46
515.767	5755.72
516.135	5783.75
516.502	5767.48
516.869	5791.43
517.237	5833.91
517.604	5818.77
517.972	5830.52
518.339	5891.77
518.706	5870.98
519.073	5900.35
519.44	5950.07
519.808	5918.21
520.175	5949.39
520.542	6020.58
520.909	6024.87
521.276	6014.7
521.643	6051.99
522.009	6098.99
522.376	6112.33
522.743	6138.31
523.11	6168.14
523.477	6223.51
523.843	6259.44
524.21	6313
524.577	6282.04
524.943	6313.9
525.31	6329.72
525.676	6359.32
526.043	6367.46
526.409	6422.83
526.776	6517.06
527.142	6511.18
527.508	6505.54
527.874	6555.93
528.241	6535.14
528.607	6583.27
528.973	6643.84
529.339	6627.34
529.705	6697.85
530.071	6751.4
530.437	6755.02
530.803	6796.15
531.169	6853.1
531.535	6831.85
531.901	6833.21
532.267	6808.13
532.632	6897.16
532.998	6915.24
533.364	6978.74
533.73	6948.46
534.095	7034.56
534.461	7010.83
534.826	7037.05
535.192	7066.88
535.557	7102.13
535.923	7065.52
536.288	7118.85
536.653	7108.46
537.019	7119.53
537.384	7205.18
537.749	7201.79
538.114	7239.08
538.479	7235.23
538.845	7242.01
539.21	7218.74
539.575	7263.93
539.94	7303.25
540.305	7341.45
540.67	7387.09
541.034	7398.39
541.399	7427.77
541.764	7426.41
542.129	7464.15
542.494	7517.49
542.858	7501.22
543.223	7517.26
543.587	7547.32
543.952	7553.64
544.316	7493.53
544.681	7579.41
545.045	7602.23
545.41	7707.76
545.774	7660.53
546.138	7676.8
546.503	7680.42
546.867	7699.18
547.231	7695.56
547.595	7725.62
547.959	7785.73
548.324	7787.54
548.688	7820.98
549.052	7818.72
549.416	7897.59
549.779	7816.69
550.143	7881.54
550.507	7897.81
550.871	7957.93
551.235	7904.59
551.599	7946.4
551.962	7966.74
552.326	7999.51
552.689	8011.48
553.053	8018.04
553.417	8017.36
553.78	8094.42
554.143	8039.51
554.507	8116.57
554.87	8071.37
555.234	8197.47
555.597	8139.84
555.96	8189.33
556.323	8188.88
556.686	8247.86
557.05	8218.03
557.413	8211.93
557.776	8295.09
558.139	8309.78
558.502	8315.43
558.865	8296.45
559.228	8351.81
559.59	8390.01
559.953	8340.74
560.316	8429.1
560.679	8497.35
561.041	8478.14
561.404	8526.5
561.767	8550
562.129	8510.68
562.492	8667.06
562.854	8574.63
563.217	8582.99
563.579	8585.25
563.941	8680.39
564.304	8733.27
564.666	8852.59
565.028	8809.88
565.39	8787.06
565.753	8827.06
566.115	8909.09
566.477	8883.78
566.839	8851.69
567.201	8970.1
567.563	8958.35
567.925	9013.04
568.287	9017.11
568.648	9088.74
569.01	9115.64
569.372	9161.06
569.734	9133.94
570.095	9203.32
570.457	9242.64
570.819	9254.16
571.18	9301.85
571.542	9323.09
571.903	9372.8
572.265	9414.16
572.626	9475.17
572.987	9434.05
573.349	9464.1
573.71	9550.65
574.071	9501.39
574.432	9567.6
574.794	9669.07
575.155	9775.96
575.516	9717.2
575.877	9790.87
576.238	9841.49
576.599	9895.5
576.96	9954.03
577.32	10002.17
577.681	10033.58
578.042	10147.47
578.403	10033.8
578.763	10191.77
579.124	10313.34
579.485	10335.04
579.845	10401.25
580.206	10459.56
580.566	10514.7
580.927	10559.44
581.287	10703.16
581.648	10713.33
582.008	10775.71
582.368	10979.99
582.728	11026.55
583.089	11078.3
583.449	11140.44
583.809	11289.82
584.169	11388.12
584.529	11499.08
584.889	11682.35
585.249	11698.84
585.609	11836.69
585.969	11926.86
586.329	11999.18
586.688	12107.2
587.048	12271.71
587.408	12271.03
587.768	12439.16
588.127	12619.95
588.487	12685.49
588.846	12907.17
589.206	12940.62
589.565	13121.18
589.925	13219.71
590.284	13288.86
590.643	13482.07
591.003	13699.7
591.362	13744.21
591.721	13929.29
592.08	14037.77
592.44	14264.65
592.799	14385.78
593.158	14443.63
593.517	14542.39
593.876	14740.8
594.235	14853.56
594.593	14975.14
594.952	15184.63
595.311	15192.54
595.67	15428.01
596.029	15658.51
596.387	15708.91
596.746	15880.43
597.104	15976.7
597.463	16049.69
597.822	16336.92
598.18	16251.04
598.538	16510.92
598.897	16643.12
599.255	16597.25
599.613	17016.67
599.972	16970.8
600.33	17125.14
600.688	17285.82
601.046	17416.89
601.404	17544.11
601.762	17461.86
602.12	17798.35
602.478	17822.07
602.836	18007.15
603.194	18013.93
603.552	18166.25
603.91	18144.33
604.268	18361.72
604.625	18378.67
604.983	18528.72
605.341	18486.69
605.698	18733.91
606.056	18799.45
606.413	18946.56
606.771	19028.82
607.128	19093.68
607.485	19068.82
607.843	19185.43
608.2	19396.04
608.557	19471.3
608.914	19434.01
609.272	19731.85
609.629	19628.58
609.986	19886.43
610.343	19719.65
610.7	20057.04
611.057	19985.41
611.414	20030.38
611.771	20161.9
612.127	20228.34
612.484	20291.39
612.841	20364.38
613.198	20443.93
613.554	20418.39
613.911	20605.96
614.267	20598.05
614.624	20574.54
614.98	20724.82
615.337	20945.16
615.693	20961.88
616.05	20868.55
616.406	21157.58
616.762	21145.6
617.118	21118.48
617.475	21161.87
617.831	21253.17
618.187	21296.56
618.543	21334.52
618.899	21476.89
619.255	21513.73
619.611	21407.74
619.967	21719.82
620.323	21646.61
620.678	21599.38
621.034	21565.93
621.39	21650.45
621.746	21663.33
622.101	21955.07
622.457	21711.24
622.812	21916.2
623.168	21911.23
623.523	21977.67
623.879	21967.73
624.234	21901.74
624.589	22029.42
624.945	21970.89
625.3	22014.05
625.655	22086.59
626.01	22091.11
626.365	22088.85
626.72	22162.07
627.075	22143.32
627.43	22092.02
627.785	22052.02
628.14	22198.23
628.495	22173.82
628.85	22183.99
629.205	22167.27
629.559	22271.22
629.914	22274.61
630.269	22088.18
630.623	22248.62
630.978	22080.72
631.332	22170.89
631.687	22232.58
632.041	22163.88
632.396	22155.52
632.75	22172.47
633.104	22165.46
633.459	22045.24
633.813	22018.8
634.167	22061.96
634.521	22118.68
634.875	22033.94
635.229	22120.49
635.583	21882.08
635.937	21990.1
636.291	21925.24
636.645	22110.55
636.999	22066.48
637.352	22043.43
637.706	21955.3
638.06	22074.39
638.413	21989.87
638.767	22074.84
639.121	22017.9
639.474	21844.11
639.828	21866.04
640.181	21936.99
640.534	21863.32
640.888	21814.29
641.241	21729.09
641.594	21882.31
641.947	21933.38
642.301	21873.49
642.654	21911.01
643.007	21887.5
643.36	21770.44
643.713	21885.47
644.066	21875.98
644.419	21677.34
644.771	21671.69
645.124	21354.64
645.477	21309.44
645.83	21183.34
646.182	21132.27
646.535	21144.02
646.888	21052.95
647.24	21077.13
647.593	21181.76
647.945	21137.47
648.298	21023.8
648.65	21043.23
649.002	20994.19
649.355	21195.77
649.707	21133.63
650.059	21187.41
650.411	21520.96
650.763	21541.75
651.115	21785.59
651.467	21653.39
651.819	21624.01
652.171	21665.36
652.523	21588.98
652.875	21575.2
653.227	21535.2
653.578	21771.35
653.93	21624.69
654.282	21556.44
654.633	21593.73
654.985	21680.73
655.337	21720.73
655.688	21606.61
656.039	21760.73
656.391	21554.86
656.742	21658.58
657.094	21577.46
657.445	21573.16
657.796	21656.55
658.147	21560.28
658.498	21625.14
658.849	21568.87
659.2	21650.9
659.551	21555.08
659.902	21602.54
660.253	21603.22
660.604	21754.85
660.955	21589.43
661.306	21741.52
661.656	21717.11
662.007	21752.14
662.358	21785.59
662.708	21686.15
663.059	21732.03
663.409	21619.49
663.76	21765.7
664.11	21654.97
664.461	21729.09
664.811	21759.15
665.161	21578.81
665.511	21753.72
665.862	21714.17
666.212	21780.61
666.562	21737.68
666.912	21825.13
667.262	21708.3
667.612	21657.45
667.962	21733.84
668.312	21685.7
668.662	21805.02
669.011	21720.95
669.361	21660.62
669.711	21671.69
670.06	21668.3
670.41	21623.1
670.76	21649.77
671.109	21681.86
671.459	21602.54
671.808	21653.39
672.157	21667.85
672.507	21546.72
672.856	21455.42
673.205	21544.01
673.554	21576.1
673.904	21551.24
674.253	21639.37
674.602	21496.55
674.951	21220.18
675.3	21059.5
675.649	21352.15
675.998	21472.37
676.346	21445.48
676.695	21494.29
677.044	21291.36
677.393	21457.01
677.741	21407.52
678.09	21276.22
678.438	21295.88
678.787	21334.52
679.135	21300.85
679.484	21178.6
679.832	21198.03
680.181	21076.68
680.529	21212.04
680.877	21011.37
681.225	21017.24
681.573	21094.08
681.922	21029
682.27	20918.26
682.618	21008.88
682.966	20906.51
683.314	20928.88
683.661	20778.61
684.009	20729.79
684.357	20717.36
684.705	20685.28
685.053	20678.5
685.4	20709.46
685.748	20536.58
686.095	20622
686.443	20494.55
686.79	20489.12
687.138	20466.98
687.485	20445.06
687.832	20377.71
688.18	20355.57
688.527	20328
688.874	20288
689.221	20231.73
689.568	20117.83
689.915	20065.4
690.262	20022.69
690.609	19911.28
690.956	19853.21
691.303	19899.76
691.65	19829.03
691.997	19762.59
692.344	19567.11
692.69	19648.01
693.037	19652.99
693.383	19485.08
693.73	19438.08
694.077	19421.13
694.423	19298.87
694.769	19297.52
695.116	19232.21
695.462	19263.39
695.808	19098.42
696.155	19222.49
696.501	18966.9
696.847	18933.68
697.193	18816.62
697.539	18964.64
697.885	18751.77
698.231	18742.5
698.577	18676.29
698.923	18568.49
699.269	18600.13
699.614	18436.75
699.96	18430.19
700.306	18453.92
700.651	18345.45
700.997	18189.52
701.342	18321.95
701.688	18218.67
702.033	18002.63
702.379	18134.61
702.724	17969.64
703.069	18055.74
703.415	17819.81
703.76	17747.05
704.105	17853.49
704.45	17752.47
704.795	17670.44
705.14	17614.85
705.485	17584.34
705.83	17503.66
706.175	17455.3
706.52	17432.03
706.865	17293.5
707.209	17260.05
707.554	17377.11
707.899	17305.93
708.243	17158.36
708.588	17074.07
708.932	17000.63
709.277	16999.5
709.621	17040.63
709.966	16882.89
710.31	16831.14
710.654	16680.86
710.998	16822.33
711.342	16755.44
711.687	16745.94
712.031	16579.85
712.375	16602.22
712.719	16740.29
713.063	16512.96
713.407	16649.9
713.75	16558.6
714.094	16522.9
714.438	16484.48
714.782	16516.12
715.125	16189.12
715.469	16348.21
715.812	16310.02
716.156	16203.13
716.499	16256.92
716.843	16224.38
717.186	16151.84
717.53	16239.29
717.873	16166.07
718.216	16190.25
718.559	15997.71
718.902	15995.23
719.246	16093.08
719.589	16018.28
719.932	15909.58
720.275	15913.42
720.617	15910.03
720.96	15878.62
721.303	15863.03
721.646	15894.67
721.989	15710.72
722.331	15746.42
722.674	15733.09
723.016	15788.68
723.359	15732.86
723.701	15758.63
724.044	15725.63
724.386	15642.7
724.729	15693.32
725.071	15653.32
725.413	15625.75
725.755	15633.88
726.097	15592.53
726.439	15486.09
726.782	15570.61
727.124	15509.37
727.465	15503.94
727.807	15358.86
728.149	15398.63
728.491	15425.75
728.833	15528.35
729.175	15400.22
729.516	15341.24
729.858	15374.91
730.199	15362.48
730.541	15327.68
730.882	15413.78
731.224	15419.88
731.565	15299.65
731.906	15332.65
732.248	15370.16
732.589	15336.04
732.93	15226.44
733.271	15239.54
733.612	15261.69
733.953	15375.36
734.294	15245.64
734.635	15165.19
734.976	15344.4
735.317	15271.63
735.658	15235.7
735.999	15293.1
736.339	15210.84
736.68	15372.42
737.021	15245.64
737.361	15279.32
737.702	15294.23
738.042	15358.18
738.383	15185.08
738.723	15261.92
739.063	15285.87
739.404	15379.2
739.744	15312.54
740.084	15295.13
740.424	15361.35
740.764	15333.33
741.104	15383.27
741.444	15305.08
741.784	15228.7
742.124	15287.9
742.464	15413.1
742.804	15355.25
743.143	15335.59
743.483	15429.37
743.823	15339.88
744.162	15443.83
744.502	15423.27
744.841	15418.52
745.181	15479.76
745.52	15505.07
745.86	15602.92
746.199	15530.61
746.538	15643.83
746.877	15756.59
747.216	15763.14
747.556	15771.96
747.895	15867.77
748.234	15764.05
748.573	15782.13
748.911	15889.92
749.25	16034.55
749.589	16081.33
749.928	16085.4
750.267	16171.27
750.605	16285.39
750.944	16332.62
751.283	16364.26
751.621	16526.29
751.96	16526.29
752.298	16514.76
752.636	16775.32
752.975	16688.32
753.313	16724.48
753.651	17007.63
753.989	16941.87
754.327	17068.87
754.666	17055.09
755.004	17291.47
755.342	17336.44
755.679	17415.53
756.017	17538.69
756.355	17664.11
756.693	17676.09
757.031	17900.04
757.368	17776.43
757.706	18019.58
758.044	18116.3
758.381	18231.78
758.719	18248.96
759.056	18364.66
759.394	18472
759.731	18540.92
760.068	18581.15
760.405	18707.02
760.743	18790.86
761.08	18998.77
761.417	18942.27
761.754	19102.72
762.091	19182.26
762.428	19279.21
762.765	19296.16
763.102	19464.97
763.438	19464.29
763.775	19543.38
764.112	19692.76
764.449	19793.1
764.785	19855.47
765.122	19793.32
765.458	19888.46
765.795	20000.1
766.131	20077.83
766.467	20046.65
766.804	19999.19
767.14	20103.37
767.476	20206.87
767.812	20236.7
768.148	20239.86
768.485	20130.49
768.821	20171.84
769.157	20260.65
769.492	20238.96
769.828	20464.72
770.164	20281.9
770.5	20321.9
770.836	20492.29
771.171	20356.47
771.507	20385.85
771.842	20220.65
772.178	20440.31
772.513	20326.41
772.849	20318.51
773.184	20435.56
773.519	20348.11
773.855	20328.9
774.19	20277.38
774.525	20259.52
774.86	20314.66
775.195	20309.69
775.53	20402.12
775.865	20220.43
776.2	20153.31
776.535	20122.35
776.87	20049.13
777.205	20144.95
777.539	19945.18
777.874	20111.28
778.209	20059.08
778.543	20012.98
778.878	19875.35
779.212	19892.3
779.547	19936.82
779.881	19979.76
780.215	19770.95
780.55	19874.9
780.884	19653.66
781.218	19703.38
781.552	19758.07
781.886	19713.78
782.22	19535.02
782.554	19488.92
782.888	19313.56
783.222	19398.53
783.556	19221.13
783.889	19175.03
784.223	19127.58
784.557	19055.04
784.89	19245.99
785.224	19024.75
785.557	19059.33
785.891	19066.11
786.224	19000.12
786.558	18960.35
786.891	18899.11
787.224	18819.34
787.557	18684.42
787.891	18694.14
788.224	18634.26
788.557	18691.66
788.89	18594.48
789.223	18662.5
789.556	18483.75
789.888	18588.16
790.221	18442.62
790.554	18212.8
790.887	18282.63
791.219	18161.95
791.552	18083.76
791.884	18005.12
792.217	18081.28
792.549	17935.97
792.882	17852.81
793.214	17886.03
793.546	17889.42
793.879	17665.92
794.211	17587.05
794.543	17745.01
794.875	17659.82
795.207	17654.85
795.539	17576.2
795.871	17588.63
796.203	17525.58
796.535	17331.69
796.867	17321.52
797.198	17235.2
797.53	17262.54
797.862	17113.84
798.193	17160.17
798.525	17001.53
798.856	17127.85
799.188	16915.66
799.519	16934.41
799.85	16763.8
800.182	16841.99
800.513	16764.7
800.844	16625.5
801.175	16826.39
801.506	16594.99
801.837	16501.43
802.168	16635.66
802.499	16543.24
802.83	16408.33
803.161	16460.3
803.491	16417.14
803.822	16405.84
804.153	16203.36
804.483	16210.82
804.814	16171.27
805.145	16144.83
805.475	16124.72
805.805	16025.51
806.136	16027.09
806.466	16055.57
806.796	15992.52
807.126	15811.73
807.457	15816.02
807.787	15831.17
808.117	15807.44
808.447	15790.49
808.777	15770.15
809.107	15690.15
809.436	15631.62
809.766	15606.99
810.096	15505.07
810.426	15468.46
810.755	15482.02
811.085	15474.56
811.414	15446.99
811.744	15332.65
812.073	15254.68
812.403	15269.82
812.732	15237.28
813.061	15187.57
813.39	15186.21
813.719	15048.59
814.049	15209.49
814.378	15121.13
814.707	14980.34
815.036	14916.16
815.365	14967.91
815.693	14815.6
816.022	14881.81
816.351	14826.45
816.68	14712.1
817.008	14848.82
817.337	14644.3
817.665	14589.39
817.994	14697.64
818.322	14611.31
818.651	14534.93
818.979	14463.07
819.307	14576.06
819.636	14491.77
819.964	14442.05
820.292	14538.54
820.62	14448.83
820.948	14313.01
821.276	14405.21
821.604	14397.76
821.932	14400.47
822.259	14391.88
822.587	14345.78
822.915	14328.38
823.243	14390.07
823.57	14290.19
823.898	14390.53
824.225	14264.43
824.553	14226.91
824.88	14259.23
825.207	14345.1
825.535	14247.7
825.862	14358.21
826.189	14234.6
826.516	14394.59
826.843	14356.4
827.17	14313.47
827.497	14276.63
827.824	14317.31
828.151	14421.49
828.478	14324.99
828.805	14381.94
829.131	14273.24
829.458	14322.5
829.785	14197.99
830.111	14239.34
830.438	14245.44
830.764	14272.56
831.09	14312.56
831.417	14209.74
831.743	14310.98
832.069	14270.53
832.395	14305.33
832.722	14255.84
833.048	14235.5
833.374	14267.36
833.7	14160.48
834.026	14136.52
834.351	14116.41
834.677	14126.13
835.003	14188.27
835.329	14149.18
835.654	14100.82
835.98	14032.12
836.306	14136.07
836.631	13988.95
836.956	14019.01
837.282	14052.91
837.607	14040.93
837.932	13957.99
838.258	13992.8
838.583	14037.54
838.908	13876.19
839.233	13948.5
839.558	13812.24
839.883	13795.29
840.208	13707.38
840.533	13855.85
840.858	13734.27
841.182	13768.17
841.507	13718.9
841.832	13643.43
842.156	13617.89
842.481	13643.2
842.805	13622.18
843.13	13598
843.454	13519.59
843.778	13452.02
844.103	13483.88
844.427	13482.53
844.751	13503.77
845.075	13398.46
845.399	13344.23
845.723	13230.56
846.047	13304
846.371	13173.38
846.695	13186.72
847.019	12988.98
847.343	13051.13
847.666	12961.64
847.99	12892.71
848.313	12832.37
848.637	12797.8
848.96	12714.64
849.284	12736.56
849.607	12580.63
849.931	12616.11
850.254	12546.96
850.577	12533.17
850.9	12404.82
851.223	12312.16
851.546	12240.98
851.869	12276.91
852.192	12297.47
852.515	12250.92
852.838	12185.61
853.161	12098.16
853.483	12065.16
853.806	11977.48
854.129	11995.11
854.451	11991.27
854.774	11885.73
855.096	11798.96
855.419	11838.73
855.741	11796.47
856.063	11719.86
856.385	11681.9
856.708	11696.59
857.03	11638.96
857.352	11706.08
857.674	11605.06
857.996	11551.96
858.318	11457.5
858.64	11540.21
858.961	11488.45
859.283	11410.94
859.605	11333.43
859.926	11354.22
860.248	11438.74
860.57	11294.11
860.891	11331.85
861.212	11346.54
861.534	11267.67
861.855	11172.53
862.176	11246.2
862.498	11167.79
862.819	11161.01
863.14	11063.61
863.461	11139.99
863.782	11130.5
864.103	11087.56
864.424	10989.71
864.745	11107.67
865.065	10940.45
865.386	10914.01
865.707	10968.47
866.027	10968.02
866.348	10892.76
866.668	10938.64
866.989	10873.33
867.309	10828.36
867.63	10890.05
867.95	10813.9
868.27	10738.19
868.59	10769.6
868.91	10764.18
869.23	10707.46
869.55	10612.55
869.87	10723.05
870.19	10683.05
870.51	10714.01
870.83	10655.71
871.15	10638.31
871.469	10608.25
871.789	10617.29
872.109	10593.34
872.428	10525.99
872.748	10606.67
873.067	10612.55
873.386	10548.82
873.706	10567.8
874.025	10467.69
874.344	10478.99
874.663	10466.79
874.982	10393.57
875.301	10427.01
875.62	10380.46
875.939	10364.87
876.258	10343.17
876.577	10362.83
876.896	10392.89
877.214	10306.11
877.533	10339.78
877.852	10291.65
878.17	10269.5
878.489	10271.31
878.807	10240.58
879.125	10162.61
879.444	10201.26
879.762	10149.06
880.08	10172.56
880.398	10093.92
880.716	10127.59
881.034	10109.28
881.352	10021.15
881.67	10080.81
881.988	9975.73
882.306	9981.6
882.624	9986.57
882.941	9924.43
883.259	9913.13
883.577	9860.02
883.894	9924.2
884.212	9918.33
884.529	9904.32
884.846	9788.16
885.164	9865.9
885.481	9766.69
885.798	9761.95
886.115	9719.24
886.432	9690.99
886.75	9707.94
887.067	9730.76
887.383	9631.55
887.7	9620.26
888.017	9581.61
888.334	9639.46
888.651	9613.48
888.967	9547.94
889.284	9443.09
889.6	9450.32
889.917	9453.03
890.233	9447.6
890.55	9409.41
890.866	9316.53
891.182	9322.86
891.498	9351.11
891.815	9273.37
892.131	9224.56
892.447	9213.49
892.763	9218.23
893.079	9183.2
893.395	9070.21
893.71	9168.74
894.026	9045.36
894.342	9011.46
894.657	8995.87
894.973	8980.5
895.289	9000.16
895.604	8961.06
895.92	8898.47
896.235	8831.58
896.55	8829.99
896.865	8803.33
897.181	8838.58
897.496	8794.51
897.811	8722.88
898.126	8665.48
898.441	8651.02
898.756	8617.34
899.071	8619.15
899.386	8626.84
899.7	8526.27
900.015	8473.62
900.33	8484.69
900.644	8403.56
900.959	8453.05
901.273	8388.88
901.588	8332.15
901.902	8296.45
902.216	8287.64
902.531	8304.81
902.845	8241.76
903.159	8241.53
903.473	8163.34
903.787	8082.67
904.101	8136
904.415	8115.21
904.729	8096.45
905.042	8042.22
905.356	7976
905.67	7958.38
905.984	8020.75
906.297	7923.58
906.611	7912.28
906.924	7860.98
907.237	7849.91
907.551	7779.4
907.864	7790.25
908.177	7725.84
908.491	7787.31
908.804	7718.84
909.117	7664.83
909.43	7551.16
909.743	7564.94
910.056	7528.79
910.368	7543.25
910.681	7491.72
910.994	7469.8
911.307	7417.83
911.619	7311.16
911.932	7387.55
912.244	7368.34
912.557	7366.3
912.869	7263.26
913.181	7248.57
913.494	7233.2
913.806	7157.95
914.118	7144.61
914.43	7130.6
914.742	7067.55
915.054	7029.59
915.366	7035.01
915.678	6997.27
915.99	6934.9
916.302	6935.58
916.613	6864.17
916.925	6891.97
917.236	6877.73
917.548	6848.58
917.859	6857.39
918.171	6743.04
918.482	6696.49
918.794	6697.62
919.105	6662.59
919.416	6646.55
919.727	6657.85
920.038	6641.58
920.349	6574.01
920.66	6582.82
920.971	6571.07
921.282	6505.54
921.593	6433.67
921.903	6476.38
922.214	6401.81
922.525	6407.68
922.835	6359.78
923.146	6317.07
923.456	6341.7
923.767	6274.58
924.077	6300.34
924.387	6255.37
924.697	6214.24
925.008	6216.28
925.318	6169.95
925.628	6126.56
925.938	6130.86
926.248	6031.65
926.558	6044.08
926.867	6036.62
927.177	5976.06
927.487	5976.74
927.796	5903.07
928.106	5902.39
928.416	5824.88
928.725	5861.71
929.034	5849.06
929.344	5814.25
929.653	5819.9
929.962	5820.58
930.271	5765.67
930.581	5707.14
930.89	5748.49
931.199	5660.81
931.508	5660.13
931.817	5637.76
932.125	5596.63
932.434	5585.79
932.743	5564.09
933.051	5531.55
933.36	5521.83
933.669	5522.74
933.977	5409.52
934.286	5441.61
934.594	5415.62
934.902	5351.67
935.21	5348.05
935.519	5405.23
935.827	5346.24
936.135	5288.17
936.443	5227.6
936.751	5259.47
937.059	5219.02
937.367	5266.47
937.674	5195.97
937.982	5206.59
938.29	5191.22
938.597	5137.44
938.905	5104.89
939.213	5040.04
939.52	5094.5
939.827	5066.48
940.135	4997.1
940.442	4997.55
940.749	5014.5
941.056	4995.74
941.363	4859.48
941.67	4922.75
941.977	4939.02
942.284	4845.92
942.591	4854.96
942.898	4795.52
943.205	4835.52
943.511	4769.54
943.818	4783.55
944.125	4763.21
944.431	4695.19
944.738	4671.69
945.044	4672.59
945.35	4659.93
945.657	4628.97
945.963	4602.99
946.269	4633.04
946.575	4558.02
946.881	4552.14
947.187	4504.46
947.493	4491.58
947.799	4512.37
948.105	4521.63
948.41	4469.43
948.716	4430.34
949.022	4412.03
949.327	4427.85
949.633	4401.86
949.938	4359.6
950.244	4364.57
950.549	4277.12
950.854	4259.72
951.16	4282.09
951.465	4263.11
951.77	4203
952.075	4240.28
952.38	4202.54
952.685	4238.93
952.99	4158.7
953.294	4158.48
953.599	4133.39
953.904	4146.5
954.209	4095.2
954.513	4115.54
954.818	4099.27
955.122	4085.26
955.426	4017.24
955.731	4062.44
956.035	4038.26
956.339	3986.28
956.643	3987.18
956.948	3951.93
957.252	3926.17
957.556	3930.69
957.86	3865.83
958.163	3876
958.467	3845.49
958.771	3879.84
959.075	3816.34
959.378	3844.14
959.682	3808.43
959.985	3762.78
960.289	3781.76
960.592	3777.92
960.896	3737.7
961.199	3729.79
961.502	3713.07
961.805	3659.06
962.108	3665.16
962.411	3678.72
962.714	3641.43
963.017	3661.99
963.32	3639.4
963.623	3556.91
963.926	3597.59
964.228	3563.24
964.531	3550.36
964.833	3545.61
965.136	3497.48
965.438	3523.92
965.741	3452.51
966.043	3439.85
966.345	3465.16
966.648	3448.21
966.95	3417.71
967.252	3432.4
967.554	3459.06
967.856	3398.27
968.158	3375.9
968.46	3378.84
968.761	3338.16
969.063	3311.04
969.365	3313.75
969.666	3301.1
969.968	3289.8
970.269	3285.28
970.571	3252.51
970.872	3267.43
971.174	3228.11
971.475	3209.35
971.776	3232.17
972.077	3195.11
972.378	3149.24
972.679	3150.37
972.98	3159.63
973.281	3097.94
973.582	3133.42
973.883	3081.67
974.183	3053.87
974.484	3101.33
974.785	3071.05
975.085	3041.45
975.386	3028.56
975.686	3014.33
975.986	3017.27
976.287	3004.16
976.587	2989.7
976.887	2986.08
977.187	2961.9
977.487	2928
977.787	2907.66
978.087	2921.22
978.387	2914.67
978.687	2916.03
978.987	2878.06
979.286	2843.26
979.586	2871.51
979.885	2831.28
980.185	2830.83
980.484	2827.21
980.784	2827.21
981.083	2770.04
981.382	2764.39
981.682	2764.39
981.981	2740.21
982.28	2765.75
982.579	2695.69
982.878	2718.97
983.177	2710.61
983.475	2666.54
983.774	2651.4
984.073	2637.39
984.372	2617.05
984.67	2669.25
984.969	2608.91
985.267	2634.68
985.566	2593.55
985.864	2582.93
986.162	2573.21
986.461	2573.66
986.759	2519.43
987.057	2544.06
987.355	2510.61
987.653	2554.23
987.951	2499.31
988.249	2505.64
988.547	2485.75
988.844	2448.24
989.142	2445.53
989.44	2432.42
989.737	2437.85
990.035	2419.99
990.332	2410.05
990.63	2391.75
990.927	2378.41
991.224	2361.69
991.521	2403.04
991.819	2365.08
992.116	2357.62
992.413	2352.2
992.71	2347
993.006	2316.72
993.303	2269.94
993.6	2300.22
993.897	2300.67
994.193	2270.62
994.49	2288.7
994.787	2250.28
995.083	2264.97
995.379	2205.99
995.676	2212.31
995.972	2204.63
996.268	2185.2
996.565	2231.52
996.861	2168.25
997.157	2192.43
997.453	2165.76
997.749	2154.01
998.044	2116.5
998.34	2112.66
998.636	2107.91
998.932	2092.32
999.227	2087.12
999.523	2057.06
999.818	2048.7
1000.114	2059.78
1000.409	2033.11
1000.704	2055.26
1001	2034.47
1001.295	1977.07
1001.59	2012.32
1001.885	1994.02
1002.18	2003.96
1002.475	1965.32
1002.77	1967.35
1003.065	1967.58
1003.359	1964.86
1003.654	1917.18
1003.949	1916.96
1004.243	1921.02
1004.538	1926.67
1004.832	1917.41
1005.127	1874.7
1005.421	1873.11
1005.715	1845.54
1006.009	1855.49
1006.304	1841.93
1006.598	1804.42
1006.892	1815.49
1007.186	1809.84
1007.48	1785.21
1007.773	1799.22
1008.067	1764.87
1008.361	1744.3
1008.655	1756.06
1008.948	1755.83
1009.242	1723.29
1009.535	1715.83
1009.829	1713.8
1010.122	1712.89
1010.415	1705.66
1010.708	1669.05
1011.001	1675.83
1011.295	1671.31
1011.588	1634.02
1011.881	1643.06
1012.173	1622.5
1012.466	1648.49
1012.759	1618.43
1013.052	1624.31
1013.344	1620.01
1013.637	1635.15
1013.93	1594.7
1014.222	1556.96
1014.514	1564.42
1014.807	1516.51
1015.099	1541.82
1015.391	1550.19
1015.683	1510.19
1015.976	1500.02
1016.268	1493.69
1016.56	1474.71
1016.851	1490.3
1017.143	1474.26
1017.435	1477.42
1017.727	1493.24
1018.018	1470.87
1018.31	1464.09
1018.602	1435.39
1018.893	1403.3
1019.185	1457.31
1019.476	1379.34
1019.767	1413.69
1020.058	1396.06
1020.35	1393.58
1020.641	1363.3
1020.932	1346.12
1021.223	1373.01
1021.514	1324.43
1021.804	1336.18
1022.095	1326.46
1022.386	1324.43
1022.677	1307.48
1022.967	1299.12
1023.258	1263.87
1023.548	1292.11
1023.839	1274.03
1024.129	1291.43
1024.419	1247.14
1024.709	1272.45
1025	1243.75
1025.29	1267.93
1025.58	1216.63
1025.87	1229.74
1026.16	1200.82
1026.449	1188.39
1026.739	1171.21
1027.029	1192.45
1027.319	1194.71
1027.608	1203.75
1027.898	1177.31
1028.187	1180.93
1028.477	1150.2
1028.766	1133.92
1029.055	1136.86
1029.344	1127.82
1029.634	1141.61
1029.923	1109.97
1030.212	1110.65
1030.501	1139.35
1030.79	1102.51
1031.078	1072.23
1031.367	1060.48
1031.656	1085.56
1031.945	1076.75
1032.233	1084.66
1032.522	1054.61
1032.81	1049.18
1033.099	1045.57
1033.387	999.01
1033.675	1043.53
1033.963	994.72
1034.251	1032.46
1034.54	1012.12
1034.828	1012.12
1035.116	987.94
1035.403	977.77
1035.691	980.03
1035.979	966.7
1036.267	964.66
1036.554	967.15
1036.842	962.63
1037.129	940.71
1037.417	941.84
1037.704	943.87
1037.992	911.78
1038.279	914.72
1038.566	930.31
1038.853	930.31
1039.14	930.31
