Data from hue_60_FLMS001491_22.txt Node
Date: Mon Feb 06 15:17:08 GMT 2017
User: dcchb
Spectrometer: FLMS00149
Trigger mode: 0
Integration Time (sec): 2.000000E-2
Scans to average: 10
Electric dark correction enabled: true
Nonlinearity correction enabled: false
Boxcar width: 0
XAxis mode: Wavelengths
Number of Pixels in Spectrum: 2048
>>>>>Begin Spectral Data<<<<<
341.393	-19.59
341.776	-19.59
342.16	-19.59
342.543	-60.27
342.927	-32.7
343.31	-63.88
343.693	-81.06
344.077	-76.54
344.46	-59.14
344.843	-38.35
345.226	-54.62
345.61	-21.4
345.993	-11.23
346.376	2.56
346.759	-10.32
347.142	37.13
347.525	36
347.908	50.24
348.291	71.26
348.674	101.54
349.057	117.81
349.44	113.97
349.823	150.58
350.206	158.03
350.588	203.23
350.971	216.11
351.354	231.25
351.737	239.61
352.119	264.02
352.502	267.63
352.884	259.72
353.267	288.2
353.65	306.73
354.032	310.8
354.414	277.58
354.797	306.28
355.179	301.76
355.562	344.02
355.944	344.02
356.326	329.1
356.709	347.86
357.091	344.92
357.473	371.36
357.855	332.49
358.238	345.15
358.62	339.95
359.002	353.73
359.384	351.7
359.766	326.39
360.148	332.04
360.53	332.27
360.912	343.34
361.294	350.57
361.676	350.12
362.057	327.52
362.439	332.27
362.821	350.57
363.203	334.07
363.584	333.62
363.966	351.7
364.348	332.49
364.729	332.49
365.111	326.16
365.493	325.94
365.874	327.97
366.256	331.36
366.637	305.37
367.019	313.96
367.4	332.27
367.781	316.67
368.163	329.1
368.544	308.31
368.925	323.68
369.306	327.97
369.688	305.6
370.069	321.19
370.45	318.71
370.831	315.32
371.212	312.38
371.593	327.07
371.974	321.42
372.355	314.86
372.736	323.9
373.117	311.25
373.498	324.36
373.879	320.74
374.26	325.94
374.641	334.3
375.021	304.47
375.402	316.45
375.783	314.19
376.163	329.1
376.544	336.56
376.925	325.49
377.305	327.07
377.686	337.91
378.066	302.89
378.447	338.37
378.827	332.04
379.208	340.17
379.588	336.11
379.968	336.11
380.349	331.14
380.729	332.94
381.109	348.54
381.489	321.64
381.87	342.66
382.25	345.82
382.63	335.66
383.01	343.11
383.39	367.07
383.77	338.14
384.15	330.23
384.53	336.11
384.91	331.59
385.29	367.07
385.67	361.42
386.049	371.59
386.429	359.38
386.809	335.88
387.189	356.22
387.568	359.16
387.948	350.34
388.328	341.76
388.707	357.58
389.087	347.63
389.466	361.87
389.846	358.93
390.225	360.06
390.605	359.38
390.984	358.48
391.363	369.33
391.743	356.67
392.122	359.61
392.501	358.25
392.881	364.58
393.26	364.58
393.639	380.4
394.018	370.68
394.397	378.14
394.776	357.58
395.155	353.28
395.534	391.02
395.913	381.3
396.292	384.69
396.671	372.04
397.05	372.26
397.429	379.27
397.808	369.55
398.186	364.81
398.565	363.22
398.944	396.67
399.323	386.05
399.701	398.03
400.08	374.75
400.458	397.12
400.837	392.6
401.215	412.49
401.594	373.85
401.972	394.18
402.351	403.45
402.729	390.12
403.107	388.99
403.486	407.52
403.864	393.96
404.242	406.16
404.62	403.45
404.999	412.72
405.377	397.8
405.755	405.94
406.133	412.04
406.511	416.56
406.889	416.1
407.267	423.56
407.645	432.6
408.023	421.75
408.401	415.65
408.779	419.27
409.156	398.25
409.534	426.5
409.912	433.28
410.29	421.53
410.667	429.44
411.045	422.66
411.422	431.47
411.8	455.2
412.178	433.73
412.555	426.73
412.933	449.32
413.31	459.49
413.687	456.33
414.065	438.7
414.442	439.61
414.819	456.78
415.197	488.42
415.574	469.89
415.951	471.7
416.328	479.38
416.705	457.69
417.082	451.36
417.46	460.17
417.837	476.44
418.214	489.1
418.591	502.88
418.967	475.76
419.344	480.28
419.721	477.8
420.098	489.1
420.475	499.27
420.852	501.53
421.228	500.85
421.605	508.98
421.982	502.43
422.358	510.57
422.735	513.5
423.111	511.7
423.488	538.81
423.864	508.53
424.241	541.98
424.617	526.61
424.994	532.03
425.37	526.16
425.746	539.04
426.123	552.15
426.499	525.48
426.875	525.03
427.251	541.75
427.627	551.69
428.003	544.92
428.379	585.14
428.756	560.96
429.132	580.17
429.507	582.65
429.883	561.19
430.259	570.9
430.635	590.11
431.011	598.92
431.387	589.21
431.763	610.45
432.138	602.09
432.514	589.89
432.89	613.84
433.265	637.79
433.641	623.33
434.016	614.07
434.392	631.69
434.767	621.75
435.143	601.64
435.518	643.22
435.894	620.62
436.269	665.82
436.644	635.08
437.02	669.21
437.395	642.31
437.77	649.77
438.145	696.78
438.52	678.24
438.895	681.86
439.271	696.78
439.646	701.75
440.021	682.09
440.395	672.6
440.77	687.28
441.145	696.32
441.52	707.85
441.895	709.66
442.27	718.47
442.645	725.7
443.019	741.97
443.394	719.37
443.769	711.69
444.143	740.16
444.518	726.38
444.892	708.75
445.267	742.88
445.641	734.97
446.016	741.52
446.39	746.27
446.764	732.03
447.139	744.46
447.513	738.13
447.887	774.29
448.262	772.71
448.636	771.8
449.01	779.71
449.384	789.43
449.758	800.05
450.132	784.46
450.506	786.94
450.88	795.76
451.254	817.45
451.628	820.39
452.002	816.77
452.376	810.44
452.75	810.67
453.123	845.02
453.497	817.22
453.871	852.48
454.244	838.69
454.618	857.22
454.992	858.13
455.365	861.29
455.739	871.91
456.112	905.13
456.486	897
456.859	907.84
457.232	920.27
457.606	904.45
457.979	916.43
458.352	921.4
458.725	967.05
459.099	975.64
459.472	962.76
459.845	979.03
460.218	965.69
460.591	973.38
460.964	1025.35
461.337	1033.49
461.71	1040.04
462.083	1058.8
462.456	1047.27
462.829	1085.47
463.201	1078.69
463.574	1096.99
463.947	1089.99
464.32	1110.1
464.692	1161.17
465.065	1127.5
465.438	1155.52
465.81	1189.87
466.183	1192.81
466.555	1202.98
466.928	1229.19
467.3	1256.53
467.672	1253.6
468.045	1311.45
468.417	1291.34
468.789	1301.51
469.161	1306.02
469.534	1345.12
469.906	1381.5
470.278	1425.57
470.65	1443.87
471.022	1465.57
471.394	1498.79
471.766	1500.6
472.138	1510.09
472.51	1579.01
472.882	1601.84
473.253	1633.47
473.625	1657.2
473.997	1713.7
474.369	1753.92
474.74	1771.78
475.112	1816.52
475.484	1868.04
475.855	1914.6
476.227	1946.69
476.598	2013.58
476.97	2049.28
477.341	2132.44
477.713	2159.56
478.084	2200.24
478.455	2331.99
478.827	2381.25
479.198	2405.88
479.569	2476.39
479.94	2568.82
480.311	2664.18
480.682	2719.32
481.053	2819.88
481.424	2862.37
481.795	2988.47
482.166	3062.36
482.537	3169.03
482.908	3215.58
483.279	3328.57
483.65	3433.88
484.021	3552.97
484.391	3641.1
484.762	3745.51
485.133	3801.1
485.503	3965.62
485.874	4075.44
486.244	4191.15
486.615	4320.18
486.985	4442.21
487.356	4600.18
487.726	4693.96
488.097	4832.49
488.467	4990
488.837	5151.8
489.207	5268.86
489.578	5385.92
489.948	5526.93
490.318	5683.31
490.688	5858.22
491.058	5963.53
491.428	6096.18
491.798	6179.8
492.168	6472.44
492.538	6603.06
492.908	6733.68
493.278	6875.37
493.648	7015.03
494.017	7239.2
494.387	7374.79
494.757	7513.77
495.126	7656.14
495.496	7813.65
495.866	7927.55
496.235	8041.22
496.605	8310.59
496.974	8346.07
497.344	8511.71
497.713	8723.01
498.082	8890.23
498.452	9134.75
498.821	9163.67
499.19	9318.24
499.559	9518.24
499.928	9685.92
500.298	9780.15
500.667	9988.73
501.036	10023.99
501.405	10234.6
501.774	10335.84
502.143	10454.71
502.512	10620.36
502.88	10761.14
503.249	10910.74
503.618	11056.05
503.987	11128.14
504.356	11423.5
504.724	11437.74
505.093	11574.91
505.462	11746.2
505.83	11844.05
506.199	12060.32
506.567	12229.13
506.936	12250.14
507.304	12509.57
507.672	12661.21
508.041	12798.6
508.409	12902.78
508.777	13119.73
509.145	13262.55
509.514	13272.72
509.882	13497.12
510.25	13582.09
510.618	13700.73
510.986	13792.25
511.354	13945.92
511.722	14170.55
512.09	14363.08
512.458	14347.04
512.826	14497.09
513.193	14626.8
513.561	14769.85
513.929	14910.86
514.297	15037.87
514.664	15201.25
515.032	15305.66
515.4	15465.43
515.767	15556.27
516.135	15774.8
516.502	15696.83
516.869	16079.87
517.237	16092.08
517.604	16160.32
517.972	16348.57
518.339	16495
518.706	16536.58
519.073	16678.5
519.44	16835.33
519.808	17062.9
520.175	17028.32
520.542	17405.49
520.909	17372.95
521.276	17436.67
521.643	17721.41
522.009	17861.07
522.376	18010.67
522.743	18059.48
523.11	18344.22
523.477	18489.98
523.843	18547.61
524.21	18784.66
524.577	18865.56
524.943	19090.42
525.31	19209.96
525.676	19411.31
526.043	19566.79
526.409	19622.83
526.776	19849.27
527.142	19878.42
527.508	20111.18
527.874	20277.73
528.241	20359.31
528.607	20406.54
528.973	20679.75
529.339	20710.71
529.705	20925.17
530.071	21003.36
530.437	21124.94
530.803	21276.8
531.169	21345.05
531.535	21423.01
531.901	21576.45
532.267	21604.25
532.632	21731.48
532.998	21809.21
533.364	22049.66
533.73	22030
534.095	22328.98
534.461	22285.36
534.826	22447.39
535.192	22504.11
535.557	22751.79
535.923	22720.38
536.288	22853.71
536.653	22956.08
537.019	22884.21
537.384	23032.46
537.749	23166.24
538.114	23218.9
538.479	23204.21
538.845	23389.29
539.21	23435.84
539.575	23525.55
539.94	23631.54
540.305	23775.04
540.67	23624.99
541.034	23903.62
541.399	23887.58
541.764	24019.55
542.129	24153.11
542.494	24257.74
542.858	24267.68
543.223	24358.07
543.587	24468.58
543.952	24433.78
544.316	24651.4
544.681	24550.39
545.045	24711.51
545.41	24859.3
545.774	24849.59
546.138	24977.27
546.503	25056.59
546.867	24934.33
547.231	25285.28
547.595	25374.77
547.959	25356.24
548.324	25299.97
548.688	25449.8
549.052	25668.1
549.416	25711.94
549.779	25761.65
550.143	25691.6
550.507	26023.79
550.871	26173.39
551.235	26088.65
551.599	26216.1
551.962	26144.69
552.326	26363.67
552.689	26492.48
553.053	26513.95
553.417	26494.74
553.78	26905.58
554.143	26875.3
554.507	26809.99
554.87	27077.1
555.234	27296.75
555.597	27045.69
555.96	27353.25
556.323	27350.09
556.686	27501.72
557.05	27767.48
557.413	27877.53
557.776	27785.55
558.139	27930.18
558.502	28045.43
558.865	28158.88
559.228	28290.63
559.59	28415.37
559.953	28392.77
560.316	28823.49
560.679	28745.76
561.041	28910.95
561.404	29043.37
561.767	29180.32
562.129	29083.83
562.492	29438.62
562.854	29370.37
563.217	29489.69
563.579	29684.94
563.941	29804.03
564.304	30021.88
564.666	30112.73
565.028	30187.53
565.39	30397.01
565.753	30455.77
566.115	30599.94
566.477	30719.04
566.839	30706.16
567.201	31035.86
567.563	31097.78
567.925	31281.28
568.287	31222.75
568.648	31278.34
569.01	31483.31
569.372	31742.74
569.734	31728.28
570.095	31911.32
570.457	31977.76
570.819	31961.04
571.18	32139.79
571.542	32348.6
571.903	32327.58
572.265	32434.7
572.626	32499.78
572.987	32640.79
573.349	32737.74
573.71	32894.12
574.071	32929.15
574.432	33009.15
574.794	33252.08
575.155	33188.12
575.516	33178.41
575.877	33413.66
576.238	33506.76
576.599	33482.81
576.96	33535.91
577.32	33687.09
577.681	33701.11
578.042	33808.45
578.403	33745.62
578.763	33755.57
579.124	33921.21
579.485	34162.56
579.845	34121.66
580.206	34088.89
580.566	34154.88
580.927	34219.28
581.287	34325.72
581.648	34200.98
582.008	34402.78
582.368	34286.4
582.728	34423.12
583.089	34364.82
583.449	34393.97
583.809	34412.5
584.169	34547.86
584.529	34342.44
584.889	34668.76
585.249	34591.25
585.609	34423.12
585.969	34661.31
586.329	34624.02
586.688	34666.05
587.048	34728.87
587.408	34619.05
587.768	34619.73
588.127	34578.14
588.487	34678.48
588.846	34960.06
589.206	34631.02
589.565	34794.18
589.925	34822.21
590.284	34732.26
590.643	34913.28
591.003	35092.03
591.362	35043.22
591.721	34930.9
592.08	34935.65
592.44	35041.41
592.799	35031.92
593.158	34970
593.517	35099.94
593.876	35035.31
594.235	35080.96
594.593	35117.57
594.952	35335.41
595.311	35029.66
595.67	35307.84
596.029	35338.58
596.387	35396.43
596.746	35303.1
597.104	35289.54
597.463	35242.08
597.822	35369.08
598.18	35182.42
598.538	35368.86
598.897	35404.79
599.255	35285.02
599.613	35953.93
599.972	35431.91
600.33	35568.85
600.688	35565.92
601.046	35590.55
601.404	35980.82
601.762	35801.84
602.12	36008.84
602.478	35934.04
602.836	35967.49
603.194	35979.92
603.552	35882.52
603.91	35906.02
604.268	36102.85
604.625	35983.98
604.983	36186.92
605.341	36034.15
605.698	36298.33
606.056	36253.13
606.413	36288.61
606.771	36435.27
607.128	36422.16
607.485	36406.12
607.843	36336.74
608.2	36676.62
608.557	36661.93
608.914	36652.21
609.272	36724.75
609.629	36855.6
609.986	37040.23
610.343	36779.89
610.7	37224.18
611.057	36957.74
611.414	36999.32
611.771	37170.17
612.127	37197.28
612.484	37190.73
612.841	37408.58
613.198	37277.73
613.554	37346.21
613.911	37550.5
614.267	37635.69
614.624	37763.15
614.98	37568.8
615.337	37839.53
615.693	37855.35
616.05	37800.66
616.406	38031.16
616.762	37899.19
617.118	37958.62
617.475	37954.55
617.831	38027.77
618.187	38250.36
618.543	38189.12
618.899	38307.09
619.255	38351.38
619.611	38311.15
619.967	38619.17
620.323	38609.9
620.678	38387.54
621.034	38312.74
621.39	38366.07
621.746	38405.39
622.101	38788.2
622.457	38571.94
622.812	38729.67
623.168	38710.92
623.523	38761.99
623.879	38955.88
624.234	38597.47
624.589	38729.9
624.945	38879.27
625.3	38933.96
625.655	38787.98
626.01	38892.38
626.365	38950.01
626.72	38934.19
627.075	38963.34
627.43	38918.82
627.785	38805.15
628.14	39046.28
628.495	38813.51
628.85	38917.47
629.205	38949.78
629.559	39049.21
629.914	38861.87
630.269	39058.25
630.623	38830.01
630.978	38868.65
631.332	38952.04
631.687	39096.67
632.041	38905.26
632.396	38938.71
632.75	38894.19
633.104	38952.49
633.459	38714.76
633.813	38650.35
634.167	38724.25
634.521	38631.15
634.875	38813.51
635.229	38741.65
635.583	38599.51
635.937	38484.71
636.291	38601.99
636.645	38638.38
636.999	38540.75
637.352	38632.95
637.706	38465.05
638.06	38615.55
638.413	38432.51
638.767	38511.6
639.121	38426.63
639.474	38284.71
639.828	38366.07
640.181	38316.58
640.534	38306.41
640.888	38259.63
641.241	38209.01
641.594	38152.06
641.947	38231.38
642.301	38122.91
642.654	38157.71
643.007	38243.36
643.36	38192.06
643.713	38087.88
644.066	38174.89
644.419	37913.65
644.771	37739.64
645.124	37548.69
645.477	37357.51
645.83	37202.03
646.182	37116.16
646.535	36956.39
646.888	36964.52
647.24	36813.11
647.593	37033.67
647.945	36842.72
648.298	36756.17
648.65	36669.16
649.002	36569.5
649.355	36794.81
649.707	36758.2
650.059	36811.08
650.411	37196.61
650.763	37406.77
651.115	37618.52
651.467	37561.79
651.819	37544.17
652.171	37369.48
652.523	37303.72
652.875	37475.47
653.227	37152.31
653.578	37573.55
653.93	37356.38
654.282	37195.7
654.633	37141.01
654.985	37202.48
655.337	37218.98
655.688	37144.18
656.039	37247.9
656.391	36965.65
656.742	37068.7
657.094	37075.03
657.445	37310.73
657.796	37151.41
658.147	36999.32
658.498	37080.23
658.849	37116.16
659.2	37096.04
659.551	36913.9
659.902	37068.93
660.253	36953.22
660.604	36997.06
660.955	36798.88
661.306	37064.86
661.656	36773.57
662.007	36956.39
662.358	36803.17
662.708	36943.05
663.059	36944.86
663.409	36644.98
663.76	37008.59
664.11	36756.84
664.461	36832.1
664.811	36974.69
665.161	36943.96
665.511	36794.13
665.862	36723.4
666.212	36874.58
666.562	37019.21
666.912	36933.34
667.262	36827.58
667.612	36680.01
667.962	36775.15
668.312	36736.73
668.662	36927.24
669.011	36765.21
669.361	36685.89
669.711	36835.49
670.06	36728.14
670.41	36608.83
670.76	36618.09
671.109	36741.7
671.459	36724.98
671.808	36556.85
672.157	36677.07
672.507	36300.13
672.856	36498.55
673.205	36562.73
673.554	36542.84
673.904	36473.46
674.253	36617.86
674.602	36581.03
674.951	36056.52
675.3	35761.16
675.649	36418.55
675.998	36413.58
676.346	36390.53
676.695	36534.25
677.044	36250.64
677.393	36195.73
677.741	36299.68
678.09	36259.23
678.438	36232.34
678.787	36280.7
679.135	36224.65
679.484	35892.23
679.832	36106.24
680.181	35966.13
680.529	36022.17
680.877	35946.7
681.225	35874.38
681.573	36014.72
681.922	35849.52
682.27	35707.38
682.618	35690.66
682.966	35579.47
683.314	35745.8
683.661	35563.43
684.009	35410.89
684.357	35452.25
684.705	35433.49
685.053	35357.78
685.4	35362.3
685.748	35136.77
686.095	35265.13
686.443	35026.95
686.79	35013.16
687.138	35162.31
687.485	35083.44
687.832	35001.64
688.18	34955.31
688.527	34891.36
688.874	34707.86
689.221	34631.7
689.568	34513.51
689.915	34506.06
690.262	34538.37
690.609	34448.66
690.956	34281.66
691.303	34306.29
691.65	34041.21
691.997	34083.92
692.344	33937.48
692.69	33905.39
693.037	33864.94
693.383	33583.59
693.73	33722.57
694.077	33599.64
694.423	33545.63
694.769	33431.73
695.116	33355.13
695.462	33398.29
695.808	33321.68
696.155	33240.78
696.501	32997.17
696.847	33017.51
697.193	32688.02
697.539	32918.75
697.885	32653.9
698.231	32540.91
698.577	32571.64
698.923	32519.22
699.269	32372.78
699.614	32254.36
699.96	32186.34
700.306	32243.52
700.651	32015.27
700.997	31975.73
701.342	31849.4
701.688	31913.36
702.033	31745.68
702.379	31716.07
702.724	31631.78
703.069	31654.83
703.415	31346.82
703.76	31258.01
704.105	31376.19
704.45	31225.01
704.795	31203.77
705.14	31021.4
705.485	31017.79
705.83	30869.99
706.175	30960.61
706.52	30715.2
706.865	30790.67
707.209	30646.04
707.554	30581.19
707.899	30622.99
708.243	30337.8
708.588	30413.28
708.932	30219.39
709.277	30221.87
709.621	30223
709.966	30025.5
710.31	30173.74
710.654	29825.28
710.998	29931.94
711.342	29863.69
711.687	29695.79
712.031	29701.21
712.375	29695.56
712.719	29579.86
713.063	29645.62
713.407	29602.23
713.75	29350.94
714.094	29473.87
714.438	29316.14
714.782	29205.63
715.125	29163.37
715.469	29195.69
715.812	29051.96
716.156	28828.47
716.499	28846.32
716.843	29003.83
717.186	28838.18
717.53	28926.77
717.873	28961.79
718.216	28800.22
718.559	28722.48
718.902	28468.02
719.246	28531.98
719.589	28464.18
719.932	28440.9
720.275	28365.2
720.617	28317.52
720.96	28284.75
721.303	28291.98
721.646	28274.58
721.989	28065.32
722.331	28207.92
722.674	28002.5
723.016	28114.36
723.359	28019.67
723.701	27990.3
724.044	27843.41
724.386	27655.16
724.729	27792.56
725.071	27706.46
725.413	27630.53
725.755	27628.27
726.097	27477.31
726.439	27535.84
726.782	27552.11
727.124	27581.94
727.465	27433.47
727.807	27295.17
728.149	27209.98
728.491	27237.55
728.833	27270.77
729.175	27213.82
729.516	27095.63
729.858	27061.96
730.199	27146.02
730.541	27055.86
730.882	26980.83
731.224	27009.98
731.565	26869.65
731.906	26821.29
732.248	26886.82
732.589	26637.56
732.93	26625.13
733.271	26678.01
733.612	26716.66
733.953	26758.01
734.294	26666.26
734.635	26395.99
734.976	26570.45
735.317	26333.62
735.658	26446.38
735.999	26460.62
736.339	26270.11
736.68	26391.47
737.021	26277.35
737.361	26263.79
737.702	26345.14
738.042	26158.03
738.383	26133.85
738.723	26153.96
739.063	26106.5
739.404	26219.95
739.744	26041.19
740.084	25926.85
740.424	26027.86
740.764	25923.91
741.104	25978.14
741.444	25815.44
741.784	25727.3
742.124	25789.9
742.464	25710.13
742.804	25633.29
743.143	25616.35
743.483	25617.93
743.823	25480.76
744.162	25446.86
744.502	25485.28
744.841	25452.06
745.181	25449.12
745.52	25415.45
745.86	25377.26
746.199	25327.31
746.538	25363.92
746.877	25281.89
747.216	25274.66
747.556	25195.57
747.895	25282.57
748.234	25077.6
748.573	25040.54
748.911	24949.47
749.25	25005.06
749.589	24931.17
749.928	24827.44
750.267	24912.41
750.605	24705.86
750.944	24703.6
751.283	24571.4
751.621	24657.95
751.96	24605.3
752.298	24518.52
752.636	24521.46
752.975	24403.27
753.313	24353.55
753.651	24474.23
753.989	24190.62
754.327	24264.29
754.666	24060.23
755.004	24210.28
755.342	24152.43
755.679	24035.14
756.017	23892.32
756.355	23918.54
756.693	23784.98
757.031	23921.7
757.368	23738.2
757.706	23727.81
758.044	23610.98
758.381	23608.49
758.719	23526.46
759.056	23509.51
759.394	23392.68
759.731	23337.76
760.068	23348.16
760.405	23247.37
760.743	23179.12
761.08	23237.2
761.417	23020.71
761.754	22995.4
762.091	22986.58
762.428	22891.45
762.765	22686.71
763.102	22713.37
763.438	22727.83
763.775	22501.4
764.112	22591.79
764.449	22566.71
764.785	22582.53
765.122	22331.91
765.458	22180.05
765.795	22174.4
766.131	22104.12
766.467	22208.53
766.804	21993.39
767.14	21959.95
767.476	21872.94
767.812	21788.65
768.148	21756.79
768.485	21659.39
768.821	21512.05
769.157	21575.32
769.492	21503.46
769.828	21454.87
770.164	21231.6
770.5	21195.22
770.836	21120.42
771.171	21089.69
771.507	21030.48
771.842	20925.4
772.178	20847.21
772.513	20776.02
772.849	20716.59
773.184	20675.23
773.519	20615.12
773.855	20506.2
774.19	20437.27
774.525	20311.4
774.86	20318.86
775.195	20319.99
775.53	20243.83
775.865	20140.33
776.2	19921.81
776.535	19841.13
776.87	19747.8
777.205	19734.02
777.539	19654.02
777.874	19649.72
778.209	19501.48
778.543	19491.08
778.878	19373.35
779.212	19316.85
779.547	19237.3
779.881	19246.57
780.215	19079.34
780.55	19109.4
780.884	19029.17
781.218	18980.59
781.552	19014.49
781.886	18828.05
782.22	18718.45
782.554	18706.25
782.888	18505.12
783.222	18541.96
783.556	18439.81
783.889	18331.34
784.223	18219.03
784.557	18161.18
784.89	18254.96
785.224	18070.1
785.557	18042.76
785.891	17992.14
786.224	17845.25
786.558	17943.78
786.891	17789.66
787.224	17689.32
787.557	17736.33
787.891	17650.23
788.224	17513.28
788.557	17562.77
788.89	17527.29
789.223	17443.68
789.556	17358.71
789.888	17292.72
790.221	17281.65
790.554	17093.18
790.887	17097.25
791.219	17042.11
791.552	16946.29
791.884	16840.08
792.217	16822.68
792.549	16802.57
792.882	16695.68
793.214	16662.46
793.546	16646.19
793.879	16476.93
794.211	16387.89
794.543	16425.4
794.875	16438.06
795.207	16421.56
795.539	16428.34
795.871	16254.11
796.203	16177.72
796.535	16105.41
796.867	15991.74
797.198	15939.54
797.53	15956.94
797.862	15857.51
798.193	15824.06
798.525	15832.87
798.856	15853.21
799.188	15669.26
799.519	15640.56
799.85	15464.52
800.182	15565.99
800.513	15399.67
800.844	15434.24
801.175	15389.04
801.506	15355.83
801.837	15324.19
802.168	15298.2
802.499	15191.31
802.83	15110.41
803.161	15036.96
803.491	15116.28
803.822	15041.26
804.153	14972.11
804.483	14901.37
804.814	14800.81
805.145	14823.64
805.475	14893.46
805.805	14727.59
806.136	14747.93
806.466	14752.9
806.796	14688.27
807.126	14573.7
807.457	14493.93
807.787	14561.95
808.117	14533.02
808.447	14427.94
808.777	14480.14
809.107	14422.97
809.436	14293.03
809.766	14334.61
810.096	14302.97
810.426	14198.12
810.755	14251.45
811.085	14200.83
811.414	14220.94
811.744	14046.93
812.073	14035.86
812.403	14020.72
812.732	13930.78
813.061	13885.36
813.39	13847.16
813.719	13757
814.049	13902.98
814.378	13732.36
814.707	13725.36
815.036	13677.23
815.365	13644.46
815.693	13491.69
816.022	13581.18
816.351	13570.11
816.68	13433.16
817.008	13468.19
817.337	13378.93
817.665	13337.12
817.994	13265.26
818.322	13328.53
818.651	13261.42
818.979	13227.52
819.307	13325.82
819.636	13189.78
819.964	13109.78
820.292	13140.97
820.62	13212.38
820.948	13106.84
821.276	13118.82
821.604	13107.97
821.932	13165.37
822.259	13100.07
822.587	13087.41
822.915	13052.38
823.243	13175.09
823.57	12937.36
823.898	13099.16
824.225	12955.66
824.553	13015.32
824.88	12964.48
825.207	13058.26
825.535	12981.2
825.862	13051.25
826.189	12980.29
826.516	13010.8
826.843	12975.77
827.17	13010.12
827.497	13027.98
827.824	13067.75
828.151	13089.67
828.478	12928.09
828.805	12993.18
829.131	12962.22
829.458	13013.29
829.785	12915.21
830.111	12996.34
830.438	13027.52
830.764	13031.14
831.09	13036.79
831.417	12908.88
831.743	12995.21
832.069	12932.16
832.395	12904.59
832.722	12984.81
833.048	12871.6
833.374	12876.79
833.7	12848.32
834.026	12857.13
834.351	12832.73
834.677	12853.07
835.003	12848.32
835.329	12869.79
835.654	12824.59
835.98	12761.32
836.306	12783.92
836.631	12750.7
836.956	12776.91
837.282	12792.28
837.607	12664.37
837.932	12667.08
838.258	12612.85
838.583	12635.9
838.908	12601.1
839.233	12559.97
839.558	12588.44
839.883	12505.5
840.208	12395.68
840.533	12503.47
840.858	12494.66
841.182	12453.53
841.507	12402.23
841.832	12430.7
842.156	12343.02
842.481	12358.16
842.805	12289.46
843.13	12240.88
843.454	12215.34
843.778	12250.37
844.103	12146.42
844.427	12044.27
844.751	12154.33
845.075	12021
845.399	12081.11
845.723	12019.19
846.047	11978.51
846.371	11908.91
846.695	11936.93
847.019	11757.28
847.343	11687.67
847.666	11711.4
847.99	11694.23
848.313	11661.23
848.637	11476.83
848.96	11639.76
849.284	11562.93
849.607	11399.32
849.931	11424.63
850.254	11331.3
850.577	11231.87
850.9	11212.66
851.223	11245.88
851.546	11168.36
851.869	11093.34
852.192	11162.04
852.515	11031.87
852.838	11007.24
853.161	10957.52
853.483	10970.18
853.806	10904.64
854.129	10787.81
854.451	10869.62
854.774	10748.26
855.096	10755.72
855.419	10623.29
855.741	10680.92
856.063	10594.37
856.385	10605.67
856.708	10541.49
857.03	10494.26
857.352	10539.23
857.674	10523.41
857.996	10434.15
858.318	10300.82
858.64	10396.41
858.961	10404.32
859.283	10355.73
859.605	10297.2
859.926	10230.99
860.248	10231.44
860.57	10152.8
860.891	10250.2
861.212	10166.81
861.534	10116.64
861.855	10148.5
862.176	10147.15
862.498	10096.08
862.819	10138.56
863.14	10067.6
863.461	10051.78
863.782	9951.22
864.103	9992.8
864.424	9942.86
864.745	9953.26
865.065	9866.93
865.386	9906.48
865.707	9876.87
866.027	9839.36
866.348	9862.64
866.668	9882.07
866.989	9829.64
867.309	9717.78
867.63	9809.76
867.95	9849.98
868.27	9673.94
868.59	9709.65
868.91	9729.08
869.23	9706.26
869.55	9673.71
869.87	9711.45
870.19	9621.51
870.51	9649.08
870.83	9655.64
871.15	9608.18
871.469	9636.43
871.789	9659.25
872.109	9550.33
872.428	9458.13
872.748	9566.37
873.067	9490.44
873.386	9471.91
873.706	9496.54
874.025	9433.72
874.344	9448.64
874.663	9490.44
874.982	9325.48
875.301	9381.97
875.62	9397.56
875.939	9390.33
876.258	9377.23
876.577	9369.99
876.896	9295.65
877.214	9257
877.533	9332.48
877.852	9233.5
878.17	9237.57
878.489	9218.36
878.807	9250.9
879.125	9254.97
879.444	9215.42
879.762	9198.25
880.08	9221.75
880.398	9091.13
880.716	9177.91
881.034	9153.95
881.352	9082.54
881.67	9091.13
881.988	9076.22
882.306	9056.78
882.624	9061.75
882.941	9018.82
883.259	8950.57
883.577	8968.42
883.894	8917.58
884.212	8901.98
884.529	8919.61
884.846	8834.41
885.164	8856.33
885.481	8817.69
885.798	8847.52
886.115	8790.12
886.432	8768.88
886.75	8744.93
887.067	8732.27
887.383	8712.61
887.7	8671.93
888.017	8610.92
888.334	8628.54
888.651	8613.63
888.967	8566.63
889.284	8599.62
889.6	8553.07
889.917	8461.32
890.233	8449.11
890.55	8397.36
890.866	8437.36
891.182	8459.74
891.498	8449.11
891.815	8395.78
892.131	8324.37
892.447	8319.63
892.763	8247.09
893.079	8249.12
893.395	8258.84
893.71	8238.5
894.026	8215
894.342	8159.18
894.657	8165.96
894.973	8152.85
895.289	8103.36
895.604	8026.98
895.92	8028.33
896.235	7949.69
896.55	7998.5
896.865	7959.18
897.181	7991.27
897.496	7906.98
897.811	7896.36
898.126	7854.1
898.441	7850.03
898.756	7785.63
899.071	7745.18
899.386	7759.64
899.7	7773.43
900.015	7660.21
900.33	7630.83
900.644	7638.29
900.959	7642.13
901.273	7591.06
901.588	7556.26
901.902	7532.75
902.216	7513.77
902.531	7479.87
902.845	7413.44
903.159	7409.59
903.473	7410.95
903.787	7384.74
904.101	7352.19
904.415	7333.44
904.729	7301.12
905.042	7232.2
905.356	7276.26
905.67	7186.32
905.984	7206.66
906.297	7176.38
906.611	7146.55
906.924	7104.06
907.237	7096.83
907.551	7061.13
907.864	7013.22
908.177	7048.92
908.491	6978.19
908.804	6920.57
909.117	6922.83
909.43	6888.93
909.743	6882.15
910.056	6918.53
910.368	6807.8
910.681	6808.25
910.994	6770.97
911.307	6749.5
911.619	6672.44
911.932	6658.65
912.244	6619.33
912.557	6610.97
912.869	6605.32
913.181	6552.67
913.494	6546.79
913.806	6550.41
914.118	6488.94
914.43	6428.83
914.742	6446.91
915.054	6378.21
915.366	6380.69
915.678	6352.45
915.99	6315.84
916.302	6268.15
916.613	6230.42
916.925	6261.83
917.236	6175.5
917.548	6190.42
917.859	6228.38
918.171	6145.45
918.482	6053.92
918.794	6077.42
919.105	6109.29
919.416	6004.43
919.727	6016.18
920.038	5997.88
920.349	5971.89
920.66	5967.15
920.971	5957.88
921.282	5884.66
921.593	5856.19
921.903	5791.56
922.214	5784.55
922.525	5790.2
922.835	5704.78
923.146	5706.59
923.456	5732.8
923.767	5676.08
924.077	5668.17
924.387	5650.77
924.697	5599.02
925.008	5635.4
925.318	5575.97
925.628	5606.7
925.938	5537.55
926.248	5518.34
926.558	5497.1
926.867	5458.68
927.177	5430.44
927.487	5409.42
927.796	5417.56
928.106	5366.71
928.416	5373.26
928.725	5354.05
929.034	5330.78
929.344	5304.34
929.653	5289.42
929.962	5244.45
930.271	5231.57
930.581	5188.41
930.89	5153.83
931.199	5134.17
931.508	5135.53
931.817	5118.81
932.125	5118.81
932.434	5097.79
932.743	5013.95
933.051	5061.41
933.36	5019.37
933.669	4985.93
933.977	4960.17
934.286	4954.52
934.594	4915.65
934.902	4894.86
935.21	4845.14
935.519	4877.91
935.827	4844.46
936.135	4817.35
936.443	4803.56
936.751	4729.44
937.059	4738.03
937.367	4695.31
937.674	4730.57
937.982	4696.22
938.29	4691.47
938.597	4674.07
938.905	4632.72
939.213	4589.1
939.52	4600.18
939.827	4581.19
940.135	4576.9
940.442	4540.06
940.749	4517.01
941.056	4521.76
941.363	4494.19
941.67	4433.63
941.977	4458.71
942.284	4394.31
942.591	4428.65
942.898	4365.83
943.205	4406.96
943.511	4322.89
943.818	4288.09
944.125	4294.87
944.431	4236.57
944.738	4252.84
945.044	4255.1
945.35	4281.54
945.657	4188.66
945.963	4249.22
946.269	4181.43
946.575	4138.27
946.881	4136.01
947.187	4136.01
947.493	4106.63
947.799	4143.69
948.105	4065.27
948.41	4025.5
948.716	4010.13
949.022	4042.45
949.327	4027.54
949.633	3975.33
949.938	3942.57
950.244	3983.24
950.549	3912.28
950.854	3921.32
951.16	3881.1
951.465	3860.31
951.77	3900.08
952.075	3885.39
952.38	3804.26
952.685	3854.43
952.99	3762.91
953.294	3773.3
953.599	3739.41
953.904	3747.54
954.209	3720.65
954.513	3718.39
954.818	3682.01
955.122	3690.14
955.426	3656.7
955.731	3669.8
956.035	3639.07
956.339	3606.3
956.643	3666.87
956.948	3622.57
957.252	3560.88
957.556	3556.14
957.86	3554.33
958.163	3506.42
958.467	3537.15
958.771	3511.62
959.075	3479.3
959.378	3509.58
959.682	3427.33
959.985	3439.3
960.289	3394.11
960.592	3409.7
960.896	3395.91
961.199	3362.02
961.502	3346.88
961.805	3358.85
962.108	3337.16
962.411	3332.41
962.714	3297.16
963.017	3299.64
963.32	3301.9
963.623	3288.8
963.926	3257.61
964.228	3261
964.531	3223.04
964.833	3230.95
965.136	3231.62
965.438	3180.33
965.741	3192.3
966.043	3188.69
966.345	3158.18
966.648	3110.27
966.95	3132.87
967.252	3072.53
967.554	3096.49
967.856	3094.23
968.158	3024.17
968.46	3070.27
968.761	3039.99
969.063	3016.04
969.365	3008.13
969.666	3022.36
969.968	2979.65
970.269	2970.16
970.571	2989.82
970.872	2966.09
971.174	2937.17
971.475	2926.1
971.776	2901.69
972.077	2863.05
972.378	2855.81
972.679	2849.26
972.98	2889.03
973.281	2860.79
973.582	2806.55
973.883	2816.95
974.183	2807.91
974.484	2802.93
974.785	2776.04
975.085	2761.13
975.386	2767.46
975.686	2737.17
975.986	2745.99
976.287	2706.89
976.587	2702.6
976.887	2701.47
977.187	2677.06
977.487	2703.28
977.787	2681.58
978.087	2642.71
978.387	2607.69
978.687	2626.44
978.987	2629.83
979.286	2601.58
979.586	2607.69
979.885	2589.38
980.185	2575.6
980.484	2585.54
980.784	2509.84
981.083	2550.51
981.382	2527.24
981.682	2526.33
981.981	2533.11
982.28	2475.03
982.579	2477.97
982.878	2475.94
983.177	2480.23
983.475	2469.38
983.774	2431.19
984.073	2402.95
984.372	2413.11
984.67	2416.73
984.969	2425.09
985.267	2408.59
985.566	2411.08
985.864	2365.88
986.162	2349.61
986.461	2339.22
986.759	2354.58
987.057	2329.95
987.355	2334.02
987.653	2307.13
987.951	2294.25
988.249	2307.58
988.547	2295.83
988.844	2270.52
989.142	2252.21
989.44	2232.55
989.737	2220.8
990.035	2253.57
990.332	2222.84
990.63	2229.62
990.927	2223.06
991.224	2213.8
991.521	2181.71
991.819	2188.04
992.116	2143.97
992.413	2156.85
992.71	2151.2
993.006	2114.37
993.303	2111.65
993.6	2102.84
993.897	2096.51
994.193	2083.18
994.49	2094.93
994.787	2058.1
995.083	2075.95
995.379	2073.01
995.676	2034.14
995.972	2028.04
996.268	2037.08
996.565	2015.38
996.861	2008.83
997.157	1987.59
997.453	1983.97
997.749	1968.38
998.044	1973.8
998.34	1990.3
998.636	1983.07
998.932	1935.39
999.227	1935.61
999.523	1927.48
999.818	1910.98
1000.114	1884.77
1000.409	1893.13
1000.704	1890.64
1001	1886.8
1001.295	1860.81
1001.59	1864.88
1001.885	1872.34
1002.18	1823.3
1002.475	1823.3
1002.77	1807.25
1003.065	1802.28
1003.359	1793.24
1003.654	1797.76
1003.949	1774.71
1004.243	1777.43
1004.538	1776.52
1004.832	1734.71
1005.127	1759.35
1005.421	1750.08
1005.715	1710.76
1006.009	1704.88
1006.304	1689.97
1006.598	1668.5
1006.892	1711.66
1007.186	1663.76
1007.48	1672.57
1007.773	1624.21
1008.067	1636.64
1008.361	1640.25
1008.655	1640.71
1008.948	1620.82
1009.242	1590.09
1009.535	1597.54
1009.829	1619.24
1010.122	1583.31
1010.415	1572.91
1010.708	1552.12
1011.001	1575.17
1011.295	1541.5
1011.588	1553.02
1011.881	1517.09
1012.173	1525.91
1012.466	1513.48
1012.759	1515.06
1013.052	1516.19
1013.344	1513.7
1013.637	1478.45
1013.93	1478
1014.222	1457.89
1014.514	1454.95
1014.807	1451.56
1015.099	1427.15
1015.391	1424.21
1015.683	1407.94
1015.976	1401.84
1016.268	1421.28
1016.56	1422.41
1016.851	1404.1
1017.143	1366.59
1017.435	1382.63
1017.727	1379.24
1018.018	1354.61
1018.31	1344.89
1018.602	1339.02
1018.893	1331.79
1019.185	1324.56
1019.476	1314.16
1019.767	1316.87
1020.058	1286.36
1020.35	1313.26
1020.641	1254.95
1020.932	1257.44
1021.223	1277.55
1021.514	1266.03
1021.804	1230.77
1022.095	1242.75
1022.386	1223.54
1022.677	1230.09
1022.967	1236.65
1023.258	1217.67
1023.548	1234.84
1023.839	1201.85
1024.129	1195.97
1024.419	1204.33
1024.709	1179.02
1025	1157.55
1025.29	1149.19
1025.58	1142.64
1025.87	1129.98
1026.16	1144.45
1026.449	1110.32
1026.739	1098.8
1027.029	1111
1027.319	1116.43
1027.608	1107.84
1027.898	1088.63
1028.187	1077.56
1028.477	1084.34
1028.766	1087.5
1029.055	1076.88
1029.344	1044.34
1029.634	1057.22
1029.923	1044.79
1030.212	1049.08
1030.501	1060.38
1030.79	1044.34
1031.078	1025.81
1031.367	1016.54
1031.656	1019.25
1031.945	1005.92
1032.233	986.71
1032.522	991.46
1032.81	995.98
1033.099	996.65
1033.387	963.21
1033.675	954.4
1033.963	972.7
1034.251	985.58
1034.54	956.88
1034.828	967.73
1035.116	936.77
1035.403	958.01
1035.691	942.19
1035.979	917.11
1036.267	900.39
1036.554	921.4
1036.842	920.27
1037.129	894.51
1037.417	874.85
1037.704	892.7
1037.992	895.64
1038.279	895.87
1038.566	875.53
1038.853	875.53
1039.14	875.53
