Data from hue_180_FLMS001491_00040.txt Node
Date: Tue Feb 07 16:46:55 GMT 2017
User: dcchb
Spectrometer: FLMS00149
Trigger mode: 0
Integration Time (sec): 2.000000E-2
Scans to average: 10
Electric dark correction enabled: true
Nonlinearity correction enabled: false
Boxcar width: 0
XAxis mode: Wavelengths
Number of Pixels in Spectrum: 2048
>>>>>Begin Spectral Data<<<<<
341.393	-4.96
341.776	-4.96
342.16	-4.96
342.543	-62.81
342.927	-60.32
343.31	-69.81
343.693	-57.84
344.077	-75.92
344.46	-54
344.843	-45.41
345.226	-25.3
345.61	-18.74
345.993	-16.71
346.376	-3.15
346.759	-5.41
347.142	16.06
347.525	48.15
347.908	59.45
348.291	62.61
348.674	83.4
349.057	102.61
349.44	148.71
349.823	152.78
350.206	164.08
350.588	189.84
350.971	194.36
351.354	224.42
351.737	237.3
352.119	250.4
352.502	261.48
352.884	275.71
353.267	308.48
353.65	297.86
354.032	316.39
354.414	305.77
354.797	301.48
355.179	327.01
355.562	326.11
355.944	322.49
356.326	328.37
356.709	332.21
357.091	344.41
357.473	350.51
357.855	339.67
358.238	336.5
358.62	330.85
359.002	333.56
359.384	360.68
359.766	340.12
360.148	315.03
360.53	314.58
360.912	335.82
361.294	341.7
361.676	320.23
362.057	351.42
362.439	339.89
362.821	327.24
363.203	308.71
363.584	337.86
363.966	346.67
364.348	315.26
364.729	308.71
365.111	320.23
365.493	304.86
365.874	310.97
366.256	294.92
366.637	325.66
367.019	326.11
367.4	318.88
367.781	313.45
368.163	327.92
368.544	301.93
368.925	330.85
369.306	332.89
369.688	307.8
370.069	334.24
370.45	328.37
370.831	301.02
371.212	340.12
371.593	325.66
371.974	319.78
372.355	325.88
372.736	318.88
373.117	303.51
373.498	308.03
373.879	323.62
374.26	334.47
374.641	309.16
375.021	305.99
375.402	328.37
375.783	334.02
376.163	335.37
376.544	324.98
376.925	345.99
377.305	331.98
377.686	334.47
378.066	324.07
378.447	305.32
378.827	336.73
379.208	349.84
379.588	336.28
379.968	334.47
380.349	329.72
380.729	356.84
381.109	324.53
381.489	351.64
381.87	363.17
382.25	355.49
382.63	343.28
383.01	360.91
383.39	324.98
383.77	343.73
384.15	342.15
384.53	339.44
384.91	350.06
385.29	354.58
385.67	331.08
386.049	348.03
386.429	371.76
386.809	369.72
387.189	358.87
387.568	365.2
387.948	365.88
388.328	371.98
388.707	363.17
389.087	364.07
389.466	395.03
389.846	355.94
390.225	384.64
390.605	365.88
390.984	379.89
391.363	368.82
391.743	370.85
392.122	388.7
392.501	395.71
392.881	381.47
393.26	398.65
393.639	397.07
394.018	375.82
394.397	389.83
394.776	397.74
395.155	385.31
395.534	386.44
395.913	378.99
396.292	393.45
396.671	403.17
397.05	412.88
397.429	409.04
397.808	404.52
398.186	425.31
398.565	397.07
398.944	407.46
399.323	407.24
399.701	402.26
400.08	437.97
400.458	400.23
400.837	396.16
401.215	411.08
401.594	420.79
401.972	430.29
402.351	404.3
402.729	409.27
403.107	414.69
403.486	443.84
403.864	442.26
404.242	425.09
404.62	455.14
404.999	455.14
405.377	465.99
405.755	454.92
406.133	470.51
406.511	453.56
406.889	477.06
407.267	459.89
407.645	466.44
408.023	481.58
408.401	510.51
408.779	501.92
409.156	502.83
409.534	515.48
409.912	514.12
410.29	505.09
410.667	527.01
411.045	544.41
411.422	528.59
411.8	540.34
412.178	552.32
412.555	556.84
412.933	541.02
413.31	569.72
413.687	580.56
414.065	571.52
414.442	596.61
414.819	592.77
415.197	603.84
415.574	600
415.951	612.2
416.328	604.29
416.705	616.95
417.082	638.87
417.46	638.64
417.837	650.39
418.214	653.56
418.591	657.17
418.967	656.04
419.344	657.17
419.721	691.07
420.098	691.75
420.475	726.1
420.852	694.46
421.228	720.22
421.605	739.66
421.982	738.3
422.358	759.99
422.735	762.71
423.111	780.11
423.488	775.81
423.864	788.47
424.241	800.9
424.617	780.11
424.994	807
425.37	811.29
425.746	821.69
426.123	840.22
426.499	880.22
426.875	874.12
427.251	860.78
427.627	898.52
428.003	899.43
428.379	895.36
428.756	940.78
429.132	920.44
429.507	942.81
429.883	938.75
430.259	946.88
430.635	968.12
431.011	964.06
431.387	982.36
431.763	999.76
432.138	997.95
432.514	1016.48
432.89	1052.87
433.265	1060.78
433.641	1080.21
434.016	1101.45
434.392	1093.09
434.767	1145.52
435.143	1138.06
435.518	1176.25
435.894	1171.73
436.269	1183.71
436.644	1216.48
437.02	1274.33
437.395	1252.18
437.77	1269.59
438.145	1286.53
438.52	1305.06
438.895	1288.57
439.271	1319.3
439.646	1330.37
440.021	1369.92
440.395	1375.35
440.77	1406.3
441.145	1384.61
441.52	1437.26
441.895	1425.06
442.27	1440.2
442.645	1439.75
443.019	1476.81
443.394	1508.22
443.769	1489.69
444.143	1510.48
444.518	1530.37
444.892	1540.76
445.267	1557.04
445.641	1557.71
446.016	1574.89
446.39	1609.01
446.764	1595.9
447.139	1608.11
447.513	1635.9
447.887	1634.77
448.262	1627.54
448.636	1667.77
449.01	1668.22
449.384	1706.86
449.758	1711.61
450.132	1733.08
450.506	1730.59
450.88	1771.49
451.254	1755.67
451.628	1776.01
452.002	1772.4
452.376	1798.16
452.75	1855.33
453.123	1863.47
453.497	1903.69
453.871	1909.79
454.244	1909.79
454.618	1954.31
454.992	1997.02
455.365	1978.04
455.739	2037.7
456.112	2060.52
456.486	2077.25
456.859	2111.37
457.232	2112.05
457.606	2150.69
457.979	2132.84
458.352	2184.14
458.725	2213.97
459.099	2256.9
459.472	2283.8
459.845	2312.95
460.218	2348.43
460.591	2333.51
460.964	2381.19
461.337	2422.78
461.71	2491.02
462.083	2552.94
462.456	2515.43
462.829	2516.56
463.201	2591.58
463.574	2593.39
463.947	2641.98
464.32	2679.04
464.692	2664.58
465.065	2735.31
465.438	2786.83
465.81	2830.9
466.183	2821.86
466.555	2918.58
466.928	2949.54
467.3	2968.75
467.672	2989.54
468.045	3101.4
468.417	3108.41
468.789	3135.3
469.161	3192.25
469.534	3200.61
469.906	3297.33
470.278	3349.98
470.65	3358.57
471.022	3437.44
471.394	3521.5
471.766	3524.67
472.138	3632.24
472.51	3650.31
472.882	3719.01
473.253	3790.42
473.625	3830.65
473.997	3891.89
474.369	3994.71
474.74	4029.51
475.112	4118.55
475.484	4187.93
475.855	4298.21
476.227	4329.84
476.598	4446.45
476.97	4541.14
477.341	4593.79
477.713	4691.42
478.084	4711.53
478.455	4825.2
478.827	4924.86
479.198	5090.05
479.569	5051.86
479.94	5243.94
480.311	5235.13
480.682	5405.52
481.053	5567.78
481.424	5657.72
481.795	5707.89
482.166	5823.36
482.537	5899.07
482.908	6069.46
483.279	6062.91
483.65	6258.61
484.021	6380.64
484.391	6490.01
484.762	6557.13
485.133	6605.72
485.503	6766.84
485.874	6880.29
486.244	7044.8
486.615	7113.5
486.985	7244.8
487.356	7402.98
487.726	7403.89
488.097	7583.54
488.467	7639.14
488.837	7799.81
489.207	7950.31
489.578	8046.36
489.948	8120.93
490.318	8260.81
490.688	8278.21
491.058	8471.66
491.428	8520.92
491.798	8633.69
492.168	8824.41
492.538	8860.35
492.908	8958.65
493.278	9130.62
493.648	9117.74
494.017	9317.74
494.387	9376.26
494.757	9393.67
495.126	9541.23
495.496	9552.53
495.866	9692.64
496.235	9740.1
496.605	9810.15
496.974	9893.09
497.344	9981.45
497.713	10086.08
498.082	10104.38
498.452	10198.62
498.821	10300.31
499.19	10204.94
499.559	10324.94
499.928	10389.12
500.298	10430.25
500.667	10523.13
501.036	10543.47
501.405	10596.57
501.774	10645.84
502.143	10733.97
502.512	10771.93
502.88	10794.98
503.249	10872.72
503.618	10910.46
503.987	10861.42
504.356	11026.16
504.724	11089.44
505.093	11042.21
505.462	10985.94
505.83	11159.72
506.199	11174.18
506.567	11363.56
506.936	11321.3
507.304	11365.82
507.672	11388.42
508.041	11419.6
508.409	11571.46
508.777	11598.13
509.145	11641.52
509.514	11609.2
509.882	11630.67
510.25	11627.05
510.618	11686.94
510.986	11608.75
511.354	11780.95
511.722	11840.83
512.09	11949.98
512.458	11842.64
512.826	11942.3
513.193	11973.94
513.561	11882.19
513.929	12052.35
514.297	12070.21
514.664	12047.38
515.032	12128.73
515.4	12218
515.767	12118.57
516.135	12205.12
516.502	12143.88
516.869	12313.81
517.237	12280.37
517.604	12271.1
517.972	12375.73
518.339	12353.14
518.706	12261.84
519.073	12303.19
519.44	12330.31
519.808	12392.23
520.175	12365.79
520.542	12469.97
520.909	12469.97
521.276	12494.6
521.643	12553.58
522.009	12491.21
522.376	12546.58
522.743	12560.36
523.11	12679.91
523.477	12697.99
523.843	12731.2
524.21	12753.13
524.577	12756.29
524.943	12762.62
525.31	12845.55
525.676	12895.72
526.043	12860.69
526.409	12825.44
526.776	12924.19
527.142	12881.71
527.508	12820.69
527.874	12902.5
528.241	12882.16
528.607	12907.7
528.973	13003.51
529.339	12865.21
529.705	12917.19
530.071	12914.93
530.437	12963.74
530.803	12890.07
531.169	12929.62
531.535	12860.24
531.901	12777.98
532.267	12886
532.632	12900.92
532.998	12773.24
533.364	12827.93
533.73	12786.8
534.095	12787.47
534.461	12777.31
534.826	12799.68
535.192	12728.04
535.557	12738.89
535.923	12635.61
536.288	12670.42
536.653	12637.2
537.019	12536.41
537.384	12559.91
537.749	12520.81
538.114	12556.97
538.479	12458.44
538.845	12465.68
539.21	12325.79
539.575	12368.95
539.94	12320.14
540.305	12393.59
540.67	12236.08
541.034	12263.42
541.399	12144.1
541.764	12164.44
542.129	12116.53
542.494	12130.32
542.858	12159.47
543.223	11976.87
543.587	12051.67
543.952	11949.08
544.316	11943.43
544.681	11820.27
545.045	11848.97
545.41	11792.92
545.774	11802.42
546.138	11718.35
546.503	11759.03
546.867	11654.4
547.231	11724.68
547.595	11604.23
547.959	11571.69
548.324	11576.21
548.688	11507.51
549.052	11493.27
549.416	11506.6
549.779	11349.09
550.143	11334.41
550.507	11281.75
550.871	11338.47
551.235	11236.78
551.599	11213.73
551.962	11230.23
552.326	11220.96
552.689	11190.68
553.053	11133.96
553.417	11098.93
553.78	11140.74
554.143	11008.09
554.507	10976.45
554.87	10921.99
555.234	11053.28
555.597	10839.73
555.96	10912.72
556.323	10932.38
556.686	10826.4
557.05	10818.03
557.413	10811.93
557.776	10828.43
558.139	10858.71
558.502	10816.68
558.865	10801.31
559.228	10816
559.59	10817.58
559.953	10743.46
560.316	10812.39
560.679	10792.95
561.041	10809.67
561.404	10827.3
561.767	10778.26
562.129	10748.88
562.492	10820.97
562.854	10799.28
563.217	10719.28
563.579	10781.88
563.941	10718.6
564.304	10731.26
564.666	10825.72
565.028	10684.25
565.39	10828.88
565.753	10784.59
566.115	10809.22
566.477	10804.93
566.839	10783.01
567.201	10798.6
567.563	10846.28
567.925	10879.73
568.287	10830.92
568.648	10801.31
569.01	10851.03
569.372	10873.85
569.734	10834.76
570.095	10871.82
570.457	10862.1
570.819	10852.84
571.18	10875.43
571.542	10864.14
571.903	10897.58
572.265	10888.09
572.626	10889.22
572.987	10919.95
573.349	10897.35
573.71	10927.64
574.071	10985.71
574.432	10918.6
574.794	10982.55
575.155	10937.35
575.516	10896.68
575.877	10990.01
576.238	10916.11
576.599	10961.31
576.96	10969.44
577.32	10990.91
577.681	10926.28
578.042	10968.77
578.403	11006.73
578.763	10973.74
579.124	10996.79
579.485	10977.58
579.845	10967.86
580.206	10911.82
580.566	10926.96
580.927	10923.34
581.287	10988.43
581.648	10957.92
582.008	10948.2
582.368	10974.64
582.728	11005.6
583.089	10853.51
583.449	10880.41
583.809	10852.84
584.169	10957.01
584.529	10900.07
584.889	10926.05
585.249	10904.81
585.609	10851.48
585.969	10917.02
586.329	10859.84
586.688	10867.07
587.048	10894.19
587.408	10809
587.768	10847.64
588.127	10805.15
588.487	10737.36
588.846	10840.18
589.206	10745.27
589.565	10691.48
589.925	10785.72
590.284	10807.64
590.643	10734.87
591.003	10824.36
591.362	10768.77
591.721	10672.73
592.08	10710.69
592.44	10754.31
592.799	10746.85
593.158	10692.39
593.517	10794.98
593.876	10702.11
594.235	10666.17
594.593	10742.56
594.952	10689.68
595.311	10668.89
595.67	10707.98
596.029	10745.49
596.387	10681.09
596.746	10748.88
597.104	10663.46
597.463	10675.21
597.822	10670.24
598.18	10632.5
598.538	10632.05
598.897	10692.39
599.255	10545.27
599.613	10708.21
599.972	10664.37
600.33	10701.65
600.688	10617.59
601.046	10681.99
601.404	10698.94
601.762	10704.37
602.12	10681.77
602.478	10649.68
602.836	10659.85
603.194	10605.38
603.552	10662.11
603.91	10610.13
604.268	10632.5
604.625	10573.07
604.983	10632.73
605.341	10598.61
605.698	10646.51
606.056	10606.06
606.413	10625.05
606.771	10690.35
607.128	10635.67
607.485	10552.28
607.843	10628.44
608.2	10655.55
608.557	10609.23
608.914	10706.17
609.272	10681.77
609.629	10702.11
609.986	10766.06
610.343	10755.89
610.7	10702.33
611.057	10700.3
611.414	10717.25
611.771	10770.8
612.127	10750.01
612.484	10731.48
612.841	10761.31
613.198	10636.12
613.554	10736.23
613.911	10825.94
614.267	10761.99
614.624	10782.1
614.98	10770.13
615.337	10783.46
615.693	10817.36
616.05	10793.85
616.406	10842.21
616.762	10830.46
617.118	10792.95
617.475	10793.18
617.831	10852.38
618.187	10746.85
618.543	10819.84
618.899	10956.79
619.255	10903.91
619.611	10849.67
619.967	10896
620.323	10904.36
620.678	10760.41
621.034	10783.46
621.39	10829.79
621.746	10846.28
622.101	10983
622.457	10814.87
622.812	10874.08
623.168	10924.25
623.523	10903.68
623.879	10865.04
624.234	10801.99
624.589	10857.58
624.945	10911.82
625.3	10898.48
625.655	10904.36
626.01	10896.45
626.365	10859.39
626.72	10853.51
627.075	10887.19
627.43	10832.72
627.785	10769.67
628.14	10807.41
628.495	10792.72
628.85	10787.08
629.205	10806.51
629.559	10859.39
629.914	10786.85
630.269	10771.26
630.623	10832.05
630.978	10721.09
631.332	10769.22
631.687	10778.49
632.041	10707.3
632.396	10755.44
632.75	10688.77
633.104	10663.46
633.459	10607.87
633.813	10699.39
634.167	10713.63
634.521	10615.55
634.875	10657.14
635.229	10568.78
635.583	10661.65
635.937	10601.54
636.291	10594.31
636.645	10582.11
636.999	10501.88
637.352	10524.26
637.706	10548.66
638.06	10574.2
638.413	10551.83
638.767	10495.78
639.121	10461.89
639.474	10456.91
639.828	10451.49
640.181	10442.45
640.534	10409.01
640.888	10371.72
641.241	10383.7
641.594	10426.18
641.947	10430.47
642.301	10403.81
642.654	10445.62
643.007	10360.65
643.36	10348.22
643.713	10334.21
644.066	10369.23
644.419	10338.73
644.771	10197.94
645.124	10227.09
645.477	10194.1
645.83	10095.12
646.182	10017.38
646.535	10036.36
646.888	10028
647.24	9981.22
647.593	10003.37
647.945	10018.28
648.298	9938.28
648.65	9935.8
649.002	9917.04
649.355	9974.89
649.707	9967.66
650.059	10002.69
650.411	10141.22
650.763	10168.11
651.115	10211.27
651.467	10148.22
651.819	10236.13
652.171	10242
652.523	10162.68
652.875	10187.54
653.227	10084.27
653.578	10167.2
653.93	10171.5
654.282	10108.67
654.633	10120.65
654.985	10129.47
655.337	10187.32
655.688	10178.5
656.039	10231.16
656.391	10122.46
656.742	10152.52
657.094	10156.58
657.445	10160.88
657.796	10186.64
658.147	10169.69
658.498	10173.98
658.849	10198.39
659.2	10135.57
659.551	10189.8
659.902	10202.23
660.253	10190.48
660.604	10189.35
660.955	10207.66
661.306	10159.3
661.656	10174.89
662.007	10220.31
662.358	10213.08
662.708	10208.56
663.059	10194.1
663.409	10157.94
663.76	10251.95
664.11	10224.6
664.461	10186.64
664.811	10215.79
665.161	10251.95
665.511	10209.24
665.862	10260.99
666.212	10223.02
666.562	10219.86
666.912	10237.71
667.262	10180.09
667.612	10189.8
667.962	10266.18
668.312	10184.15
668.662	10281.78
669.011	10234.32
669.361	10195.9
669.711	10180.09
670.06	10199.07
670.41	10136.47
670.76	10145.28
671.109	10199.07
671.459	10167.43
671.808	10177.15
672.157	10125.17
672.507	10117.71
672.856	10084.04
673.205	10152.06
673.554	10135.34
673.904	10088.34
674.253	10147.32
674.602	10149.13
674.951	10020.54
675.3	9941.22
675.649	10069.81
675.998	10068.45
676.346	9997.27
676.695	10107.54
677.044	9996.59
677.393	10058.96
677.741	10092.86
678.09	9924.05
678.438	9912.97
678.787	10013.76
679.135	9952.52
679.484	9908.68
679.832	9921.34
680.181	9928.34
680.529	9893.09
680.877	9915.46
681.225	9809.02
681.573	9838.63
681.922	9814.22
682.27	9782.58
682.618	9807.67
682.966	9784.62
683.314	9730.15
683.661	9761.11
684.009	9663.04
684.357	9665.97
684.705	9623.72
685.053	9662.81
685.4	9642.92
685.748	9599.08
686.095	9602.93
686.443	9539.65
686.79	9574.45
687.138	9599.08
687.485	9561.12
687.832	9524.51
688.18	9516.37
688.527	9414.91
688.874	9432.08
689.221	9406.09
689.568	9368.36
689.915	9361.8
690.262	9307.11
690.609	9325.19
690.956	9261.24
691.303	9266.21
691.65	9214.69
691.997	9197.51
692.344	9139.66
692.69	9113.22
693.037	9118.87
693.383	8983.96
693.73	9062.6
694.077	8997.07
694.423	9031.42
694.769	8952.77
695.116	8938.31
695.462	8948.71
695.808	8887.46
696.155	8837.07
696.501	8793.23
696.847	8770.86
697.193	8765.89
697.539	8720.46
697.885	8667.36
698.231	8679.33
698.577	8672.55
698.923	8608.83
699.269	8585.33
699.614	8522.28
699.96	8484.76
700.306	8517.53
700.651	8449.51
700.997	8322.28
701.342	8355.5
701.688	8321.83
702.033	8318.89
702.379	8330.19
702.724	8241.61
703.069	8314.82
703.415	8205.67
703.76	8248.84
704.105	8228.05
704.45	8183.75
704.795	8142.4
705.14	8083.42
705.485	8035.06
705.83	8045.68
706.175	8063.98
706.52	8028.5
706.865	7965.45
707.209	7991.89
707.554	7932.23
707.899	7866.93
708.243	7806.81
708.588	7833.71
708.932	7789.87
709.277	7705.35
709.621	7762.3
709.966	7668.51
710.31	7766.36
710.654	7682.52
710.998	7672.81
711.342	7702.86
711.687	7662.19
712.031	7648.4
712.375	7579.25
712.719	7631.9
713.063	7603.43
713.407	7646.82
713.75	7536.09
714.094	7594.62
714.438	7520.49
714.782	7534.96
715.125	7482.3
715.469	7470.1
715.812	7434.62
716.156	7449.31
716.499	7417.9
716.843	7462.19
717.186	7406.83
717.53	7417.9
717.873	7417.22
718.216	7386.71
718.559	7337
718.902	7301.29
719.246	7351.23
719.589	7383.32
719.932	7311.23
720.275	7325.47
720.617	7247.06
720.96	7276.43
721.303	7307.39
721.646	7325.25
721.989	7265.13
722.331	7273.72
722.674	7306.71
723.016	7218.13
723.359	7269.88
723.701	7287.05
724.044	7206.38
724.386	7143.33
724.729	7218.81
725.071	7113.05
725.413	7175.19
725.755	7166.61
726.097	7131.13
726.439	7130.9
726.782	7126.83
727.124	7144.91
727.465	7193.5
727.807	7113.5
728.149	7095.65
728.491	7093.61
728.833	7152.37
729.175	7104.46
729.516	7069.21
729.858	7104.69
730.199	7080.51
730.541	7110.34
730.882	7090.22
731.224	7072.6
731.565	7041.64
731.906	7061.07
732.248	7149.2
732.589	7019.72
732.93	7006.16
733.271	7064.46
733.612	7052.03
733.953	7089.55
734.294	7094.52
734.635	7121.41
734.976	7087.06
735.317	7057.23
735.658	7097.68
735.999	7067.85
736.339	7103.1
736.68	7075.31
737.021	7109.88
737.361	7092.03
737.702	7155.98
738.042	7102.2
738.383	7106.72
738.723	7106.95
739.063	7104.91
739.404	7138.13
739.744	7095.65
740.084	7109.66
740.424	7181.07
740.764	7176.55
741.104	7195.08
741.444	7192.82
741.784	7127.74
742.124	7207.28
742.464	7193.27
742.804	7253.83
743.143	7256.09
743.483	7258.35
743.823	7238.47
744.162	7304.45
744.502	7331.35
744.841	7272.82
745.181	7405.24
745.52	7373.38
745.86	7447.28
746.199	7443.66
746.538	7480.95
746.877	7571.57
747.216	7590.77
747.556	7660.6
747.895	7657.21
748.234	7648.17
748.573	7775.63
748.911	7815.85
749.25	7885.46
749.589	7933.82
749.928	7945.12
750.267	8093.81
750.605	8139.01
750.944	8089.29
751.283	8226.69
751.621	8293.13
751.96	8324.99
752.298	8397.08
752.636	8548.49
752.975	8574.25
753.313	8611.31
753.651	8817.86
753.989	8869.39
754.327	8951.19
754.666	9095.59
755.004	9227.12
755.342	9327
755.679	9446.09
756.017	9490.61
756.355	9696.48
756.693	9735.35
757.031	9938.28
757.368	9988
757.706	10154.32
758.044	10320.19
758.381	10500.53
758.719	10520.42
759.056	10806.06
759.394	10913.85
759.731	10932.61
760.068	11144.13
760.405	11260.96
760.743	11369.21
761.08	11617.34
761.417	11760.61
761.754	11935.97
762.091	12118.34
762.428	12276.08
762.765	12342.06
763.102	12603.75
763.438	12686.69
763.775	12905.21
764.112	13015.72
764.449	13284.86
764.785	13383.17
765.122	13489.38
765.458	13718.07
765.795	13785.41
766.131	13942.7
766.467	14082.36
766.804	14151.28
767.14	14316.93
767.476	14487.32
767.812	14674.88
768.148	14771.15
768.485	14787.87
768.821	14980.19
769.157	15005.27
769.492	15247.3
769.828	15344.02
770.164	15381.08
770.5	15510.57
770.836	15683.9
771.171	15706.72
771.507	15886.83
771.842	15874.17
772.178	16003.89
772.513	16195.29
772.849	16207.72
773.184	16218.34
773.519	16431.22
773.855	16439.36
774.19	16466.7
774.525	16526.59
774.86	16714.15
775.195	16754.15
775.53	16750.76
775.865	16778.78
776.2	16826.46
776.535	16812.68
776.87	16911.43
777.205	16829.4
777.539	16915.95
777.874	17124.76
778.209	17020.13
778.543	17091.77
778.878	17135.16
779.212	17204.99
779.547	17077.76
779.881	17294.7
780.215	17298.99
780.55	17366.11
780.884	17280.01
781.218	17374.7
781.552	17374.25
781.886	17364.08
782.22	17302.16
782.554	17384.87
782.888	17246.11
783.222	17260.58
783.556	17209.51
783.889	17199.56
784.223	17228.26
784.557	17167.7
784.89	17282.95
785.224	17287.24
785.557	17162.5
785.891	17175.61
786.224	17166.57
786.558	17253.35
786.891	17123.63
787.224	17087.93
787.557	17098.32
787.891	17212.67
788.224	17097.19
788.557	17131.99
788.89	17168.83
789.223	17172.9
789.556	17038.44
789.888	16995.5
790.221	17032.33
790.554	16940.59
790.887	16946.01
791.219	16915.28
791.552	16946.24
791.884	16794.37
792.217	16856.29
792.549	16854.03
792.882	16774.49
793.214	16721.16
793.546	16781.04
793.879	16764.32
794.211	16549.64
794.543	16576.3
794.875	16632.8
795.207	16622.4
795.539	16474.38
795.871	16567.49
796.203	16487.72
796.535	16358.23
796.867	16443.88
797.198	16322.97
797.53	16387.38
797.862	16335.63
798.193	16365.01
798.525	16206.59
798.856	16235.75
799.188	16096.99
799.519	16123.66
799.85	15947.62
800.182	15948.52
800.513	16040.27
800.844	15885.02
801.175	16087.05
801.506	15938.8
801.837	15833.27
802.168	15845.02
802.499	15758.7
802.83	15741.75
803.161	15679.38
803.491	15706.72
803.822	15683.22
804.153	15624.24
804.483	15506.27
804.814	15502.21
805.145	15529.78
805.475	15579.72
805.805	15440.51
806.136	15457.69
806.466	15481.19
806.796	15454.3
807.126	15332.27
807.457	15292.04
807.787	15275.32
808.117	15221.08
808.447	15193.06
808.777	15239.16
809.107	15050.24
809.436	15184.47
809.766	15122.1
810.096	15018.15
810.426	15103.57
810.755	15007.53
811.085	14878.94
811.414	14993.97
811.744	14787.65
812.073	14930.47
812.403	14874.2
812.732	14765.05
813.061	14785.39
813.39	14672.85
813.719	14655.45
814.049	14684.15
814.378	14684.15
814.707	14675.56
815.036	14679.4
815.365	14518.5
815.693	14481.44
816.022	14471.95
816.351	14490.03
816.68	14424.49
817.008	14370.71
817.337	14155.12
817.665	14324.61
817.994	14318.06
818.322	14232.86
818.651	14212.3
818.979	14153.09
819.307	14257.72
819.636	14212.52
819.964	14068.8
820.292	14190.38
820.62	14122.81
820.948	14113.77
821.276	14100.43
821.604	14084.16
821.932	14152.64
822.259	14140.43
822.587	14141.79
822.915	14096.14
823.243	14173.2
823.57	14086.42
823.898	14061.57
824.225	14131.62
824.553	14063.83
824.88	14095.91
825.207	14237.15
825.535	14151.05
825.862	14228.11
826.189	14077.84
826.516	14241
826.843	14263.82
827.17	14262.01
827.497	14247.32
827.824	14203.26
828.151	14194.67
828.478	14229.24
828.805	14200.54
829.131	14229.24
829.458	14222.24
829.785	14104.28
830.111	14175.46
830.438	14239.41
830.764	14236.7
831.09	14233.09
831.417	14146.53
831.743	14254.55
832.069	14131.17
832.395	14056.82
832.722	14222.01
833.048	14126.87
833.374	14198.74
833.7	14062.02
834.026	14081.45
834.351	14054.56
834.677	14040.32
835.003	14014.56
835.329	13982.02
835.654	14006.43
835.98	13971.62
836.306	14016.14
836.631	13880.55
836.956	14007.78
837.282	13992.41
837.607	13843.27
837.932	13953.09
838.258	13891.85
838.583	13865.64
838.908	13829.93
839.233	13835.81
839.558	13788.8
839.883	13724.4
840.208	13732.31
840.533	13631.75
840.858	13740.22
841.182	13671.29
841.507	13637.62
841.832	13541.8
842.156	13553.56
842.481	13553.78
842.805	13625.42
843.13	13555.36
843.454	13437.17
843.778	13446.67
844.103	13403.05
844.427	13332.32
844.751	13339.1
845.075	13307.69
845.399	13254.58
845.723	13204.86
846.047	13196.73
846.371	13124.64
846.695	13205.54
847.019	13011.42
847.343	12917.19
847.666	12893.01
847.99	12842.61
848.313	12836.74
848.637	12781.15
848.96	12770.3
849.284	12736.63
849.607	12643.52
849.931	12651.88
850.254	12479.69
850.577	12460.25
850.9	12361.95
851.223	12435.39
851.546	12359.46
851.869	12309.29
852.192	12304.32
852.515	12121.73
852.838	12156.98
853.161	12150.43
853.483	12050.09
853.806	12033.37
854.129	11999.25
854.451	11923.32
854.774	11921.73
855.096	11791.57
855.419	11763.32
855.741	11818.23
856.063	11729.42
856.385	11717.45
856.708	11680.84
857.03	11626.38
857.352	11594.51
857.674	11608.07
857.996	11611.69
858.318	11517
858.64	11492.14
858.961	11411.47
859.283	11413.5
859.605	11296.44
859.926	11390.9
860.248	11323.78
860.57	11260.06
860.891	11321.52
861.212	11239.27
861.534	11182.77
861.855	11202.88
862.176	11216.22
862.498	11203.79
862.819	11215.09
863.14	11094.64
863.461	11082.43
863.782	11076.79
864.103	11033.85
864.424	11026.62
864.745	11025.71
865.065	10937.35
865.386	10973.51
865.707	10922.44
866.027	10966.96
866.348	10951.14
866.668	10851.25
866.989	10856
867.309	10798.6
867.63	10873.63
867.95	10797.24
868.27	10717.92
868.59	10785.27
868.91	10687.42
869.23	10702.11
869.55	10629.57
869.87	10717.47
870.19	10683.12
870.51	10696
870.83	10744.59
871.15	10601.09
871.469	10605.61
871.789	10617.59
872.109	10621.88
872.428	10529.68
872.748	10515.22
873.067	10534.65
873.386	10577.14
873.706	10535.1
874.025	10470.47
874.344	10461.89
874.663	10517.93
874.982	10499.63
875.301	10399.97
875.62	10436.12
875.939	10331.49
876.258	10374.43
876.577	10277.48
876.896	10367.43
877.214	10313.42
877.533	10299.4
877.852	10226.19
878.17	10226.86
878.489	10304.38
878.807	10246.98
879.125	10237.03
879.444	10205.4
879.762	10158.17
880.08	10136.24
880.398	10138.05
880.716	10155.23
881.034	10095.57
881.352	10051.73
881.67	10052.18
881.988	10050.6
882.306	10003.82
882.624	9956.81
882.941	9910.26
883.259	9886.08
883.577	9906.65
883.894	9812.86
884.212	9865.97
884.529	9868.91
884.846	9831.85
885.164	9822.81
885.481	9776.48
885.798	9757.95
886.115	9689.02
886.432	9752.07
886.75	9665.97
887.067	9692.87
887.383	9587.56
887.7	9671.4
888.017	9553.66
888.334	9686.54
888.651	9589.37
888.967	9489.26
889.284	9522.02
889.6	9511.63
889.917	9393.89
890.233	9394.8
890.55	9416.26
890.866	9397.06
891.182	9355.93
891.498	9261.47
891.815	9271.63
892.131	9214.01
892.447	9259.21
892.763	9211.3
893.079	9173.11
893.395	9176.27
893.71	9158.42
894.026	9115.03
894.342	9077.29
894.657	9011.3
894.973	8999.1
895.289	8990.51
895.604	8999.78
895.92	8929.72
896.235	8853.11
896.55	8858.09
896.865	8819.67
897.181	8778.31
897.496	8813.79
897.811	8698.54
898.126	8728.37
898.441	8690.63
898.756	8682.5
899.071	8613.57
899.386	8629.39
899.7	8515.27
900.015	8487.25
900.33	8407.7
900.644	8386.69
900.959	8419.91
901.273	8386.23
901.588	8343.07
901.902	8314.15
902.216	8322.96
902.531	8276.63
902.845	8282.51
903.159	8172.45
903.473	8175.84
903.787	8107.15
904.101	8084.1
904.415	8104.66
904.729	8068.05
905.042	8009.07
905.356	7962.06
905.67	7965.23
905.984	7879.58
906.297	7907.83
906.611	7876.42
906.924	7879.81
907.237	7783.54
907.551	7803.42
907.864	7792.35
908.177	7734.73
908.491	7755.97
908.804	7632.81
909.117	7584
909.43	7566.82
909.743	7515.3
910.056	7489.08
910.368	7452.47
910.681	7461.06
910.994	7442.76
911.307	7413.38
911.619	7398.92
911.932	7352.14
912.244	7322.99
912.557	7257.45
912.869	7206.83
913.181	7186.72
913.494	7185.59
913.806	7135.87
914.118	7135.65
914.43	7096.1
914.742	7100.17
915.054	7054.29
915.366	7014.97
915.678	7035.76
915.99	6986.27
916.302	6927.52
916.613	6933.17
916.925	6874.86
917.236	6888.87
917.548	6807.07
917.859	6823.11
918.171	6808.2
918.482	6798.25
918.794	6711.48
919.105	6721.19
919.416	6633.51
919.727	6627.41
920.038	6621.53
920.349	6608.65
920.66	6519.62
920.971	6527.3
921.282	6545.83
921.593	6479.39
921.903	6426.51
922.214	6402.78
922.525	6419.05
922.835	6368.43
923.146	6354.88
923.456	6323.92
923.767	6259.51
924.077	6251.38
924.387	6232.17
924.697	6311.94
925.008	6201.21
925.318	6144.26
925.628	6124.15
925.938	6142.45
926.248	6104.94
926.558	6028.33
926.867	6043.47
927.177	6017.93
927.487	5990.59
927.796	5929.58
928.106	5937.49
928.416	5919.41
928.725	5940.65
929.034	5897.03
929.344	5817.94
929.653	5830.14
929.962	5799.64
930.271	5802.57
930.581	5768.9
930.89	5675.8
931.199	5657.72
931.508	5653.2
931.817	5688.45
932.125	5675.57
932.434	5631.73
932.743	5551.05
933.051	5543.37
933.36	5588.12
933.669	5442.58
933.977	5501.11
934.286	5506.54
934.594	5457.05
934.902	5427.67
935.21	5375.92
935.519	5335.24
935.827	5381.79
936.135	5367.78
936.443	5292.76
936.751	5232.19
937.059	5306.99
937.367	5250.27
937.674	5285.3
937.982	5159.43
938.29	5189.48
938.597	5154.68
938.905	5130.95
939.213	5116.94
939.52	5031.75
939.827	5111.52
940.135	5059.09
940.442	5037.62
940.749	5009.83
941.056	4986.32
941.363	4950.84
941.67	4971.86
941.977	4906.1
942.284	4846.21
942.591	4899.09
942.898	4844.63
943.205	4874.01
943.511	4812.99
943.818	4795.59
944.125	4753.79
944.431	4780.68
944.738	4725.54
945.044	4749.04
945.35	4702.26
945.657	4658.42
945.963	4640.57
946.269	4657.07
946.575	4650.74
946.881	4596.96
947.187	4596.05
947.493	4563.06
947.799	4518.77
948.105	4552.21
948.41	4460.01
948.716	4476.05
949.022	4464.76
949.327	4448.71
949.633	4372.78
949.938	4402.38
950.244	4401.93
950.549	4338.66
950.854	4348.37
951.16	4334.59
951.465	4318.54
951.77	4313.8
952.075	4291.2
952.38	4243.29
952.685	4280.58
952.99	4233.12
953.294	4209.17
953.599	4166.91
953.904	4175.27
954.209	4132.79
954.513	4137.76
954.818	4117.87
955.122	4188.83
955.426	4064.31
955.731	4111.32
956.035	4076.29
956.339	4019.57
956.643	4003.52
956.948	4010.53
957.252	4007.82
957.556	3998.33
957.86	3959.23
958.163	3970.76
958.467	3935.05
958.771	3907.71
959.075	3897.54
959.378	3858.22
959.682	3908.39
959.985	3837.88
960.289	3801.72
960.592	3815.96
960.896	3817.77
961.199	3762.4
961.502	3761.27
961.805	3730.99
962.108	3725.79
962.411	3719.01
962.714	3713.36
963.017	3676.3
963.32	3664.32
963.623	3625.91
963.926	3664.55
964.228	3637.21
964.531	3616.42
964.833	3605.34
965.136	3547.94
965.438	3572.8
965.741	3584.55
966.043	3532.58
966.345	3510.66
966.648	3508.17
966.95	3466.59
967.252	3467.72
967.554	3474.95
967.856	3414.61
968.158	3397.44
968.46	3405.57
968.761	3368.97
969.063	3403.09
969.365	3370.32
969.666	3349.76
969.968	3319.7
970.269	3322.19
970.571	3326.48
970.872	3284.45
971.174	3309.31
971.475	3266.82
971.776	3223.66
972.077	3231.34
972.378	3262.3
972.679	3208.97
972.98	3179.37
973.281	3176.43
973.582	3171
973.883	3156.09
974.183	3154.96
974.484	3146.6
974.785	3102.53
975.085	3098.46
975.386	3086.94
975.686	3067.28
975.986	3072.48
976.287	3051.46
976.587	3011.23
976.887	3018.01
977.187	3048.3
977.487	3009.2
977.787	2967.39
978.087	2965.81
978.387	2964.23
978.687	2981.4
978.987	2943.21
979.286	2887.85
979.586	2886.27
979.885	2894.85
980.185	2883.55
980.484	2863.44
980.784	2835.42
981.083	2842.43
981.382	2817.79
981.682	2790.45
981.981	2800.39
982.28	2770.56
982.579	2767.17
982.878	2766.27
983.177	2741.18
983.475	2737.8
983.774	2701.86
984.073	2682.2
984.372	2697.34
984.67	2693.5
984.969	2644.24
985.267	2678.81
985.566	2651.7
985.864	2692.82
986.162	2623.9
986.461	2627.29
986.759	2572.38
987.057	2586.84
987.355	2571.47
987.653	2573.96
987.951	2556.78
988.249	2546.16
988.547	2562.21
988.844	2534.86
989.142	2526.28
989.44	2535.31
989.737	2486.73
990.035	2498.93
990.332	2457.12
990.63	2432.72
990.927	2434.07
991.224	2410.57
991.521	2400.4
991.819	2437.01
992.116	2404.24
992.413	2393.4
992.71	2399.27
993.006	2363.34
993.303	2369.44
993.6	2362.89
993.897	2344.13
994.193	2305.26
994.49	2320.63
994.787	2295.55
995.083	2279.28
995.379	2258.26
995.676	2262.55
995.972	2251.93
996.268	2236.57
996.565	2217.13
996.861	2213.74
997.157	2216.23
997.453	2190.01
997.749	2195.21
998.044	2182.33
998.34	2147.08
998.636	2179.39
998.932	2169.22
999.227	2138.04
999.523	2116.79
999.818	2113.4
1000.114	2081.09
1000.409	2058.49
1000.704	2092.16
1001	2051.71
1001.295	2011.49
1001.59	2034.08
1001.885	2044.71
1002.18	2010.81
1002.475	1977.59
1002.77	1990.02
1003.065	1986.63
1003.359	1961.32
1003.654	1961.09
1003.949	1925.39
1004.243	1952.05
1004.538	1904.6
1004.832	1944.82
1005.127	1918.16
1005.421	1895.11
1005.715	1923.58
1006.009	1846.52
1006.304	1877.25
1006.598	1837.71
1006.892	1849.91
1007.186	1844.03
1007.48	1819.63
1007.773	1819.18
1008.067	1814.88
1008.361	1759.29
1008.655	1787.31
1008.948	1790.25
1009.242	1716.13
1009.535	1753.87
1009.829	1763.13
1010.122	1716.58
1010.415	1741.21
1010.708	1724.04
1011.001	1693.53
1011.295	1695.34
1011.588	1674.55
1011.881	1696.69
1012.173	1656.92
1012.466	1677.94
1012.759	1644.94
1013.052	1660.99
1013.344	1611.5
1013.637	1600.2
1013.93	1584.61
1014.222	1607.66
1014.514	1581.22
1014.807	1600.2
1015.099	1583.02
1015.391	1580.76
1015.683	1557.71
1015.976	1558.39
1016.268	1553.42
1016.56	1547.54
1016.851	1572.85
1017.143	1522.46
1017.435	1491.5
1017.727	1465.06
1018.018	1467.32
1018.31	1493.76
1018.602	1465.29
1018.893	1469.58
1019.185	1456.92
1019.476	1449.02
1019.767	1437.26
1020.058	1402.92
1020.35	1392.97
1020.641	1382.35
1020.932	1397.04
1021.223	1390.94
1021.514	1375.12
1021.804	1339.64
1022.095	1375.8
1022.386	1349.81
1022.677	1351.62
1022.967	1326.31
1023.258	1298.96
1023.548	1293.31
1023.839	1323.37
1024.129	1313.65
1024.419	1313.88
1024.709	1328.79
1025	1288.34
1025.29	1271.85
1025.58	1244.95
1025.87	1261
1026.16	1206.08
1026.449	1211.06
1026.739	1238.85
1027.029	1211.51
1027.319	1226.65
1027.608	1197.5
1027.898	1197.27
1028.187	1162.47
1028.477	1217.84
1028.766	1193.66
1029.055	1166.76
1029.344	1148.23
1029.634	1142.81
1029.923	1142.58
1030.212	1143.71
1030.501	1108.91
1030.79	1098.97
1031.078	1139.87
1031.367	1097.84
1031.656	1097.84
1031.945	1091.74
1032.233	1096.26
1032.522	1073.21
1032.81	1062.59
1033.099	1075.24
1033.387	1058.52
1033.675	1052.87
1033.963	1049.7
1034.251	1046.99
1034.54	1035.92
1034.828	1030.04
1035.116	1007.45
1035.403	1010.84
1035.691	986.2
1035.979	981.91
1036.267	983.27
1036.554	990.27
1036.842	1001.57
1037.129	944.85
1037.417	962.47
1037.704	976.94
1037.992	947.11
1038.279	966.99
1038.566	956.15
1038.853	956.15
1039.14	956.15
