Data from hue_320_FLMS001491_27.txt Node
Date: Mon Feb 06 15:46:59 GMT 2017
User: dcchb
Spectrometer: FLMS00149
Trigger mode: 0
Integration Time (sec): 2.000000E-2
Scans to average: 10
Electric dark correction enabled: true
Nonlinearity correction enabled: false
Boxcar width: 0
XAxis mode: Wavelengths
Number of Pixels in Spectrum: 2048
>>>>>Begin Spectral Data<<<<<
341.393	-29.43
341.776	-29.43
342.16	-29.43
342.543	-58.13
342.927	-67.17
343.31	-77.34
343.693	-71.47
344.077	-64.91
344.46	-54.52
344.843	-56.55
345.226	-56.78
345.61	-34.63
345.993	-20.62
346.376	-11.58
346.759	7.4
347.142	27.51
347.525	41.98
347.908	69.32
348.291	75.42
348.674	114.97
349.057	111.8
349.44	148.64
349.823	138.02
350.206	174.18
350.588	186.15
350.971	198.36
351.354	207.17
351.737	218.92
352.119	254.4
352.502	256.89
352.884	254.85
353.267	270.9
353.65	279.48
354.032	287.17
354.414	317.22
354.797	307.51
355.179	311.57
355.562	309.54
355.944	304.57
356.326	321.97
356.709	310.22
357.091	336.21
357.473	352.25
357.855	347.73
358.238	346.38
358.62	339.6
359.002	342.76
359.384	331.69
359.766	317.45
360.148	339.37
360.53	331.46
360.912	330.1
361.294	327.62
361.676	317.68
362.057	308.86
362.439	322.19
362.821	338.47
363.203	340.95
363.584	312.93
363.966	321.97
364.348	319.94
364.729	334.17
365.111	310.9
365.493	314.29
365.874	284.91
366.256	313.38
366.637	304.57
367.019	310.67
367.4	310.67
367.781	320.84
368.163	284.91
368.544	305.92
368.925	295.98
369.306	301.63
369.688	303.44
370.069	300.5
370.45	288.52
370.831	299.37
371.212	303.44
371.593	298.01
371.974	278.81
372.355	302.31
372.736	321.29
373.117	311.12
373.498	328.97
373.879	338.92
374.26	321.52
374.641	314.06
375.021	319.03
375.402	303.44
375.783	329.2
376.163	335.53
376.544	326.49
376.925	340.73
377.305	322.87
377.686	312.93
378.066	340.27
378.447	286.26
378.827	354.51
379.208	322.42
379.588	307.73
379.968	323.32
380.349	324.91
380.729	336.21
381.109	326.71
381.489	325.81
381.87	327.39
382.25	326.04
382.63	352.7
383.01	340.95
383.39	345.92
383.77	303.44
384.15	347.05
384.53	337.11
384.91	340.05
385.29	341.63
385.67	316.09
386.049	351.8
386.429	345.47
386.809	337.79
387.189	353.15
387.568	338.92
387.948	353.83
388.328	354.06
388.707	340.27
389.087	349.54
389.466	352.93
389.846	360.39
390.225	349.76
390.605	361.97
390.984	338.47
391.363	351.35
391.743	361.74
392.122	344.57
392.501	364.23
392.881	367.84
393.26	363.1
393.639	378.01
394.018	375.98
394.397	368.97
394.776	347.5
395.155	385.24
395.534	356.77
395.913	365.13
396.292	382.76
396.671	392.48
397.05	382.08
397.429	371.01
397.808	385.47
398.186	383.21
398.565	393.15
398.944	355.41
399.323	384.57
399.701	378.24
400.08	412.14
400.458	375.98
400.837	389.99
401.215	410.78
401.594	386.6
401.972	403.55
402.351	398.8
402.729	410.1
403.107	400.84
403.486	380.95
403.864	414.17
404.242	398.8
404.62	405.36
404.999	392.02
405.377	414.4
405.755	437.22
406.133	425.24
406.511	422.53
406.889	428.63
407.267	440.61
407.645	401.97
408.023	430.44
408.401	458.24
408.779	452.14
409.156	445.81
409.534	462.08
409.912	474.51
410.29	482.87
410.667	467.73
411.045	486.94
411.422	449.42
411.8	486.71
412.178	492.36
412.555	483.09
412.933	494.17
413.31	505.92
413.687	501.17
414.065	501.17
414.442	514.73
414.819	515.41
415.197	546.14
415.574	544.34
415.951	531
416.328	546.6
416.705	547.5
417.082	549.31
417.46	549.31
417.837	555.86
418.214	593.37
418.591	580.95
418.967	593.83
419.344	594.73
419.721	613.94
420.098	590.44
420.475	614.39
420.852	619.14
421.228	630.89
421.605	610.32
421.982	630.21
422.358	641.28
422.735	635.86
423.111	649.87
423.488	659.81
423.864	672.02
424.241	682.41
424.617	682.19
424.994	674.95
425.37	680.15
425.746	677.21
426.123	689.19
426.499	680.15
426.875	709.76
427.251	728.74
427.627	739.59
428.003	753.6
428.379	754.27
428.756	752.92
429.132	758.79
429.507	745.23
429.883	791.56
430.259	762.86
430.635	804.22
431.011	795.85
431.387	803.09
431.763	814.16
432.138	835.4
432.514	828.62
432.89	842.86
433.265	839.24
433.641	849.86
434.016	860.26
434.392	881.28
434.767	883.31
435.143	886.02
435.518	887.15
435.894	903.42
436.269	909.52
436.644	934.16
437.02	919.69
437.395	945
437.77	942.07
438.145	981.16
438.52	967.38
438.895	992.01
439.271	963.99
439.646	999.01
440.021	1013.48
440.395	1001.95
440.77	1005.57
441.145	981.16
441.52	1013.7
441.895	1013.02
442.27	1027.26
442.645	1010.76
443.019	1051.89
443.394	1064.1
443.769	1041.05
444.143	1049.86
444.518	1043.76
444.892	1065.45
445.267	1079.01
445.641	1069.75
446.016	1043.53
446.39	1085.34
446.764	1094.15
447.139	1072.01
447.513	1083.98
447.887	1060.93
448.262	1104.55
448.636	1085.79
449.01	1097.32
449.384	1098.22
449.758	1117.88
450.132	1117.2
450.506	1119.24
450.88	1130.76
451.254	1145
451.628	1125.34
452.002	1112.91
452.376	1145.22
452.75	1133.7
453.123	1178.44
453.497	1169.18
453.871	1191.78
454.244	1176.86
454.618	1174.83
454.992	1194.71
455.365	1184.32
455.739	1227.26
456.112	1243.75
456.486	1232.23
456.859	1242.62
457.232	1256.41
457.606	1272.45
457.979	1272
458.352	1283.3
458.725	1302.06
459.099	1271.77
459.472	1332.79
459.845	1314.26
460.218	1321.94
460.591	1321.94
460.964	1358.55
461.337	1382.73
461.71	1401.71
462.083	1404.65
462.456	1401.04
462.829	1392.9
463.201	1428.61
463.574	1422.73
463.947	1418.89
464.32	1454.82
464.692	1435.61
465.065	1489.85
465.438	1488.04
465.81	1484.88
466.183	1493.46
466.555	1518.55
466.928	1530.3
467.3	1490.98
467.672	1542.95
468.045	1558.55
468.417	1560.81
468.789	1578.89
469.161	1603.29
469.534	1585.89
469.906	1603.07
470.278	1627.7
470.65	1647.36
471.022	1701.14
471.394	1697.3
471.766	1700.01
472.138	1690.29
472.51	1750.63
472.882	1754.93
473.253	1758.32
473.625	1771.2
473.997	1799.44
474.369	1833.79
474.74	1827.69
475.112	1846.22
475.484	1870.18
475.855	1907.92
476.227	1917.63
476.598	1937.97
476.97	1941.59
477.341	1953.56
477.713	2005.31
478.084	2003.51
478.455	2054.8
478.827	2061.58
479.198	2064.3
479.569	2104.07
479.94	2140.45
480.311	2171.41
480.682	2190.39
481.053	2234.46
481.424	2236.27
481.795	2262.03
482.166	2268.81
482.537	2293.44
482.908	2346.77
483.279	2358.3
483.65	2426.09
484.021	2406.21
484.391	2429.03
484.762	2448.47
485.133	2465.87
485.503	2515.58
485.874	2551.97
486.244	2536.6
486.615	2586.32
486.985	2605.52
487.356	2657.5
487.726	2661.34
488.097	2698.63
488.467	2714.67
488.837	2761.23
489.207	2754.9
489.578	2794.45
489.948	2787.21
490.318	2859.76
490.688	2834.67
491.058	2896.14
491.428	2901.79
491.798	2929.13
492.168	2986.53
492.538	2994.67
492.908	3013.65
493.278	3018.85
493.648	3062.91
494.017	3087.09
494.387	3159.18
494.757	3134.32
495.126	3129.8
495.496	3167.77
495.866	3139.97
496.235	3228.56
496.605	3233.76
496.974	3205.96
497.344	3239.18
497.713	3250.93
498.082	3297.48
498.452	3281.89
498.821	3295.45
499.19	3322.57
499.559	3334.32
499.928	3345.17
500.298	3370.93
500.667	3396.01
501.036	3422.45
501.405	3432.17
501.774	3361.89
502.143	3469.68
502.512	3444.37
502.88	3478.5
503.249	3428.1
503.618	3509.23
503.987	3512.17
504.356	3509.46
504.724	3524.14
505.093	3526.86
505.462	3559.62
505.83	3540.87
506.199	3544.26
506.567	3636.46
506.936	3640.07
507.304	3609.79
507.672	3616.8
508.041	3633.52
508.409	3699.51
508.777	3650.47
509.145	3715.78
509.514	3706.96
509.882	3711.03
510.25	3720.52
510.618	3737.47
510.986	3740.64
511.354	3767.75
511.722	3765.27
512.09	3767.98
512.458	3792.16
512.826	3812.95
513.193	3840.75
513.561	3788.54
513.929	3869.9
514.297	3873.29
514.664	3895.66
515.032	3866.06
515.4	3880.29
515.767	3906.28
516.135	3914.87
516.502	3862.44
516.869	3949.22
517.237	3920.97
517.604	3954.64
517.972	3894.76
518.339	3967.75
518.706	3968.2
519.073	3946.05
519.44	3998.03
519.808	4024.24
520.175	3985.38
520.542	4033.06
520.909	4038.71
521.276	4036.67
521.643	4077.8
522.009	4063.34
522.376	4104.92
522.743	4117.58
523.11	4104.24
523.477	4164.35
523.843	4203.67
524.21	4188.53
524.577	4191.02
524.943	4240.51
525.31	4228.98
525.676	4247.74
526.043	4234.41
526.409	4309.89
526.776	4311.92
527.142	4342.88
527.508	4387.4
527.874	4399.6
528.241	4359.83
528.607	4393.5
528.973	4450.67
529.339	4473.95
529.705	4462.88
530.071	4490.22
530.437	4516.21
530.803	4551.46
531.169	4581.97
531.535	4534.51
531.901	4593.27
532.267	4579.26
532.632	4633.27
532.998	4621.29
533.364	4667.39
533.73	4712.14
534.095	4690.89
534.461	4714.17
534.826	4724.11
535.192	4763.89
535.557	4807.05
535.923	4771.12
536.288	4830.1
536.653	4832.81
537.019	4811.34
537.384	4899.7
537.749	4911.45
538.114	4902.87
538.479	4928.63
538.845	4971.34
539.21	4968.63
539.575	5020.38
539.94	4967.5
540.305	4981.73
540.67	5007.27
541.034	5058.12
541.399	5071.67
541.764	5107.15
542.129	5097.89
542.494	5130.66
542.858	5172.69
543.223	5178.56
543.587	5228.28
543.952	5186.93
544.316	5246.36
544.681	5262.86
545.045	5300.37
545.41	5302.63
545.774	5324.32
546.138	5365.68
546.503	5367.26
546.867	5367.03
547.231	5415.39
547.595	5391.21
547.959	5418.11
548.324	5478.44
548.688	5469.86
549.052	5470.99
549.416	5440.48
549.779	5515.05
550.143	5507.37
550.507	5547.37
550.871	5603.19
551.235	5516.63
551.599	5641.15
551.962	5616.97
552.326	5616.74
552.689	5699.23
553.053	5659.23
553.417	5691.55
553.78	5792.11
554.143	5703.3
554.507	5730.19
554.87	5801.82
555.234	5780.36
555.597	5765.44
555.96	5837.76
556.323	5817.64
556.686	5832.78
557.05	5873.46
557.413	5927.7
557.776	5918.21
558.139	5974.02
558.502	5908.94
558.865	5926.34
559.228	5949.17
559.59	6007.92
559.953	5971.76
560.316	6108.26
560.679	6076.62
561.041	6064.42
561.404	6125.43
561.767	6153
562.129	6119.1
562.492	6182.38
562.854	6174.24
563.217	6204.07
563.579	6199.33
563.941	6230.74
564.304	6259.67
564.666	6255.82
565.028	6312.32
565.39	6361.81
565.753	6350.74
566.115	6371.3
566.477	6345.54
566.839	6395.48
567.201	6488.13
567.563	6439.32
567.925	6503.28
568.287	6490.39
568.648	6533.33
569.01	6532.43
569.372	6601.58
569.734	6578.08
570.095	6622.37
570.457	6614.68
570.819	6676.15
571.18	6668.02
571.542	6749.6
571.903	6747.56
572.265	6759.77
572.626	6822.59
572.987	6886.09
573.349	6878.63
573.71	6988.91
574.071	7017.16
574.432	6981.23
574.794	7054.9
575.155	7110.72
575.516	7159.98
575.877	7211.96
576.238	7219.41
576.599	7304.38
576.96	7398.17
577.32	7452.63
577.681	7540.31
578.042	7564.72
578.403	7652.4
578.763	7726.52
579.124	7814.2
579.485	7938.27
579.845	8078.6
580.206	8178.94
580.566	8171.03
580.927	8306.17
581.287	8496.22
581.648	8542.77
582.008	8703.67
582.368	8811.69
582.728	8969.88
583.089	9099.59
583.449	9249.87
583.809	9356.99
584.169	9512.01
584.529	9709.52
584.889	9960.59
585.249	9982.73
585.609	10178.88
585.969	10439.89
586.329	10687.8
586.688	10805.31
587.048	11039.88
587.408	11216.82
587.768	11398.29
588.127	11679.41
588.487	11852.97
588.846	12138.83
589.206	12304.03
589.565	12590.35
589.925	12839.83
590.284	13102.65
590.643	13354.39
591.003	13667.15
591.362	13901.5
591.721	14198.44
592.08	14446.57
592.44	14801.14
592.799	15084.74
593.158	15295.81
593.517	15580.55
593.876	15916.36
594.235	16115.9
594.593	16383.47
594.952	16736.68
595.311	16971.25
595.67	17324.46
596.029	17615.07
596.387	17927.61
596.746	18269.75
597.104	18478.78
597.463	18838.77
597.822	19169.38
598.18	19229.04
598.538	19677.62
598.897	19957.84
599.255	20118.74
599.613	20742.9
599.972	20909.68
600.33	21199.84
600.688	21369.1
601.046	21696.77
601.404	22096.54
601.762	22272.58
602.12	22581.5
602.478	22824.2
602.836	23184.64
603.194	23323.17
603.552	23660.56
603.91	23786.89
604.268	24291.96
604.625	24421.45
604.983	24651.27
605.341	24821.21
605.698	25250.8
606.056	25442.66
606.413	25704.8
606.771	26013.27
607.128	26326.03
607.485	26385.01
607.843	26581.62
608.2	26940.03
608.557	27234.48
608.914	27416.17
609.272	27778.87
609.629	27961.02
609.986	28278.52
610.343	28339.31
610.7	28632.19
611.057	28777.72
611.414	29031.5
611.771	29160.31
612.127	29593.74
612.484	29626.28
612.841	29937.69
613.198	29932.49
613.554	30056.78
613.911	30620.83
614.267	30646.14
614.624	30699.48
614.98	31005.68
615.337	31197.09
615.693	31352.79
616.05	31407.48
616.406	31768.15
616.762	31637.98
617.118	32021.47
617.475	32084.98
617.831	32275.48
618.187	32318.42
618.543	32503.72
618.899	32866.42
619.255	32789.59
619.611	32935.57
619.967	33151.61
620.323	33394.55
620.678	33573.52
621.034	33286.75
621.39	33428.22
621.746	33547.54
622.101	34086.5
622.457	33840.18
622.812	34003.57
623.168	34118.14
623.523	34246.27
623.879	34403.78
624.234	34329.44
624.589	34479.71
624.945	34583.44
625.3	34806.49
625.655	34754.74
626.01	34872.92
626.365	35033.6
626.72	34987.95
627.075	34982.07
627.43	35094.16
627.785	35093.94
628.14	35241.05
628.495	35228.4
628.85	35264.78
629.205	35243.76
629.559	35545.22
629.914	35402.85
630.269	35530.31
630.623	35506.13
630.978	35502.06
631.332	35856.63
631.687	35781.6
632.041	35754.48
632.396	35784.31
632.75	35709.29
633.104	35956.96
633.459	35634.71
633.813	35721.94
634.167	35776.18
634.521	35737.99
634.875	35995.38
635.229	35939.11
635.583	35692.11
635.937	35861.37
636.291	35863.18
636.645	35762.39
636.999	35729.85
637.352	35972.56
637.706	35671.77
638.06	35987.92
638.413	35958.32
638.767	35824.99
639.121	35819.34
639.474	35749.96
639.828	35775.73
640.181	35749.74
640.534	35886.68
640.888	35787.25
641.241	35666.58
641.594	35860.47
641.947	35831.09
642.301	35811.43
642.654	35845.1
643.007	35887.81
643.36	35758.55
643.713	35828.15
644.066	35901.6
644.419	35535.73
644.771	35380.93
645.124	35187.94
645.477	35050.32
645.83	34939.82
646.182	34710.9
646.535	34811.91
646.888	34858.91
647.24	34628.41
647.593	34754.51
647.945	34850.78
648.298	34511.58
648.65	34514.29
649.002	34577.34
649.355	34662.31
649.707	34596.77
650.059	34678.81
650.411	35163.09
650.763	35133.48
651.115	35539.12
651.467	35414.61
651.819	35396.07
652.171	35335.29
652.523	35433.14
652.875	35272.46
653.227	35134.16
653.578	35565.79
653.93	35327.83
654.282	35196.31
654.633	35077.21
654.985	35200.83
655.337	35198.34
655.688	35258.9
656.039	35430.88
656.391	34970.32
656.742	35071.79
657.094	35113.6
657.445	35252.8
657.796	35183.65
658.147	35223.2
658.498	35144.33
658.849	35323.76
659.2	35143.88
659.551	35081.73
659.902	35198.34
660.253	35256.64
660.604	35209.41
660.955	35083.09
661.306	35265.91
661.656	35182.75
662.007	34990.21
662.358	35090.32
662.708	34984.56
663.059	34976.65
663.409	34966.03
663.76	35208.28
664.11	35043.09
664.461	35218.68
664.811	34978.68
665.161	35070.89
665.511	34951.34
665.862	35018.23
666.212	35096.2
666.562	35220.49
666.912	34981.17
667.262	34957.67
667.612	35057.55
667.962	34911.12
668.312	34942.3
668.662	35126.03
669.011	35040.38
669.361	34972.36
669.711	34932.36
670.06	34973.49
670.41	34819.37
670.76	34753.61
671.109	34959.7
671.459	34973.71
671.808	34803.32
672.157	34929.87
672.507	34708.86
672.856	34736.21
673.205	34799.03
673.554	34867.28
673.904	34663.66
674.253	34992.92
674.602	34779.37
674.951	34296.44
675.3	34183
675.649	34749.09
675.998	34721.06
676.346	34723.1
676.695	34711.57
677.044	34422.99
677.393	34681.97
677.741	34770.33
678.09	34500.73
678.438	34529.21
678.787	34526.04
679.135	34502.09
679.484	34340.96
679.832	34474.74
680.181	34306.61
680.529	34366.05
680.877	34252.15
681.225	34298.25
681.573	34498.92
681.922	34135.32
682.27	34126.05
682.618	34150.01
682.966	33950.46
683.314	34123.57
683.661	34022.1
684.009	33831.14
684.357	33761.99
684.705	33677.7
685.053	33963.57
685.4	33760.19
685.748	33730.81
686.095	33649.45
686.443	33366.75
686.79	33354.32
687.138	33497.82
687.485	33499.63
687.832	33316.58
688.18	33444.49
688.527	33353.19
688.874	33206.75
689.221	33180.31
689.568	33054.89
689.915	32993.65
690.262	33046.98
690.609	32903.26
690.956	32790.49
691.303	32723.38
691.65	32711.63
691.997	32602.25
692.344	32361.8
692.69	32364.97
693.037	32378.98
693.383	32268.02
693.73	32272.77
694.077	32062.83
694.423	32105.99
694.769	32024.41
695.116	31954.13
695.462	31937.18
695.808	31710.97
696.155	31834.81
696.501	31530.64
696.847	31639.34
697.193	31313.7
697.539	31549.4
697.885	31214.26
698.231	31129.07
698.577	31170.65
698.923	31204.32
699.269	30871.67
699.614	30825.35
699.96	30861.73
700.306	30958
700.651	30729.76
700.997	30540.61
701.342	30649.31
701.688	30560.04
702.033	30473.72
702.379	30483.66
702.724	30223.78
703.069	30409.99
703.415	29990.12
703.76	30025.14
704.105	30081.41
704.45	29993.73
704.795	29804.58
705.14	29698.15
705.485	29712.16
705.83	29697.69
706.175	29702.89
706.52	29530.69
706.865	29353.75
707.209	29373.41
707.554	29325.95
707.899	29397.36
708.243	29280.08
708.588	29169.8
708.932	29079.63
709.277	29085.73
709.621	28977.94
709.966	28758.96
710.31	28859.07
710.654	28618.63
710.998	28572.07
711.342	28726.42
711.687	28586.08
712.031	28398.97
712.375	28310.84
712.719	28387.67
713.063	28392.64
713.407	28454.79
713.75	28216.15
714.094	28188.58
714.438	28025.65
714.782	28074.01
715.125	27957.4
715.469	28030.84
715.812	27903.84
716.156	27661.59
716.499	27707.01
716.843	27781.13
717.186	27548.6
717.53	27664.3
717.873	27679.22
718.216	27534.81
718.559	27550.41
718.902	27287.36
719.246	27413.69
719.589	27302.5
719.932	27154.94
720.275	27240.58
720.617	27194.93
720.96	27172.56
721.303	27194.26
721.646	27126.01
721.989	26897.32
722.331	27099.8
722.674	26956.07
723.016	27005.79
723.359	26943.87
723.701	26928.5
724.044	26665.46
724.386	26740.48
724.729	26780.03
725.071	26713.82
725.413	26646.02
725.755	26629.75
726.097	26537.32
726.439	26315.86
726.782	26422.53
727.124	26524.9
727.465	26241.74
727.807	26426.14
728.149	26423.88
728.491	26162.65
728.833	26143.89
729.175	26095.08
729.516	26051.01
729.858	25992.71
730.199	25978.24
730.541	26046.94
730.882	25970.56
731.224	26138.24
731.565	25886.49
731.906	25754.07
732.248	25833.39
732.589	25738.25
732.93	25623.45
733.271	25501.19
733.612	25747.97
733.953	25663.45
734.294	25593.39
734.635	25522.89
734.976	25523.11
735.317	25557.46
735.658	25428.88
735.999	25415.09
736.339	25377.36
736.68	25390.01
737.021	25394.76
737.361	25297.81
737.702	25312.27
738.042	25227.98
738.383	25273.18
738.723	25290.8
739.063	25041.77
739.404	25138.94
739.744	25093.07
740.084	24960.87
740.424	24995.67
740.764	24912.51
741.104	25002.68
741.444	24869.35
741.784	24740.31
742.124	24797.26
742.464	24770.37
742.804	24657.83
743.143	24630.93
743.483	24704.15
743.823	24499.19
744.162	24674.32
744.502	24613.31
744.841	24428.91
745.181	24522.01
745.52	24437.49
745.86	24454.44
746.199	24388.45
746.538	24303.71
746.877	24447.44
747.216	24345.97
747.556	24175.35
747.895	24319.98
748.234	24120.44
748.573	24112.3
748.911	24086.99
749.25	24077.73
749.589	24011.52
749.928	23941.69
750.267	24001.57
750.605	23795.25
750.944	23917.96
751.283	23812.88
751.621	23898.3
751.96	23731.52
752.298	23676.61
752.636	23718.87
752.975	23521.81
753.313	23516.16
753.651	23614.24
753.989	23452.21
754.327	23392.32
754.666	23370.85
755.004	23340.57
755.342	23326.11
755.679	23313.45
756.017	23091.31
756.355	23275.72
756.693	23082.73
757.031	23196.85
757.368	23051.99
757.706	22876.63
758.044	22911.88
758.381	22901.94
758.719	22776.75
759.056	22747.59
759.394	22838.21
759.731	22574.27
760.068	22518
760.405	22484.1
760.743	22441.16
761.08	22366.36
761.417	22333.14
761.754	22194.39
762.091	22195.97
762.428	22119.81
762.765	22070.32
763.102	22031.68
763.438	21946.49
763.775	21779.71
764.112	21793.27
764.449	21832.14
764.785	21654.74
765.122	21530.9
765.458	21505.37
765.795	21537.68
766.131	21498.81
766.467	21358.48
766.804	21193.28
767.14	21233.06
767.476	21160.29
767.812	21086.39
768.148	21102.67
768.485	20956.23
768.821	20806.4
769.157	20873.74
769.492	20793.75
769.828	20711.94
770.164	20597.82
770.5	20517.37
770.836	20550.82
771.171	20433.98
771.507	20324.38
771.842	20233.76
772.178	20249.35
772.513	20082.13
772.849	20122.13
773.184	20009.13
773.519	20026.76
773.855	19824.73
774.19	19729.37
774.525	19738.86
774.86	19670.39
775.195	19604.85
775.53	19551.97
775.865	19508.13
776.2	19296.61
776.535	19279.89
776.87	19286.22
777.205	19113.34
777.539	19068.37
777.874	19070.63
778.209	18911.99
778.543	18896.17
778.878	18726
779.212	18731.65
779.547	18685.55
779.881	18599.45
780.215	18500.93
780.55	18597.42
780.884	18388.16
781.218	18438.1
781.552	18291.21
781.886	18275.85
782.22	18234.04
782.554	18142.29
782.888	18008.51
783.222	17938.68
783.556	17813.03
783.889	17818.46
784.223	17680.16
784.557	17603.1
784.89	17644.45
785.224	17595.64
785.557	17424.12
785.891	17435.64
786.224	17434.06
786.558	17325.82
786.891	17185.71
787.224	17131.02
787.557	17119.95
787.891	17065.94
788.224	17049.44
788.557	16984.13
788.89	16948.2
789.223	16953.17
789.556	16790.46
789.888	16625.5
790.221	16588.89
790.554	16543.69
790.887	16479.51
791.219	16438.83
791.552	16421.88
791.884	16375.56
792.217	16298.05
792.549	16322.45
792.882	16129.01
793.214	16067.54
793.546	16107.54
793.879	16033.42
794.211	15879.07
794.543	15957.04
794.875	15882.01
795.207	15951.84
795.539	15816.02
795.871	15835.46
796.203	15619.42
796.535	15634.56
796.867	15646.54
797.198	15532.42
797.53	15540.1
797.862	15464.17
798.193	15408.58
798.525	15279.77
798.856	15390.27
799.188	15210.62
799.519	15099.66
799.85	15167.23
800.182	15063.5
800.513	15051.98
800.844	14889.95
801.175	14933.34
801.506	14891.08
801.837	14850.4
802.168	14788.03
802.499	14768.59
802.83	14754.13
803.161	14676.39
803.491	14660.35
803.822	14588.49
804.153	14540.8
804.483	14395.95
804.814	14346.91
805.145	14320.02
805.475	14347.36
805.805	14296.29
806.136	14270.3
806.466	14257.42
806.796	14262.17
807.126	14033.92
807.457	14026.24
807.787	14128.39
808.117	13961.61
808.447	13957.32
808.777	13957.32
809.107	13918.67
809.436	13956.64
809.766	13864.66
810.096	13814.95
810.426	13771.11
810.755	13777.21
811.085	13720.71
811.414	13739.92
811.744	13635.52
812.073	13470.32
812.403	13638.45
812.732	13483.88
813.061	13467.39
813.39	13454.73
813.719	13349.42
814.049	13478.01
814.378	13407.27
814.707	13294.51
815.036	13292.93
815.365	13259.48
815.693	13203.21
816.022	13168.86
816.351	13130.22
816.68	12984.46
817.008	13098.13
817.337	12977.23
817.665	12979.49
817.994	12998.47
818.322	12915.31
818.651	12762.32
818.979	12829.44
819.307	12848.19
819.636	12866.95
819.964	12747.63
820.292	12796.9
820.62	12746.28
820.948	12717.35
821.276	12874.63
821.604	12738.82
821.932	12685.71
822.259	12751.7
822.587	12688.65
822.915	12691.81
823.243	12641.42
823.57	12608.65
823.898	12680.06
824.225	12627.86
824.553	12640.06
824.88	12636.22
825.207	12713.28
825.535	12624.02
825.862	12648.65
826.189	12642.55
826.516	12656.33
826.843	12706.95
827.17	12614.53
827.497	12664.02
827.824	12753.73
828.151	12656.11
828.478	12664.24
828.805	12710.57
829.131	12615.88
829.458	12564.36
829.785	12561.65
830.111	12597.58
830.438	12676.9
830.764	12617.69
831.09	12531.37
831.417	12552.16
831.743	12551.93
832.069	12547.64
832.395	12522.33
832.722	12642.32
833.048	12449.79
833.374	12602.55
833.7	12416.34
834.026	12490.69
834.351	12623.11
834.677	12530.91
835.003	12462.44
835.329	12453.63
835.654	12420.41
835.98	12344.93
836.306	12444.14
836.631	12322.11
836.956	12416.34
837.282	12400.52
837.607	12317.13
837.932	12326.17
838.258	12261.77
838.583	12264.25
838.908	12207.08
839.233	12260.64
839.558	12158.95
839.883	12142.68
840.208	12163.69
840.533	12048.89
840.858	12217.25
841.182	12102.68
841.507	12067.42
841.832	12019.97
842.156	12023.58
842.481	12023.36
842.805	12016.8
843.13	11926.64
843.454	11923.92
843.778	11874.89
844.103	11858.39
844.427	11813.87
844.751	11815.9
845.075	11783.59
845.399	11722.8
845.723	11682.12
846.047	11684.61
846.371	11635.34
846.695	11559.19
847.019	11384.95
847.343	11438.74
847.666	11444.16
847.99	11362.13
848.313	11370.27
848.637	11290.27
848.96	11242.13
849.284	11203.04
849.607	11101.12
849.931	11077.84
850.254	11006.66
850.577	10988.36
850.9	10934.57
851.223	10916.94
851.546	10809.15
851.869	10777.06
852.192	10787.91
852.515	10766.21
852.838	10691.87
853.161	10656.16
853.483	10562.38
853.806	10571.19
854.129	10572.09
854.451	10531.42
854.774	10504.07
855.096	10423.17
855.419	10410.52
855.741	10335.04
856.063	10335.49
856.385	10329.84
856.708	10262.72
857.03	10170.52
857.352	10205.32
857.674	10282.61
857.996	10207.36
858.318	10077.87
858.64	10128.94
858.961	10100.92
859.283	9992
859.605	10003.97
859.926	9972.11
860.248	10018.21
860.57	9911.77
860.891	9958.33
861.212	9899.12
861.534	9855.5
861.855	9774.6
862.176	9922.85
862.498	9863.64
862.819	9826.35
863.14	9782.96
863.461	9750.65
863.782	9714.26
864.103	9750.42
864.424	9680.59
864.745	9750.42
865.065	9703.64
865.386	9627.04
865.707	9701.61
866.027	9626.81
866.348	9621.61
866.668	9595.62
866.989	9572.8
867.309	9510.88
867.63	9542.52
867.95	9532.35
868.27	9468.62
868.59	9455.97
868.91	9413.48
869.23	9429.3
869.55	9492.8
869.87	9482.18
870.19	9408.06
870.51	9365.8
870.83	9362.64
871.15	9310.21
871.469	9399.24
871.789	9413.71
872.109	9340.26
872.428	9266.14
872.748	9295.74
873.067	9257.78
873.386	9323.77
873.706	9283.32
874.025	9228.18
874.344	9211.68
874.663	9207.84
874.982	9182.53
875.301	9152.7
875.62	9163.54
875.939	9074.73
876.258	9151.57
876.577	9091.23
876.896	9028.63
877.214	8996.09
877.533	9063.43
877.852	9044.68
878.17	8985.02
878.489	9039.48
878.807	8974.4
879.125	8976.43
879.444	8975.07
879.762	8885.36
880.08	8960.61
880.398	8921.74
880.716	8928.97
881.034	8839.49
881.352	8814.4
881.67	8806.27
881.988	8858.24
882.306	8770.33
882.624	8750.67
882.941	8719.26
883.259	8731.92
883.577	8748.41
883.894	8715.42
884.212	8606.04
884.529	8661.41
884.846	8690.34
885.164	8597.23
885.481	8570.79
885.798	8624.8
886.115	8528.31
886.432	8483.34
886.75	8491.25
887.067	8496.22
887.383	8514.75
887.7	8514.07
888.017	8411.7
888.334	8468.87
888.651	8350.46
888.967	8338.26
889.284	8298.93
889.6	8368.76
889.917	8272.27
890.233	8319.05
890.55	8207.41
890.866	8220.29
891.182	8214.42
891.498	8209.45
891.815	8185.04
892.131	8106.85
892.447	8056.68
892.763	8103.01
893.079	8040.41
893.395	8012.84
893.71	8010.13
894.026	8037.92
894.342	7958.6
894.657	7923.35
894.973	7940.75
895.289	7926.97
895.604	7882.9
895.92	7864.14
896.235	7877.02
896.55	7772.39
896.865	7804.26
897.181	7710.02
897.496	7776.69
897.811	7689.91
898.126	7671.15
898.441	7652.17
898.756	7614.43
899.071	7571.04
899.386	7558.39
899.7	7515.68
900.015	7491.5
900.33	7463.02
900.644	7440.2
900.959	7441.56
901.273	7370.37
901.588	7340.54
901.902	7349.58
902.216	7337.38
902.531	7264.84
902.845	7295.57
903.159	7214.22
903.473	7179.87
903.787	7142.35
904.101	7143.71
904.415	7159.08
904.729	7077.5
905.042	7045.86
905.356	7066.88
905.67	7038.18
905.984	6978.74
906.297	6955.69
906.611	6934.9
906.924	6992.98
907.237	6861.91
907.551	6903.94
907.864	6865.3
908.177	6847
908.491	6815.13
908.804	6727
909.117	6798.63
909.43	6750.05
909.743	6707.11
910.056	6680.45
910.368	6672.99
910.681	6576.27
910.994	6542.37
911.307	6577.17
911.619	6482.03
911.932	6533.11
912.244	6486.78
912.557	6426.22
912.869	6378.08
913.181	6403.62
913.494	6388.02
913.806	6303.05
914.118	6334.24
914.43	6277.29
914.742	6267.35
915.054	6227.35
915.366	6183.28
915.678	6146.45
915.99	6128.82
916.302	6135.15
916.613	6095.38
916.925	6075.26
917.236	6082.04
917.548	6002.95
917.859	6051.31
918.171	5990.07
918.482	6002.95
918.794	5912.56
919.105	5953.01
919.416	5821.71
919.727	5861.71
920.038	5865.33
920.349	5808.6
920.66	5829.62
920.971	5721.83
921.282	5756.85
921.593	5703.07
921.903	5675.73
922.214	5738.78
922.525	5686.12
922.835	5608.16
923.146	5599.34
923.456	5601.83
923.767	5528.39
924.077	5588.95
924.387	5502.62
924.697	5512.34
925.008	5477.31
925.318	5467.6
925.628	5507.82
925.938	5402.97
926.248	5397.54
926.558	5313.7
926.867	5343.76
927.177	5328.84
927.487	5256.08
927.796	5250.88
928.106	5281.16
928.416	5229.41
928.725	5219.02
929.034	5198.22
929.344	5163.2
929.653	5142.86
929.962	5077.78
930.271	5108.51
930.581	5069.19
930.89	5083.88
931.199	5056.08
931.508	5037.1
931.817	5013.37
932.125	4947.61
932.434	4950.55
932.743	4920.04
933.051	4889.53
933.36	4849.99
933.669	4846.14
933.977	4837.1
934.286	4794.85
934.594	4790.33
934.902	4750.55
935.21	4771.12
935.519	4749.2
935.827	4685.02
936.135	4684.57
936.443	4656.09
936.751	4658.8
937.059	4669.88
937.367	4576.77
937.674	4586.49
937.982	4583.1
938.29	4548.75
938.597	4576.77
938.905	4540.16
939.213	4479.37
939.52	4487.96
939.827	4484.8
940.135	4446.83
940.442	4420.62
940.749	4367.96
941.056	4405.93
941.363	4357.34
941.67	4361.86
941.977	4300.85
942.284	4331.36
942.591	4303.33
942.898	4303.11
943.205	4292.49
943.511	4251.81
943.818	4247.97
944.125	4191.92
944.431	4177.69
944.738	4176.33
945.044	4162.77
945.35	4111.02
945.657	4140.63
945.963	4084.36
946.269	4078.03
946.575	4087.97
946.881	4054.3
947.187	4051.59
947.493	4027.41
947.799	3998.48
948.105	3993.74
948.41	3953.29
948.716	3960.07
949.022	3921.2
949.327	3900.86
949.633	3864.02
949.938	3892.04
950.244	3886.17
950.549	3848.2
950.854	3822.67
951.16	3771.82
951.465	3751.26
951.77	3772.5
952.075	3738.15
952.38	3773.63
952.685	3738.6
952.99	3719.85
953.294	3686.17
953.599	3665.38
953.904	3656.8
954.209	3652.95
954.513	3631.03
954.818	3676.01
955.122	3611.37
955.426	3572.96
955.731	3584.48
956.035	3529.12
956.339	3537.93
956.643	3575.44
956.948	3478.27
957.252	3471.72
957.556	3492.73
957.86	3456.35
958.163	3447.08
958.467	3428.33
958.771	3415.45
959.075	3437.14
959.378	3407.09
959.682	3371.15
959.985	3353.53
960.289	3351.04
960.592	3369.8
960.896	3334.55
961.199	3329.8
961.502	3319.18
961.805	3263.81
962.108	3269.01
962.411	3283.47
962.714	3236.69
963.017	3240.99
963.32	3244.83
963.623	3232.85
963.926	3214.77
964.228	3144.95
964.531	3150.14
964.833	3165.06
965.136	3113.99
965.438	3113.08
965.741	3111.95
966.043	3102.91
966.345	3094.78
966.648	3072.18
966.95	3050.48
967.252	3024.72
967.554	3008.45
967.856	3033.76
968.158	2975.91
968.46	2959.87
968.761	2998.28
969.063	2984.5
969.365	2976.81
969.666	2934.33
969.968	2904.27
970.269	2871.28
970.571	2900.43
970.872	2890.49
971.174	2841.68
971.475	2904.95
971.776	2829.25
972.077	2819.98
972.378	2826.54
972.679	2821.11
972.98	2809.36
973.281	2769.81
973.582	2774.79
973.883	2742.24
974.183	2741.34
974.484	2755.35
974.785	2736.37
975.085	2723.04
975.386	2755.13
975.686	2730.95
975.986	2696.82
976.287	2644.85
976.587	2656.14
976.887	2646.2
977.187	2683.94
977.487	2629.03
977.787	2605.52
978.087	2607.56
978.387	2610.04
978.687	2612.98
978.987	2563.94
979.286	2569.14
979.586	2590.61
979.885	2541.8
980.185	2520.56
980.484	2500.67
980.784	2516.26
981.083	2506.32
981.382	2475.58
981.682	2469.48
981.981	2441.01
982.28	2424.06
982.579	2413.21
982.878	2435.36
983.177	2405.3
983.475	2388.81
983.774	2397.17
984.073	2386.1
984.372	2368.02
984.67	2377.06
984.969	2358.53
985.267	2379.54
985.566	2342.93
985.864	2365.53
986.162	2312.2
986.461	2330.96
986.759	2292.76
987.057	2278.08
987.355	2273.78
987.653	2264.74
987.951	2241.69
988.249	2249.38
988.547	2248.47
988.844	2265.42
989.142	2187.46
989.44	2226.78
989.737	2196.95
990.035	2170.96
990.332	2172.09
990.63	2169.83
990.927	2166.44
991.224	2176.16
991.521	2113.56
991.819	2100.23
992.116	2133.22
992.413	2102.94
992.71	2107.23
993.006	2097.06
993.303	2114.46
993.6	2073.56
993.897	2078.98
994.193	2044.86
994.49	2075.37
994.787	2045.77
995.083	1998.31
995.379	2024.75
995.676	2003.28
995.972	2015.94
996.268	1985.88
996.565	1980.46
996.861	1960.34
997.157	1964.86
997.453	1957.18
997.749	1915.6
998.044	1920.8
998.34	1921.7
998.636	1902.04
998.932	1909.5
999.227	1884.19
999.523	1869.5
999.818	1856.17
1000.114	1853.91
1000.409	1847.8
1000.704	1848.26
1001	1841.93
1001.295	1806.45
1001.59	1827.92
1001.885	1823.85
1002.18	1794.92
1002.475	1764.64
1002.77	1776.85
1003.065	1740.01
1003.359	1778.2
1003.654	1737.75
1003.949	1746.34
1004.243	1705.44
1004.538	1716.96
1004.832	1735.49
1005.127	1693.68
1005.421	1696.85
1005.715	1702.72
1006.009	1690.52
1006.304	1653.91
1006.598	1670.18
1006.892	1638.54
1007.186	1636.51
1007.48	1630.64
1007.773	1623.86
1008.067	1632.67
1008.361	1614.59
1008.655	1602.61
1008.948	1568.49
1009.242	1563.97
1009.535	1583.63
1009.829	1547.25
1010.122	1508.15
1010.415	1543.18
1010.708	1536.4
1011.001	1540.92
1011.295	1511.09
1011.588	1521.49
1011.881	1500.47
1012.173	1490.07
1012.466	1457.31
1012.759	1477.19
1013.052	1474.48
1013.344	1479.45
1013.637	1446.23
1013.93	1444.43
1014.222	1456.63
1014.514	1443.97
1014.807	1429.51
1015.099	1405.78
1015.391	1403.97
1015.683	1416.63
1015.976	1382.28
1016.268	1361.94
1016.56	1390.64
1016.851	1354.94
1017.143	1370.08
1017.435	1359.91
1017.727	1350.19
1018.018	1332.56
1018.31	1309.74
1018.602	1308.38
1018.893	1345.67
1019.185	1304.77
1019.476	1298.44
1019.767	1293.69
1020.058	1282.17
1020.35	1278.55
1020.641	1273.58
1020.932	1252.11
1021.223	1253.92
1021.514	1232.45
1021.804	1205.79
1022.095	1196.75
1022.386	1204.66
1022.677	1196.52
1022.967	1173.7
1023.258	1209.4
1023.548	1189.29
1023.839	1205.11
1024.129	1175.51
1024.419	1144.09
1024.709	1165.34
1025	1136.64
1025.29	1161.72
1025.58	1128.28
1025.87	1104.32
1026.16	1115.17
1026.449	1161.27
1026.739	1094.83
1027.029	1103.19
1027.319	1098.67
1027.608	1113.13
1027.898	1096.64
1028.187	1086.02
1028.477	1073.36
1028.766	1050.76
1029.055	1034.04
1029.344	1047.83
1029.634	1060.71
1029.923	1036.53
1030.212	1019.58
1030.501	1026.58
1030.79	1039.69
1031.078	1010.76
1031.367	1015.28
1031.656	985
1031.945	1018.45
1032.233	993.82
1032.522	992.23
1032.81	997.66
1033.099	963.31
1033.387	973.93
1033.675	946.81
1033.963	947.72
1034.251	960.37
1034.54	946.13
1034.828	955.17
1035.116	905.23
1035.403	933.03
1035.691	932.35
1035.979	912.69
1036.267	921.5
1036.554	898
1036.842	883.54
1037.129	917.21
1037.417	879.02
1037.704	866.59
1037.992	858.9
1038.279	864.78
1038.566	837.89
1038.853	837.89
1039.14	837.89
