Data from hue_60_FLMS001491_77.txt Node
Date: Mon Feb 06 15:17:54 GMT 2017
User: dcchb
Spectrometer: FLMS00149
Trigger mode: 0
Integration Time (sec): 2.000000E-2
Scans to average: 10
Electric dark correction enabled: true
Nonlinearity correction enabled: false
Boxcar width: 0
XAxis mode: Wavelengths
Number of Pixels in Spectrum: 2048
>>>>>Begin Spectral Data<<<<<
341.393	-15.1
341.776	-15.1
342.16	-15.1
342.543	-52.61
342.927	-97.13
343.31	-72.95
343.693	-76.11
344.077	-50.58
344.46	-53.06
344.843	-57.36
345.226	-30.69
345.61	-25.95
345.993	-20.07
346.376	-3.12
346.759	1.85
347.142	25.58
347.525	27.16
347.908	53.83
348.291	80.04
348.674	99.93
349.057	101.51
349.44	127.95
349.823	138.8
350.206	159.13
350.588	203.2
350.971	189.87
351.354	234.16
351.737	231.22
352.119	257.21
352.502	247.27
352.884	284.33
353.267	274.61
353.65	300.15
354.032	329.53
354.414	316.64
354.797	306.02
355.179	339.24
355.562	303.31
355.944	341.28
356.326	335.85
356.709	337.89
357.091	356.19
357.473	327.94
357.855	351.22
358.238	356.19
358.62	341.05
359.002	322.07
359.384	356.19
359.766	340.37
360.148	334.95
360.53	332.24
360.912	344.44
361.294	314.38
361.676	353.25
362.057	331.33
362.439	343.08
362.821	350.77
363.203	330.88
363.584	333.82
363.966	330.66
364.348	334.04
364.729	317.55
365.111	316.64
365.493	319.13
365.874	295.85
366.256	318.45
366.637	321.84
367.019	331.79
367.4	317.1
367.781	319.58
368.163	320.71
368.544	323.88
368.925	313.25
369.306	325.01
369.688	327.49
370.069	295.85
370.45	312.35
370.831	329.75
371.212	322.97
371.593	323.65
371.974	332.46
372.355	299.92
372.736	318.68
373.117	318.23
373.498	316.42
373.879	321.84
374.26	300.6
374.641	322.29
375.021	296.98
375.402	324.78
375.783	305.57
376.163	325.46
376.544	343.31
376.925	316.42
377.305	324.1
377.686	322.52
378.066	329.07
378.447	312.58
378.827	330.43
379.208	343.54
379.588	310.54
379.968	344.44
380.349	354.38
380.729	313.71
381.109	331.33
381.489	332.91
381.87	344.21
382.25	323.65
382.63	343.54
383.01	344.44
383.39	354.38
383.77	331.11
384.15	348.96
384.53	340.37
384.91	351.22
385.29	355.74
385.67	353.48
386.049	332.69
386.429	348.96
386.809	344.67
387.189	346.47
387.568	352.12
387.948	354.61
388.328	359.81
388.707	336.3
389.087	370.65
389.466	344.89
389.846	352.8
390.225	359.58
390.605	346.7
390.984	339.69
391.363	370.43
391.743	357.1
392.122	369.52
392.501	355.29
392.881	377.89
393.26	381.73
393.639	363.42
394.018	380.15
394.397	361.16
394.776	364.33
395.155	389.86
395.534	368.17
395.913	358
396.292	406.81
396.671	390.77
397.05	384.67
397.429	395.29
397.808	400.48
398.186	384.44
398.565	402.07
398.944	388.28
399.323	396.87
399.701	387.83
400.08	371.56
400.458	386.47
400.837	388.51
401.215	395.51
401.594	416.3
401.972	390.09
402.351	376.08
402.729	422.86
403.107	412.69
403.486	407.94
403.864	411.56
404.242	406.81
404.62	398.45
404.999	410.43
405.377	421.27
405.755	412.01
406.133	413.36
406.511	416.08
406.889	425.79
407.267	443.42
407.645	416.53
408.023	445
408.401	442.52
408.779	426.25
409.156	443.19
409.534	443.87
409.912	445.68
410.29	445.45
410.667	454.27
411.045	446.36
411.422	462.4
411.8	435.96
412.178	459.69
412.555	447.94
412.933	455.17
413.31	449.07
413.687	461.5
414.065	449.75
414.442	488.39
414.819	492.91
415.197	487.94
415.574	465.34
415.951	466.02
416.328	486.58
416.705	486.36
417.082	463.08
417.46	482.29
417.837	514.38
418.214	497.2
418.591	513.93
418.967	493.59
419.344	513.25
419.721	512.35
420.098	517.32
420.475	527.71
420.852	502.63
421.228	524.1
421.605	527.71
421.982	509.41
422.358	523.42
422.735	532.91
423.111	518.67
423.488	514.61
423.864	530.65
424.241	543.08
424.617	546.47
424.994	548.5
425.37	566.13
425.746	560.71
426.123	560.03
426.499	568.39
426.875	569.52
427.251	545.56
427.627	597.31
428.003	583.3
428.379	586.47
428.756	587.15
429.132	581.5
429.507	603.42
429.883	588.05
430.259	605.68
430.635	599.12
431.011	636.18
431.387	619.46
431.763	639.8
432.138	629.18
432.514	645.9
432.89	634.38
433.265	649.29
433.641	642.29
434.016	655.17
434.392	637.09
434.767	671.21
435.143	656.07
435.518	673.02
435.894	673.92
436.269	688.16
436.644	698.56
437.02	709.4
437.395	679.8
437.77	687.26
438.145	669.4
438.52	705.33
438.895	721.15
439.271	721.61
439.646	728.84
440.021	743.07
440.395	732
440.77	730.19
441.145	733.13
441.52	750.08
441.895	762.96
442.27	758.89
442.645	764.32
443.019	743.53
443.394	765.22
443.769	748.27
444.143	757.99
444.518	772.45
444.892	788.5
445.267	773.58
445.641	778.1
446.016	776.97
446.39	779
446.764	801.6
447.139	809.96
447.513	822.85
447.887	780.59
448.262	801.6
448.636	812.22
449.01	807.7
449.384	825.33
449.758	835.27
450.132	844.99
450.506	854.26
450.88	841.83
451.254	862.39
451.628	879.12
452.002	864.43
452.376	880.47
452.75	856.97
453.123	870.98
453.497	901.49
453.871	909.17
454.244	926.8
454.618	922.05
454.992	935.16
455.365	921.15
455.739	964.99
456.112	968.38
456.486	965.21
456.859	981.49
457.232	989.85
457.606	978.32
457.979	1025.1
458.352	998.66
458.725	1034.14
459.099	1021.26
459.472	1035.27
459.845	1079.34
460.218	1064.42
460.591	1082.05
460.964	1090.18
461.337	1129.73
461.71	1126.57
462.083	1132.89
462.456	1136.51
462.829	1136.51
463.201	1172.21
463.574	1179.45
463.947	1203.63
464.32	1240.01
464.692	1220.12
465.065	1230.52
465.438	1249.05
465.81	1266.45
466.183	1293.34
466.555	1333.11
466.928	1293.34
467.3	1328.14
467.672	1338.31
468.045	1382.15
468.417	1401.81
468.789	1428.48
469.161	1452.21
469.534	1452.89
469.906	1494.92
470.278	1537.86
470.65	1561.58
471.022	1558.87
471.394	1633.45
471.766	1608.59
472.138	1653.11
472.51	1713.9
472.882	1719.77
473.253	1739.88
473.625	1817.85
473.997	1861.91
474.369	1852.65
474.74	1928.13
475.112	1955.02
475.484	1993.66
475.855	2059.42
476.227	2077.05
476.598	2166.31
476.97	2223.49
477.341	2291.06
477.713	2356.14
478.084	2333.09
478.455	2456.25
478.827	2496.93
479.198	2599.97
479.569	2625.74
479.94	2757.48
480.311	2805.17
480.682	2895.79
481.053	2959.96
481.424	3057.59
481.795	3118.6
482.166	3266.17
482.537	3313.63
482.908	3444.47
483.279	3495.09
483.65	3623.45
484.021	3747.97
484.391	3859.83
484.762	3933.05
485.133	4024.8
485.503	4129.88
485.874	4265.69
486.244	4399.7
486.615	4473.37
486.985	4641.05
487.356	4783.87
487.726	4915.17
488.097	5050.53
488.467	5123.98
488.837	5296.4
489.207	5457.53
489.578	5626.34
489.948	5746.33
490.318	5889.38
490.688	5939.55
491.058	6188.35
491.428	6328.24
491.798	6466.99
492.168	6654.1
492.538	6807.1
492.908	6966.64
493.278	7118.73
493.648	7214.99
494.017	7420.86
494.387	7655.21
494.757	7707.41
495.126	7931.36
495.496	7996.22
495.866	8227.4
496.235	8393.95
496.605	8504.45
496.974	8696.99
497.344	8888.17
497.713	9009.75
498.082	9171.55
498.452	9265.11
498.821	9449.29
499.19	9583.07
499.559	9844.3
499.928	9888.14
500.298	10023.51
500.667	10230.06
501.036	10263.05
501.405	10493.33
501.774	10643.15
502.143	10790.72
502.512	10981.9
502.88	11135.34
503.249	11223.93
503.618	11344.15
503.987	11546.63
504.356	11649.68
504.724	11873.4
505.093	11911.59
505.462	12051.93
505.83	12159.27
506.199	12326.5
506.567	12563.33
506.936	12624.12
507.304	12949.08
507.672	13032.69
508.041	13130.09
508.409	13238.79
508.777	13373.02
509.145	13642.85
509.514	13584.54
509.882	13798.55
510.25	13905.89
510.618	14159.67
510.986	14208.48
511.354	14414.8
511.722	14571.18
512.09	14776.15
512.458	14795.59
512.826	14880.56
513.193	15118.51
513.561	15209.13
513.929	15421.33
514.297	15526.41
514.664	15698.39
515.032	15852.96
515.4	15963.24
515.767	16079.85
516.135	16204.59
516.502	16201.2
516.869	16494.98
517.237	16691.81
517.604	16614.29
517.972	16907.85
518.339	16971.35
518.706	17095.41
519.073	17209.08
519.44	17451.33
519.808	17572.24
520.175	17698.11
520.542	17861.95
520.909	18011.09
521.276	18047.7
521.643	18273.46
522.009	18411.08
522.376	18558.88
522.743	18722.49
523.11	18907.57
523.477	19025.3
523.843	19223.04
524.21	19371.28
524.577	19510.72
524.943	19573.54
525.31	19715.23
525.676	19975.56
526.043	20209.45
526.409	20257.81
526.776	20483.35
527.142	20507.75
527.508	20761.98
527.874	20958.14
528.241	21006.95
528.607	21040.62
528.973	21382.08
529.339	21391.34
529.705	21525.58
530.071	21699.36
530.437	21838.11
530.803	21955.4
531.169	22102.29
531.535	22088.5
531.901	22253.69
532.267	22329.85
532.632	22393.58
532.998	22577.75
533.364	22714.93
533.73	22813.23
534.095	22992.43
534.461	22951.98
534.826	23083.96
535.192	23182.26
535.557	23488.46
535.923	23457.73
536.288	23539.99
536.653	23639.42
537.019	23568.69
537.384	23740.21
537.749	23911.28
538.114	23954.21
538.479	23951.73
538.845	24144.04
539.21	24220.65
539.575	24191.04
539.94	24472.62
540.305	24526.18
540.67	24457.7
541.034	24616.8
541.399	24717.58
541.764	24803.23
542.129	24960.06
542.494	24898.14
542.858	25136.56
543.223	25118.93
543.587	25212.94
543.952	25267.17
544.316	25289.09
544.681	25411.35
545.045	25406.15
545.41	25661.74
545.774	25690.44
546.138	25794.62
546.503	25707.39
546.867	25893.15
547.231	26003.65
547.595	26216.53
547.959	26113.25
548.324	26208.17
548.688	26292.23
549.052	26365
549.416	26398.22
549.779	26534.71
550.143	26637.31
550.507	26815.83
550.871	26802.28
551.235	26795.5
551.599	27049.5
551.962	27110.74
552.326	27218.08
552.689	27371.53
553.053	27359.55
553.417	27351.41
553.78	27799.31
554.143	27663.72
554.507	27858.74
554.87	27834.11
555.234	28140.09
555.597	27920.44
555.96	28252.41
556.323	28342.12
556.686	28283.37
557.05	28522.23
557.413	28683.36
557.776	28614.21
558.139	28932.84
558.502	28900.53
558.865	28955.21
559.228	29279.27
559.59	29378.7
559.953	29373.06
560.316	29766.04
560.679	29628.42
561.041	29911.8
561.404	29980.72
561.767	30158.57
562.129	30040.83
562.492	30427.04
562.854	30520.82
563.217	30568.28
563.579	30514.27
563.941	30781.38
564.304	30953.8
564.666	31139.11
565.028	31056.85
565.39	31192.89
565.753	31458.65
566.115	31588.59
566.477	31786.1
566.839	31778.87
567.201	32036.94
567.563	32097.28
567.925	32328.46
568.287	32239.65
568.648	32430.6
569.01	32424.05
569.372	32844.83
569.734	32688
570.095	32783.59
570.457	33081.43
570.819	33118.49
571.18	33173.41
571.542	33338.83
571.903	33311.48
572.265	33567.07
572.626	33598.93
572.987	33652.72
573.349	33788.08
573.71	33875.31
574.071	34007.96
574.432	34062.2
574.794	34322.98
575.155	34209.76
575.516	34188.3
575.877	34336.77
576.238	34483.88
576.599	34590.09
576.96	34555.74
577.32	34678
577.681	34734.27
578.042	34771.33
578.403	34934.49
578.763	34928.62
579.124	34985.56
579.485	35189.4
579.845	35261.49
580.206	35169.29
580.566	35157.76
580.927	35209.96
581.287	35525.89
581.648	35302.39
582.008	35534.48
582.368	35347.59
582.728	35722.72
583.089	35466.91
583.449	35543.06
583.809	35638.65
584.169	35555.04
584.529	35501.93
584.889	35827.12
585.249	35467.36
585.609	35547.58
585.969	35661.93
586.329	35726.79
586.688	35750.06
587.048	35775.37
587.408	35654.25
587.768	35810.85
588.127	35769.27
588.487	35573.8
588.846	35913.67
589.206	35722.04
589.565	35678.65
589.925	36073.22
590.284	35892.21
590.643	35838.2
591.003	36067.57
591.362	36134.46
591.721	35981.92
592.08	35974.69
592.44	36078.64
592.799	36067.79
593.158	36118.41
593.517	35999.55
593.876	36072.09
594.235	36069.6
594.593	36069.15
594.952	36285.64
595.311	36180.11
595.67	36251.97
596.029	36519.99
596.387	36437.5
596.746	36631.62
597.104	36322.93
597.463	36369.71
597.822	36454.68
598.18	36463.94
598.538	36339.88
598.897	36703.94
599.255	36436.15
599.613	36792.3
599.972	36674.56
600.33	36823.25
600.688	36712.3
601.046	36803.14
601.404	36888.56
601.762	36821.9
602.12	36997.49
602.478	36945.06
602.836	37074.55
603.194	36918.17
603.552	37013.53
603.91	36885.63
604.268	37163.58
604.625	36916.13
604.983	37242.9
605.341	37073.87
605.698	37266.63
606.056	37301.21
606.413	37315.22
606.771	37471.37
607.128	37507.98
607.485	37369
607.843	37434.09
608.2	37691.03
608.557	37831.36
608.914	37578.49
609.272	37893.51
609.629	37894.87
609.986	38044.24
610.343	37933.06
610.7	38130.11
611.057	38155.2
611.414	38202.2
611.771	38148.64
612.127	38383.67
612.484	38339.15
612.841	38462.53
613.198	38340.96
613.554	38394.29
613.911	38729.87
614.267	38615.07
614.624	38750.21
614.98	38708.86
615.337	38807.61
615.693	38856.65
616.05	38824.33
616.406	39106.81
616.762	38928.06
617.118	39057.09
617.475	38901.39
617.831	39095.29
618.187	39200.14
618.543	39375.05
618.899	39467.25
619.255	39516.52
619.611	39305.22
619.967	39516.52
620.323	39545.22
620.678	39601.04
621.034	39491.21
621.39	39459.8
621.746	39369.18
622.101	39742.95
622.457	39526.01
622.812	39693.24
623.168	39758.54
623.523	39831.99
623.879	39878.09
624.234	39640.13
624.589	39745.44
624.945	39747.7
625.3	39993.79
625.655	39834.93
626.01	39935.49
626.365	39944.3
626.72	39962.83
627.075	40049.16
627.43	39963.96
627.785	39792.89
628.14	39955.38
628.495	39884.42
628.85	40049.61
629.205	39974.58
629.559	40124.19
629.914	40039.67
630.269	39966.68
630.623	39900.91
630.978	39884.42
631.332	40040.12
631.687	40093.45
632.041	39899.11
632.396	39934.59
632.75	39857.75
633.104	40062.04
633.459	39820.92
633.813	39888.49
634.167	39780.01
634.521	39786.11
634.875	39866.34
635.229	39775.04
635.583	39554.26
635.937	39701.37
636.291	39580.02
636.645	39688.49
636.999	39471.32
637.352	39653.01
637.706	39358.56
638.06	39661.15
638.413	39449.85
638.767	39269.74
639.121	39493.92
639.474	39292.12
639.828	39377.31
640.181	39452.34
640.534	39359.23
640.888	39269.29
641.241	39172.12
641.594	39161.95
641.947	39334.6
642.301	39221.61
642.654	39162.85
643.007	39195.4
643.36	39004.67
643.713	39049.41
644.066	39215.06
644.419	39003.76
644.771	38724.9
645.124	38381.63
645.477	38386.38
645.83	38210.56
646.182	37964.92
646.535	37828.88
646.888	37920.4
647.24	37678.6
647.593	37904.58
647.945	37876.56
648.298	37660.3
648.65	37714.76
649.002	37528.1
649.355	37661.2
649.707	37705.49
650.059	37958.59
650.411	38163.56
650.763	38193.84
651.115	38612.36
651.467	38577.11
651.819	38477.9
652.171	38337.11
652.523	38313.61
652.875	38428.86
653.227	38255.76
653.578	38490.78
653.93	38250.34
654.282	38317.45
654.633	38113.39
654.985	38280.39
655.337	38255.08
655.688	38072.26
656.039	38270
656.391	38024.81
656.742	38108.87
657.094	38005.82
657.445	38222.54
657.796	38058.48
658.147	38036.78
658.498	37935.54
658.849	38110.45
659.2	38022.55
659.551	37915.2
659.902	38025.71
660.253	37865.71
660.604	37905.26
660.955	37639.73
661.306	37913.17
661.656	37868.88
662.007	37834.75
662.358	37948.88
662.708	37926.5
663.059	37964.24
663.409	37613.06
663.76	37773.06
664.11	37868.2
664.461	37797.47
664.811	37874.98
665.161	37917.92
665.511	37787.3
665.862	37925.6
666.212	37778.03
666.562	37943.45
666.912	37723.12
667.262	37736.45
667.612	37734.87
667.962	37702.1
668.312	37755.89
668.662	37858.03
669.011	37708.43
669.361	37693.74
669.711	37755.21
670.06	37574.65
670.41	37608.32
670.76	37477.25
671.109	37618.04
671.459	37626.85
671.808	37494.88
672.157	37618.49
672.507	37420.3
672.856	37465.27
673.205	37588.43
673.554	37631.6
673.904	37491.71
674.253	37557.25
674.602	37543.01
674.951	36969.47
675.3	36910.94
675.649	37324.48
675.998	37345.5
676.346	37367.87
676.695	37405.16
677.044	37102.12
677.393	37378.27
677.741	37364.03
678.09	37189.57
678.438	37197.26
678.787	37154.77
679.135	37276.8
679.484	37096.92
679.832	37118.16
680.181	36879.07
680.529	36882.46
680.877	36861.22
681.225	36820.54
681.573	37073.64
681.922	36662.13
682.27	36678.4
682.618	36643.37
682.966	36567.22
683.314	36646.54
683.661	36548.23
684.009	36323.61
684.357	36275.02
684.705	36363.61
685.053	36285.64
685.4	36325.87
685.748	36062.15
686.095	36095.14
686.443	35872.55
686.79	35831.42
687.138	35883.39
687.485	35997.74
687.832	35671.87
688.18	35906.67
688.527	35561.82
688.874	35518.88
689.221	35562.5
689.568	35510.75
689.915	35416.74
690.262	35369.51
690.609	35252.9
690.956	35082.28
691.303	35114.83
691.65	34838.45
691.997	35095.62
692.344	34815.62
692.69	34766.13
693.037	34778.56
693.383	34612.01
693.73	34704.44
694.077	34509.42
694.423	34571.11
694.769	34436.88
695.116	34249.99
695.462	34224.68
695.808	34171.12
696.155	34165.7
696.501	33911.24
696.847	33919.83
697.193	33698.59
697.539	33939.04
697.885	33576.11
698.231	33460.18
698.577	33497.47
698.923	33458.37
699.269	33264.25
699.614	33121.66
699.96	33075.33
700.306	33010.7
700.651	32859.07
700.997	32683.7
701.342	32737.94
701.688	32694.55
702.033	32539.07
702.379	32555.12
702.724	32375.24
703.069	32434.67
703.415	32105.41
703.76	32195.58
704.105	32196.03
704.45	32073.78
704.795	31947.45
705.14	31791.97
705.485	31811.86
705.83	31598.08
706.175	31673.33
706.52	31568.25
706.865	31473.34
707.209	31462.04
707.554	31478.31
707.899	31437.41
708.243	31292.78
708.588	31236.06
708.932	31035.84
709.277	31047.36
709.621	31023.86
709.966	30778.22
710.31	30894.37
710.654	30712.91
710.998	30722.4
711.342	30724.43
711.687	30587.26
712.031	30500.94
712.375	30316.08
712.719	30359.47
713.063	30372.8
713.407	30410.09
713.75	30231.79
714.094	30302.97
714.438	30159.25
714.782	30108.4
715.125	29998.35
715.469	30039.25
715.812	29888.3
716.156	29729.43
716.499	29862.99
716.843	29800.39
717.186	29585.93
717.53	29780.05
717.873	29688.98
718.216	29540.96
718.559	29490.57
718.902	29201.53
719.246	29267.07
719.589	29089.45
719.932	29047.64
720.275	29044.25
720.617	29058.94
720.96	28999.96
721.303	28987.98
721.646	29074.76
721.989	28787.08
722.331	28825.5
722.674	28768.1
723.016	28786.4
723.359	28659.63
723.701	28736.01
724.044	28546.64
724.386	28363.36
724.729	28558.16
725.071	28465.51
725.413	28447.43
725.755	28467.77
726.097	28263.03
726.439	28126.99
726.782	28226.64
727.124	28203.82
727.465	28068.23
727.807	28086.08
728.149	28020.77
728.491	28094.9
728.833	27993.2
729.175	28008.35
729.516	27792.31
729.858	27840.89
730.199	27900.1
730.541	27803.83
730.882	27660.78
731.224	27830.27
731.565	27487.91
731.906	27599.09
732.248	27578.75
732.589	27416.5
732.93	27371.53
733.271	27441.58
733.612	27388.7
733.953	27447.91
734.294	27269.61
734.635	27204.3
734.976	27249.5
735.317	27113.45
735.658	27086.34
735.999	27104.41
736.339	27003.4
736.68	27140.35
737.021	27018.77
737.361	26810.18
737.702	27060.8
738.042	26881.82
738.383	26855.61
738.723	26898.09
739.063	26745.1
739.404	26843.4
739.744	26737.19
740.084	26739.23
740.424	26649.96
740.764	26573.58
741.104	26757.98
741.444	26451.78
741.784	26456.52
742.124	26463.53
742.464	26397.99
742.804	26400.93
743.143	26286.36
743.483	26277.32
743.823	26122.52
744.162	26118.9
744.502	26149.64
744.841	26069.64
745.181	26179.24
745.52	26033.26
745.86	26030.32
746.199	25974.95
746.538	25796.2
746.877	25932.92
747.216	25903.09
747.556	25883.2
747.895	25769.31
748.234	25637.79
748.573	25747.84
748.911	25636.66
749.25	25736.77
749.589	25577.45
749.928	25553.27
750.267	25540.16
750.605	25450.22
750.944	25431.24
751.283	25315.99
751.621	25433.27
751.96	25171.13
752.298	25184.01
752.636	25209.55
752.975	25068.54
753.313	24957.58
753.651	25074.19
753.989	24911.25
754.327	24812.27
754.666	24691.82
755.004	24787.87
755.342	24760.97
755.679	24750.58
756.017	24595.33
756.355	24604.37
756.693	24408.89
757.031	24512.84
757.368	24462.9
757.706	24267.43
758.044	24259.97
758.381	24263.81
758.719	24116.92
759.056	24113.53
759.394	23991.5
759.731	23933.42
760.068	23812.3
760.405	23704.73
760.743	23687.56
761.08	23761.45
761.417	23544.73
761.754	23667.89
762.091	23592.64
762.428	23443.49
762.765	23298.64
763.102	23430.39
763.438	23257.28
763.775	23134.12
764.112	23120.79
764.449	22995.82
764.785	22978.42
765.122	22777.75
765.458	22790.63
765.795	22744.08
766.131	22676.96
766.467	22567.58
766.804	22504.99
767.14	22410.3
767.476	22475.61
767.812	22367.59
768.148	22380.47
768.485	22222.06
768.821	22126.47
769.157	21958.11
769.492	22084.21
769.828	21988.62
770.164	21695.29
770.5	21625.24
770.836	21605.8
771.171	21577.78
771.507	21461.62
771.842	21419.82
772.178	21278.8
772.513	21328.75
772.849	21309.76
773.184	21203.33
773.519	21261.4
773.855	21106.15
774.19	21093.73
774.525	20912.94
774.86	20878.36
775.195	20712.27
775.53	20649.44
775.865	20689.22
776.2	20518.15
776.535	20476.11
776.87	20303.69
777.205	20223.69
777.539	20157.03
777.874	20169.23
778.209	20059.63
778.543	20073.64
778.878	19891.95
779.212	19866.86
779.547	19700.54
779.881	19673.2
780.215	19651.28
780.55	19661.9
780.884	19449.02
781.218	19452.86
781.552	19402.24
781.886	19334.22
782.22	19149.82
782.554	19106.88
782.888	18995.7
783.222	18952.09
783.556	18924.06
783.889	18790.73
784.223	18678.42
784.557	18615.82
784.89	18661.25
785.224	18558.88
785.557	18434.36
785.891	18451.76
786.224	18409.73
786.558	18378.99
786.891	18217.64
787.224	18107.59
787.557	18065.1
787.891	18035.5
788.224	18004.54
788.557	17954.82
788.89	17945.11
789.223	17875.73
789.556	17691.55
789.888	17717.32
790.221	17734.72
790.554	17567.72
790.887	17490.88
791.219	17491.79
791.552	17447.04
791.884	17350.55
792.217	17246.37
792.549	17117.56
792.882	17095.86
793.214	17085.47
793.546	17021.52
793.879	16967.96
794.211	16923.89
794.543	16962.99
794.875	16859.03
795.207	16829.88
795.539	16646.38
795.871	16797.79
796.203	16527.97
796.535	16465.15
796.867	16424.7
797.198	16498.59
797.53	16336.79
797.862	16330.91
798.193	16389.22
798.525	16129.56
798.856	16216.11
799.188	15995.33
799.519	16077.81
799.85	15847.31
800.182	15919.85
800.513	15850.93
800.844	15795.56
801.175	15874.43
801.506	15847.99
801.837	15692.51
802.168	15724.37
802.499	15615.9
802.83	15544.72
803.161	15561.44
803.491	15470.82
803.822	15478.51
804.153	15348.57
804.483	15232.18
804.814	15221.79
805.145	15242.35
805.475	15179.3
805.805	15122.13
806.136	15101.57
806.466	15052.08
806.796	15139.31
807.126	14966.88
807.457	14932.08
807.787	14940.67
808.117	14849.14
808.447	14788.58
808.777	14797.17
809.107	14715.14
809.436	14728.69
809.766	14775.02
810.096	14596.72
810.426	14563.05
810.755	14567.34
811.085	14554.01
811.414	14480.57
811.744	14336.39
812.073	14282.15
812.403	14297.97
812.732	14251.42
813.061	14202.38
813.39	14177.97
813.719	14155.83
814.049	14139.33
814.378	14090.52
814.707	14071.76
815.036	14016.62
815.365	14045.55
815.693	13892.33
816.022	13897.76
816.351	13830.87
816.68	13754.48
817.008	13737.08
817.337	13748.83
817.665	13695.73
817.994	13617.99
818.322	13613.47
818.651	13683.52
818.979	13515.62
819.307	13585.9
819.636	13567.14
819.964	13449.63
820.292	13479.69
820.62	13519.46
820.948	13439.01
821.276	13443.98
821.604	13422.29
821.932	13425.23
822.259	13435.85
822.587	13417.77
822.915	13361.95
823.243	13432.91
823.57	13395.85
823.898	13424.32
824.225	13343.19
824.553	13362.63
824.88	13348.84
825.207	13410.99
825.535	13390.2
825.862	13342.97
826.189	13281.28
826.516	13354.72
826.843	13364.44
827.17	13331.67
827.497	13428.39
827.824	13362.18
828.151	13461.16
828.478	13395.4
828.805	13384.55
829.131	13300.71
829.458	13253.03
829.785	13264.78
830.111	13225.91
830.438	13324.21
830.764	13339.58
831.09	13344.78
831.417	13254.16
831.743	13354.04
832.069	13253.93
832.395	13276.08
832.722	13266.59
833.048	13236.3
833.374	13305.91
833.7	13182.29
834.026	13145.69
834.351	13182.75
834.677	13216.42
835.003	13230.88
835.329	13160.15
835.654	13120.6
835.98	13076.08
836.306	13098
836.631	13041.06
836.956	13093.03
837.282	13046.25
837.607	12927.39
837.932	12874.96
838.258	12947.5
838.583	12929.42
838.908	12882.87
839.233	12913.15
839.558	12896.2
839.883	12850.1
840.208	12886.94
840.533	12812.36
840.858	12818.91
841.182	12812.59
841.507	12767.84
841.832	12682.87
842.156	12707.73
842.481	12683.1
842.805	12655.53
843.13	12542.31
843.454	12587.96
843.778	12481.52
844.103	12498.02
844.427	12378.25
844.751	12491.69
845.075	12375.54
845.399	12317.23
845.723	12361.07
846.047	12376.89
846.371	12173.73
846.695	12186.16
847.019	12141.42
847.343	12025.49
847.666	11972.83
847.99	11938.71
848.313	11952.04
848.637	11874.31
848.96	11819.84
849.284	11863.69
849.607	11754.54
849.931	11727.87
850.254	11570.81
850.577	11552.96
850.9	11506.18
851.223	11479.97
851.546	11431.61
851.869	11340.08
852.192	11414.43
852.515	11296.02
852.838	11296.02
853.161	11199.75
853.483	11224.38
853.806	11140.09
854.129	11126.53
854.451	11066.87
854.774	11030.71
855.096	11042.24
855.419	10958.17
855.741	10942.58
856.063	10895.58
856.385	10896.25
856.708	10853.54
857.03	10765.64
857.352	10778.06
857.674	10756.82
857.996	10764.28
858.318	10634.79
858.64	10729.03
858.961	10645.41
859.283	10645.64
859.605	10562.48
859.926	10551.4
860.248	10530.84
860.57	10513.44
860.891	10489.71
861.212	10412.88
861.534	10364.74
861.855	10381.24
862.176	10354.8
862.498	10312.31
862.819	10374.01
863.14	10290.17
863.461	10326.55
863.782	10187.8
864.103	10283.39
864.424	10287
864.745	10211.3
865.065	10097.86
865.386	10151.19
865.707	10111.19
866.027	10151.19
866.348	10125.43
866.668	10086.78
866.989	10084.3
867.309	9994.81
867.63	10051.53
867.95	10024.86
868.27	9935.15
868.59	9981.25
868.91	9933.34
869.23	9945.77
869.55	9869.16
869.87	9935.6
870.19	9873.68
870.51	9940.35
870.83	9909.84
871.15	9846.56
871.469	9852.21
871.789	9824.42
872.109	9843.63
872.428	9766.79
872.748	9774.02
873.067	9764.31
873.386	9749.39
873.706	9722.72
874.025	9644.08
874.344	9637.3
874.663	9667.58
874.982	9637.53
875.301	9642.73
875.62	9587.36
875.939	9585.55
876.258	9594.59
876.577	9469.17
876.896	9566.8
877.214	9455.84
877.533	9513.69
877.852	9414.94
878.17	9490.87
878.489	9425.78
878.807	9437.53
879.125	9427.82
879.444	9436.63
879.762	9306.69
880.08	9443.18
880.398	9340.59
880.716	9378.1
881.034	9349.4
881.352	9355.28
881.67	9334.94
881.988	9346.01
882.306	9275.73
882.624	9253.36
882.941	9216.98
883.259	9152.57
883.577	9205.9
883.894	9162.51
884.212	9123.87
884.529	9097.88
884.846	9104.89
885.164	9101.95
885.481	9028.73
885.798	9119.35
886.115	8970.88
886.432	8962.52
886.75	8952.8
887.067	8986.92
887.383	8950.09
887.7	8869.41
888.017	8912.12
888.334	8885.01
888.651	8890.43
888.967	8842.52
889.284	8756.87
889.6	8727.72
889.917	8682.07
890.233	8672.13
890.55	8637.1
890.866	8736.76
891.182	8678.01
891.498	8564.34
891.815	8585.81
892.131	8554.17
892.447	8572.02
892.763	8495.64
893.079	8471.68
893.395	8484.11
893.71	8393.27
894.026	8388.75
894.342	8422.19
894.657	8340.84
894.973	8319.6
895.289	8392.59
895.604	8284.8
895.92	8221.75
896.235	8195.31
896.55	8212.71
896.865	8220.39
897.181	8119.83
897.496	8162.77
897.811	8074.86
898.126	8084.35
898.441	8043.67
898.756	8038.7
899.071	7994.41
899.386	7982.66
899.7	7926.39
900.015	7931.81
900.33	7782.66
900.644	7774.53
900.959	7834.64
901.273	7860.63
901.588	7772.95
901.902	7730.46
902.216	7679.16
902.531	7672.16
902.845	7605.04
903.159	7592.84
903.473	7548.09
903.787	7499.05
904.101	7452.05
904.415	7492.05
904.729	7471.03
905.042	7478.49
905.356	7382.22
905.67	7370.24
905.984	7386.97
906.297	7360.3
906.611	7294.09
906.924	7264.26
907.237	7201.43
907.551	7269.91
907.864	7256.8
908.177	7199.63
908.491	7211.38
908.804	7106.07
909.117	7115.56
909.43	6986.98
909.743	7109.23
910.056	7000.99
910.368	6959.18
910.681	6935.68
910.994	6942.01
911.307	6861.33
911.619	6822.91
911.932	6818.62
912.244	6810.71
912.557	6776.36
912.869	6763.93
913.181	6701.11
913.494	6689.36
913.806	6692.07
914.118	6632.41
914.43	6610.72
914.742	6613.43
915.054	6541.34
915.366	6512.64
915.678	6512.64
915.99	6422.47
916.302	6462.47
916.613	6412.98
916.925	6404.17
917.236	6374.34
917.548	6376.37
917.859	6325.53
918.171	6335.02
918.482	6264.96
918.794	6229.94
919.105	6177.06
919.416	6139.09
919.727	6190.61
920.038	6129.82
920.349	6096.83
920.66	6053.22
920.971	6041.47
921.282	6103.84
921.593	5989.04
921.903	5983.39
922.214	5969.15
922.525	5935.71
922.835	5919.43
923.146	5879.66
923.456	5869.49
923.767	5802.6
924.077	5839.44
924.387	5803.28
924.697	5744.98
925.008	5743.62
925.318	5694.58
925.628	5704.98
925.938	5714.47
926.248	5659.78
926.558	5610.29
926.867	5564.42
927.177	5612.32
927.487	5564.64
927.796	5526.9
928.106	5542.27
928.416	5490.52
928.725	5480.35
929.034	5413.23
929.344	5457.07
929.653	5424.76
929.962	5380.24
930.271	5334.82
930.581	5295.95
930.89	5308.83
931.199	5248.94
931.508	5257.98
931.817	5226.12
932.125	5204.65
932.434	5177.99
932.743	5152.68
933.051	5143.41
933.36	5109.74
933.669	5079.68
933.977	5091.43
934.286	5072.45
934.594	5043.07
934.902	4996.07
935.21	4987.93
935.519	4982.06
935.827	4963.75
936.135	4941.83
936.443	4869.97
936.751	4930.99
937.059	4871.1
937.367	4844.21
937.674	4847.82
937.982	4808.5
938.29	4796.3
938.597	4744.32
938.905	4728.96
939.213	4711.78
939.52	4669.52
939.827	4693.03
940.135	4680.6
940.442	4631.11
940.749	4630.43
941.056	4647.38
941.363	4540.04
941.67	4566.7
941.977	4519.7
942.284	4527.83
942.591	4547.49
942.898	4514.73
943.205	4508.85
943.511	4426.82
943.818	4493.71
944.125	4418.01
944.431	4391.34
944.738	4403.32
945.044	4379.59
945.35	4284.22
945.657	4310.44
945.963	4324.9
946.269	4263.66
946.575	4282.64
946.881	4276.09
947.187	4217.33
947.493	4190.44
947.799	4215.3
948.105	4155.64
948.41	4158.13
948.716	4139.37
949.022	4133.27
949.327	4105.47
949.633	4088.97
949.938	4127.39
950.244	4095.3
950.549	4039.48
950.854	3989.09
951.16	4015.53
951.465	3987.73
951.77	3952.48
952.075	3943.89
952.38	3913.39
952.685	3938.02
952.99	3905.25
953.294	3865.48
953.599	3882.43
953.904	3874.97
954.209	3844.91
954.513	3827.96
954.818	3776.44
955.122	3794.07
955.426	3779.83
955.731	3769.66
956.035	3740.73
956.339	3736.67
956.643	3728.31
956.948	3680.17
957.252	3665.71
957.556	3668.19
957.86	3596.11
958.163	3634.98
958.467	3614.41
958.771	3656.67
959.075	3580.29
959.378	3577.8
959.682	3526.05
959.985	3506.39
960.289	3557.01
960.592	3499.61
960.896	3476.34
961.199	3495.77
961.502	3456.22
961.805	3393.17
962.108	3401.76
962.411	3399.73
962.714	3379.39
963.017	3376
963.32	3333.06
963.623	3343.68
963.926	3363.57
964.228	3332.84
964.531	3306.17
964.833	3284.48
965.136	3253.74
965.438	3262.33
965.741	3220.75
966.043	3198.15
966.345	3219.39
966.648	3224.14
966.95	3194.99
967.252	3185.27
967.554	3180.3
967.856	3162.67
968.158	3144.37
968.46	3091.49
968.761	3096.01
969.063	3082.9
969.365	3081.32
969.666	3076.12
969.968	3064.14
970.269	3042.22
970.571	3016.69
970.872	2982.79
971.174	3011.49
971.475	2950.93
971.776	2997.03
972.077	2951.83
972.378	2932.39
972.679	2911.6
972.98	2966.74
973.281	2962.9
973.582	2902.11
973.883	2905.05
974.183	2889.91
974.484	2871.61
974.785	2856.69
975.085	2830.93
975.386	2820.53
975.686	2790.48
975.986	2812.85
976.287	2832.51
976.587	2745.96
976.887	2757.26
977.187	2770.37
977.487	2751.16
977.787	2722.68
978.087	2700.76
978.387	2711.61
978.687	2689.24
978.987	2665.73
979.286	2627.32
979.586	2647.2
979.885	2645.62
980.185	2621.44
980.484	2635.68
980.784	2630.26
981.083	2614.89
981.382	2589.35
981.682	2575.12
981.981	2587.54
982.28	2555.68
982.579	2535.57
982.878	2545.74
983.177	2546.19
983.475	2532.86
983.774	2491.95
984.073	2482.91
984.372	2457.6
984.67	2469.13
984.969	2458.06
985.267	2443.82
985.566	2449.47
985.864	2426.87
986.162	2431.16
986.461	2401.56
986.759	2371.51
987.057	2346.42
987.355	2395.46
987.653	2380.77
987.951	2352.3
988.249	2349.36
988.547	2361.34
988.844	2326.99
989.142	2333.77
989.44	2301.22
989.737	2286.08
990.035	2317.72
990.332	2299.64
990.63	2249.47
990.927	2228.01
991.224	2229.81
991.521	2238.18
991.819	2235.24
992.116	2212.19
992.413	2195.69
992.71	2157.73
993.006	2187.56
993.303	2164.73
993.6	2165.64
993.897	2144.39
994.193	2135.81
994.49	2151.85
994.787	2139.65
995.083	2097.61
995.379	2134.22
995.676	2049.93
995.972	2078.18
996.268	2045.86
996.565	2020.1
996.861	2039.08
997.157	2021.68
997.453	2046.77
997.749	2014.68
998.044	1996.83
998.34	1979.2
998.636	1984.62
998.932	1971.06
999.227	1967.67
999.523	1955.02
999.818	1969.48
1000.114	1935.13
1000.409	1897.17
1000.704	1913.21
1001	1883.16
1001.295	1906.66
1001.59	1881.35
1001.885	1894.68
1002.18	1869.6
1002.475	1856.72
1002.77	1856.94
1003.065	1844.97
1003.359	1808.58
1003.654	1847.9
1003.949	1825.08
1004.243	1813.33
1004.538	1796.61
1004.832	1798.64
1005.127	1800.45
1005.421	1770.84
1005.715	1742.6
1006.009	1739.43
1006.304	1740.79
1006.598	1728.81
1006.892	1741.47
1007.186	1689.72
1007.48	1705.31
1007.773	1674.12
1008.067	1664.41
1008.361	1646.33
1008.655	1655.14
1008.948	1627.8
1009.242	1608.36
1009.535	1638.64
1009.829	1623.73
1010.122	1604.52
1010.415	1624.41
1010.708	1600.68
1011.001	1570.85
1011.295	1568.59
1011.588	1561.36
1011.881	1546.22
1012.173	1541.7
1012.466	1546.22
1012.759	1550.96
1013.052	1531.53
1013.344	1496.27
1013.637	1512.32
1013.93	1484.75
1014.222	1498.31
1014.514	1475.71
1014.807	1465.99
1015.099	1458.08
1015.391	1465.31
1015.683	1445.43
1015.976	1442.04
1016.268	1426.9
1016.56	1418.08
1016.851	1420.34
1017.143	1415.15
1017.435	1399.1
1017.727	1403.62
1018.018	1377.63
1018.31	1361.59
1018.602	1373.34
1018.893	1348.93
1019.185	1355.71
1019.476	1321.82
1019.767	1325.43
1020.058	1320.46
1020.35	1303.28
1020.641	1319.1
1020.932	1315.71
1021.223	1298.77
1021.514	1299.44
1021.804	1254.7
1022.095	1244.53
1022.386	1252.21
1022.677	1255.6
1022.967	1230.97
1023.258	1248.82
1023.548	1190.97
1023.839	1218.09
1024.129	1220.8
1024.419	1211.76
1024.709	1209.5
1025	1197.3
1025.29	1165.89
1025.58	1187.36
1025.87	1195.94
1026.16	1164.76
1026.449	1162.95
1026.739	1133.12
1027.029	1157.98
1027.319	1128.37
1027.608	1136.74
1027.898	1127.92
1028.187	1100.13
1028.477	1097.41
1028.766	1104.42
1029.055	1094.7
1029.344	1095.15
1029.634	1065.1
1029.923	1051.31
1030.212	1055.61
1030.501	1101.93
1030.79	1045.44
1031.078	1047.7
1031.367	1014.25
1031.656	1015.83
1031.945	1022.84
1032.233	1023.29
1032.522	1018.09
1032.81	1012.9
1033.099	1003.41
1033.387	1011.09
1033.675	970.64
1033.963	984.42
1034.251	1004.54
1034.54	962.05
1034.828	962.73
1035.116	950.98
1035.403	965.89
1035.691	958.66
1035.979	942.84
1036.267	927.93
1036.554	924.99
1036.842	928.61
1037.129	934.26
1037.417	890.19
1037.704	899.45
1037.992	878.89
1038.279	891.77
1038.566	884.54
1038.853	884.54
1039.14	884.54
