Data from hue_34_FLMS001491_00021.txt Node
Date: Tue Feb 07 17:25:23 GMT 2017
User: dcchb
Spectrometer: FLMS00149
Trigger mode: 0
Integration Time (sec): 2.000000E-2
Scans to average: 10
Electric dark correction enabled: true
Nonlinearity correction enabled: false
Boxcar width: 0
XAxis mode: Wavelengths
Number of Pixels in Spectrum: 2048
>>>>>Begin Spectral Data<<<<<
341.393	-23.33
341.776	-23.33
342.16	-23.33
342.543	-56.1
342.927	-70.34
343.31	-78.7
343.693	-76.21
344.077	-57.23
344.46	-54.07
344.843	-57
345.226	-42.32
345.61	-15.65
345.993	-17.23
346.376	-1.64
346.759	-4.8
347.142	25.25
347.525	50.79
347.908	53.73
348.291	61.18
348.674	104.35
349.057	109.55
349.44	140.28
349.823	148.19
350.206	145.7
350.588	196.1
350.971	235.19
351.354	245.13
351.737	255.53
352.119	237
352.502	267.96
352.884	274.96
353.267	274.51
353.65	276.09
354.032	293.72
354.414	307.73
354.797	314.51
355.179	340.27
355.562	328.97
355.944	342.08
356.326	354.96
356.709	324.23
357.091	329.2
357.473	351.35
357.855	344.79
358.238	341.63
358.62	333.04
359.002	341.86
359.384	328.75
359.766	352.02
360.148	335.98
360.53	352.48
360.912	348.63
361.294	327.17
361.676	325.36
362.057	347.05
362.439	338.69
362.821	337.79
363.203	342.53
363.584	350.22
363.966	305.92
364.348	305.92
364.729	335.53
365.111	341.4
365.493	326.49
365.874	332.59
366.256	318.35
366.637	330.56
367.019	328.3
367.4	310.67
367.781	308.41
368.163	317.22
368.544	319.94
368.925	320.61
369.306	339.14
369.688	326.49
370.069	308.18
370.45	329.2
370.831	306.6
371.212	314.74
371.593	306.83
371.974	307.96
372.355	334.17
372.736	324.91
373.117	306.6
373.498	331.01
373.879	333.27
374.26	318.81
374.641	293.72
375.021	333.95
375.402	316.55
375.783	318.58
376.163	324.91
376.544	329.2
376.925	326.49
377.305	325.81
377.686	334.17
378.066	325.13
378.447	336.88
378.827	323.55
379.208	322.65
379.588	328.75
379.968	328.3
380.349	338.92
380.729	356.09
381.109	319.94
381.489	343.44
381.87	342.99
382.25	339.14
382.63	362.87
383.01	352.7
383.39	342.76
383.77	352.02
384.15	354.28
384.53	352.48
384.91	368.75
385.29	357.22
385.67	364.68
386.049	349.31
386.429	346.6
386.809	358.13
387.189	367.62
387.568	365.81
387.948	366.94
388.328	372.59
388.707	353.38
389.087	351.35
389.466	369.88
389.846	364.68
390.225	366.04
390.605	373.94
390.984	362.42
391.363	357.67
391.743	353.83
392.122	380.05
392.501	376.66
392.881	388.86
393.26	377.33
393.639	368.07
394.018	369.65
394.397	385.92
394.776	365.36
395.155	379.82
395.534	391.57
395.913	390.22
396.292	369.43
396.671	385.47
397.05	399.71
397.429	375.3
397.808	367.84
398.186	363.78
398.565	379.37
398.944	385.02
399.323	403.1
399.701	411.01
400.08	399.71
400.458	388.63
400.837	399.03
401.215	409.2
401.594	417.11
401.972	423.44
402.351	381.18
402.729	402.19
403.107	415.3
403.486	392.48
403.864	415.53
404.242	417.56
404.62	427.5
404.999	395.64
405.377	426.15
405.755	418.01
406.133	400.38
406.511	415.07
406.889	437.45
407.267	444.68
407.645	427.95
408.023	421.18
408.401	431.34
408.779	455.07
409.156	450.78
409.534	445.58
409.912	449.65
410.29	470.89
410.667	443.32
411.045	455.52
411.422	436.09
411.8	455.07
412.178	477.9
412.555	470.89
412.933	473.83
413.31	460.5
413.687	477.22
414.065	455.98
414.442	458.46
414.819	461.63
415.197	480.83
415.574	483.09
415.951	486.48
416.328	472.7
416.705	477.9
417.082	483.09
417.46	495.07
417.837	515.86
418.214	519.25
418.591	524.45
418.967	515.64
419.344	531.45
419.721	498.46
420.098	497.56
420.475	530.78
420.852	516.54
421.228	520.83
421.605	509.99
421.982	516.99
422.358	552.47
422.735	552.92
423.111	524.9
423.488	524.22
423.864	547.95
424.241	545.01
424.617	549.08
424.994	540.72
425.37	571.45
425.746	559.25
426.123	557.67
426.499	572.13
426.875	567.61
427.251	565.13
427.627	562.64
428.003	566.93
428.379	602.87
428.756	571
429.132	598.35
429.507	606.71
429.883	594.73
430.259	602.41
430.635	600.61
431.011	617.78
431.387	618.91
431.763	636.99
432.138	612.81
432.514	646.03
432.89	651.68
433.265	637.67
433.641	658.23
434.016	637.89
434.392	630.21
434.767	662.75
435.143	666.37
435.518	670.89
435.894	658.01
436.269	685.8
436.644	672.69
437.02	665.46
437.395	694.84
437.77	688.06
438.145	685.35
438.52	704.11
438.895	718.79
439.271	739.81
439.646	729.64
440.021	723.31
440.395	731.68
440.77	740.26
441.145	730.55
441.52	752.92
441.895	742.07
442.27	745.46
442.645	742.75
443.019	760.15
443.394	763.31
443.769	792.69
444.143	755.86
444.518	775.52
444.892	776.42
445.267	782.07
445.641	774.61
446.016	791.34
446.39	785.91
446.764	826.36
447.139	801.73
447.513	806.48
447.887	805.12
448.262	798.11
448.636	807.15
449.01	815.06
449.384	826.14
449.758	833.82
450.132	833.37
450.506	837.89
450.88	839.47
451.254	870.88
451.628	874.72
452.002	839.47
452.376	862.97
452.75	885.8
453.123	876.3
453.497	885.34
453.871	898
454.244	901.16
454.618	923.08
454.992	941.16
455.365	902.97
455.739	940.26
456.112	933.25
456.486	954.04
456.859	968.28
457.232	956.3
457.606	997.43
457.979	982.97
458.352	1012.57
458.725	1006.92
459.099	1042.4
459.472	1034.04
459.845	1024.32
460.218	1052.12
460.591	1060.48
460.964	1069.52
461.337	1080.82
461.71	1126.92
462.083	1127.15
462.456	1119.46
462.829	1141.38
463.201	1146.35
463.574	1126.69
463.947	1160.59
464.32	1162.17
464.692	1216.63
465.065	1210.76
465.438	1226.58
465.81	1217.54
466.183	1253.47
466.555	1262.96
466.928	1275.84
467.3	1289.63
467.672	1323.98
468.045	1353.35
468.417	1351.55
468.789	1356.07
469.161	1390.64
469.534	1357.42
469.906	1447.59
470.278	1436.97
470.65	1443.75
471.022	1525.78
471.394	1515.16
471.766	1523.52
472.138	1559.45
472.51	1578.66
472.882	1627.47
473.253	1669.5
473.625	1669.73
473.997	1696.62
474.369	1714.93
474.74	1751.54
475.112	1768.03
475.484	1802.38
475.855	1884.19
476.227	1887.13
476.598	1928.48
476.97	1980.91
477.341	2038.53
477.713	2091.19
478.084	2124.86
478.455	2167.34
478.827	2202.82
479.198	2234.91
479.569	2311.3
479.94	2389.26
480.311	2438.98
480.682	2518.97
481.053	2582.93
481.424	2647.78
481.795	2669.48
482.166	2707.67
482.537	2778.4
482.908	2876.7
483.279	2903.37
483.65	3043.25
484.021	3097.94
484.391	3161.67
484.762	3240.54
485.133	3277.6
485.503	3367.54
485.874	3483.69
486.244	3516.01
486.615	3612.96
486.985	3712.39
487.356	3775.89
487.726	3835.55
488.097	3956.22
488.467	3979.27
488.837	4111.7
489.207	4196.67
489.578	4293.62
489.948	4389.43
490.318	4462.65
490.688	4506.94
491.058	4605.25
491.428	4755.52
491.798	4806.14
492.168	4904.9
492.538	5005.24
492.908	5094.72
493.278	5195.97
493.648	5277.77
494.017	5315.96
494.387	5442.29
494.757	5521.61
495.126	5571.77
495.496	5644.09
495.866	5750.98
496.235	5844.99
496.605	5871.88
496.974	5944.19
497.344	6099.22
497.713	6152.32
498.082	6180.35
498.452	6244.53
498.821	6355.48
499.19	6405.88
499.559	6465.76
499.928	6557.96
500.298	6587.34
500.667	6677.06
501.036	6738.07
501.405	6781.69
501.774	6853.55
502.143	6897.16
502.512	6973.77
502.88	7084.73
503.249	7149.59
503.618	7185.07
503.987	7246.98
504.356	7396.13
504.724	7358.85
505.093	7428.67
505.462	7488.33
505.83	7523.14
506.199	7613.98
506.567	7711.15
506.936	7763.58
507.304	7812.62
507.672	7926.74
508.041	7955.44
508.409	7989.11
508.777	7976.46
509.145	8160.86
509.514	8143.46
509.882	8203.34
510.25	8176
510.618	8296.22
510.986	8347.52
511.354	8321.76
511.722	8503.9
512.09	8552.94
512.458	8514.3
512.826	8621.41
513.193	8668.64
513.561	8679.49
513.929	8775.53
514.297	8901.4
514.664	8869.31
515.032	8976.88
515.4	8925.13
515.767	9000.84
516.135	9116.77
516.502	9049.88
516.869	9190.66
517.237	9234.28
517.604	9229.31
517.972	9325.8
518.339	9367.15
518.706	9377.32
519.073	9462.29
519.44	9442.18
519.808	9498.22
520.175	9525.79
520.542	9728.5
520.909	9710.87
521.276	9631.78
521.643	9797.43
522.009	9866.8
522.376	9920.59
522.743	9999.23
523.11	10035.16
523.477	10163.07
523.843	10213.01
524.21	10247.13
524.577	10373.91
524.943	10378.43
525.31	10419.1
525.676	10545.2
526.043	10581.81
526.409	10595.37
526.776	10693.67
527.142	10721.92
527.508	10824.97
527.874	10881.24
528.241	10892.09
528.607	10892.99
528.973	11059.77
529.339	11100.44
529.705	11162.36
530.071	11276.48
530.437	11289.59
530.803	11278.97
531.169	11408.68
531.535	11410.94
531.901	11527.78
532.267	11562.58
532.632	11559.64
532.998	11648.45
533.364	11681.67
533.73	11765.96
534.095	11843.25
534.461	11878.95
534.826	11893.19
535.192	11910.14
535.557	12026.75
535.923	12113.07
536.288	12078.5
536.653	12150.36
537.019	12151.49
537.384	12165.05
537.749	12287.98
538.114	12300.86
538.479	12371.37
538.845	12452.95
539.21	12465.38
539.575	12483.46
539.94	12491.14
540.305	12656.11
540.67	12588.09
541.034	12705.15
541.399	12777.23
541.764	12691.36
542.129	12798.25
542.494	12901.98
542.858	12895.65
543.223	12961.41
543.587	13073.05
543.952	13029.43
544.316	13182.65
544.681	13124.8
545.045	13245.7
545.41	13245.02
545.774	13268.07
546.138	13406.37
546.503	13343.55
546.867	13350.1
547.231	13478.01
547.595	13541.73
547.959	13613.37
548.324	13624.44
548.688	13678
549.052	13726.81
549.416	13779.02
549.779	13799.58
550.143	13814.27
550.507	13927.26
550.871	13920.48
551.235	13947.15
551.599	14109.18
551.962	14057.43
552.326	14132.23
552.689	14231.21
553.053	14190.53
553.417	14294.26
553.78	14357.08
554.143	14360.92
554.507	14562.27
554.87	14465.78
555.234	14686.79
555.597	14498.77
555.96	14608.15
556.323	14638.2
556.686	14696.73
557.05	14776.5
557.413	14821.25
557.776	14851.53
558.139	14915.94
558.502	14990.28
558.865	15043.39
559.228	15134.91
559.59	15162.26
559.953	15180.56
560.316	15301.01
560.679	15243.84
561.041	15378.3
561.404	15512.98
561.767	15564.05
562.129	15459.42
562.492	15637.5
562.854	15623.26
563.217	15646.09
563.579	15705.07
563.941	15785.74
564.304	15897.15
564.666	15925.4
565.028	15969.02
565.39	15969.24
565.753	16147.09
566.115	16111.84
566.477	16224.6
566.839	16201.78
567.201	16298.5
567.563	16396.57
567.925	16379.4
568.287	16505.05
568.648	16527.64
569.01	16676.79
569.372	16709.11
569.734	16714.76
570.095	16829.56
570.457	16867.52
570.819	16977.58
571.18	16936.9
571.542	17175.31
571.903	17120.62
572.265	17211.02
572.626	17355.65
572.987	17338.47
573.349	17404.46
573.71	17527.84
574.071	17661.4
574.432	17680.83
574.794	17926.25
575.155	17916.31
575.516	18018.23
575.877	18107.04
576.238	18155.4
576.599	18251.22
576.96	18337.09
577.32	18454.37
577.681	18582.51
578.042	18700.92
578.403	18819.11
578.763	18990.86
579.124	19031.53
579.485	19191.3
579.845	19331.64
580.206	19480.79
580.566	19549.71
580.927	19773.43
581.287	19998.97
581.648	20107.44
582.008	20292.97
582.368	20463.36
582.728	20579.06
583.089	20697.7
583.449	21003.91
583.809	21169.56
584.169	21382.43
584.529	21441.87
584.889	21839.37
585.249	21849.54
585.609	22094.28
585.969	22456.3
586.329	22618.11
586.688	22856.52
587.048	23101.03
587.408	23188.26
587.768	23505.31
588.127	23665.31
588.487	23881.8
588.846	24303.26
589.206	24358.4
589.565	24624.83
589.925	25047.65
590.284	25039.06
590.643	25373.97
591.003	25597.24
591.362	25884.01
591.721	26156.32
592.08	26323.32
592.44	26632.46
592.799	26957.43
593.158	27036.75
593.517	27328.72
593.876	27677.41
594.235	27768.93
594.593	28072.65
594.952	28419.31
595.311	28504.73
595.67	28809.81
596.029	29226.97
596.387	29492.28
596.746	29713.74
597.104	29770.69
597.463	30043.9
597.822	30295.64
598.18	30407.73
598.538	30613.6
598.897	31130.42
599.255	31019.47
599.613	31664.2
599.972	31826.68
600.33	31961.14
600.688	32054.92
601.046	32408.81
601.404	32698.52
601.762	32842.02
602.12	33111.84
602.478	33327.43
602.836	33380.08
603.194	33637.03
603.552	33717.93
603.91	33805.61
604.268	34147.29
604.625	34216.44
604.983	34646.72
605.341	34694.85
605.698	34914.05
606.056	35134.16
606.413	35173.93
606.771	35589.97
607.128	35781.38
607.485	35690.08
607.843	35977.08
608.2	36306.11
608.557	36349.04
608.914	36436.05
609.272	36701.13
609.629	36904.96
609.986	37139.08
610.343	37054.11
610.7	37512.86
611.057	37593.98
611.414	37568.67
611.771	37806.63
612.127	38097.02
612.484	38170.69
612.841	38365.94
613.198	38331.82
613.554	38508.08
613.911	38705.14
614.267	38855.87
614.624	38952.82
614.98	39042.98
615.337	39296.09
615.693	39318.46
616.05	39431.22
616.406	39656.3
616.762	39609.07
617.118	39622.86
617.475	39863.75
617.831	40031.66
618.187	40094.71
618.543	40119.57
618.899	40482.27
619.255	40343.06
619.611	40475.72
619.967	40602.72
620.323	40830.06
620.678	40739.89
621.034	40747.57
621.39	40930.17
621.746	40903.5
622.101	41391.62
622.457	41020.33
622.812	41267.78
623.168	41409.93
623.523	41391.85
623.879	41529.25
624.234	41377.39
624.589	41440.66
624.945	41569.47
625.3	41579.42
625.655	41571.28
626.01	41825.74
626.365	41775.12
626.72	41863.25
627.075	41837.71
627.43	41870.93
627.785	41882.91
628.14	41969.69
628.495	42005.39
628.85	42013.53
629.205	41901.89
629.559	42307.08
629.914	42107.76
630.269	42056.92
630.623	42058.95
630.978	41941.67
631.332	42194.09
631.687	42313.18
632.041	42183.24
632.396	42261.43
632.75	42154.77
633.104	42259.17
633.459	42049.01
633.813	42014.21
634.167	42104.15
634.521	42176.46
634.875	42039.74
635.229	42232.51
635.583	41942.57
635.937	42086.07
636.291	42002.23
636.645	42012.4
636.999	42053.98
637.352	42083.58
637.706	41925.85
638.06	41969.46
638.413	41993.42
638.767	41881.1
639.121	42009.91
639.474	41682.69
639.828	41772.63
640.181	41808.11
640.534	41845.4
640.888	41679.3
641.241	41597.95
641.594	41603.37
641.947	41791.84
642.301	41644.95
642.654	41815.12
643.007	41635.01
643.36	41738.73
643.713	41582.8
644.066	41773.53
644.419	41525.41
644.771	41390.04
645.124	40934.46
645.477	40969.94
645.83	40595.03
646.182	40697.4
646.535	40428.26
646.888	40589.84
647.24	40373.35
647.593	40539.44
647.945	40556.84
648.298	40441.82
648.65	40147.81
649.002	40158.89
649.355	40308.26
649.707	40397.98
650.059	40509.61
650.411	41007
650.763	40949.38
651.115	41394.34
651.467	41319.54
651.819	41156.6
652.171	41159.09
652.523	41040.9
652.875	41096.49
653.227	40989.6
653.578	41177.62
653.93	41055.81
654.282	40919.77
654.633	40821.24
654.985	41033.89
655.337	40899.66
655.688	40851.3
656.039	41015.14
656.391	40837.97
656.742	40935.59
657.094	40899.89
657.445	40962.71
657.796	41026.66
658.147	40819.21
658.498	40746.44
658.849	40891.75
659.2	40723.17
659.551	40668.48
659.902	40851.52
660.253	40806.33
660.604	40878.87
660.955	40598.65
661.306	40876.83
661.656	40662.38
662.007	40613.34
662.358	40654.02
662.708	40691.53
663.059	40728.14
663.409	40398.66
663.76	40730.85
664.11	40627.8
664.461	40830.73
664.811	40774.92
665.161	40671.42
665.511	40603.4
665.862	40590.29
666.212	40795.48
666.562	40744.41
666.912	40636.84
667.262	40441.14
667.612	40443.63
667.962	40581.93
668.312	40502.16
668.662	40702.38
669.011	40397.53
669.361	40339.22
669.711	40632.32
670.06	40430.07
670.41	40353.91
670.76	40369.96
671.109	40343.74
671.459	40482.95
671.808	40394.36
672.157	40467.58
672.507	40226.46
672.856	40133.8
673.205	40336.96
673.554	40400.46
673.904	40354.81
674.253	40447.69
674.602	40316.17
674.951	39757.54
675.3	39575.63
675.649	40172.22
675.998	40093.35
676.346	40213.8
676.695	40289.51
677.044	39928.16
677.393	40225.78
677.741	40192.78
678.09	39995.05
678.438	39956.18
678.787	40058.1
679.135	40050.64
679.484	39709.63
679.832	39904.43
680.181	39782.17
680.529	39778.11
680.877	39707.37
681.225	39725.45
681.573	39885
681.922	39567.26
682.27	39500.6
682.618	39542.63
682.966	39422.86
683.314	39473.03
683.661	39408.17
684.009	39201.62
684.357	39117.79
684.705	39273.26
685.053	39192.81
685.4	39052.48
685.748	38915.53
686.095	38915.3
686.443	38764.12
686.79	38671.02
687.138	38883.21
687.485	38855.42
687.832	38712.15
688.18	38664.01
688.527	38531.36
688.874	38491.81
689.221	38297.02
689.568	38219.96
689.915	38071.48
690.262	38175.89
690.609	38015.44
690.956	37956.91
691.303	37838.27
691.65	37737.48
691.997	37690.7
692.344	37423.82
692.69	37466.75
693.037	37506.08
693.383	37170.72
693.73	37449.35
694.077	37221.11
694.423	37125.75
694.769	37128.46
695.116	36951.29
695.462	36968.46
695.808	36834.68
696.155	37017.28
696.501	36570.96
696.847	36557.17
697.193	36438.31
697.539	36346.56
697.885	36285.54
698.231	36156.51
698.577	36208.93
698.923	36023.4
699.269	35923.52
699.614	35802.84
699.96	35754.94
700.306	35580.48
700.651	35492.12
700.997	35305.23
701.342	35362.86
701.688	35353.36
702.033	35250.32
702.379	35212.12
702.724	35119.92
703.069	35133.48
703.415	34662.99
703.76	34686.49
704.105	34875.64
704.45	34689.65
704.795	34456.44
705.14	34471.58
705.485	34348.87
705.83	34292.15
706.175	34360.85
706.52	34233.17
706.865	34026.39
707.209	34061.19
707.554	33883.8
707.899	34030.24
708.243	33638.61
708.588	33662.79
708.932	33431.15
709.277	33473.87
709.621	33503.47
709.966	33413.98
710.31	33490.81
710.654	33126.08
710.998	33216.25
711.342	33208.11
711.687	33088.11
712.031	32946.87
712.375	32741.68
712.719	32931.96
713.063	32781
713.407	32851.28
713.75	32706.43
714.094	32703.26
714.438	32549.6
714.782	32490.84
715.125	32441.12
715.469	32465.3
715.812	32321.35
716.156	32155.03
716.499	32109.61
716.843	32161.13
717.186	32000.68
717.53	32189.38
717.873	32078.42
718.216	31857.18
718.559	31835.26
718.902	31622.39
719.246	31778.99
719.589	31577.42
719.932	31523.63
720.275	31535.61
720.617	31417.87
720.96	31424.88
721.303	31382.17
721.646	31420.59
721.989	31132.01
722.331	31237.99
722.674	31119.13
723.016	31249.97
723.359	31077.54
723.701	31181.95
724.044	30965.91
724.386	30845.46
724.729	30959.36
725.071	30908.74
725.413	30886.81
725.755	30788.51
726.097	30698.57
726.439	30658.57
726.782	30673.49
727.124	30713.49
727.465	30655.18
727.807	30506.49
728.149	30452.48
728.491	30440.95
728.833	30421.52
729.175	30306.49
729.516	30215.19
729.858	30061.98
730.199	30176.33
730.541	30208.41
730.882	30061.07
731.224	30148.76
731.565	29916.22
731.906	29963.68
732.248	29982.21
732.589	29729.11
732.93	29577.24
733.271	29736.56
733.612	29796.67
733.953	29635.32
734.294	29700.18
734.635	29569.79
734.976	29681.65
735.317	29459.28
735.658	29343.58
735.999	29530.01
736.339	29317.14
736.68	29411.15
737.021	29293.41
737.361	29253.19
737.702	29407.53
738.042	29288.66
738.383	29235.78
738.723	29160.76
739.063	29246.86
739.404	29127.09
739.744	29138.84
740.084	28837.15
740.424	28969.58
740.764	28938.17
741.104	29062
741.444	28772.29
741.784	28789.92
742.124	28880.09
742.464	28659.3
742.804	28735.46
743.143	28618.63
743.483	28529.59
743.823	28384.96
744.162	28370.5
744.502	28512.41
744.841	28379.08
745.181	28365.3
745.52	28349.25
745.86	28320.33
746.199	28349.03
746.538	28090.28
746.877	28290.5
747.216	28153.55
747.556	28086.66
747.895	28043.73
748.234	27934.12
748.573	27965.54
748.911	27948.36
749.25	27882.6
749.589	27771.64
749.928	27822.49
750.267	27867.91
750.605	27735.03
750.944	27739.78
751.283	27624.75
751.621	27608.26
751.96	27446.45
752.298	27511.54
752.636	27456.17
752.975	27314.93
753.313	27266.57
753.651	27370.52
753.989	27174.82
754.327	27201.49
754.666	26955.39
755.004	27173.01
755.342	27156.74
755.679	27081.04
756.017	26930.76
756.355	26977.31
756.693	26809.63
757.031	26912.68
757.368	26708.17
757.706	26629.98
758.044	26577.78
758.381	26613.48
758.719	26478.8
759.056	26385.46
759.394	26484.22
759.731	26255.75
760.068	26297.33
760.405	26091.91
760.743	26105.02
761.08	26057.79
761.417	25854.18
761.754	25926.49
762.091	25951.13
762.428	25723.11
762.765	25579.84
763.102	25673.39
763.438	25536.45
763.775	25393.63
764.112	25503.23
764.449	25395.43
764.785	25359.5
765.122	25098.27
765.458	24973.75
765.795	25012.85
766.131	24992.96
766.467	24952.73
766.804	24857.59
767.14	24740.76
767.476	24711.61
767.812	24546.64
768.148	24592.07
768.485	24449.02
768.821	24268.68
769.157	24200.44
769.492	24180.1
769.828	24201.79
770.164	23880.9
770.5	23863.5
770.836	23911.63
771.171	23758.41
771.507	23650.17
771.842	23587.12
772.178	23517.29
772.513	23439.78
772.849	23332.21
773.184	23207.92
773.519	23292.44
773.855	23182.84
774.19	22939.23
774.525	23017.19
774.86	23007.47
775.195	22990.07
775.53	22739.68
775.865	22680.93
776.2	22523.19
776.535	22392.8
776.87	22423.31
777.205	22346.47
777.539	22165.69
777.874	22259.02
778.209	21994.39
778.543	22017.9
778.878	21831.23
779.212	21859.71
779.547	21707.62
779.881	21761.86
780.215	21541.52
780.55	21617.23
780.884	21435.76
781.218	21468.98
781.552	21393.51
781.886	21307.86
782.22	21113.96
782.554	21090.24
782.888	20998.71
783.222	20809.11
783.556	20870.36
783.889	20753.07
784.223	20554.88
784.557	20611.83
784.89	20660.87
785.224	20419.52
785.557	20251.61
785.891	20359.18
786.224	20254.55
786.558	20173.88
786.891	19963.94
787.224	20030.83
787.557	19942.92
787.891	19937.05
788.224	19932.3
788.557	19805.3
788.89	19776.15
789.223	19819.54
789.556	19453.22
789.888	19548.81
790.221	19410.51
790.554	19410.73
790.887	19237.18
791.219	19232.21
791.552	19207.8
791.884	19078.31
792.217	19053.45
792.549	19037.86
792.882	18845.1
793.214	18712.45
793.546	18772.78
793.879	18701.82
794.211	18614.37
794.543	18662.96
794.875	18546.35
795.207	18574.14
795.539	18493.47
795.871	18363.98
796.203	18317.2
796.535	18220.71
796.867	18171.67
797.198	18127.38
797.53	18169.41
797.862	17966.48
798.193	18011.45
798.525	17978
798.856	17984.1
799.188	17705.47
799.519	17644
799.85	17534.4
800.182	17614.85
800.513	17530.56
800.844	17377.34
801.175	17602.19
801.506	17457.11
801.837	17340.5
802.168	17367.17
802.499	17251.92
802.83	17190.9
803.161	17187.06
803.491	17089.44
803.822	17103.9
804.153	16957.46
804.483	16819.84
804.814	16676.79
805.145	16837.01
805.475	16779.39
805.805	16716.57
806.136	16707.3
806.466	16707.75
806.796	16694.19
807.126	16468.66
807.457	16309.8
807.787	16454.65
808.117	16346.86
808.447	16322.68
808.777	16281.32
809.107	16325.62
809.436	16174.89
809.766	16125.62
810.096	16113.42
810.426	16058.05
810.755	15984.38
811.085	16025.51
811.414	16009.47
811.744	15859.19
812.073	15880.66
812.403	15917.04
812.732	15733.54
813.061	15799.75
813.39	15664.62
813.719	15586.2
814.049	15626.88
814.378	15625.3
814.707	15511.17
815.036	15483.83
815.365	15489.03
815.693	15399.09
816.022	15249.49
816.351	15289.03
816.68	15162.48
817.008	15142.82
817.337	15121.58
817.665	15151.41
817.994	15046.1
818.322	15110.28
818.651	15035.71
818.979	14920.23
819.307	15038.42
819.636	14891.08
819.964	14861.02
820.292	14890.85
820.62	14843.17
820.948	14753
821.276	14831.42
821.604	14834.81
821.932	14861.93
822.259	14839.55
822.587	14825.99
822.915	14777.41
823.243	14804.75
823.57	14763.62
823.898	14785.77
824.225	14727.24
824.553	14719.78
824.88	14754.58
825.207	14877.74
825.535	14727.69
825.862	14774.7
826.189	14672.78
826.516	14713.23
826.843	14717.3
827.17	14804.98
827.497	14768.14
827.824	14716.39
828.151	14813.11
828.478	14700.8
828.805	14742.83
829.131	14686.56
829.458	14715.94
829.785	14689.5
830.111	14673
830.438	14752.55
830.764	14720.46
831.09	14691.76
831.417	14595.94
831.743	14631.88
832.069	14657.64
832.395	14589.39
832.722	14653.8
833.048	14579.22
833.374	14578.32
833.7	14574.02
834.026	14543.74
834.351	14628.49
834.677	14561.14
835.003	14565.44
835.329	14510.75
835.654	14447.02
835.98	14498.32
836.306	14517.98
836.631	14372.22
836.956	14527.92
837.282	14374.71
837.607	14326.8
837.932	14364.09
838.258	14328.38
838.583	14360.92
838.908	14223.75
839.233	14282.28
839.558	14166.58
839.883	14238.44
840.208	14107.37
840.533	14086.58
840.858	14181.94
841.182	14186.46
841.507	14080.48
841.832	13961.84
842.156	14018.56
842.481	13988.5
842.805	13880.93
843.13	13961.84
843.454	13833.7
843.778	13770.2
844.103	13720.94
844.427	13690.43
844.751	13828.51
845.075	13664.89
845.399	13587.16
845.723	13546.93
846.047	13602.07
846.371	13512.81
846.695	13501.06
847.019	13352.13
847.343	13263.78
847.666	13277.79
847.99	13179.26
848.313	13253.38
848.637	13030.34
848.96	13049.54
849.284	13118.47
849.607	12976.55
849.931	12829.89
850.254	12831.02
850.577	12805.71
850.9	12659.95
851.223	12687.07
851.546	12691.59
851.869	12563.68
852.192	12616.56
852.515	12503.34
852.838	12438.94
853.161	12381.99
853.483	12331.6
853.806	12275.55
854.129	12307.87
854.451	12264.03
854.774	12237.81
855.096	12144.48
855.419	12144.71
855.741	12090.25
856.063	12003.24
856.385	12014.32
856.708	11956.24
857.03	11943.13
857.352	11901.1
857.674	11977.93
857.996	11792.63
858.318	11705.17
858.64	11768.9
858.961	11786.3
859.283	11735.23
859.605	11671.28
859.926	11656.59
860.248	11661.11
860.57	11523.26
860.891	11545.63
861.212	11560.77
861.534	11507.21
861.855	11440.77
862.176	11559.19
862.498	11426.08
862.819	11391.51
863.14	11321
863.461	11359.87
863.782	11326.43
864.103	11395.8
864.424	11269.03
864.745	11283.71
865.065	11246.65
865.386	11192.19
865.707	11177.28
866.027	11139.09
866.348	11097.73
866.668	11154.9
866.989	11112.87
867.309	11018.41
867.63	11096.83
867.95	11040.33
868.27	10972.31
868.59	11033.1
868.91	10956.94
869.23	10987
869.55	10919.66
869.87	10915.36
870.19	10923.95
870.51	10912.88
870.83	10893.22
871.15	10812.54
871.469	10861.13
871.789	10824.29
872.109	10821.35
872.428	10704.29
872.748	10747.01
873.067	10812.77
873.386	10756.27
873.706	10643.51
874.025	10600.79
874.344	10653
874.663	10621.36
874.982	10607.8
875.301	10597.18
875.62	10556.5
875.939	10539.55
876.258	10667.91
876.577	10534.36
876.896	10518.99
877.214	10485.32
877.533	10514.92
877.852	10504.07
878.17	10497.07
878.489	10475.83
878.807	10466.33
879.125	10457.3
879.444	10417.3
879.762	10408.71
880.08	10420.91
880.398	10353.12
880.716	10284.87
881.034	10348.15
881.352	10332.1
881.67	10227.02
881.988	10244.42
882.306	10301.37
882.624	10206.91
882.941	10105.89
883.259	10124.2
883.577	10127.13
883.894	10088.49
884.212	10020.02
884.529	10062.5
884.846	10006.01
885.164	10026.35
885.481	9986.35
885.798	9938.44
886.115	9924.65
886.432	9904.54
886.75	9896.86
887.067	9914.94
887.383	9828.39
887.7	9859.57
888.017	9869.51
888.334	9902.28
888.651	9712.68
888.967	9783.42
889.284	9709.07
889.6	9668.62
889.917	9608.05
890.233	9682.4
890.55	9578.67
890.866	9636.53
891.182	9485.57
891.498	9506.59
891.815	9533.93
892.131	9459.13
892.447	9453.93
892.763	9426.36
893.079	9408.06
893.395	9325.35
893.71	9343.88
894.026	9334.16
894.342	9276.31
894.657	9213.03
894.973	9260.94
895.289	9165.13
895.604	9230.89
895.92	9165.58
896.235	9069.31
896.55	9034.51
896.865	9032.02
897.181	9035.64
897.496	9025.69
897.811	8960.16
898.126	8878.58
898.441	8840.62
898.756	8869.31
899.071	8845.59
899.386	8821.63
899.7	8736.44
900.015	8725.59
900.33	8665.7
900.644	8662.09
900.959	8671.13
901.273	8569.89
901.588	8576.22
901.902	8534.41
902.216	8454.41
902.531	8452.38
902.845	8403.34
903.159	8333.28
903.473	8355.2
903.787	8335.77
904.101	8339.39
904.415	8239.5
904.729	8249.22
905.042	8241.31
905.356	8134.64
905.67	8162.44
905.984	8211.25
906.297	8084.25
906.611	8071.14
906.924	8071.82
907.237	8033.18
907.551	7985.5
907.864	7926.29
908.177	8028.66
908.491	7930.13
908.804	7809.23
909.117	7867.08
909.43	7797.25
909.743	7729.91
910.056	7805.39
910.368	7710.93
910.681	7688.55
910.994	7656.92
911.307	7575.34
911.619	7530.82
911.932	7564.49
912.244	7510.71
912.557	7524.27
912.869	7408.79
913.181	7400.2
913.494	7415.34
913.806	7346.87
914.118	7305.51
914.43	7294.89
914.742	7280.66
915.054	7242.69
915.366	7276.36
915.678	7205.18
915.99	7129.93
916.302	7082.7
916.613	7110.94
916.925	7059.42
917.236	7048.35
917.548	6950.95
917.859	6995.69
918.171	6999.99
918.482	6884.28
918.794	6894.45
919.105	6878.86
919.416	6818.97
919.727	6802.25
920.038	6785.08
920.349	6742.37
920.66	6672.31
920.971	6739.88
921.282	6749.82
921.593	6610.62
921.903	6555.25
922.214	6604.52
922.525	6538.98
922.835	6532.43
923.146	6461.47
923.456	6477.29
923.767	6453.11
924.077	6388.93
924.387	6377.18
924.697	6345.99
925.008	6297.18
925.318	6244.07
925.628	6260.57
925.938	6278.2
926.248	6195.71
926.558	6176.96
926.867	6135.15
927.177	6146.45
927.487	6098.99
927.796	6044.98
928.106	6058.32
928.416	6098.99
928.725	5987.81
929.034	5987.81
929.344	5971.54
929.653	5972.44
929.962	5874.37
930.271	5840.92
930.581	5849.96
930.89	5791.2
931.199	5780.81
931.508	5846.12
931.817	5791.43
932.125	5736.06
932.434	5704.65
932.743	5631.89
933.051	5692.9
933.36	5697.42
933.669	5553.47
933.977	5593.92
934.286	5602.28
934.594	5575.16
934.902	5496.3
935.21	5522.51
935.519	5484.32
935.827	5448.39
936.135	5392.34
936.443	5379.24
936.751	5361.16
937.059	5320.93
937.367	5327.71
937.674	5338.11
937.982	5352.57
938.29	5282.29
938.597	5261.05
938.905	5240.48
939.213	5165.46
939.52	5150.54
939.827	5173.37
940.135	5149.64
940.442	5099.24
940.749	5079.13
941.056	5053.6
941.363	5025.8
941.67	5051.56
941.977	5005.24
942.284	4959.81
942.591	4927.27
942.898	4937.21
943.205	4962.3
943.511	4929.98
943.818	4846.82
944.125	4838.69
944.431	4844.11
944.738	4849.53
945.044	4781.51
945.35	4782.42
945.657	4741.06
945.963	4733.15
946.269	4730.89
946.575	4692.48
946.881	4617.22
947.187	4664.45
947.493	4642.31
947.799	4608.86
948.105	4577.22
948.41	4555.76
948.716	4542.2
949.022	4488.87
949.327	4538.58
949.633	4428.08
949.938	4480.05
950.244	4496.55
950.549	4435.53
950.854	4392.37
951.16	4372.71
951.465	4367.74
951.77	4370.68
952.075	4359.38
952.38	4338.36
952.685	4328.42
952.99	4231.24
953.294	4251.36
953.599	4220.62
953.904	4224.47
954.209	4204.13
954.513	4188.53
954.818	4148.08
955.122	4119.38
955.426	4133.85
955.731	4113.06
956.035	4093.4
956.339	4069.22
956.643	4066.5
956.948	4054.98
957.252	4015.43
957.556	4058.59
957.86	3973.62
958.163	4003.91
958.467	3945.6
958.771	3946.73
959.075	3937.92
959.378	3927.3
959.682	3873.97
959.985	3887.98
960.289	3842.33
960.592	3868.32
960.896	3821.54
961.199	3835.77
961.502	3780.64
961.805	3789.45
962.108	3742.22
962.411	3765.49
962.714	3709.45
963.017	3719.17
963.32	3704.25
963.623	3658.6
963.926	3687.08
964.228	3676.46
964.531	3621.09
964.833	3641.2
965.136	3554.65
965.438	3627.64
965.741	3575.44
966.043	3549.45
966.345	3542
966.648	3499.29
966.95	3501.77
967.252	3530.02
967.554	3437.14
967.856	3455.9
968.158	3415.9
968.46	3431.27
968.761	3404.6
969.063	3385.39
969.365	3341.32
969.666	3368.89
969.968	3342.45
970.269	3355.11
970.571	3311.49
970.872	3297.71
971.174	3265.85
971.475	3272.85
971.776	3275.11
972.077	3276.92
972.378	3220.88
972.679	3238.95
972.98	3275.11
973.281	3196.92
973.582	3147.21
973.883	3166.19
974.183	3175.23
974.484	3127.77
974.785	3154.44
975.085	3086.87
975.386	3133.19
975.686	3064.5
975.986	3057.49
976.287	3090.48
976.587	3026.3
976.887	3047.77
977.187	3018.17
977.487	2992.86
977.787	2993.54
978.087	2984.5
978.387	2941.34
978.687	2948.34
978.987	2940.43
979.286	2898.4
979.586	2934.1
979.885	2887.55
980.185	2892.97
980.484	2898.85
980.784	2887.55
981.083	2860.43
981.382	2824.73
981.682	2813.65
981.981	2801.23
982.28	2823.37
982.579	2742.02
982.878	2763.94
983.177	2723.26
983.475	2778.85
983.774	2763.26
984.073	2714.9
984.372	2723.94
984.67	2702.92
984.969	2742.92
985.267	2711.28
985.566	2710.15
985.864	2671.51
986.162	2648.24
986.461	2634
986.759	2622.25
987.057	2614.11
987.355	2596.94
987.653	2580.67
987.951	2566.66
988.249	2538.41
988.547	2561.68
988.844	2539.99
989.142	2498.18
989.44	2531.63
989.737	2499.54
990.035	2481.01
990.332	2505.41
990.63	2482.82
990.927	2458.86
991.224	2446.66
991.521	2427
991.819	2428.81
992.116	2431.07
992.413	2384.51
992.71	2373.44
993.006	2369.37
993.303	2337.06
993.6	2362.59
993.897	2351.52
994.193	2328.02
994.49	2337.06
994.787	2315.14
995.083	2308.13
995.379	2286.89
995.676	2290.96
995.972	2247.79
996.268	2213.9
996.565	2267.91
996.861	2241.24
997.157	2234.01
997.453	2205.99
997.749	2196.04
998.044	2221.13
998.34	2189.04
998.636	2185.42
998.932	2152.66
999.227	2119.44
999.523	2153.79
999.818	2133.22
1000.114	2124.63
1000.409	2107.68
1000.704	2130.06
1001	2091.87
1001.295	2074.69
1001.59	2079.89
1001.885	2076.73
1002.18	2012.77
1002.475	2041.7
1002.77	2019.55
1003.065	2011.19
1003.359	1975.71
1003.654	1974.81
1003.949	1975.03
1004.243	1963.73
1004.538	1973.9
1004.832	1944.07
1005.127	1902.94
1005.421	1915.6
1005.715	1916.73
1006.009	1905.43
1006.304	1905.88
1006.598	1863.62
1006.892	1914.47
1007.186	1835.38
1007.48	1855.49
1007.773	1839.9
1008.067	1859.78
1008.361	1801.7
1008.655	1793.34
1008.948	1780.46
1009.242	1792.21
1009.535	1779.56
1009.829	1786.56
1010.122	1754.47
1010.415	1752.67
1010.708	1756.06
1011.001	1717.41
1011.295	1735.27
1011.588	1719.45
1011.881	1697.98
1012.173	1714.47
1012.466	1684.19
1012.759	1667.47
1013.052	1678.32
1013.344	1647.36
1013.637	1640.13
1013.93	1609.39
1014.222	1602.16
1014.514	1591.77
1014.807	1619.34
1015.099	1596.29
1015.391	1595.61
1015.683	1562.39
1015.976	1544.08
1016.268	1551.77
1016.56	1554.93
1016.851	1557.19
1017.143	1547.7
1017.435	1507.25
1017.727	1491.2
1018.018	1480.13
1018.31	1506.34
1018.602	1478.32
1018.893	1472
1019.185	1467.7
1019.476	1454.82
1019.767	1440.58
1020.058	1438.78
1020.35	1428.38
1020.641	1409.62
1020.932	1399.68
1021.223	1406.46
1021.514	1413.24
1021.804	1384.09
1022.095	1385.22
1022.386	1362.85
1022.677	1335.05
1022.967	1340.25
1023.258	1341.83
1023.548	1296.18
1023.839	1296.41
1024.129	1318.33
1024.419	1275.16
1024.709	1290.76
1025	1307.25
1025.29	1263.64
1025.58	1256.63
1025.87	1248.27
1026.16	1237.2
1026.449	1238.78
1026.739	1248.05
1027.029	1225
1027.319	1237.65
1027.608	1223.64
1027.898	1212.57
1028.187	1178.9
1028.477	1203.98
1028.766	1204.21
1029.055	1163.08
1029.344	1169.86
1029.634	1163.53
1029.923	1151.55
1030.212	1156.52
1030.501	1151.1
1030.79	1123.3
1031.078	1123.76
1031.367	1108.39
1031.656	1131.89
1031.945	1104.32
1032.233	1105.23
1032.522	1091.21
1032.81	1092.12
1033.099	1080.82
1033.387	1055.28
1033.675	1071.78
1033.963	1054.83
1034.251	1077.66
1034.54	1047.15
1034.828	1036.07
1035.116	1027.49
1035.403	1008.73
1035.691	1008.05
1035.979	1001.95
1036.267	1007.15
1036.554	997.66
1036.842	966.92
1037.129	985.91
1037.417	972.35
1037.704	965.12
1037.992	946.81
1038.279	958.56
1038.566	950.43
1038.853	950.43
1039.14	950.43
