Data from hue_140_FLMS001491_00016.txt Node
Date: Tue Feb 07 16:55:29 GMT 2017
User: dcchb
Spectrometer: FLMS00149
Trigger mode: 0
Integration Time (sec): 2.000000E-2
Scans to average: 10
Electric dark correction enabled: true
Nonlinearity correction enabled: false
Boxcar width: 0
XAxis mode: Wavelengths
Number of Pixels in Spectrum: 2048
>>>>>Begin Spectral Data<<<<<
341.393	-11.09
341.776	-11.09
342.16	-11.09
342.543	-57.19
342.927	-74.59
343.31	-76.85
343.693	-79.56
344.077	-72.55
344.46	-60.35
344.843	-54.02
345.226	-26
345.61	-39.56
345.993	-14.25
346.376	-11.31
346.759	5.64
347.142	-0.92
347.525	51.96
347.908	66.88
348.291	92.19
348.674	95.35
349.057	123.37
349.44	146.87
349.823	133.77
350.206	127.89
350.588	172.18
350.971	179.19
351.354	213.54
351.737	227.1
352.119	225.97
352.502	251.73
352.884	283.82
353.267	283.82
353.65	274.1
354.032	286.76
354.414	313.42
354.797	307.77
355.179	307.55
355.562	331.73
355.944	321.56
356.326	346.19
356.709	331.95
357.091	319.3
357.473	318.4
357.855	348.68
358.238	338.28
358.62	326.98
359.002	324.72
359.384	342.12
359.766	331.73
360.148	323.14
360.53	328.56
360.912	352.97
361.294	345.74
361.676	308.9
362.057	342.58
362.439	348.9
362.821	326.3
363.203	318.62
363.584	302.12
363.966	315.46
364.348	300.09
364.729	328.56
365.111	316.36
365.493	316.14
365.874	310.49
366.256	302.58
366.637	312.97
367.019	289.92
367.4	323.82
367.781	327.66
368.163	307.32
368.544	295.57
368.925	303.03
369.306	291.28
369.688	311.62
370.069	312.29
370.45	324.72
370.831	303.93
371.212	302.35
371.593	321.56
371.974	290.6
372.355	304.84
372.736	332.86
373.117	288.34
373.498	311.62
373.879	316.36
374.26	323.37
374.641	310.03
375.021	313.88
375.402	313.2
375.783	318.4
376.163	319.53
376.544	312.75
376.925	312.29
377.305	314.55
377.686	324.95
378.066	329.47
378.447	312.29
378.827	330.15
379.208	334.67
379.588	317.49
379.968	336.02
380.349	331.73
380.729	324.05
381.109	338.28
381.489	321.56
381.87	333.31
382.25	353.42
382.63	327.66
383.01	337.15
383.39	326.76
383.77	357.49
384.15	363.37
384.53	361.56
384.91	353.65
385.29	345.74
385.67	359.52
386.049	351.84
386.429	359.52
386.809	332.86
387.189	354.33
387.568	343.03
387.948	349.81
388.328	357.72
388.707	336.25
389.087	342.12
389.466	365.85
389.846	356.13
390.225	365.17
390.605	359.75
390.984	358.85
391.363	363.37
391.743	361.33
392.122	372.18
392.501	369.92
392.881	360.43
393.26	374.67
393.639	373.54
394.018	380.99
394.397	368.56
394.776	388.68
395.155	389.81
395.534	358.39
395.913	393.65
396.292	376.02
396.671	370.6
397.05	398.39
397.429	385.74
397.808	405.62
398.186	368.11
398.565	403.37
398.944	382.8
399.323	380.31
399.701	387.09
400.08	411.73
400.458	403.59
400.837	410.37
401.215	414.66
401.594	399.52
401.972	421.9
402.351	396.81
402.729	400.88
403.107	404.04
403.486	414.44
403.864	414.44
404.242	403.82
404.62	410.82
404.999	404.27
405.377	433.42
405.755	413.08
406.133	428
406.511	421.44
406.889	417.83
407.267	437.04
407.645	427.77
408.023	422.35
408.401	422.35
408.779	431.16
409.156	449.24
409.534	475
409.912	441.78
410.29	446.98
410.667	460.54
411.045	441.78
411.422	466.41
411.8	457.15
412.178	453.53
412.555	480.88
412.933	479.75
413.31	465.96
413.687	477.26
414.065	481.56
414.442	470.93
414.819	464.61
415.197	488.11
415.574	471.16
415.951	483.81
416.328	512.29
416.705	504.38
417.082	480.88
417.46	516.13
417.837	524.27
418.214	516.58
418.591	513.64
418.967	487.43
419.344	510.93
419.721	541.21
420.098	523.81
420.475	529.92
420.852	540.76
421.228	549.35
421.605	518.84
421.982	533.98
422.358	535.79
422.735	537.15
423.111	549.35
423.488	561.33
423.864	581.21
424.241	564.04
424.617	558.16
424.994	565.39
425.37	589.35
425.746	570.82
426.123	607.65
426.499	576.92
426.875	587.09
427.251	602.91
427.627	591.61
428.003	599.07
428.379	605.17
428.756	612.17
429.132	610.37
429.507	620.08
429.883	608.78
430.259	638.39
430.635	646.07
431.011	652.62
431.387	643.81
431.763	662.57
432.138	655.79
432.514	673.87
432.89	669.57
433.265	683.58
433.641	652.85
434.016	686.75
434.392	707.31
434.767	700.98
435.143	706.18
435.518	702.34
435.894	710.02
436.269	742.11
436.644	716.13
437.02	721.77
437.395	740.98
437.77	741.44
438.145	754.32
438.52	756.35
438.895	769.68
439.271	796.12
439.646	781.66
440.021	760.19
440.395	775.33
440.77	812.62
441.145	784.6
441.52	794.54
441.895	813.98
442.27	832.28
442.645	827.53
443.019	812.62
443.394	801.09
443.769	812.85
444.143	821.89
444.518	835.22
444.892	821.66
445.267	844.48
445.641	866.4
446.016	851.71
446.39	837.25
446.764	872.51
447.139	871.38
447.513	874.09
447.887	874.77
448.262	882.9
448.636	906.85
449.01	887.65
449.384	910.02
449.758	898.95
450.132	924.03
450.506	937.81
450.88	943.92
451.254	907.76
451.628	932.62
452.002	972.16
452.376	958.15
452.75	970.36
453.123	973.52
453.497	986.85
453.871	979.62
454.244	995.67
454.618	993.18
454.992	997.47
455.365	1063.91
455.739	1040.41
456.112	1056.91
456.486	1079.28
456.859	1095.55
457.232	1091.48
457.606	1111.14
457.979	1114.53
458.352	1147.53
458.725	1138.94
459.099	1185.49
459.472	1187.98
459.845	1182.78
460.218	1206.28
460.591	1201.31
460.964	1193.17
461.337	1239.05
461.71	1282.66
462.083	1263.23
462.456	1262.1
462.829	1273.4
463.201	1325.15
463.574	1328.09
463.947	1346.39
464.32	1361.31
464.692	1389.1
465.065	1383.68
465.438	1405.15
465.81	1429.1
466.183	1460.06
466.555	1494.41
466.928	1501.87
467.3	1508.42
467.672	1547.97
468.045	1580.74
468.417	1606.5
468.789	1613.05
469.161	1629.55
469.534	1666.83
469.906	1712.71
470.278	1740.28
470.65	1771.01
471.022	1759.04
471.394	1827.51
471.766	1854.17
472.138	1884.23
472.51	1930.56
472.882	1979.37
473.253	2013.49
473.625	2048.97
473.997	2109.76
474.369	2139.36
474.74	2140.49
475.112	2219.81
475.484	2274.5
475.855	2322.64
476.227	2343.43
476.598	2491.9
476.97	2501.39
477.341	2538.45
477.713	2666.58
478.084	2646.24
478.455	2749.07
478.827	2830.19
479.198	2920.59
479.569	2957.42
479.94	3028.38
480.311	3106.12
480.682	3212.78
481.053	3312.22
481.424	3421.59
481.795	3452.32
482.166	3593.11
482.537	3670.4
482.908	3754.92
483.279	3813.67
483.65	3958.53
484.021	4126.66
484.391	4144.96
484.762	4235.13
485.133	4352.87
485.503	4432.86
485.874	4591.05
486.244	4746.08
486.615	4824.94
486.985	4973.19
487.356	5097.93
487.726	5217.7
488.097	5337.25
488.467	5433.06
488.837	5601.42
489.207	5684.58
489.578	5874.41
489.948	5938.59
490.318	6103.33
490.688	6216.32
491.058	6360.04
491.428	6477.78
491.798	6576.08
492.168	6786.25
492.538	6926.58
492.908	7009.29
493.278	7150.53
493.648	7273.69
494.017	7437.08
494.387	7502.39
494.757	7690.63
495.126	7795.49
495.496	7900.34
495.866	7995.03
496.235	8185.08
496.605	8241.13
496.974	8428.01
497.344	8507.33
497.713	8609.48
498.082	8707.33
498.452	8884.27
498.821	8941.67
499.19	8997.72
499.559	9137.37
499.928	9287.2
500.298	9317.03
500.667	9395.67
501.036	9416.69
501.405	9670.01
501.774	9660.07
502.143	9836.56
502.512	9810.35
502.88	10049.44
503.249	10075.88
503.618	10221.64
503.987	10323.33
504.356	10406.27
504.724	10350.22
505.093	10476.32
505.462	10523.78
505.83	10608.75
506.199	10747.5
506.567	10856.88
506.936	10840.15
507.304	10999.92
507.672	10994.73
508.041	11036.08
508.409	11144.1
508.777	11278.79
509.145	11376.86
509.514	11339.12
509.882	11463.41
510.25	11512.68
510.618	11523.3
510.986	11617.76
511.354	11667.48
511.722	11839
512.09	11858.88
512.458	11796.06
512.826	11890.29
513.193	11905.21
513.561	12006.68
513.929	11971.42
514.297	12120.12
514.664	12182.94
515.032	12195.15
515.4	12345.88
515.767	12324.86
516.135	12353.11
516.502	12286.89
516.869	12460.22
517.237	12466.78
517.604	12435.82
517.972	12607.11
518.339	12610.73
518.706	12615.7
519.073	12595.81
519.44	12653.66
519.808	12733.66
520.175	12637.85
520.542	12793.32
520.909	12941.57
521.276	12853.89
521.643	12917.84
522.009	12998.06
522.376	12934.34
522.743	13026.76
523.11	13177.27
523.477	13097.95
523.843	13179.07
524.21	13294.55
524.577	13248.45
524.943	13329.35
525.31	13332.06
525.676	13375
526.043	13414.1
526.409	13391.72
526.776	13501.33
527.142	13512.62
527.508	13517.6
527.874	13554.21
528.241	13595.33
528.607	13548.33
528.973	13644.6
529.339	13560.99
529.705	13575.67
530.071	13666.75
530.437	13639.63
530.803	13642.34
531.169	13605.5
531.535	13692.96
531.901	13595.79
532.267	13615
532.632	13622
532.998	13681.89
533.364	13750.81
533.73	13562.34
534.095	13735.67
534.461	13639.63
534.826	13667.42
535.192	13558.73
535.557	13630.81
535.923	13645.5
536.288	13525.73
536.653	13572.74
537.019	13499.07
537.384	13487.31
537.749	13503.81
538.114	13449.35
538.479	13497.26
538.845	13500.2
539.21	13397.6
539.575	13396.92
539.94	13342.23
540.305	13435.34
540.67	13318.28
541.034	13329.8
541.399	13257.04
541.764	13183.14
542.129	13175.46
542.494	13228.34
542.858	13218.62
543.223	13167.1
543.587	13212.29
543.952	13063.15
544.316	13072.86
544.681	12920.78
545.045	12987.44
545.41	12991.96
545.774	12903.15
546.138	12882.13
546.503	12870.83
546.867	12834.68
547.231	12865.18
547.595	12871.29
547.959	12812.3
548.324	12826.32
548.688	12725.3
549.052	12658.64
549.416	12714.68
549.779	12663.38
550.143	12638.3
550.507	12605.3
550.871	12655.02
551.235	12489.15
551.599	12574.12
551.962	12536.83
552.326	12519.88
552.689	12570.28
553.053	12334.58
553.417	12445.99
553.78	12465.42
554.143	12379.1
554.507	12377.29
554.87	12366.67
555.234	12415.03
555.597	12318.08
555.96	12335.03
556.323	12286.89
556.686	12278.76
557.05	12340.23
557.413	12271.08
557.776	12326.67
558.139	12305.43
558.502	12272.88
558.865	12259.55
559.228	12296.84
559.59	12285.99
559.953	12231.98
560.316	12392.65
560.679	12294.35
561.041	12209.83
561.404	12369.38
561.767	12318.53
562.129	12234.69
562.492	12351.53
562.854	12346.78
563.217	12298.42
563.579	12309.94
563.941	12333.9
564.304	12359.43
564.666	12387.23
565.028	12436.27
565.39	12413.9
565.753	12381.81
566.115	12345.2
566.477	12376.38
566.839	12362.6
567.201	12499.32
567.563	12462.26
567.925	12474.91
568.287	12509.26
568.648	12459.32
569.01	12457.74
569.372	12570.05
569.734	12465.65
570.095	12568.47
570.457	12610.28
570.819	12570.05
571.18	12539.09
571.542	12646.66
571.903	12627
572.265	12596.94
572.626	12566.66
572.987	12682.59
573.349	12653.21
573.71	12665.19
574.071	12602.59
574.432	12777.73
574.794	12749.03
575.155	12745.64
575.516	12664.74
575.877	12736.83
576.238	12754.23
576.599	12747.67
576.96	12739.31
577.32	12744.06
577.681	12800.33
578.042	12854.11
578.403	12746.09
578.763	12778.63
579.124	12729.82
579.485	12830.83
579.845	12870.83
580.206	12784.51
580.566	12752.42
580.927	12731.63
581.287	12777.95
581.648	12747.45
582.008	12757.84
582.368	12732.76
582.728	12812.76
583.089	12719.2
583.449	12734.34
583.809	12779.08
584.169	12791.29
584.529	12714.68
584.889	12843.04
585.249	12663.16
585.609	12670.84
585.969	12744.74
586.329	12691.18
586.688	12740.22
587.048	12712.65
587.408	12657.28
587.768	12691.4
588.127	12582.93
588.487	12647.79
588.846	12731.63
589.206	12564.63
589.565	12558.98
589.925	12686.43
590.284	12676.04
590.643	12631.52
591.003	12591.29
591.362	12651.4
591.721	12589.49
592.08	12640.11
592.44	12593.55
592.799	12603.04
593.158	12562.82
593.517	12593.33
593.876	12575.93
594.235	12526.44
594.593	12584.51
594.952	12543.16
595.311	12486.66
595.67	12531.41
596.029	12563.5
596.387	12583.84
596.746	12512.43
597.104	12436.72
597.463	12446.21
597.822	12480.79
598.18	12368.93
598.538	12461.13
598.897	12498.19
599.255	12464.29
599.613	12614.57
599.972	12432.43
600.33	12515.59
600.688	12433.78
601.046	12544.97
601.404	12545.64
601.762	12508.81
602.12	12529.83
602.478	12515.36
602.836	12547
603.194	12548.58
603.552	12523.05
603.91	12527.79
604.268	12492.54
604.625	12549.49
604.983	12577.73
605.341	12448.47
605.698	12569.82
606.056	12508.36
606.413	12520.56
606.771	12540.22
607.128	12541.8
607.485	12474.69
607.843	12455.25
608.2	12606.66
608.557	12600.11
608.914	12621.35
609.272	12659.09
609.629	12640.33
609.986	12689.82
610.343	12661.12
610.7	12650.95
611.057	12695.25
611.414	12610.05
611.771	12679.43
612.127	12698.64
612.484	12652.31
612.841	12741.8
613.198	12709.26
613.554	12671.07
613.911	12762.59
614.267	12767.56
614.624	12746.77
614.98	12824.73
615.337	12825.41
615.693	12723.49
616.05	12721.91
616.406	12834.9
616.762	12797.84
617.118	12756.94
617.475	12846.43
617.831	12798.29
618.187	12916.71
618.543	12922.58
618.899	12916.93
619.255	12927.78
619.611	12860.89
619.967	12924.84
620.323	12918.52
620.678	12884.39
621.034	12893.21
621.39	12834
621.746	12848.24
622.101	12982.02
622.457	12782.02
622.812	12882.81
623.168	12945.41
623.523	12881.46
623.879	12919.87
624.234	12750.16
624.589	12926.2
624.945	12928.91
625.3	12913.54
625.655	12893.88
626.01	12994.45
626.365	12866.99
626.72	12823.6
627.075	12865.64
627.43	12869.7
627.785	12891.85
628.14	12993.99
628.495	12958.06
628.85	12897.95
629.205	12835.58
629.559	12901.57
629.914	12836.71
630.269	12786.32
630.623	12832.19
630.978	12792.19
631.332	12845.52
631.687	12871.74
632.041	12802.14
632.396	12827.9
632.75	12771.85
633.104	12798.29
633.459	12758.07
633.813	12701.8
634.167	12754.68
634.521	12738.63
634.875	12651.18
635.229	12659.77
635.583	12633.1
635.937	12657.05
636.291	12575.47
636.645	12647.79
636.999	12563.27
637.352	12611.41
637.706	12525.31
638.06	12652.53
638.413	12560.56
638.767	12545.19
639.121	12561.69
639.474	12456.61
639.828	12480.79
640.181	12463.61
640.534	12435.59
640.888	12440.79
641.241	12377.97
641.594	12350.17
641.947	12410.51
642.301	12388.59
642.654	12407.57
643.007	12409.83
643.36	12391.98
643.713	12275.6
644.066	12451.18
644.419	12405.08
644.771	12307.91
645.124	12236.05
645.477	12209.61
645.83	12055.26
646.182	12020.01
646.535	11965.09
646.888	12057.75
647.24	11916.28
647.593	11996.05
647.945	11914.02
648.298	11990.18
648.65	11951.76
649.002	11814.36
649.355	11930.75
649.707	11878.77
650.059	11977.07
650.411	12095.26
650.763	12124.41
651.115	12191.76
651.467	12116.05
651.819	12215.26
652.171	12172.55
652.523	12161.93
652.875	12183.39
653.227	12108.14
653.578	12255.71
653.93	12193.79
654.282	12100.23
654.633	12135.71
654.985	12164.19
655.337	12129.84
655.688	12184.75
656.039	12192.21
656.391	12067.69
656.742	12156.95
657.094	12245.09
657.445	12264.52
657.796	12180.68
658.147	12169.84
658.498	12222.94
658.849	12272.43
659.2	12187.01
659.551	12201.92
659.902	12300.23
660.253	12208.93
660.604	12225.65
660.955	12111.76
661.306	12205.77
661.656	12195.6
662.007	12210.74
662.358	12219.33
662.708	12255.93
663.059	12171.87
663.409	12176.39
663.76	12251.19
664.11	12261.81
664.461	12198.08
664.811	12181.59
665.161	12227.46
665.511	12225.2
665.862	12214.35
666.212	12308.59
666.562	12311.75
666.912	12273.34
667.262	12178.65
667.612	12186.78
667.962	12265.88
668.312	12186.78
668.662	12257.06
669.011	12245.31
669.361	12282.15
669.711	12212.32
670.06	12096.16
670.41	12247.35
670.76	12166.67
671.109	12201.47
671.459	12238.31
671.808	12128.25
672.157	12228.59
672.507	12100.68
672.856	12141.81
673.205	12202.38
673.554	12184.07
673.904	12108.14
674.253	12208.03
674.602	12103.62
674.951	11965.32
675.3	11931.88
675.649	12124.86
675.998	12102.04
676.346	12047.58
676.695	12133.45
677.044	11932.55
677.393	12027.01
677.741	12016.17
678.09	12076.28
678.438	12046
678.787	11960.58
679.135	11954.25
679.484	11962.84
679.832	11958.32
680.181	11891.65
680.529	11915.83
680.877	11811.43
681.225	11832.44
681.573	11891.65
681.922	11816.17
682.27	11800.13
682.618	11716.51
682.966	11797.42
683.314	11782.95
683.661	11751.99
684.009	11682.16
684.357	11703.41
684.705	11651.88
685.053	11629.96
685.4	11569.4
685.748	11563.75
686.095	11559.68
686.443	11538.44
686.79	11504.09
687.138	11467.48
687.485	11553.81
687.832	11493.47
688.18	11436.3
688.527	11366.24
688.874	11396.52
689.221	11309.07
689.568	11350.65
689.915	11272.01
690.262	11308.16
690.609	11264.32
690.956	11176.87
691.303	11123.31
691.65	11135.74
691.997	11079.24
692.344	11054.61
692.69	10965.57
693.037	11023.42
693.383	10913.82
693.73	10970.54
694.077	10808.29
694.423	10850.1
694.769	10827.95
695.116	10770.55
695.462	10756.77
695.808	10688.29
696.155	10709.53
696.501	10632.93
696.847	10614.85
697.193	10545.7
697.539	10553.38
697.885	10488.52
698.231	10447.85
698.577	10378.92
698.923	10368.3
699.269	10314.74
699.614	10258.93
699.96	10223.22
700.306	10260.96
700.651	10112.26
700.997	10150.68
701.342	10089.44
701.688	10116.56
702.033	9993.62
702.379	10092.38
702.724	9981.19
703.069	10032.72
703.415	9934.87
703.76	9916.79
704.105	9832.27
704.45	9866.85
704.795	9769.67
705.14	9780.75
705.485	9749.33
705.83	9739.84
706.175	9759.05
706.52	9669.11
706.865	9692.84
707.209	9597.02
707.554	9539.85
707.899	9632.95
708.243	9523.8
708.588	9492.17
708.932	9450.58
709.277	9433.86
709.621	9425.27
709.966	9390.93
710.31	9437.93
710.654	9247.2
710.998	9387.31
711.342	9319.06
711.687	9228.67
712.031	9259.86
712.375	9204.26
712.719	9226.64
713.063	9205.39
713.407	9210.37
713.75	9174.66
714.094	9160.87
714.438	9109.12
714.782	9080.43
715.125	9077.49
715.469	9101.67
715.812	9047.66
716.156	9007.66
716.499	9016.25
716.843	8988.45
717.186	8894.89
717.53	8998.39
717.873	8945.97
718.216	8980.77
718.559	8966.3
718.902	8844.73
719.246	8872.75
719.589	8821.22
719.932	8828.45
720.275	8826.87
720.617	8863.03
720.96	8862.13
721.303	8821.67
721.646	8827.78
721.989	8746.2
722.331	8747.33
722.674	8772.18
723.016	8750.49
723.359	8748.23
723.701	8683.15
724.044	8716.37
724.386	8706.42
724.729	8725.63
725.071	8752.3
725.413	8702.36
725.755	8678.85
726.097	8706.42
726.439	8533.77
726.782	8695.12
727.124	8677.05
727.465	8624.17
727.807	8646.99
728.149	8633.43
728.491	8653.77
728.833	8655.58
729.175	8652.19
729.516	8679.98
729.858	8580.1
730.199	8568.12
730.541	8594.11
730.882	8609.25
731.224	8644.05
731.565	8566.54
731.906	8607.67
732.248	8592.53
732.589	8511.85
732.93	8520.21
733.271	8519.54
733.612	8547.11
733.953	8534.22
734.294	8525.19
734.635	8570.83
734.976	8573.55
735.317	8525.86
735.658	8519.08
735.999	8510.04
736.339	8489.48
736.68	8505.98
737.021	8558.63
737.361	8513.43
737.702	8545.07
738.042	8559.08
738.383	8562.92
738.723	8591.17
739.063	8556.37
739.404	8591.85
739.744	8558.18
740.084	8547.33
740.424	8632.53
740.764	8602.25
741.104	8682.92
741.444	8637.27
741.784	8667.78
742.124	8695.8
742.464	8665.75
742.804	8685.86
743.143	8700.32
743.483	8740.1
743.823	8712.53
744.162	8772.86
744.502	8843.14
744.841	8806.76
745.181	8905.06
745.52	8852.86
745.86	8946.19
746.199	8915.68
746.538	8987.55
746.877	9024.61
747.216	9099.63
747.556	9068.9
747.895	9209.46
748.234	9159.97
748.573	9250.14
748.911	9294.2
749.25	9289.46
749.589	9383.69
749.928	9435.44
750.267	9500.53
750.605	9623.46
750.944	9605.16
751.283	9707.53
751.621	9808.54
751.96	9795.66
752.298	9942.78
752.636	9991.59
752.975	10086.05
753.313	10199.94
753.651	10328.3
753.989	10360.17
754.327	10458.47
754.666	10617.33
755.004	10705.47
755.342	10802.64
755.679	11005.35
756.017	11049.86
756.355	11215.96
756.693	11322.63
757.031	11489.85
757.368	11592.45
757.706	11697.08
758.044	11886.68
758.381	12128.48
758.719	12250.74
759.056	12374.8
759.394	12562.37
759.731	12629.26
760.068	12714.91
760.405	12817.28
760.743	13005.97
761.08	13228.34
761.417	13327.09
761.754	13562.34
762.091	13618.16
762.428	13789.23
762.765	13893.86
763.102	14084.14
763.438	14179.73
763.775	14366.16
764.112	14509.21
764.449	14770.22
764.785	14832.36
765.122	14913.49
765.458	15001.4
765.795	15171.79
766.131	15377.43
766.467	15577.66
766.804	15650.87
767.14	15732
767.476	15800.25
767.812	15913.01
768.148	16160.46
768.485	16278.65
768.821	16320.23
769.157	16429.16
769.492	16597.97
769.828	16670.28
770.164	16685.2
770.5	16816.04
770.836	17028.92
771.171	17055.13
771.507	17089.25
771.842	17145.3
772.178	17261.45
772.513	17372.64
772.849	17524.04
773.184	17559.98
773.519	17707.99
773.855	17581.22
774.19	17771.04
774.525	17886.52
774.86	17922.23
775.195	18030.02
775.53	18004.71
775.865	18064.14
776.2	18038.61
776.535	17944.82
776.87	18079.51
777.205	18161.32
777.539	18096.23
777.874	18193.86
778.209	18138.72
778.543	18176.68
778.878	18156.8
779.212	18217.81
779.547	18134.65
779.881	18273.63
780.215	18206.29
780.55	18297.81
780.884	18274.53
781.218	18292.39
781.552	18362.21
781.886	18351.82
782.22	18289.67
782.554	18343.23
782.888	18246.74
783.222	18252.39
783.556	18201.32
783.889	18202.45
784.223	18110.47
784.557	18101.66
784.89	18298.49
785.224	18061.66
785.557	18114.09
785.891	18125.38
786.224	18056.69
786.558	18095.1
786.891	18041.77
787.224	18003.13
787.557	17886.07
787.891	18030.47
788.224	18055.78
788.557	18009.91
788.89	17958.38
789.223	17923.36
789.556	17891.72
789.888	17898.5
790.221	17860.76
790.554	17707.09
790.887	17694.21
791.219	17669.8
791.552	17682.01
791.884	17554.78
792.217	17578.73
792.549	17606.08
792.882	17520.43
793.214	17398.17
793.546	17528.34
793.879	17344.84
794.211	17326.76
794.543	17334.22
794.875	17297.61
795.207	17301.9
795.539	17200.44
795.871	17270.27
796.203	17199.99
796.535	17063.27
796.867	17023.72
797.198	17035.47
797.53	17018.75
797.862	16889.03
798.193	16990.95
798.525	16915.25
798.856	16902.14
799.188	16775.59
799.519	16705.08
799.85	16703.95
800.182	16677.29
800.513	16662.15
800.844	16472.55
801.175	16641.81
801.506	16609.04
801.837	16535.14
802.168	16513.45
802.499	16392.55
802.83	16280.46
803.161	16312.33
803.491	16272.55
803.822	16339.9
804.153	16230.52
804.483	16150.75
804.814	16095.83
805.145	16079.79
805.475	16079.56
805.805	16055.83
806.136	16035.5
806.466	15999.11
806.796	16076.63
807.126	15886.12
807.457	15861.26
807.787	15849.74
808.117	15818.1
808.447	15672.79
808.777	15774.94
809.107	15746.92
809.436	15701.49
809.766	15560.48
810.096	15583.76
810.426	15461.05
810.755	15634.38
811.085	15533.59
811.414	15499.01
811.744	15391.22
812.073	15377.43
812.403	15438.68
812.732	15361.84
813.061	15332.01
813.39	15292.92
813.719	15211.11
814.049	15279.36
814.378	15252.01
814.707	15163.2
815.036	15139.7
815.365	15026.03
815.693	14907.84
816.022	14956.88
816.351	14906.71
816.68	14816.32
817.008	14975.41
817.337	14788.98
817.665	14846.38
817.994	14793.72
818.322	14823.32
818.651	14694.51
818.979	14652.93
819.307	14714.18
819.636	14733.61
819.964	14646.15
820.292	14717.34
820.62	14647.28
820.948	14613.39
821.276	14624.69
821.604	14576.33
821.932	14599.15
822.259	14568.42
822.587	14656.1
822.915	14568.42
823.243	14624.69
823.57	14582.88
823.898	14564.57
824.225	14536.78
824.553	14614.74
824.88	14582.65
825.207	14598.7
825.535	14590.11
825.862	14656.1
826.189	14540.62
826.516	14702.42
826.843	14651.8
827.17	14706.27
827.497	14575.2
827.824	14591.01
828.151	14636.44
828.478	14530.45
828.805	14672.37
829.131	14572.26
829.458	14582.65
829.785	14563.67
830.111	14579.72
830.438	14591.24
830.764	14630.79
831.09	14609.32
831.417	14542.88
831.743	14616.55
832.069	14617.23
832.395	14521.41
832.722	14532.49
833.048	14580.85
833.374	14466.95
833.7	14450.68
834.026	14485.03
834.351	14538.81
834.677	14478.7
835.003	14419.49
835.329	14504.01
835.654	14467.63
835.98	14404.35
836.306	14509.66
836.631	14363
836.956	14418.59
837.282	14442.54
837.607	14378.59
837.932	14330.91
838.258	14309.21
838.583	14290.46
838.908	14113.51
839.233	14278.48
839.558	14208.43
839.883	14102.44
840.208	14169.56
840.533	14113.97
840.858	14087.53
841.182	14170.69
841.507	13996.68
841.832	14002.56
842.156	13915.33
842.481	13951.03
842.805	13949.45
843.13	13844.59
843.454	13886.63
843.778	13808.44
844.103	13934.53
844.427	13724.82
844.751	13746.97
845.075	13695.67
845.399	13733.18
845.723	13633.75
846.047	13566.41
846.371	13496.81
846.695	13525.51
847.019	13451.84
847.343	13436.24
847.666	13262.24
847.99	13264.95
848.313	13262.91
848.637	13197.83
848.96	13054.78
849.284	13142.01
849.607	12957.61
849.931	13016.59
850.254	12919.42
850.577	12849.82
850.9	12855.47
851.223	12765.07
851.546	12646.21
851.869	12576.6
852.192	12584.06
852.515	12523.95
852.838	12506.78
853.161	12516.04
853.483	12439.66
853.806	12336.38
854.129	12331.41
854.451	12299.55
854.774	12274.92
855.096	12179.1
855.419	12128.03
855.741	12037.18
856.063	12074.02
856.385	12035.83
856.708	12057.52
857.03	11990.18
857.352	12013.68
857.674	11888.49
857.996	11922.38
858.318	11846.45
858.64	11748.38
858.961	11711.99
859.283	11763.74
859.605	11702.73
859.926	11786.79
860.248	11637.65
860.57	11599.23
860.891	11678.1
861.212	11554.48
861.534	11466.13
861.855	11505.45
862.176	11483.75
862.498	11496.18
862.819	11449.4
863.14	11468.16
863.461	11399.69
863.782	11373.92
864.103	11323.53
864.424	11260.03
864.745	11358.56
865.065	11296.19
865.386	11211.67
865.707	11246.92
866.027	11167.15
866.348	11246.47
866.668	11198.56
866.989	11163.08
867.309	11031.33
867.63	11154.72
867.95	11104.78
868.27	11001.05
868.59	11039.24
868.91	11088.28
869.23	10996.76
869.55	10993.6
869.87	11050.77
870.19	10865.24
870.51	11037.89
870.83	11028.62
871.15	10926.48
871.469	10930.55
871.789	10908.4
872.109	10929.87
872.428	10817.55
872.748	10827.5
873.067	10887.38
873.386	10883.54
873.706	10834.73
874.025	10740.27
874.344	10724.45
874.663	10778.23
874.982	10775.52
875.301	10747.95
875.62	10723.32
875.939	10690.78
876.258	10709.31
876.577	10614.17
876.896	10584.79
877.214	10577.56
877.533	10632.25
877.852	10600.61
878.17	10552.02
878.489	10577.79
878.807	10594.74
879.125	10587.28
879.444	10558.58
879.762	10501.18
880.08	10504.34
880.398	10446.94
880.716	10447.39
881.034	10356.78
881.352	10400.39
881.67	10306.83
881.988	10320.84
882.306	10342.99
882.624	10226.61
882.941	10225.25
883.259	10212.15
883.577	10234.29
883.894	10167.85
884.212	10166.05
884.529	10157.68
884.846	10113.39
885.164	10145.26
885.481	10072.94
885.798	10127.4
886.115	10056.44
886.432	9995.66
886.75	9977.35
887.067	10001.08
887.383	9918.14
887.7	9897.35
888.017	9885.83
888.334	9888.77
888.651	9877.92
888.967	9846.05
889.284	9772.16
889.6	9779.16
889.917	9685.15
890.233	9743.91
890.55	9682.67
890.866	9633.86
891.182	9660.52
891.498	9616.46
891.815	9515.22
892.131	9508.66
892.447	9497.14
892.763	9474.76
893.079	9459.62
893.395	9471.15
893.71	9345.05
894.026	9383.24
894.342	9343.02
894.657	9264.6
894.973	9275.45
895.289	9219.86
895.604	9185.06
895.92	9197.26
896.235	9089.69
896.55	9099.41
896.865	9104.15
897.181	9062.8
897.496	8985.06
897.811	8985.96
898.126	8971.95
898.441	9017.6
898.756	8916.36
899.071	8877.72
899.386	8857.83
899.7	8810.15
900.015	8759.98
900.33	8687.22
900.644	8663.03
900.959	8693.77
901.273	8608.57
901.588	8628.69
901.902	8546.2
902.216	8527.22
902.531	8468.24
902.845	8507.56
903.159	8428.01
903.473	8360.9
903.787	8311.86
904.101	8311.63
904.415	8336.72
904.729	8275.02
905.042	8238.64
905.356	8107.57
905.67	8182.6
905.984	8184.18
906.297	8123.61
906.611	8107.12
906.924	8082.03
907.237	8016.95
907.551	7976.27
907.864	7975.37
908.177	8034.35
908.491	7942.15
908.804	7884.52
909.117	7821.93
909.43	7797.07
909.743	7765.21
910.056	7751.65
910.368	7717.75
910.681	7660.58
910.994	7702.38
911.307	7572.67
911.619	7560.47
911.932	7585.32
912.244	7477.08
912.557	7533.35
912.869	7530.18
913.181	7461.94
913.494	7470.3
913.806	7381.71
914.118	7262.39
914.43	7307.82
914.742	7254.26
915.054	7216.52
915.366	7231.89
915.678	7148.95
915.99	7144.88
916.302	7099.69
916.613	7129.06
916.925	7054.26
917.236	7047.03
917.548	6981.05
917.859	6987.15
918.171	6950.99
918.482	6896.53
918.794	6956.41
919.105	6873.93
919.416	6824.89
919.727	6826.7
920.038	6738.34
920.349	6830.09
920.66	6709.87
920.971	6741.96
921.282	6674.61
921.593	6697.44
921.903	6594.61
922.214	6612.02
922.525	6622.86
922.835	6514.16
923.146	6552.13
923.456	6465.13
923.767	6462.19
924.077	6487.95
924.387	6445.47
924.697	6392.13
925.008	6410.66
925.318	6362.08
925.628	6376.99
925.938	6284.57
926.248	6235.75
926.558	6254.51
926.867	6227.39
927.177	6142.2
927.487	6174.74
927.796	6110.79
928.106	6081.41
928.416	6057.23
928.725	6015.42
929.034	6023.33
929.344	6023.56
929.653	6000.51
929.962	5938.36
930.271	5949.43
930.581	5847.74
930.89	5890.68
931.199	5857.46
931.508	5834.18
931.817	5869.89
932.125	5813.17
932.434	5768.87
932.743	5733.85
933.051	5716.45
933.36	5662.89
933.669	5645.94
933.977	5616.34
934.286	5623.34
934.594	5602.32
934.902	5566.85
935.21	5595.54
935.519	5555.32
935.827	5486.85
936.135	5495.43
936.443	5432.39
936.751	5424.7
937.059	5453.18
937.367	5398.04
937.674	5426.74
937.982	5369.79
938.29	5293.18
938.597	5310.81
938.905	5278.72
939.213	5255.44
939.52	5251.6
939.827	5188.78
940.135	5178.15
940.442	5124.37
940.749	5096.35
941.056	5142
941.363	5085.05
941.67	5074.2
941.977	5073.75
942.284	5029.68
942.591	5017.93
942.898	4956.24
943.205	4933.87
943.511	4972.06
943.818	4940.42
944.125	4881.44
944.431	4911.04
944.738	4903.81
945.044	4790.59
945.35	4830.14
945.657	4787.2
945.963	4752.86
946.269	4737.26
946.575	4749.47
946.881	4720.99
947.187	4708.56
947.493	4645.29
947.799	4674.89
948.105	4687.55
948.41	4585.85
948.716	4597.61
949.022	4610.94
949.327	4564.39
949.633	4528.45
949.938	4543.82
950.244	4543.14
950.549	4466.08
950.854	4471.51
951.16	4464.73
951.465	4442.58
951.77	4412.75
952.075	4391.96
952.38	4387.89
952.685	4336.14
952.99	4346.09
953.294	4285.52
953.599	4314.9
953.904	4275.13
954.209	4246.65
954.513	4280.78
954.818	4257.95
955.122	4201.01
955.426	4217.05
955.731	4181.57
956.035	4144.06
956.339	4083.72
956.643	4136.37
956.948	4076.94
957.252	4043.5
957.556	4073.33
957.86	4012.99
958.163	4039.43
958.467	3967.57
958.771	3996.94
959.075	3964.85
959.378	3971.41
959.682	3981.35
959.985	3922.14
960.289	3900.22
960.592	3864.52
960.896	3863.61
961.199	3879.66
961.502	3823.39
961.805	3795.37
962.108	3805.76
962.411	3755.59
962.714	3787.68
963.017	3769.15
963.32	3747.46
963.623	3713.33
963.926	3717.18
964.228	3701.58
964.531	3692.54
964.833	3689.15
965.136	3621.36
965.438	3622.49
965.741	3634.92
966.043	3586.78
966.345	3611.64
966.648	3579.55
966.95	3548.82
967.252	3509.95
967.554	3471.08
967.856	3542.04
968.158	3462.72
968.46	3470.4
968.761	3439.9
969.063	3435.15
969.365	3453.68
969.666	3411.2
969.968	3406.22
970.269	3388.82
970.571	3386.34
970.872	3373.46
971.174	3334.81
971.475	3321.25
971.776	3307.47
972.077	3263.4
972.378	3316.73
972.679	3294.81
972.98	3277.87
973.281	3277.64
973.582	3202.84
973.883	3206.46
974.183	3176.17
974.484	3187.92
974.785	3183.63
975.085	3164.2
975.386	3152.22
975.686	3121.49
975.986	3124.65
976.287	3110.86
976.587	3097.98
976.887	3086.01
977.187	3086.23
977.487	3056.18
977.787	3015.95
978.087	3047.36
978.387	3013.47
978.687	2968.27
978.987	2994.48
979.286	2945.22
979.586	2960.59
979.885	2959.46
980.185	2922.85
980.484	2924.88
980.784	2868.61
981.083	2871.55
981.382	2891.21
981.682	2847.37
981.981	2858.44
982.28	2864.54
982.579	2786.35
982.878	2789.07
983.177	2837.2
983.475	2765.11
983.774	2788.16
984.073	2781.38
984.372	2749.97
984.67	2737.77
984.969	2741.16
985.267	2713.13
985.566	2700.25
985.864	2675.4
986.162	2693.93
986.461	2645.79
986.759	2681.95
987.057	2608.05
987.355	2613.48
987.653	2610.54
987.951	2585.23
988.249	2594.49
988.547	2576.87
988.844	2584.1
989.142	2546.13
989.44	2545
989.737	2540.48
990.035	2550.65
990.332	2510.88
990.63	2516.98
990.927	2512.91
991.224	2481.73
991.521	2461.16
991.819	2436.98
992.116	2404.22
992.413	2464.1
992.71	2432.92
993.006	2458.23
993.303	2391.79
993.6	2410.54
993.897	2385.01
994.193	2381.17
994.49	2364.22
994.787	2330.55
995.083	2345.23
995.379	2298.68
995.676	2313.82
995.972	2319.02
996.268	2293.71
996.565	2266.37
996.861	2252.58
997.157	2251.45
997.453	2248.97
997.749	2242.19
998.044	2197.89
998.34	2180.04
998.636	2177.56
998.932	2219.14
999.227	2155.18
999.523	2192.92
999.818	2149.31
1000.114	2144.11
1000.409	2149.76
1000.704	2093.94
1001	2093.94
1001.295	2084.45
1001.59	2090.78
1001.885	2119.03
1002.18	2042.64
1002.475	2025.92
1002.77	2037.22
1003.065	2011.01
1003.359	1994.28
1003.654	2000.39
1003.949	2014.85
1004.243	2006.94
1004.538	1992.7
1004.832	1964.68
1005.127	1961.74
1005.421	1935.53
1005.715	1918.35
1006.009	1931.01
1006.304	1926.26
1006.598	1917.68
1006.892	1866.6
1007.186	1868.86
1007.48	1813.5
1007.773	1854.4
1008.067	1854.63
1008.361	1810.11
1008.655	1820.05
1008.948	1813.27
1009.242	1794.06
1009.535	1772.82
1009.829	1759.71
1010.122	1785.25
1010.415	1759.04
1010.708	1760.62
1011.001	1752.03
1011.295	1723.56
1011.588	1720.84
1011.881	1700.73
1012.173	1712.48
1012.466	1689.21
1012.759	1694.86
1013.052	1673.61
1013.344	1654.18
1013.637	1698.7
1013.93	1628.87
1014.222	1648.98
1014.514	1621.19
1014.807	1634.75
1015.099	1599.72
1015.391	1594.52
1015.683	1588.19
1015.976	1584.58
1016.268	1557.91
1016.56	1547.52
1016.851	1550.68
1017.143	1541.87
1017.435	1526.73
1017.727	1533.96
1018.018	1500.74
1018.31	1499.16
1018.602	1497.8
1018.893	1487.18
1019.185	1491.7
1019.476	1449.67
1019.767	1460.74
1020.058	1432.72
1020.35	1451.47
1020.641	1434.07
1020.932	1407.86
1021.223	1416.67
1021.514	1397.69
1021.804	1407.63
1022.095	1396.79
1022.386	1385.26
1022.677	1346.62
1022.967	1364.24
1023.258	1342.1
1023.548	1328.31
1023.839	1343.91
1024.129	1333.96
1024.419	1310.91
1024.709	1281.99
1025	1303.23
1025.29	1267.98
1025.58	1267.3
1025.87	1279.05
1026.16	1256
1026.449	1263.68
1026.739	1253.06
1027.029	1234.98
1027.319	1236.34
1027.608	1218.71
1027.898	1237.02
1028.187	1199.05
1028.477	1186.62
1028.766	1176.45
1029.055	1178.49
1029.344	1171.25
1029.634	1172.84
1029.923	1150.24
1030.212	1160.86
1030.501	1135.55
1030.79	1121.31
1031.078	1131.48
1031.367	1146.85
1031.656	1126.06
1031.945	1110.47
1032.233	1118.6
1032.522	1110.01
1032.81	1069.11
1033.099	1094.19
1033.387	1087.41
1033.675	1062.56
1033.963	1069.56
1034.251	1053.97
1034.54	1060.3
1034.828	1040.18
1035.116	1041.54
1035.403	1022.78
1035.691	998.15
1035.979	1031.15
1036.267	1004.71
1036.554	995.44
1036.842	996.57
1037.129	1006.74
1037.417	1003.12
1037.704	985.5
1037.992	976.68
1038.279	948.21
1038.566	937.36
1038.853	937.36
1039.14	937.36
