Data from hue_190_FLMS001491_00069.txt Node
Date: Tue Feb 07 16:45:37 GMT 2017
User: dcchb
Spectrometer: FLMS00149
Trigger mode: 0
Integration Time (sec): 2.000000E-2
Scans to average: 10
Electric dark correction enabled: true
Nonlinearity correction enabled: false
Boxcar width: 0
XAxis mode: Wavelengths
Number of Pixels in Spectrum: 2048
>>>>>Begin Spectral Data<<<<<
341.393	5
341.776	5
342.16	5
342.543	-57.37
342.927	-72.51
343.31	-73.87
343.693	-62.79
344.077	-38.39
344.46	-59.41
344.843	-44.26
345.226	-44.26
345.61	-28.45
345.993	-23.7
346.376	-6.75
346.759	11.33
347.142	16.75
347.525	42.29
347.908	69.4
348.291	55.62
348.674	81.38
349.057	105.11
349.44	149.85
349.823	136.07
350.206	166.35
350.588	190.98
350.971	225.79
351.354	231.66
351.737	250.19
352.119	254.26
352.502	270.3
352.884	289.06
353.267	296.29
353.65	290.42
354.032	304.65
354.414	313.24
354.797	310.3
355.179	300.36
355.562	315.5
355.944	337.19
356.326	339
356.709	316.63
357.091	320.02
357.473	348.27
357.855	349.85
358.238	356.4
358.62	343.52
359.002	320.25
359.384	321.83
359.766	350.75
360.148	337.87
360.53	325.67
360.912	327.25
361.294	341.94
361.676	323.41
362.057	315.05
362.439	316.4
362.821	320.02
363.203	319.34
363.584	342.62
363.966	309.4
364.348	317.31
364.729	313.69
365.111	310.53
365.493	306.23
365.874	310.08
366.256	308.27
366.637	324.99
367.019	325.9
367.4	322.73
367.781	310.53
368.163	324.31
368.544	319.79
368.925	310.08
369.306	296.29
369.688	294.48
370.069	306.23
370.45	295.84
370.831	310.08
371.212	305.56
371.593	292
371.974	327.48
372.355	340.36
372.736	286.12
373.117	305.78
373.498	296.97
373.879	314.6
374.26	334.26
374.641	310.3
375.021	302.85
375.402	333.8
375.783	333.8
376.163	338.32
376.544	328.16
376.925	331.77
377.305	320.25
377.686	342.39
378.066	313.01
378.447	318.21
378.827	321.6
379.208	334.48
379.588	338.55
379.968	319.57
380.349	343.97
380.729	332
381.109	350.53
381.489	332.9
381.87	336.52
382.25	312.56
382.63	325.67
383.01	336.74
383.39	336.97
383.77	324.31
384.15	325.22
384.53	346.23
384.91	337.65
385.29	355.73
385.67	355.05
386.049	359.34
386.429	366.12
386.809	357.98
387.189	354.14
387.568	355.27
387.948	337.42
388.328	341.26
388.707	356.4
389.087	350.3
389.466	359.34
389.846	329.51
390.225	361.83
390.605	343.3
390.984	369.96
391.363	353.47
391.743	346.01
392.122	365.44
392.501	362.05
392.881	360.7
393.26	365.67
393.639	375.16
394.018	362.96
394.397	373.58
394.776	367.25
395.155	397.76
395.534	372
395.913	382.62
396.292	387.36
396.671	400.02
397.05	395.5
397.429	398.21
397.808	376.29
398.186	381.04
398.565	404.99
398.944	382.39
399.323	392.33
399.701	377.87
400.08	412.9
400.458	400.7
400.837	402.5
401.215	406.8
401.594	390.98
401.972	415.16
402.351	428.72
402.729	448.83
403.107	432.56
403.486	426.46
403.864	425.33
404.242	428.27
404.62	427.81
404.999	416.06
405.377	429.4
405.755	461.26
406.133	442.05
406.511	450.86
406.889	444.08
407.267	462.39
407.645	452.67
408.023	487.93
408.401	470.52
408.779	475.95
409.156	473.24
409.534	498.09
409.912	506.68
410.29	512.33
410.667	514.37
411.045	507.36
411.422	505.33
411.8	537.64
412.178	534.93
412.555	572.22
412.933	561.6
413.31	569.5
413.687	583.52
414.065	568.83
414.442	574.02
414.819	574.02
415.197	614.93
415.574	619.45
415.951	610.86
416.328	639.33
416.705	645.66
417.082	636.4
417.46	651.31
417.837	661.03
418.214	660.58
418.591	692.89
418.967	677.75
419.344	702.83
419.721	701.03
420.098	695.6
420.475	698.99
420.852	734.25
421.228	729.73
421.605	768.82
421.982	760.91
422.358	762.72
422.735	797.07
423.111	799.33
423.488	813.34
423.864	827.58
424.241	849.72
424.617	855.82
424.994	831.87
425.37	868.71
425.746	885.43
426.123	923.62
426.499	937.4
426.875	951.19
427.251	934.47
427.627	944.18
428.003	967.46
428.379	968.59
428.756	983.96
429.132	993.45
429.507	1011.53
429.883	988.48
430.259	1056.05
430.635	1033.45
431.011	1028.7
431.387	1059.66
431.763	1094.91
432.138	1117.29
432.514	1135.82
432.89	1124.74
433.265	1164.29
433.641	1211.07
434.016	1206.32
434.392	1214.69
434.767	1245.42
435.143	1242.93
435.518	1289.26
435.894	1292.42
436.269	1314.57
436.644	1362.25
437.02	1372.87
437.395	1404.74
437.77	1415.81
438.145	1408.58
438.52	1454.45
438.895	1513.66
439.271	1492.64
439.646	1535.58
440.021	1580.33
440.395	1540.1
440.77	1565.64
441.145	1615.13
441.52	1649.48
441.895	1653.77
442.27	1671.4
442.645	1660.55
443.019	1707.78
443.394	1688.35
443.769	1726.31
444.143	1725.86
444.518	1755.91
444.892	1793.88
445.267	1770.6
445.641	1813.31
446.016	1811.05
446.39	1850.6
446.764	1846.53
447.139	1874.33
447.513	1884.05
447.887	1906.87
448.262	1914.1
448.636	1936.93
449.01	1962.91
449.384	1939.64
449.758	1954.55
450.132	2011.95
450.506	2038.84
450.88	2009.92
451.254	2064.15
451.628	2088.56
452.002	2119.75
452.376	2113.19
452.75	2115.68
453.123	2140.99
453.497	2160.65
453.871	2197.26
454.244	2241.1
454.618	2239.74
454.992	2275.22
455.365	2299.85
455.739	2321.55
456.112	2362.45
456.486	2430.92
456.859	2461.21
457.232	2461.21
457.606	2468.66
457.979	2472.96
458.352	2571.71
458.725	2552.28
459.099	2610.13
459.472	2614.65
459.845	2693.52
460.218	2740.52
460.591	2713.63
460.964	2735.55
461.337	2761.31
461.71	2838.15
462.083	2856
462.456	2858.26
462.829	2900.97
463.201	2966.28
463.574	2941.19
463.947	3016.22
464.32	3061.87
464.692	3080.85
465.065	3144.58
465.438	3180.06
465.81	3238.81
466.183	3201.98
466.555	3323.33
466.928	3320.84
467.3	3276.78
467.672	3412.14
468.045	3501.41
468.417	3502.31
468.789	3556.32
469.161	3535.53
469.534	3613.27
469.906	3713.38
470.278	3711.12
470.65	3762.19
471.022	3852.81
471.394	3932.35
471.766	3960.15
472.138	3988.85
472.51	4118.79
472.882	4124.89
473.253	4193.14
473.625	4267.94
473.997	4365.11
474.369	4388.39
474.74	4409.18
475.112	4522.4
475.484	4651.66
475.855	4704.54
476.227	4739.79
476.598	4812.78
476.97	4893.68
477.341	5008.26
477.713	5041.25
478.084	5076.05
478.455	5246.44
478.827	5271.75
479.198	5438.08
479.569	5425.42
479.94	5587.45
480.311	5662.03
480.682	5747.67
481.053	5872.42
481.424	5985.63
481.795	6019.98
482.166	6119.64
482.537	6221.56
482.908	6289.58
483.279	6376.13
483.65	6477.15
484.021	6646.63
484.391	6719.63
484.762	6774.54
485.133	6834.65
485.503	6941.54
485.874	7065.61
486.244	7108.99
486.615	7294.07
486.985	7397.57
487.356	7529.55
487.726	7586.5
488.097	7679.83
488.467	7785.59
488.837	7903.78
489.207	7948.75
489.578	8093.6
489.948	8110.1
490.318	8224.67
490.688	8284.33
491.058	8442.74
491.428	8519.13
491.798	8565.23
492.168	8743.98
492.538	8764.77
492.908	8841.15
493.278	8987.59
493.648	9048.15
494.017	9107.36
494.387	9160.69
494.757	9240.69
495.126	9298.31
495.496	9342.61
495.866	9341.48
496.235	9405.88
496.605	9487.69
496.974	9580.57
497.344	9595.93
497.713	9711.86
498.082	9698.76
498.452	9791.86
498.821	9798.41
499.19	9885.64
499.559	9955.47
499.928	10011.52
500.298	10018.3
500.667	10103.72
501.036	10060.33
501.405	10126.54
501.774	10197.95
502.143	10210.16
502.512	10196.6
502.88	10282.92
503.249	10220.32
503.618	10355.01
503.987	10385.07
504.356	10397.72
504.724	10468.68
505.093	10441.56
505.462	10506.87
505.83	10524.27
506.199	10632.52
506.567	10705.74
506.936	10598.62
507.304	10668.67
507.672	10747.54
508.041	10750.03
508.409	10812.85
508.777	10770.14
509.145	10889.46
509.514	10823.7
509.882	10898.27
510.25	10864.83
510.618	10898.5
510.986	10917.03
511.354	11000.87
511.722	11070.92
512.09	11033.18
512.458	11034.31
512.826	11056.91
513.193	11092.39
513.561	11048.78
513.929	11123.58
514.297	11197.02
514.664	11190.92
515.032	11178.94
515.4	11180.07
515.767	11191.6
516.135	11255.1
516.502	11139.85
516.869	11267.3
517.237	11263.91
517.604	11212.61
517.972	11335.78
518.339	11277.02
518.706	11258.04
519.073	11248.55
519.44	11271.82
519.808	11398.15
520.175	11293.52
520.542	11379.39
520.909	11393.4
521.276	11315.66
521.643	11346.4
522.009	11451.48
522.376	11334.42
522.743	11408.99
523.11	11399.05
523.477	11446.51
523.843	11499.39
524.21	11544.13
524.577	11533.51
524.943	11531.93
525.31	11497.58
525.676	11518.14
526.043	11561.76
526.409	11516.34
526.776	11611.02
527.142	11482.44
527.508	11508.43
527.874	11480.18
528.241	11513.85
528.607	11489.22
528.973	11436.11
529.339	11507.3
529.705	11402.89
530.071	11566.73
530.437	11395.89
530.803	11457.35
531.169	11418.26
531.535	11269.11
531.901	11301.2
532.267	11320.63
532.632	11357.92
532.998	11316.57
533.364	11231.6
533.73	11207.19
534.095	11210.81
534.461	11150.47
534.826	11138.72
535.192	11052.84
535.557	10986.41
535.923	11068.21
536.288	10976.91
536.653	11025.73
537.019	10840.87
537.384	10818.73
537.749	10870.02
538.114	10866.41
538.479	10667.32
538.845	10723.36
539.21	10612.63
539.575	10686.75
539.94	10523.59
540.305	10487.21
540.67	10468
541.034	10449.7
541.399	10410.38
541.764	10322.92
542.129	10349.36
542.494	10226.65
542.858	10214
543.223	10155.24
543.587	10076.83
543.952	10052.42
544.316	10058.29
544.681	9962.48
545.045	9963.38
545.41	9905.53
545.774	9928.35
546.138	9786.89
546.503	9746.44
546.867	9745.31
547.231	9745.76
547.595	9692.2
547.959	9685.42
548.324	9562.71
548.688	9522.72
549.052	9495.82
549.416	9419.22
549.779	9351.42
550.143	9297.18
550.507	9311.42
550.871	9275.04
551.235	9189.84
551.599	9213.8
551.962	9150.97
552.326	9117.98
552.689	9072.11
553.053	8985.33
553.417	8927.48
553.78	8977.42
554.143	8942.62
554.507	8891.77
554.87	8818.55
555.234	8829.4
555.597	8778.33
555.96	8803.86
556.323	8735.39
556.686	8591.21
557.05	8663.76
557.413	8647.03
557.776	8619.24
558.139	8595.51
558.502	8529.52
558.865	8554.15
559.228	8517.77
559.59	8485.45
559.953	8460.37
560.316	8426.25
560.679	8478
561.041	8434.16
561.404	8440.03
561.767	8412.91
562.129	8351.45
562.492	8405
562.854	8288.62
563.217	8292.24
563.579	8308.74
563.941	8352.35
564.304	8350.32
564.666	8388.73
565.028	8323.65
565.39	8244.78
565.753	8315.97
566.115	8318.23
566.477	8287.95
566.839	8307.38
567.201	8301.05
567.563	8314.84
567.925	8240.26
568.287	8275.52
568.648	8205.46
569.01	8264.44
569.372	8223.09
569.734	8218.8
570.095	8278
570.457	8238.91
570.819	8278.45
571.18	8270.32
571.542	8234.61
571.903	8214.73
572.265	8273.71
572.626	8232.81
572.987	8238.46
573.349	8243.88
573.71	8264.44
574.071	8256.31
574.432	8180.6
574.794	8227.83
575.155	8236.87
575.516	8203.2
575.877	8231.22
576.238	8240.72
576.599	8236.87
576.96	8198.23
577.32	8205.24
577.681	8205.91
578.042	8176.76
578.403	8186.25
578.763	8235.52
579.124	8241.39
579.485	8237.1
579.845	8255.86
580.206	8173.37
580.566	8181.73
580.927	8139.48
581.287	8224.67
581.648	8160.49
582.008	8212.24
582.368	8161.4
582.728	8119.81
583.089	8168.63
583.449	8106.26
583.809	8130.44
584.169	8186.48
584.529	8045.47
584.889	8174.05
585.249	8085.69
585.609	8051.34
585.969	8093.83
586.329	8103.54
586.688	8086.14
587.048	8051.12
587.408	7993.49
587.768	7962.08
588.127	7960.04
588.487	7979.48
588.846	8058.57
589.206	7974.96
589.565	7968.41
589.925	8029.87
590.284	7951.23
590.643	8008.18
591.003	7947.39
591.362	7942.64
591.721	7939.25
592.08	7964.11
592.44	7885.92
592.799	7931.12
593.158	7890.67
593.517	7901.97
593.876	7897.67
594.235	7892.7
594.593	7896.54
594.952	7887.73
595.311	7792.82
595.67	7811.8
596.029	7965.47
596.387	7858.58
596.746	7894.51
597.104	7837.34
597.463	7840.27
597.822	7886.37
598.18	7840.27
598.538	7804.34
598.897	7804.12
599.255	7769.54
599.613	7830.78
599.972	7779.94
600.33	7805.92
600.688	7758.24
601.046	7791.01
601.404	7825.36
601.762	7832.82
602.12	7824.91
602.478	7820.61
602.836	7776.77
603.194	7776.77
603.552	7759.37
603.91	7670.11
604.268	7742.65
604.625	7735.64
604.983	7714.63
605.341	7692.48
605.698	7718.92
606.056	7795.53
606.413	7742.2
606.771	7775.42
607.128	7786.49
607.485	7719.15
607.843	7728.64
608.2	7764.8
608.557	7750.33
608.914	7804.57
609.272	7776.77
609.629	7795.76
609.986	7818.35
610.343	7850.67
610.7	7819.26
611.057	7838.92
611.414	7754.4
611.771	7787.17
612.127	7879.6
612.484	7809.54
612.841	7860.16
613.198	7769.99
613.554	7807.51
613.911	7868.07
614.267	7815.19
614.624	7835.98
614.98	7795.76
615.337	7893.38
615.693	7908.52
616.05	7823.78
616.406	7934.06
616.762	7855.87
617.118	7796.43
617.475	7854.74
617.831	7832.59
618.187	7833.04
618.543	7852.25
618.899	7894.51
619.255	7849.09
619.611	7893.83
619.967	7882.08
620.323	7918.24
620.678	7854.29
621.034	7795.08
621.39	7884.11
621.746	7866.04
622.101	7901.97
622.457	7822.42
622.812	7847.73
623.168	7793.5
623.523	7885.92
623.879	7880.72
624.234	7871.69
624.589	7862.87
624.945	7873.27
625.3	7889.99
625.655	7865.13
626.01	7887.5
626.365	7875.53
626.72	7854.96
627.075	7859.26
627.43	7875.3
627.785	7818.58
628.14	7859.48
628.495	7879.14
628.85	7896.77
629.205	7779.71
629.559	7897
629.914	7829.43
630.269	7794.17
630.623	7830.78
630.978	7795.76
631.332	7810.44
631.687	7900.16
632.041	7784.46
632.396	7799.37
632.75	7742.2
633.104	7732.25
633.459	7681.41
633.813	7697
634.167	7671.01
634.521	7668.08
634.875	7723.67
635.229	7673.5
635.583	7625.59
635.937	7654.06
636.291	7567.74
636.645	7690
636.999	7612.94
637.352	7618.81
637.706	7593.27
638.06	7610
638.413	7538.81
638.767	7560.06
639.121	7615.87
639.474	7602.99
639.828	7506.95
640.181	7524.35
640.534	7525.25
640.888	7528.42
641.241	7471.7
641.594	7475.31
641.947	7514.86
642.301	7558.25
642.654	7618.58
643.007	7489.55
643.36	7480.28
643.713	7484.35
644.066	7497.91
644.419	7452.94
644.771	7374.07
645.124	7327.52
645.477	7326.16
645.83	7346.28
646.182	7283.23
646.535	7271.25
646.888	7244.36
647.24	7246.62
647.593	7237.8
647.945	7225.15
648.298	7210.91
648.65	7207.07
649.002	7194.42
649.355	7268.09
649.707	7186.96
650.059	7259.95
650.411	7332.49
650.763	7354.64
651.115	7428.99
651.467	7389.44
651.819	7423.11
652.171	7402.77
652.523	7343.34
652.875	7379.95
653.227	7390.12
653.578	7408.2
653.93	7413.84
654.282	7381.98
654.633	7332.72
654.985	7408.42
655.337	7384.01
655.688	7447.97
656.039	7485.71
656.391	7327.97
656.742	7398.93
657.094	7364.35
657.445	7461.53
657.796	7418.36
658.147	7405.48
658.498	7389.44
658.849	7440.96
659.2	7412.94
659.551	7435.31
659.902	7448.19
660.253	7456.78
660.604	7469.66
660.955	7422.88
661.306	7484.58
661.656	7407.52
662.007	7502.88
662.358	7474.41
662.708	7426.95
663.059	7439.38
663.409	7446.84
663.76	7492.94
664.11	7433.73
664.461	7462.88
664.811	7506.72
665.161	7487.29
665.511	7488.87
665.862	7440.51
666.212	7496.78
666.562	7535.42
666.912	7467.85
667.262	7459.27
667.612	7495.2
667.962	7546.72
668.312	7522.32
668.662	7450.45
669.011	7480.06
669.361	7519.38
669.711	7471.24
670.06	7510.79
670.41	7440.51
670.76	7471.47
671.109	7463.56
671.459	7499.72
671.808	7426.73
672.157	7537.91
672.507	7462.88
672.856	7458.82
673.205	7461.08
673.554	7501.75
673.904	7459.04
674.253	7501.53
674.602	7426.27
674.951	7361.87
675.3	7327.97
675.649	7400.96
675.998	7422.21
676.346	7308.99
676.695	7341.3
677.044	7341.76
677.393	7357.35
677.741	7336.56
678.09	7303.79
678.438	7348.54
678.787	7313.28
679.135	7298.14
679.484	7271.02
679.832	7273.96
680.181	7293.4
680.529	7299.5
680.877	7225.37
681.225	7229.44
681.573	7265.83
681.922	7230.12
682.27	7203.68
682.618	7176.11
682.966	7211.82
683.314	7161.2
683.661	7137.47
684.009	7120.97
684.357	7150.8
684.705	7047.3
685.053	7078.49
685.4	7119.84
685.748	7038.71
686.095	7032.16
686.443	6979.28
686.79	7006.85
687.138	7000.52
687.485	6962.78
687.832	6972.5
688.18	6958.26
688.527	6919.17
688.874	6934.54
689.221	6914.65
689.568	6864.48
689.915	6817.25
690.262	6792.62
690.609	6826.97
690.956	6799.17
691.303	6788.55
691.65	6781.09
691.997	6713.75
692.344	6659.74
692.69	6703.35
693.037	6752.39
693.383	6622.45
693.73	6633.07
694.077	6606.18
694.423	6597.82
694.769	6560.08
695.116	6535.9
695.462	6506.75
695.808	6509.24
696.155	6503.36
696.501	6402.35
696.847	6487.99
697.193	6415
697.539	6395.34
697.885	6377.49
698.231	6333.2
698.577	6322.8
698.923	6264.5
699.269	6232.18
699.614	6214.78
699.96	6182.69
700.306	6165.06
700.651	6153.54
700.997	6095.69
701.342	6070.83
701.688	6074.9
702.033	6098.4
702.379	6126.87
702.724	6054.56
703.069	6008.46
703.415	5956.48
703.76	5989.25
704.105	5936.37
704.45	5935.47
704.795	5895.92
705.14	5836.71
705.485	5836.71
705.83	5820.21
706.175	5868.35
706.52	5820.21
706.865	5759.88
707.209	5825.64
707.554	5805.3
707.899	5771.63
708.243	5708.8
708.588	5744.06
708.932	5642.82
709.277	5674.68
709.621	5706.32
709.966	5620.45
710.31	5649.37
710.654	5618.64
710.998	5577.51
711.342	5613.89
711.687	5544.74
712.031	5563.72
712.375	5542.48
712.719	5537.06
713.063	5556.94
713.407	5538.87
713.75	5478.08
714.094	5497.28
714.438	5470.17
714.782	5487.79
715.125	5505.19
715.469	5464.52
715.812	5453.9
716.156	5375.71
716.499	5390.39
716.843	5429.49
717.186	5408.7
717.53	5399.66
717.873	5408.47
718.216	5414.8
718.559	5412.09
718.902	5322.83
719.246	5372.09
719.589	5389.72
719.932	5407.12
720.275	5332.54
720.617	5330.74
720.96	5375.03
721.303	5365.76
721.646	5343.39
721.989	5316.72
722.331	5337.29
722.674	5315.59
723.016	5309.27
723.359	5295.03
723.701	5274.47
724.044	5299.1
724.386	5253.45
724.729	5228.14
725.071	5245.99
725.413	5227.91
725.755	5268.59
726.097	5232.43
726.439	5224.75
726.782	5260
727.124	5282.6
727.465	5255.48
727.807	5249.61
728.149	5179.1
728.491	5207.35
728.833	5220.23
729.175	5195.15
729.516	5240.34
729.858	5248.03
730.199	5233.79
730.541	5246.44
730.882	5224.3
731.224	5210.96
731.565	5196.73
731.906	5244.86
732.248	5249.16
732.589	5193.11
732.93	5204.86
733.271	5258.65
733.612	5239.44
733.953	5222.72
734.294	5220.46
734.635	5221.36
734.976	5258.87
735.317	5217.74
735.658	5270.17
735.999	5258.2
736.339	5289.61
736.68	5293
737.021	5229.5
737.361	5255.48
737.702	5326.44
738.042	5303.39
738.383	5283.96
738.723	5296.16
739.063	5343.84
739.404	5406.89
739.744	5350.4
740.084	5379.1
740.424	5387.01
740.764	5323.96
741.104	5382.49
741.444	5362.6
741.784	5400.11
742.124	5435.59
742.464	5391.75
742.804	5461.81
743.143	5438.3
743.483	5518.53
743.823	5493.9
744.162	5536.61
744.502	5589.49
744.841	5565.98
745.181	5665.19
745.52	5643.27
745.86	5654.34
746.199	5688.69
746.538	5739.09
746.877	5825.19
747.216	5879.87
747.556	5818.41
747.895	5910.16
748.234	5923.49
748.573	5992.64
748.911	6044.84
749.25	6113.77
749.589	6171.17
749.928	6190.15
750.267	6278.73
750.605	6348.11
750.944	6422.01
751.283	6471.04
751.621	6546.75
751.96	6639.18
752.298	6718.95
752.636	6794.88
752.975	6859.73
753.313	7020.41
753.651	7097.02
753.989	7191.93
754.327	7318.03
754.666	7357.35
755.004	7547.4
755.342	7638.47
755.679	7723.22
756.017	7879.14
756.355	8056.99
756.693	8195.74
757.031	8377.89
757.368	8388.51
757.706	8561.39
758.044	8720.25
758.381	8921.6
758.719	8973.35
759.056	9151.88
759.394	9328.14
759.731	9506.67
760.068	9637.51
760.405	9809.71
760.743	9933.55
761.08	10111.85
761.417	10223.71
761.754	10470.71
762.091	10665.74
762.428	10881.1
762.765	10979.4
763.102	11169
763.438	11305.72
763.775	11453.51
764.112	11625.03
764.449	11888.98
764.785	12066.15
765.122	12184.79
765.458	12255.53
765.795	12535.29
766.131	12711.11
766.467	12793.59
766.804	12966.92
767.14	13028.16
767.476	13256.18
767.812	13450.97
768.148	13581.59
768.485	13744.3
768.821	13770.29
769.157	13972.09
769.492	14145.65
769.828	14269.94
770.164	14275.36
770.5	14486.43
770.836	14658.17
771.171	14604.16
771.507	14799.41
771.842	14857.49
772.178	14994.89
772.513	15110.14
772.849	15190.36
773.184	15278.5
773.519	15293.19
773.855	15471.26
774.19	15556.46
774.525	15627.64
774.86	15754.64
775.195	15813.62
775.53	15837.35
775.865	15885.94
776.2	15919.16
776.535	15853.85
776.87	15994.41
777.205	16127.51
777.539	16142.2
777.874	16162.99
778.209	16140.39
778.543	16230.11
778.878	16318.24
779.212	16340.62
779.547	16391.91
779.881	16334.06
780.215	16476.88
780.55	16457.9
780.884	16402.53
781.218	16455.64
781.552	16511.91
781.886	16542.64
782.22	16558.91
782.554	16514.17
782.888	16424.23
783.222	16441.18
783.556	16508.07
783.889	16505.36
784.223	16455.41
784.557	16544.9
784.89	16466.26
785.224	16529.09
785.557	16504
785.891	16440.27
786.224	16498.58
786.558	16541.74
786.891	16333.84
787.224	16421.97
787.557	16471.01
787.891	16450.44
788.224	16444.79
788.557	16392.14
788.89	16458.8
789.223	16550.78
789.556	16351.24
789.888	16414.29
790.221	16368.19
790.554	16226.04
790.887	16310.11
791.219	16292.03
791.552	16217
791.884	16126.61
792.217	16216.1
792.549	16175.65
792.882	16117.57
793.214	16146.95
793.546	16120.28
793.879	16057.46
794.211	16067.85
794.543	16044.35
794.875	15998.25
795.207	16037.35
795.539	15972.04
795.871	16025.37
796.203	15915.99
796.535	15769.11
796.867	15760.07
797.198	15714.42
797.53	15837.58
797.862	15724.13
798.193	15753.74
798.525	15679.62
798.856	15648.2
799.188	15538.83
799.519	15528.43
799.85	15426.52
800.182	15482.78
800.513	15391.49
800.844	15410.24
801.175	15472.39
801.506	15449.34
801.837	15316.46
802.168	15304.26
802.499	15266.07
802.83	15220.64
803.161	15212.96
803.491	15145.39
803.822	15224.26
804.153	15179.97
804.483	15058.39
804.814	15023.81
805.145	15020.2
805.475	14966.19
805.805	14972.74
806.136	14858.62
806.466	14916.7
806.796	14987.2
807.126	14784.72
807.457	14779.07
807.787	14697.27
808.117	14692.3
808.447	14657.95
808.777	14690.94
809.107	14627.44
809.436	14608.68
809.766	14575.46
810.096	14548.12
810.426	14487.56
810.755	14553.09
811.085	14537.27
811.414	14470.83
811.744	14321.01
812.073	14341.35
812.403	14392.87
812.732	14311.74
813.061	14302.7
813.39	14293.89
813.719	14132.54
814.049	14307.67
814.378	14244.63
814.707	14141.58
815.036	14177.28
815.365	14084.63
815.693	14004.41
816.022	14015.7
816.351	13983.39
816.68	13933
817.008	13992.88
817.337	13874.47
817.665	13887.8
817.994	13897.52
818.322	13875.14
818.651	13690.29
818.979	13742.94
819.307	13845.54
819.636	13746.56
819.964	13752.89
820.292	13812.09
820.62	13747.24
820.948	13708.14
821.276	13751.31
821.604	13757.18
821.932	13758.08
822.259	13739.33
822.587	13734.13
822.915	13619.11
823.243	13656.62
823.57	13668.14
823.898	13810.96
824.225	13713.57
824.553	13704.75
824.88	13694.36
825.207	13780.68
825.535	13772.77
825.862	13729.61
826.189	13691.65
826.516	13766.45
826.843	13827.46
827.17	13676.28
827.497	13798.76
827.824	13766.45
828.151	13829.04
828.478	13772.32
828.805	13751.76
829.131	13801.7
829.458	13721.7
829.785	13754.47
830.111	13693.68
830.438	13823.62
830.764	13707.01
831.09	13796.28
831.417	13655.04
831.743	13755.37
832.069	13764.86
832.395	13771.87
832.722	13675.6
833.048	13711.08
833.374	13665.88
833.7	13607.13
834.026	13665.21
834.351	13730.06
834.677	13660.23
835.003	13663.17
835.329	13687.58
835.654	13636.28
835.98	13590.63
836.306	13599.22
836.631	13492.33
836.956	13589.5
837.282	13596.73
837.607	13492.55
837.932	13461.6
838.258	13439
838.583	13449.84
838.908	13320.58
839.233	13372.33
839.558	13339.34
839.883	13335.27
840.208	13350.86
840.533	13319
840.858	13261.15
841.182	13295.95
841.507	13286.23
841.832	13205.56
842.156	13219.57
842.481	13152
842.805	13196.74
843.13	13124.65
843.454	13107.03
843.778	13037.43
844.103	13078.1
844.427	12990.42
844.751	13003.08
845.075	13023.64
845.399	12983.87
845.723	12884.66
846.047	12867.26
846.371	12806.02
846.695	12715.63
847.019	12741.84
847.343	12645.12
847.666	12533.26
847.99	12547.72
848.313	12494.61
848.637	12491
848.96	12464.56
849.284	12388.63
849.607	12255.75
849.931	12229.31
850.254	12173.49
850.577	12064.8
850.9	12147.05
851.223	12027.06
851.546	11922.65
851.869	11876.55
852.192	11972.14
852.515	11819.38
852.838	11784.8
853.161	11834.07
853.483	11705.48
853.806	11739.15
854.129	11677.01
854.451	11598.59
854.774	11610.57
855.096	11608.31
855.419	11417.36
855.741	11497.58
856.063	11473.85
856.385	11417.13
856.708	11306.85
857.03	11332.16
857.352	11314.76
857.674	11221.88
857.996	11176.46
858.318	11194.08
858.64	11200.19
858.961	11262.11
859.283	11137.81
859.605	11050.13
859.926	11082
860.248	11073.18
860.57	11029.12
860.891	11046.74
861.212	10967.42
861.534	10909.57
861.855	10866.18
862.176	10848.78
862.498	10909.35
862.819	10965.39
863.14	10806.07
863.461	10797.94
863.782	10770.14
864.103	10757.26
864.424	10763.59
864.745	10793.19
865.065	10676.36
865.386	10623.25
865.707	10657.15
866.027	10689.46
866.348	10635.23
866.668	10646.3
866.989	10566.98
867.309	10558.62
867.63	10566.53
867.95	10563.59
868.27	10486.76
868.59	10527.21
868.91	10481.11
869.23	10445.4
869.55	10358.63
869.87	10447.66
870.19	10403.82
870.51	10362.69
870.83	10334.9
871.15	10423.48
871.469	10394.56
871.789	10394.11
872.109	10404.05
872.428	10270.49
872.748	10263.04
873.067	10263.04
873.386	10214.9
873.706	10241.79
874.025	10189.36
874.344	10228.91
874.663	10225.75
874.982	10143.49
875.301	10148.24
875.62	10141
875.939	10105.07
876.258	10125.41
876.577	10083.6
876.896	10077.28
877.214	10023.04
877.533	10049.71
877.852	10082.02
878.17	10041.8
878.489	9970.84
878.807	9970.61
879.125	9985.08
879.444	9965.87
879.762	9924.06
880.08	9925.87
880.398	9938.98
880.716	9861.69
881.034	9875.7
881.352	9939.88
881.67	9767.46
881.988	9797.28
882.306	9698.76
882.624	9799.09
882.941	9697.63
883.259	9696.04
883.577	9680
883.894	9632.32
884.212	9674.35
884.529	9672.77
884.846	9558.65
885.164	9566.78
885.481	9520.23
885.798	9536.95
886.115	9460.57
886.432	9481.59
886.75	9444.07
887.067	9420.57
887.383	9419.44
887.7	9397.52
888.017	9361.82
888.334	9340.12
888.651	9330.86
888.967	9245.43
889.284	9240.01
889.6	9263.29
889.917	9110.3
890.233	9160.69
890.55	9102.61
890.866	9148.26
891.182	9118.21
891.498	9130.41
891.815	9082.05
892.131	9034.14
892.447	8984.65
892.763	8935.16
893.079	8989.4
893.395	8912.79
893.71	8868.95
894.026	8873.47
894.342	8866.24
894.657	8804.09
894.973	8739.46
895.289	8775.39
895.604	8752.34
895.92	8682.74
896.235	8641.16
896.55	8639.35
896.865	8616.07
897.181	8605
897.496	8588.28
897.811	8517.54
898.126	8463.31
898.441	8483.87
898.756	8461.27
899.071	8414.95
899.386	8345.57
899.7	8364.78
900.015	8257.21
900.33	8221.06
900.644	8221.73
900.959	8263.77
901.273	8202.52
901.588	8146.71
901.902	8092.02
902.216	8071.91
902.531	8049.53
902.845	8045.01
903.159	7989.2
903.473	7892.02
903.787	7966.82
904.101	7899.26
904.415	7928.63
904.729	7918.69
905.042	7798.69
905.356	7770.45
905.67	7737.68
905.984	7715.76
906.297	7722.09
906.611	7700.16
906.924	7642.54
907.237	7621.97
907.551	7574.07
907.864	7587.17
908.177	7552.15
908.491	7485.26
908.804	7418.36
909.117	7386.27
909.43	7401.64
909.743	7298.14
910.056	7379.04
910.368	7293.85
910.681	7242.55
910.994	7290.46
911.307	7233.96
911.619	7157.35
911.932	7213.4
912.244	7143.12
912.557	7153.74
912.869	7068.32
913.181	7086.62
913.494	7083.46
913.806	6956
914.118	6988.77
914.43	6949.22
914.742	6944.03
915.054	6830.13
915.366	6870.81
915.678	6826.06
915.99	6799.17
916.302	6769.34
916.613	6721.43
916.925	6722.34
917.236	6671.94
917.548	6617.03
917.859	6686.18
918.171	6621.78
918.482	6572.51
918.794	6592.85
919.105	6549.23
919.416	6481.89
919.727	6462.01
920.038	6464.72
920.349	6398.96
920.66	6403.93
920.971	6380.43
921.282	6411.39
921.593	6333.42
921.903	6258.62
922.214	6263.37
922.525	6288
922.835	6271.05
923.146	6218.17
923.456	6172.52
923.767	6134.33
924.077	6103.82
924.387	6103.14
924.697	6149.25
925.008	6044.84
925.318	6017.95
925.628	5986.31
925.938	6001.68
926.248	5886.43
926.558	5937.05
926.867	5898.4
927.177	5854.79
927.487	5884.17
927.796	5763.04
928.106	5807.33
928.416	5773.21
928.725	5759.88
929.034	5723.27
929.344	5711.06
929.653	5711.52
929.962	5623.16
930.271	5648.24
930.581	5633.78
930.89	5585.64
931.199	5588.13
931.508	5566.21
931.817	5563.72
932.125	5546.55
932.434	5497.74
932.743	5431.3
933.051	5414.35
933.36	5386.33
933.669	5382.03
933.977	5351.53
934.286	5380
934.594	5320.57
934.902	5321.24
935.21	5255.48
935.519	5281.02
935.827	5203.73
936.135	5210.29
936.443	5205.54
936.751	5181.36
937.059	5157.18
937.367	5075.83
937.674	5113.79
937.982	5095.26
938.29	5034.47
938.597	5056.17
938.905	5041.03
939.213	5011.42
939.52	4968.26
939.827	4991.99
940.135	4952.67
940.442	4914.93
940.749	4937.07
941.056	4886.45
941.363	4927.13
941.67	4814.14
941.977	4811.2
942.284	4726.23
942.591	4773.01
942.898	4774.82
943.205	4715.61
943.511	4721.26
943.818	4695.5
944.125	4721.03
944.431	4645.78
944.738	4632.9
945.044	4629.96
945.35	4628.61
945.657	4554.26
945.963	4543.86
946.269	4527.82
946.575	4545.45
946.881	4483.3
947.187	4501.83
947.493	4468.61
947.799	4507.03
948.105	4466.13
948.41	4395.17
948.716	4363.3
949.022	4348.84
949.327	4361.72
949.633	4314.04
949.938	4334.38
950.244	4296.41
950.549	4292.8
950.854	4247.37
951.16	4252.8
951.465	4262.06
951.77	4210.99
952.075	4186.36
952.38	4157.43
952.685	4140.03
952.99	4068.4
953.294	4163.53
953.599	4093.71
953.904	4046.93
954.209	4078.79
954.513	4015.74
954.818	4054.84
955.122	3995.4
955.426	4002.86
955.731	3989.98
956.035	3959.92
956.339	3942.3
956.643	3964.9
956.948	3912.69
957.252	3913.37
957.556	3849.87
957.86	3825.01
958.163	3855.07
958.467	3863.88
958.771	3815.3
959.075	3816.43
959.378	3784.11
959.682	3809.87
959.985	3716.09
960.289	3736.43
960.592	3740.49
960.896	3707.05
961.199	3698.01
961.502	3674.96
961.805	3627.5
962.108	3614.4
962.411	3608.07
962.714	3605.81
963.017	3634.96
963.32	3588.18
963.623	3570.1
963.926	3569.43
964.228	3495.98
964.531	3561.74
964.833	3499.37
965.136	3476.77
965.438	3457.11
965.741	3497.34
966.043	3477
966.345	3431.58
966.648	3397.68
966.95	3418.7
967.252	3392.03
967.554	3338.47
967.856	3355.65
968.158	3347.51
968.46	3332.6
968.761	3314.07
969.063	3324.91
969.365	3262.54
969.666	3291.24
969.968	3246.72
970.269	3240.85
970.571	3234.07
970.872	3206.05
971.174	3145.26
971.475	3180.74
971.776	3166.95
972.077	3173.28
972.378	3131.7
972.679	3156.56
972.98	3128.08
973.281	3124.01
973.582	3110.68
973.883	3079.72
974.183	3043.79
974.484	3045.82
974.785	3059.83
975.085	3036.11
975.386	3011.7
975.686	2998.14
975.986	2976
976.287	2953.17
976.587	2924.02
976.887	2966.96
977.187	2937.35
977.487	2931.7
977.787	2893.96
978.087	2881.53
978.387	2873.17
978.687	2890.57
978.987	2866.85
979.286	2811.03
979.586	2847.64
979.885	2817.81
980.185	2815.32
980.484	2824.13
980.784	2794.98
981.083	2771.03
981.382	2766.28
981.682	2741.88
981.981	2698.26
982.28	2726.28
982.579	2724.25
982.878	2686.51
983.177	2690.35
983.475	2656.91
983.774	2660.07
984.073	2634.31
984.372	2645.38
984.67	2634.99
984.969	2612.39
985.267	2588.89
985.566	2583.46
985.864	2579.85
986.162	2564.25
986.461	2573.52
986.759	2526.97
987.057	2553.86
987.355	2546.85
987.653	2524.93
987.951	2476.12
988.249	2507.53
988.547	2474.77
988.844	2469.57
989.142	2435.9
989.44	2445.84
989.737	2423.92
990.035	2406.52
990.332	2413.98
990.63	2387.54
990.927	2388.21
991.224	2394.54
991.521	2377.37
991.819	2343.7
992.116	2323.36
992.413	2319.74
992.71	2329.91
993.006	2311.15
993.303	2290.36
993.6	2303.47
993.897	2270.48
994.193	2278.84
994.49	2274.54
994.787	2229.35
995.083	2224.38
995.379	2218.28
995.676	2198.84
995.972	2194.09
996.268	2212.17
996.565	2190.48
996.861	2170.37
997.157	2190.25
997.453	2164.49
997.749	2134.89
998.044	2134.21
998.34	2112.52
998.636	2147.77
998.932	2088.56
999.227	2095.79
999.523	2079.75
999.818	2041.78
1000.114	2050.6
1000.409	2026.87
1000.704	2026.19
1001	2035.91
1001.295	2015.12
1001.59	1995.91
1001.885	2028.45
1002.18	1984.61
1002.475	1988
1002.77	1971.5
1003.065	1927.21
1003.359	1922.24
1003.654	1952.52
1003.949	1912.29
1004.243	1916.81
1004.538	1878.62
1004.832	1908.45
1005.127	1910.94
1005.421	1870.04
1005.715	1883.59
1006.009	1824.61
1006.304	1836.36
1006.598	1836.14
1006.892	1814.44
1007.186	1811.05
1007.48	1771.73
1007.773	1762.02
1008.067	1785.97
1008.361	1764.95
1008.655	1755.46
1008.948	1778.51
1009.242	1764.28
1009.535	1736.71
1009.829	1732.41
1010.122	1719.98
1010.415	1710.04
1010.708	1691.06
1011.001	1695.35
1011.295	1677.27
1011.588	1679.76
1011.881	1648.12
1012.173	1654
1012.466	1627.78
1012.759	1609.48
1013.052	1611.51
1013.344	1614.9
1013.637	1612.42
1013.93	1604.96
1014.222	1555.92
1014.514	1572.42
1014.807	1566.77
1015.099	1562.02
1015.391	1544.39
1015.683	1555.24
1015.976	1525.86
1016.268	1498.07
1016.56	1521.12
1016.851	1495.81
1017.143	1499.2
1017.435	1474.34
1017.727	1462.59
1018.018	1443.38
1018.31	1474.34
1018.602	1443.61
1018.893	1442.02
1019.185	1403.38
1019.476	1415.36
1019.767	1402.48
1020.058	1384.85
1020.35	1372.2
1020.641	1368.58
1020.932	1363.61
1021.223	1357.73
1021.514	1392.53
1021.804	1332.65
1022.095	1322.48
1022.386	1338.52
1022.677	1295.81
1022.967	1311.63
1023.258	1309.37
1023.548	1307.11
1023.839	1263.27
1024.129	1275.47
1024.419	1284.51
1024.709	1263.5
1025	1233.22
1025.29	1234.57
1025.58	1216.49
1025.87	1246.1
1026.16	1205.87
1026.449	1231.41
1026.739	1221.69
1027.029	1192.54
1027.319	1192.54
1027.608	1196.15
1027.898	1163.61
1028.187	1173.78
1028.477	1133.33
1028.766	1125.87
1029.055	1158.87
1029.344	1123.84
1029.634	1147.57
1029.923	1115.71
1030.212	1133.33
1030.501	1103.05
1030.79	1101.69
1031.078	1118.19
1031.367	1084.75
1031.656	1088.81
1031.945	1053.33
1032.233	1045.42
1032.522	1060.79
1032.81	1056.95
1033.099	1046.55
1033.387	1031.87
1033.675	1018.53
1033.963	1012.88
1034.251	1045.65
1034.54	1018.31
1034.828	1003.17
1035.116	1011.53
1035.403	986.44
1035.691	984.64
1035.979	989.61
1036.267	967.69
1036.554	972.88
1036.842	965.88
1037.129	949.38
1037.417	958.65
1037.704	947.8
1037.992	983.51
1038.279	932.43
1038.566	928.59
1038.853	928.59
1039.14	928.59
