Data from hue_150_FLMS001491_00012.txt Node
Date: Tue Feb 07 16:53:41 GMT 2017
User: dcchb
Spectrometer: FLMS00149
Trigger mode: 0
Integration Time (sec): 2.000000E-2
Scans to average: 10
Electric dark correction enabled: true
Nonlinearity correction enabled: false
Boxcar width: 0
XAxis mode: Wavelengths
Number of Pixels in Spectrum: 2048
>>>>>Begin Spectral Data<<<<<
341.393	-26.09
341.776	-26.09
342.16	-26.09
342.543	-61.57
342.927	-61.79
343.31	-71.28
343.693	-51.4
344.077	-56.14
344.46	-75.35
344.843	-58.18
345.226	-51.85
345.61	-25.18
345.993	-29.93
346.376	-5.07
346.759	2.61
347.142	32.67
347.525	54.59
347.908	50.75
348.291	68.83
348.674	93.91
349.057	121.03
349.44	135.72
349.823	144.98
350.206	164.19
350.588	209.39
350.971	215.94
351.354	228.14
351.737	237.18
352.119	257.97
352.502	258.43
352.884	288.03
353.267	299.78
353.65	281.93
354.032	296.16
354.414	293.68
354.797	320.34
355.179	313.11
355.562	305.43
355.944	341.36
356.326	348.37
356.709	335.94
357.091	331.87
357.473	358.31
357.855	344.98
358.238	343.62
358.62	314.92
359.002	344.07
359.384	329.16
359.766	343.39
360.148	330.74
360.53	336.84
360.912	329.61
361.294	338.42
361.676	350.63
362.057	332.32
362.439	335.03
362.821	344.3
363.203	321.47
363.584	319.44
363.966	332.32
364.348	320.8
364.729	335.03
365.111	338.42
365.493	326.45
365.874	341.36
366.256	299.78
366.637	323.28
367.019	324.64
367.4	323.73
367.781	302.94
368.163	325.54
368.544	323.96
368.925	307.01
369.306	322.6
369.688	321.47
370.069	305.88
370.45	310.63
370.831	323.51
371.212	293
371.593	302.49
371.974	309.5
372.355	332.55
372.736	317.63
373.117	324.86
373.498	303.17
373.879	331.19
374.26	340.46
374.641	317.18
375.021	324.19
375.402	355.37
375.783	332.77
376.163	328.71
376.544	318.31
376.925	342.04
377.305	317.86
377.686	342.04
378.066	339.78
378.447	340.23
378.827	340.23
379.208	344.3
379.588	334.36
379.968	343.62
380.349	328.71
380.729	349.27
381.109	331.19
381.489	347.24
381.87	333.23
382.25	325.09
382.63	366.45
383.01	372.55
383.39	361.47
383.77	359.44
384.15	370.06
384.53	366.67
384.91	347.24
385.29	382.26
385.67	340.91
386.049	360.12
386.429	347.24
386.809	348.82
387.189	382.49
387.568	371.19
387.948	372.09
388.328	363.73
388.707	372.77
389.087	375.26
389.466	351.98
389.846	383.85
390.225	361.47
390.605	370.96
390.984	378.2
391.363	355.82
391.743	380
392.122	393.11
392.501	383.17
392.881	393.11
393.26	391.53
393.639	404.18
394.018	406.44
394.397	382.72
394.776	388.14
395.155	420.23
395.534	399.89
395.913	409.16
396.292	401.7
396.671	399.44
397.05	419.78
397.429	420.46
397.808	409.16
398.186	399.44
398.565	403.51
398.944	405.54
399.323	412.09
399.701	424.75
400.08	400.12
400.458	422.26
400.837	431.53
401.215	444.86
401.594	414.35
401.972	417.97
402.351	419.33
402.729	455.03
403.107	414.35
403.486	445.99
403.864	422.71
404.242	439.21
404.62	449.38
404.999	434.47
405.377	436.05
405.755	457.74
406.133	449.15
406.511	473.79
406.889	465.88
407.267	455.71
407.645	459.32
408.023	465.65
408.401	456.61
408.779	477.18
409.156	475.59
409.534	464.3
409.912	482.6
410.29	496.39
410.667	489.83
411.045	498.65
411.422	491.87
411.8	509.94
412.178	510.17
412.555	489.15
412.933	521.47
413.31	519.89
413.687	508.14
414.065	525.54
414.442	519.66
414.819	514.24
415.197	508.14
415.574	532.77
415.951	551.07
416.328	536.84
416.705	544.29
417.082	547.68
417.46	568.7
417.837	565.08
418.214	540.68
418.591	549.27
418.967	572.54
419.344	568.47
419.721	584.07
420.098	589.72
420.475	584.29
420.852	584.97
421.228	576.16
421.605	582.48
421.982	584.97
422.358	591.3
422.735	605.99
423.111	603.73
423.488	621.81
423.864	638.3
424.241	644.86
424.617	634.01
424.994	620
425.37	640.79
425.746	643.05
426.123	649.15
426.499	653.9
426.875	660
427.251	663.84
427.627	667
428.003	679.88
428.379	699.32
428.756	687.57
429.132	684.85
429.507	702.03
429.883	711.07
430.259	705.19
430.635	717.17
431.011	730.96
431.387	739.32
431.763	745.19
432.138	733.44
432.514	757.62
432.89	748.13
433.265	756.94
433.641	767.56
434.016	771.63
434.392	770.95
434.767	816.38
435.143	791.29
435.518	808.02
435.894	838.07
436.269	807.79
436.644	823.38
437.02	817.51
437.395	848.01
437.77	864.29
438.145	849.37
438.52	874.68
438.895	889.82
439.271	885.08
439.646	890.27
440.021	897.28
440.395	904.28
440.77	926.43
441.145	899.31
441.52	928.01
441.895	938.86
442.27	966.88
442.645	928.46
443.019	949.25
443.394	945.41
443.769	966.88
444.143	974.11
444.518	973.89
444.892	974.56
445.267	986.54
445.641	989.03
446.016	962.59
446.39	991.97
446.764	999.42
447.139	1009.14
447.513	1014.34
447.887	1034.45
448.262	1031.74
448.636	1049.82
449.01	1035.58
449.384	1075.13
449.758	1071.51
450.132	1098.63
450.506	1090.04
450.88	1106.99
451.254	1120.55
451.628	1110.38
452.002	1106.54
452.376	1148.57
452.75	1150.83
453.123	1138.63
453.497	1178.18
453.871	1190.83
454.244	1166.88
454.618	1236.25
454.992	1224.5
455.365	1219.98
455.739	1234.22
456.112	1242.35
456.486	1281.9
456.859	1288.45
457.232	1333.65
457.606	1318.51
457.979	1310.83
458.352	1313.76
458.725	1388.57
459.099	1378.4
459.472	1396.02
459.845	1397.6
460.218	1453.2
460.591	1439.19
460.964	1465.17
461.337	1472.63
461.71	1486.87
462.083	1527.54
462.456	1551.5
462.829	1540.2
463.201	1565.96
463.574	1579.97
463.947	1626.07
464.32	1647.32
464.692	1671.95
465.065	1663.36
465.438	1696.81
465.81	1721.21
466.183	1772.51
466.555	1768.22
466.928	1796.69
467.3	1801.89
467.672	1860.42
468.045	1880.76
468.417	1885.95
468.789	1931.6
469.161	1951.94
469.534	1987.42
469.906	2056.8
470.278	2069.68
470.65	2102.9
471.022	2141.54
471.394	2197.13
471.766	2207.07
472.138	2272.16
472.51	2325.04
472.882	2354.19
473.253	2381.76
473.625	2462.66
473.997	2524.81
474.369	2550.79
474.74	2609.32
475.112	2604.8
475.484	2709.66
475.855	2764.8
476.227	2795.08
476.598	2911.24
476.97	2958.47
477.341	3063.78
477.713	3160.95
478.084	3167.05
478.455	3277.1
478.827	3347.16
479.198	3480.94
479.569	3503.31
479.94	3629.18
480.311	3675.51
480.682	3800.71
481.053	3908.95
481.424	3994.82
481.795	4113.24
482.166	4197.3
482.537	4261.26
482.908	4405.21
483.279	4479.56
483.65	4644.3
484.021	4807.23
484.391	4902.15
484.762	5003.84
485.133	5087.68
485.503	5175.36
485.874	5354.79
486.244	5456.48
486.615	5592.3
486.985	5729.69
487.356	5900.76
487.726	6030.48
488.097	6136.01
488.467	6232.51
488.837	6374.65
489.207	6512.95
489.578	6716.11
489.948	6875.2
490.318	6951.36
490.688	7108.87
491.058	7216.66
491.428	7394.06
491.798	7575.3
492.168	7762.86
492.538	7879.24
492.908	8043.53
493.278	8191.78
493.648	8258.22
494.017	8486.46
494.387	8531.43
494.757	8750.41
495.126	8838.54
495.496	8961.7
495.866	9040.57
496.235	9281.24
496.605	9369.82
496.974	9531.4
497.344	9626.99
497.713	9727.33
498.082	9827.44
498.452	10012.52
498.821	10109.24
499.19	10156.47
499.559	10303.81
499.928	10375.9
500.298	10473.75
500.667	10562.34
501.036	10719.85
501.405	10878.49
501.774	10791.48
502.143	11000.52
502.512	11059.5
502.88	11228.31
503.249	11288.87
503.618	11428.53
503.987	11416.78
504.356	11552.14
504.724	11513.95
505.093	11638.69
505.462	11753.04
505.83	11786.03
506.199	11953.71
506.567	12033.71
506.936	12055.86
507.304	12225.79
507.672	12312.8
508.041	12336.07
508.409	12473.47
508.777	12587.82
509.145	12587.37
509.514	12615.16
509.882	12768.15
510.25	12745.1
510.618	12748.04
510.986	12833.46
511.354	13018.09
511.722	13064.87
512.09	13200.68
512.458	13084.3
512.826	13261.7
513.193	13213.34
513.561	13288.59
513.929	13445.65
514.297	13414.92
514.664	13537.85
515.032	13585.31
515.4	13734.46
515.767	13646.55
516.135	13725.42
516.502	13624.63
516.869	13750.05
517.237	13876.82
517.604	13773.1
517.972	13934.22
518.339	13960.89
518.706	13980.32
519.073	14044.28
519.44	14085.18
519.808	14195.46
520.175	14117.04
520.542	14217.83
520.909	14414.44
521.276	14249.24
521.643	14385.74
522.009	14400.2
522.376	14331.95
522.743	14465.06
523.11	14529.91
523.477	14627.54
523.843	14695.11
524.21	14748.67
524.577	14714.32
524.943	14800.19
525.31	14739.17
525.676	14943.24
526.043	14961.32
526.409	14871.6
526.776	15030.01
527.142	14950.02
527.508	15140.97
527.874	15086.74
528.241	15124.25
528.607	15133.97
528.973	15153.85
529.339	15094.19
529.705	15237.01
530.071	15238.37
530.437	15277.47
530.803	15294.41
531.169	15316.33
531.535	15126.51
531.901	15219.61
532.267	15195.66
532.632	15231.82
532.998	15229.78
533.364	15287.41
533.73	15240.63
534.095	15339.16
534.461	15285.15
534.826	15277.47
535.192	15208.77
535.557	15308.2
535.923	15289.44
536.288	15239.73
536.653	15227.98
537.019	15108.2
537.384	15162.44
537.749	15212.83
538.114	15126.06
538.479	15100.07
538.845	15122.44
539.21	15080.63
539.575	15072.73
539.94	15037.25
540.305	15033.86
540.67	14966.97
541.034	15026.85
541.399	14994.54
541.764	14907.53
542.129	14909.11
542.494	14886.97
542.858	14865.5
543.223	14858.27
543.587	14841.77
543.952	14823.47
544.316	14756.12
544.681	14709.12
545.045	14706.18
545.41	14751.83
545.774	14672.96
546.138	14688.78
546.503	14558.39
546.867	14558.84
547.231	14649.91
547.595	14608.33
547.959	14589.8
548.324	14484.94
548.688	14400.65
549.052	14491.95
549.416	14387.09
549.779	14437.94
550.143	14413.53
550.507	14420.54
550.871	14368.56
551.235	14340.77
551.599	14374.89
551.962	14308.45
552.326	14246.08
552.689	14265.29
553.053	14127.44
553.417	14227.32
553.78	14386.64
554.143	14211.5
554.507	14198.62
554.87	14212.86
555.234	14347.77
555.597	14133.77
555.96	14059.19
556.323	14149.81
556.686	14093.09
557.05	14160.88
557.413	14120.66
557.776	14083.6
558.139	14147.78
558.502	14150.72
558.865	14129.25
559.228	14161.11
559.59	14136.7
559.953	14138.06
560.316	14237.27
560.679	14311.84
561.041	14295.57
561.404	14255.8
561.767	14280.66
562.129	14228.45
562.492	14274.78
562.854	14315.46
563.217	14263.03
563.579	14286.98
563.941	14348.22
564.304	14345.96
564.666	14318.39
565.028	14382.12
565.39	14273.42
565.753	14407.43
566.115	14367.21
566.477	14414.44
566.839	14509.12
567.201	14496.24
567.563	14476.58
567.925	14500.76
568.287	14602.91
568.648	14601.55
569.01	14599.29
569.372	14654.66
569.734	14557.48
570.095	14593.42
570.457	14627.09
570.819	14762.68
571.18	14679.29
571.542	14787.08
571.903	14682
572.265	14770.59
572.626	14799.96
572.987	14811.49
573.349	14789.12
573.71	14814.65
574.071	14851.26
574.432	14836.8
574.794	14961.54
575.155	14811.26
575.516	14857.36
575.877	14873.18
576.238	14886.97
576.599	14914.76
576.96	14919.06
577.32	14848.32
577.681	14907.53
578.042	15002.22
578.403	14889.68
578.763	14996.79
579.124	14874.76
579.485	14933.97
579.845	15000.18
580.206	14919.51
580.566	14890.81
580.927	14956.8
581.287	14983.69
581.648	14960.41
582.008	15020.3
582.368	14997.02
582.728	15001.31
583.089	15017.36
583.449	14919.28
583.809	14983.91
584.169	14968.1
584.529	14858.95
584.889	14989.34
585.249	14886.74
585.609	14864.37
585.969	14892.84
586.329	14917.47
586.688	14836.57
587.048	14855.78
587.408	14847.19
587.768	14763.81
588.127	14798.38
588.487	14710.93
588.846	14934.42
589.206	14787.53
589.565	14746.41
589.925	14892.16
590.284	14759.74
590.643	14794.54
591.003	14885.84
591.362	14844.93
591.721	14809.46
592.08	14811.94
592.44	14825.73
592.799	14811.49
593.158	14765.84
593.517	14744.15
593.876	14836.12
594.235	14733.3
594.593	14664.37
594.952	14659.18
595.311	14644.94
595.67	14756.35
596.029	14783.47
596.387	14798.61
596.746	14726.75
597.104	14677.26
597.463	14625.51
597.822	14726.75
598.18	14575.79
598.538	14733.07
598.897	14730.59
599.255	14706.86
599.613	14817.36
599.972	14769.23
600.33	14759.29
600.688	14723.13
601.046	14783.02
601.404	14851.94
601.762	14732.62
602.12	14707.09
602.478	14783.69
602.836	14762.9
603.194	14737.14
603.552	14755.67
603.91	14690.36
604.268	14667.76
604.625	14621.89
604.983	14755.9
605.341	14656.01
605.698	14768.55
606.056	14790.92
606.413	14699.4
606.771	14818.95
607.128	14819.62
607.485	14676.13
607.843	14725.39
608.2	14868.44
608.557	14848.78
608.914	14788.66
609.272	14787.08
609.629	14893.29
609.986	14958.38
610.343	14870.24
610.7	14949.34
611.057	14860.08
611.414	14908.66
611.771	14889.91
612.127	14955.44
612.484	14833.18
612.841	14998.6
613.198	14997.25
613.554	14884.03
613.911	15015.55
614.267	14862.56
614.624	14958.15
614.98	15013.74
615.337	15064.82
615.693	15112.05
616.05	15028.43
616.406	15035.66
616.762	15029.79
617.118	15035.66
617.475	15108.66
617.831	15087.87
618.187	15072.27
618.543	15157.24
618.899	15215.77
619.255	15232.27
619.611	15161.54
619.967	15147.75
620.323	15216.9
620.678	15220.29
621.034	15100.97
621.39	15083.8
621.746	15145.27
622.101	15297.8
622.457	15203.8
622.812	15193.85
623.168	15195.89
623.523	15263.68
623.879	15350.91
624.234	15143.46
624.589	15270.69
624.945	15194.3
625.3	15258.71
625.655	15188.2
626.01	15269.78
626.365	15239.73
626.72	15244.02
627.075	15180.29
627.43	15196.34
627.785	15141.65
628.14	15168.54
628.495	15291.48
628.85	15145.72
629.205	15115.44
629.559	15205.6
629.914	15133.06
630.269	15134.87
630.623	15091.48
630.978	15128.99
631.332	15085.15
631.687	15113.18
632.041	15022.11
632.396	15091.48
632.75	14939.17
633.104	14946.63
633.459	14950.02
633.813	14983.24
634.167	14899.62
634.521	14888.55
634.875	14981.88
635.229	14951.6
635.583	14813.97
635.937	14820.98
636.291	14756.58
636.645	14816.46
636.999	14751.6
637.352	14735.56
637.706	14678.16
638.06	14779.4
638.413	14702.79
638.767	14722.9
639.121	14679.52
639.474	14608.56
639.828	14602
640.181	14660.08
640.534	14547.09
640.888	14609.01
641.241	14532.63
641.594	14641.32
641.947	14624.83
642.301	14514.55
642.654	14672.74
643.007	14552.96
643.36	14547.99
643.713	14463.93
644.066	14521.1
644.419	14446.98
644.771	14410.37
645.124	14207.44
645.477	14277.72
645.83	14102.13
646.182	14087.21
646.535	14049.48
646.888	14016.48
647.24	13996.37
647.593	14024.39
647.945	14052.19
648.298	13911.63
648.65	13946.2
649.002	13900.78
649.355	14080.89
649.707	13988.46
650.059	14105.97
650.411	14178.06
650.763	14244.72
651.115	14343.7
651.467	14320.65
651.819	14425.74
652.171	14401.78
652.523	14277.94
652.875	14294.44
653.227	14190.71
653.578	14400.65
653.93	14322.46
654.282	14258.28
654.633	14280.66
654.985	14354.1
655.337	14175.8
655.688	14228.91
656.039	14314.1
656.391	14148.46
656.742	14192.3
657.094	14218.74
657.445	14245.4
657.796	14207.21
658.147	14255.57
658.498	14232.52
658.849	14211.28
659.2	14295.57
659.551	14170.83
659.902	14276.59
660.253	14212.86
660.604	14376.47
660.955	14273.65
661.306	14276.59
661.656	14269.13
662.007	14287.89
662.358	14247.21
662.708	14268.23
663.059	14270.71
663.409	14178.51
663.76	14331.28
664.11	14302.8
664.461	14218.06
664.811	14299.41
665.161	14270.26
665.511	14280.43
665.862	14253.54
666.212	14402.23
666.562	14248.79
666.912	14276.14
667.262	14166.76
667.612	14268.45
667.962	14268.68
668.312	14310.26
668.662	14297.83
669.011	14279.98
669.361	14246.31
669.711	14239.53
670.06	14298.06
670.41	14225.74
670.76	14182.81
671.109	14292.18
671.459	14211.05
671.808	14103.26
672.157	14226.87
672.507	14149.13
672.856	14171.05
673.205	14177.83
673.554	14169.92
673.904	14119.98
674.253	14277.72
674.602	14101.9
674.951	13969.93
675.3	13849.93
675.649	14094.9
675.998	14009.48
676.346	14091.51
676.695	14143.03
677.044	13962.92
677.393	13947.33
677.741	14030.49
678.09	13993.21
678.438	13951.62
678.787	13979.42
679.135	13919.54
679.484	13944.62
679.832	13905.07
680.181	13830.72
680.529	13784.17
680.877	13857.62
681.225	13861.46
681.573	13844.73
681.922	13734
682.27	13724.74
682.618	13709.15
682.966	13655.59
683.314	13724.29
683.661	13662.82
684.009	13579.66
684.357	13634.34
684.705	13495.37
685.053	13597.06
685.4	13469.6
685.748	13421.24
686.095	13455.82
686.443	13362.49
686.79	13367.91
687.138	13381.24
687.485	13460.34
687.832	13363.62
688.18	13334.92
688.527	13259.44
688.874	13250.85
689.221	13155.94
689.568	13128.6
689.915	13073.91
690.262	13117.07
690.609	13115.49
690.956	12972.89
691.303	13012.89
691.65	12912.78
691.997	12937.19
692.344	12883.18
692.69	12821.26
693.037	12779.23
693.383	12690.87
693.73	12658.1
694.077	12581.94
694.423	12525.9
694.769	12579.68
695.116	12567.71
695.462	12494.94
695.808	12424.43
696.155	12449.74
696.501	12357.09
696.847	12323.87
697.193	12239.58
697.539	12244.1
697.885	12289.97
698.231	12118.23
698.577	12105.8
698.923	12133.37
699.269	12061.5
699.614	12026.48
699.96	11967.27
700.306	11955.74
700.651	11881.62
700.997	11845.01
701.342	11811.34
701.688	11849.99
702.033	11768.41
702.379	11727.5
702.724	11742.87
703.069	11614.51
703.415	11585.59
703.76	11593.49
704.105	11579.03
704.45	11545.81
704.795	11485.93
705.14	11419.94
705.485	11452.03
705.83	11387.62
706.175	11325.93
706.52	11285.93
706.865	11190.57
707.209	11224.01
707.554	11140.4
707.899	11244.58
708.243	11141.76
708.588	11035.09
708.932	10938.37
709.277	10995.09
709.621	10945.6
709.966	10875.55
710.31	10892.95
710.654	10819.96
710.998	10824.7
711.342	10830.8
711.687	10778.37
712.031	10735.66
712.375	10706.29
712.719	10674.65
713.063	10812.72
713.407	10708.32
713.75	10672.84
714.094	10582.67
714.438	10633.97
714.782	10681.2
715.125	10565.73
715.469	10595.33
715.812	10559.85
716.156	10506.52
716.499	10495.9
716.843	10466.97
717.186	10420.19
717.53	10463.13
717.873	10514.2
718.216	10449.12
718.559	10416.8
718.902	10315.11
719.246	10363.24
719.589	10294.09
719.932	10215.68
720.275	10246.86
720.617	10273.53
720.96	10173.64
721.303	10236.24
721.646	10244.38
721.989	10180.42
722.331	10145.17
722.674	10189.46
723.016	10185.4
723.359	10160.99
723.701	10209.58
724.044	10069.47
724.386	10070.14
724.729	10132.29
725.071	10063.82
725.413	10076.02
725.755	10139.07
726.097	10048.45
726.439	9989.69
726.782	10017.94
727.124	10041.22
727.465	10016.13
727.807	10025.4
728.149	10003.71
728.491	9979.07
728.833	9972.97
729.175	9968.45
729.516	9986.76
729.858	9916.02
730.199	9952.18
730.541	9956.02
730.882	9953.76
731.224	9981.56
731.565	9879.42
731.906	9957.83
732.248	9946.53
732.589	9844.16
732.93	9860.21
733.271	9842.13
733.612	9909.92
733.953	9915.35
734.294	9909.47
734.635	9895.91
734.976	9940.43
735.317	9830.15
735.658	9855.69
735.999	9823.15
736.339	9868.34
736.68	9922.58
737.021	9882.35
737.361	9833.54
737.702	9936.14
738.042	9828.12
738.383	9850.49
738.723	9951.5
739.063	9878.96
739.404	9896.82
739.744	9941.79
740.084	9885.06
740.424	9932.52
740.764	9920.77
741.104	9997.38
741.444	9832.64
741.784	9937.49
742.124	10003.48
742.464	10030.82
742.804	9998.73
743.143	9990.82
743.483	10060.65
743.823	10069.24
744.162	10015.68
744.502	10062.24
744.841	10058.17
745.181	10218.16
745.52	10123.7
745.86	10198.05
746.199	10248.9
746.538	10336.35
746.877	10370.7
747.216	10391.04
747.556	10373.41
747.895	10496.57
748.234	10453.86
748.573	10540.64
748.911	10518.27
749.25	10696.8
749.589	10633.75
749.928	10720.07
750.267	10822.67
750.605	10905.6
750.944	10889.78
751.283	10966.62
751.621	11090.01
751.96	11075.77
752.298	11158.93
752.636	11307.85
752.975	11323.22
753.313	11389.88
753.651	11584.91
753.989	11664.68
754.327	11738.12
754.666	11874.39
755.004	11995.29
755.342	12155.51
755.679	12214.95
756.017	12335.17
756.355	12483.87
756.693	12647.25
757.031	12729.28
757.368	12833.91
757.706	13034.13
758.044	13179.67
758.381	13360.91
758.719	13476.61
759.056	13567.23
759.394	13677.73
759.731	13840.44
760.068	14074.33
760.405	14148.23
760.743	14270.94
761.08	14619.4
761.417	14657.14
761.754	14772.85
762.091	14909.34
762.428	15082.89
762.765	15227.07
763.102	15434.52
763.438	15571.24
763.775	15623.45
764.112	15811.91
764.449	16010.1
764.785	16183.43
765.122	16242.86
765.458	16431.56
765.795	16546.58
766.131	16781.15
766.467	16911.55
766.804	17025.67
767.14	17073.58
767.476	17269.28
767.812	17313.12
768.148	17524.41
768.485	17690.06
768.821	17756.95
769.157	17810.05
769.492	17905.87
769.828	18176.37
770.164	18163.27
770.5	18212.98
770.836	18390.38
771.171	18435.35
771.507	18541.56
771.842	18616.59
772.178	18684.83
772.513	18746.98
772.849	18841.89
773.184	18967.54
773.519	19073.98
773.855	19030.59
774.19	19115.1
774.525	19154.88
774.86	19317.81
775.195	19305.83
775.53	19418.6
775.865	19435.1
776.2	19307.19
776.535	19466.28
776.87	19410.92
777.205	19451.82
777.539	19432.16
777.874	19604.81
778.209	19484.13
778.543	19610.01
778.878	19477.13
779.212	19637.35
779.547	19598.26
779.881	19717.8
780.215	19556.9
780.55	19749.89
780.884	19689.78
781.218	19681.64
781.552	19753.05
781.886	19800.74
782.22	19689.78
782.554	19704.92
782.888	19599.84
783.222	19565.04
783.556	19545.38
783.889	19569.1
784.223	19425.38
784.557	19486.62
784.89	19603.91
785.224	19544.47
785.557	19377.47
785.891	19433.51
786.224	19370.24
786.558	19571.14
786.891	19316.23
787.224	19353.52
787.557	19321.65
787.891	19349.9
788.224	19286.4
788.557	19322.1
788.89	19304.48
789.223	19379.28
789.556	19248.89
789.888	19222.45
790.221	19142.45
790.554	18979.52
790.887	19055.9
791.219	19044.15
791.552	19014.32
791.884	18998.5
792.217	18942.91
792.549	18859.07
792.882	18883.92
793.214	18727.32
793.546	18751.5
793.879	18674.21
794.211	18643.03
794.543	18671.73
794.875	18602.58
795.207	18633.99
795.539	18556.7
795.871	18625.17
796.203	18428.8
796.535	18393.09
796.867	18365.75
797.198	18364.62
797.53	18355.8
797.862	18242.36
798.193	18274.22
798.525	18243.04
798.856	18153.77
799.188	18067.9
799.519	18020.44
799.85	17931.63
800.182	17991.74
800.513	17953.55
800.844	17811.18
801.175	17772.77
801.506	17928.02
801.837	17777.06
802.168	17715.14
802.499	17753.78
802.83	17586.33
803.161	17572.55
803.491	17651.64
803.822	17657.06
804.153	17476.73
804.483	17398.99
804.814	17300.24
805.145	17323.97
805.475	17302.27
805.805	17282.61
806.136	17271.99
806.466	17186.79
806.796	17235.15
807.126	17012.34
807.457	16980.25
807.787	17003.52
808.117	16899.34
808.447	16903.86
808.777	16944.09
809.107	16939.12
809.436	16758.33
809.766	16811.66
810.096	16772.57
810.426	16761.49
810.755	16709.29
811.085	16780.48
811.414	16701.16
811.744	16471.56
812.073	16540.94
812.403	16504.55
812.732	16477.43
813.061	16458
813.39	16369.87
813.719	16285.57
814.049	16381.17
814.378	16323.54
814.707	16320.6
815.036	16223.66
815.365	16128.52
815.693	16067.5
816.022	15975.53
816.351	16086.03
816.68	16008.29
817.008	16006.03
817.337	15906.83
817.665	15812.14
817.994	15843.55
818.322	15903.21
818.651	15804.23
818.979	15844.23
819.307	15848.3
819.636	15779.15
819.964	15688.75
820.292	15728.75
820.62	15745.7
820.948	15590.9
821.276	15733.5
821.604	15740.05
821.932	15678.58
822.259	15762.65
822.587	15714.29
822.915	15685.14
823.243	15625.48
823.57	15605.14
823.898	15587.51
824.225	15534.86
824.553	15657.34
824.88	15707.28
825.207	15651.47
825.535	15745.7
825.862	15749.54
826.189	15669.55
826.516	15674.97
826.843	15726.49
827.17	15701.86
827.497	15759.03
827.824	15782.76
828.151	15764.01
828.478	15700.73
828.805	15835.42
829.131	15686.49
829.458	15666.38
829.785	15619.15
830.111	15659.15
830.438	15782.09
830.764	15720.62
831.09	15719.49
831.417	15674.07
831.743	15694.4
832.069	15671.13
832.395	15581.64
832.722	15688.08
833.048	15630.22
833.374	15620.06
833.7	15486.95
834.026	15548.64
834.351	15668.64
834.677	15607.85
835.003	15553.39
835.329	15601.75
835.654	15524.24
835.98	15504.13
836.306	15575.08
836.631	15419.38
836.956	15458.93
837.282	15496.44
837.607	15320.4
837.932	15307.97
838.258	15342.77
838.583	15354.3
838.908	15238.6
839.233	15300.97
839.558	15278.6
839.883	15234.08
840.208	15063.91
840.533	15135.1
840.858	15173.97
841.182	15138.03
841.507	15102.33
841.832	15050.8
842.156	15034.08
842.481	14946.63
842.805	14958.83
843.13	14926.74
843.454	14878.83
843.778	14851.26
844.103	14811.49
844.427	14767.2
844.751	14809.23
845.075	14772.62
845.399	14666.86
845.723	14577.82
846.047	14724.94
846.371	14523.36
846.695	14596.58
847.019	14358.17
847.343	14407.66
847.666	14232.75
847.99	14261.9
848.313	14269.58
848.637	14063.71
848.96	14093.54
849.284	14059.42
849.607	13938.07
849.931	13941.23
850.254	13854.9
850.577	13713.66
850.9	13732.65
851.223	13725.42
851.546	13675.25
851.869	13482.71
852.192	13720.44
852.515	13408.59
852.838	13438.42
853.161	13387.12
853.483	13372.66
853.806	13269.16
854.129	13268.7
854.451	13244.98
854.774	13176.73
855.096	13146
855.419	13044.08
855.741	13089.05
856.063	12932.89
856.385	12940.35
856.708	12946.68
857.03	12765.89
857.352	12816.74
857.674	12784.2
857.996	12776.97
858.318	12754.37
858.64	12744.65
858.961	12673.69
859.283	12602.73
859.605	12498.33
859.926	12589.63
860.248	12583.53
860.57	12531.1
860.891	12412.68
861.212	12411.1
861.534	12378.78
861.855	12321.39
862.176	12339.01
862.498	12360.25
862.819	12316.64
863.14	12214.72
863.461	12243.2
863.782	12231.22
864.103	12225.12
864.424	12195.74
864.745	12212.01
865.065	12152.8
865.386	12059.92
865.707	12073.26
866.027	12112.58
866.348	12009.98
866.668	11969.53
866.989	11943.32
867.309	11870.78
867.63	11999.59
867.95	11973.37
868.27	11877.1
868.59	11965.01
868.91	11828.97
869.23	11809.31
869.55	11761.17
869.87	11812.92
870.19	11781.06
870.51	11794.62
870.83	11820.83
871.15	11677.56
871.469	11745.36
871.789	11763.66
872.109	11642.31
872.428	11644.34
872.748	11660.39
873.067	11638.69
873.386	11585.13
873.706	11569.77
874.025	11549.43
874.344	11504.01
874.663	11542.2
874.982	11491.12
875.301	11479.15
875.62	11446.83
875.939	11382.65
876.258	11441.18
876.577	11387.85
876.896	11424.69
877.214	11379.94
877.533	11322.32
877.852	11364.57
878.17	11322.32
878.489	11299.72
878.807	11303.56
879.125	11267.63
879.444	11329.32
879.762	11256.55
880.08	11239.15
880.398	11180.85
880.716	11186.05
881.034	11138.59
881.352	11229.89
881.67	11108.99
881.988	11105.82
882.306	11015.88
882.624	10970.69
882.941	11021.76
883.259	10953.51
883.577	10984.47
883.894	10885.26
884.212	10937.47
884.529	10844.59
884.846	10834.64
885.164	10819.05
885.481	10765.49
885.798	10803.91
886.115	10717.13
886.432	10744.03
886.75	10701.77
887.067	10667.87
887.383	10666.74
887.7	10674.65
888.017	10510.81
888.334	10564.6
888.651	10626.51
888.967	10551.94
889.284	10441.21
889.6	10520.53
889.917	10408.44
890.233	10395.79
890.55	10348.56
890.866	10312.17
891.182	10240.54
891.498	10257.71
891.815	10228.11
892.131	10266.52
892.447	10148.11
892.763	10165.74
893.079	10110.82
893.395	10128.45
893.71	10070.82
894.026	9993.54
894.342	9966.87
894.657	9906.76
894.973	9916.48
895.289	9924.39
895.604	9841.9
895.92	9836.25
896.235	9772.98
896.55	9762.81
896.865	9760.55
897.181	9665.18
897.496	9684.62
897.811	9679.42
898.126	9573.43
898.441	9597.61
898.756	9544.28
899.071	9543.6
899.386	9468.58
899.7	9464.74
900.015	9347.9
900.33	9266.55
900.644	9303.39
900.959	9316.27
901.273	9243.5
901.588	9177.29
901.902	9176.16
902.216	9160.56
902.531	9086.67
902.845	9074.46
903.159	9000.57
903.473	8970.74
903.787	9008.48
904.101	8896.84
904.415	8881.7
904.729	8895.03
905.042	8839.67
905.356	8785.21
905.67	8788.14
905.984	8720.35
906.297	8749.5
906.611	8607.81
906.924	8671.09
907.237	8602.39
907.551	8585.21
907.864	8577.53
908.177	8530.98
908.491	8529.17
908.804	8443.29
909.117	8366.23
909.43	8367.59
909.743	8348.38
910.056	8306.35
910.368	8238.33
910.681	8202.4
910.994	8282.62
911.307	8193.81
911.619	8077.2
911.932	8132.57
912.244	8053.47
912.557	8126.24
912.869	8005.79
913.181	8010.76
913.494	7957.43
913.806	7917.21
914.118	7860.94
914.43	7830.43
914.742	7835.4
915.054	7719.7
915.366	7772.13
915.678	7687.16
915.99	7663.88
916.302	7593.83
916.613	7591.34
916.925	7635.86
917.236	7619.81
917.548	7552.02
917.859	7531.45
918.171	7427.95
918.482	7423.66
918.794	7424.56
919.105	7425.69
919.416	7341.18
919.727	7343.44
920.038	7288.75
920.349	7252.59
920.66	7213.04
920.971	7215.53
921.282	7162.88
921.593	7157
921.903	7108.41
922.214	7036.78
922.525	7088.75
922.835	6972.37
923.146	6997.23
923.456	7000.17
923.767	6901.64
924.077	6937.12
924.387	6859.61
924.697	6850.57
925.008	6833.17
925.318	6782.32
925.628	6745.03
925.938	6743.45
926.248	6708.88
926.558	6706.17
926.867	6576.23
927.177	6600.63
927.487	6540.75
927.796	6535.55
928.106	6524.48
928.416	6497.13
928.725	6494.87
929.034	6410.81
929.344	6432.95
929.653	6390.02
929.962	6321.99
930.271	6266.18
930.581	6308.44
930.89	6261.66
931.199	6252.17
931.508	6211.49
931.817	6171.26
932.125	6179.4
932.434	6199.51
932.743	6105.05
933.051	6091.04
933.36	6094.43
933.669	6002.23
933.977	6063.02
934.286	6075
934.594	5987.31
934.902	5982.57
935.21	5923.36
935.519	5919.52
935.827	5902.57
936.135	5898.28
936.443	5755
936.751	5858.28
937.059	5784.38
937.367	5752.97
937.674	5753.87
937.982	5716.59
938.29	5666.19
938.597	5660.09
938.905	5648.34
939.213	5579.42
939.52	5555.01
939.827	5527.44
940.135	5600.66
940.442	5549.59
940.749	5504.62
941.056	5473.88
941.363	5462.58
941.67	5392.98
941.977	5399.99
942.284	5357.27
942.591	5343.72
942.898	5325.41
943.205	5328.35
943.511	5277.73
943.818	5302.13
944.125	5220.55
944.431	5232.08
944.738	5203.15
945.044	5190.5
945.35	5178.52
945.657	5131.29
945.963	5060.33
946.269	5086.32
946.575	5070.95
946.881	5043.61
947.187	5073.89
947.493	5023.95
947.799	4939.43
948.105	4956.15
948.41	4918.87
948.716	4967.45
949.022	4907.57
949.327	4938.3
949.633	4860.11
949.938	4856.04
950.244	4794.13
950.549	4775.37
950.854	4756.84
951.16	4769.27
951.465	4737.63
951.77	4702.15
952.075	4722.94
952.38	4687.46
952.685	4709.61
952.99	4590.74
953.294	4602.27
953.599	4609.27
953.904	4552.55
954.209	4552.78
954.513	4535.83
954.818	4473
955.122	4472.55
955.426	4454.7
955.731	4411.08
956.035	4441.59
956.339	4421.93
956.643	4389.16
956.948	4336.74
957.252	4345.1
957.556	4345.1
957.86	4340.35
958.163	4310.75
958.467	4273.91
958.771	4224.42
959.075	4270.75
959.378	4221.71
959.682	4216.74
959.985	4192.33
960.289	4155.95
960.592	4152.56
960.896	4154.37
961.199	4120.92
961.502	4095.84
961.805	4061.72
962.108	4027.37
962.411	4042.05
962.714	4031.89
963.017	4006.12
963.32	4029.63
963.623	4014.94
963.926	3970.19
964.228	3962.28
964.531	3917.76
964.833	3920.02
965.136	3877.31
965.438	3838.44
965.741	3842.51
966.043	3844.77
966.345	3853.13
966.648	3826.24
966.95	3757.54
967.252	3788.95
967.554	3765.9
967.856	3768.84
968.158	3670.77
968.46	3696.3
968.761	3723.42
969.063	3720.26
969.365	3643.42
969.666	3620.37
969.968	3618.79
970.269	3563.65
970.571	3619.69
970.872	3614.5
971.174	3584.21
971.475	3547.6
971.776	3547.6
972.077	3560.94
972.378	3513.48
972.679	3484.33
972.98	3512.13
973.281	3463.09
973.582	3432.81
973.883	3455.4
974.183	3431.68
974.484	3431.9
974.785	3368.4
975.085	3410.66
975.386	3350.32
975.686	3305.58
975.986	3323.88
976.287	3302.64
976.587	3280.72
976.887	3259.02
977.187	3296.09
977.487	3256.76
977.787	3259.02
978.087	3261.28
978.387	3233.04
978.687	3192.59
978.987	3141.51
979.286	3171.12
979.586	3157.56
979.885	3140.16
980.185	3097.9
980.484	3075.07
980.784	3102.19
981.083	3128.18
981.382	3066.49
981.682	3068.3
981.981	3041.63
982.28	3025.13
982.579	2997.56
982.878	2966.6
983.177	2984.91
983.475	2981.07
983.774	2964.34
984.073	2962.31
984.372	2891.8
984.67	2911.24
984.969	2906.94
985.267	2914.85
985.566	2856.1
985.864	2873.27
986.162	2848.19
986.461	2839.37
986.759	2845.7
987.057	2806.61
987.355	2807.74
987.653	2796.44
987.951	2740.39
988.249	2780.62
988.547	2776.78
988.844	2744.69
989.142	2719.38
989.44	2698.36
989.737	2703.33
990.035	2662.88
990.332	2665.82
990.63	2652.26
990.927	2651.13
991.224	2653.84
991.521	2652.49
991.819	2642.77
992.116	2612.49
992.413	2602.77
992.71	2578.36
993.006	2585.82
993.303	2556.9
993.6	2528.42
993.897	2560.51
994.193	2520.74
994.49	2521.87
994.787	2474.19
995.083	2466.28
995.379	2454.07
995.676	2493.85
995.972	2432.38
996.268	2439.61
996.565	2428.09
996.861	2398.26
997.157	2424.92
997.453	2371.14
997.749	2351.48
998.044	2358.26
998.34	2357.81
998.636	2273.74
998.932	2306.06
999.227	2318.03
999.523	2310.12
999.818	2279.16
1000.114	2276
1000.409	2232.38
1000.704	2244.14
1001	2220.86
1001.295	2217.92
1001.59	2244.81
1001.885	2223.8
1002.18	2205.04
1002.475	2170.47
1002.77	2124.82
1003.065	2121.43
1003.359	2182.44
1003.654	2117.36
1003.949	2123.46
1004.243	2140.41
1004.538	2097.02
1004.832	2087.08
1005.127	2081.43
1005.421	2061.32
1005.715	2023.12
1006.009	2070.36
1006.304	2054.99
1006.598	2018.61
1006.892	1977.02
1007.186	1997.14
1007.48	1995.1
1007.773	1976.12
1008.067	1950.58
1008.361	1928.89
1008.655	1924.82
1008.948	1931.15
1009.242	1909.68
1009.535	1907.42
1009.829	1899.51
1010.122	1885.5
1010.415	1844.37
1010.708	1866.74
1011.001	1862.68
1011.295	1845.73
1011.588	1829.91
1011.881	1802.11
1012.173	1790.59
1012.466	1791.04
1012.759	1792.17
1013.052	1768.22
1013.344	1774.32
1013.637	1782.23
1013.93	1760.98
1014.222	1759.63
1014.514	1757.82
1014.807	1715.11
1015.099	1692.96
1015.391	1707.65
1015.683	1685.73
1015.976	1673.53
1016.268	1631.72
1016.56	1657.26
1016.851	1632.4
1017.143	1617.94
1017.435	1622.91
1017.727	1610.03
1018.018	1634.66
1018.31	1553.53
1018.602	1590.14
1018.893	1576.13
1019.185	1571.61
1019.476	1551.5
1019.767	1544.49
1020.058	1524.61
1020.35	1513.76
1020.641	1506.75
1020.932	1504.72
1021.223	1471.5
1021.514	1494.55
1021.804	1498.39
1022.095	1467.21
1022.386	1462.24
1022.677	1437.38
1022.967	1440.99
1023.258	1419.75
1023.548	1408.23
1023.839	1405.74
1024.129	1408.23
1024.419	1411.62
1024.709	1354.44
1025	1393.08
1025.29	1362.58
1025.58	1339.3
1025.87	1344.95
1026.16	1341.11
1026.449	1320.32
1026.739	1310.15
1027.029	1320.54
1027.319	1293.65
1027.608	1278.51
1027.898	1290.94
1028.187	1272.86
1028.477	1264.95
1028.766	1275.35
1029.055	1291.84
1029.344	1241.22
1029.634	1219.98
1029.923	1219.76
1030.212	1202.81
1030.501	1221.11
1030.79	1186.76
1031.078	1189.02
1031.367	1173.2
1031.656	1211.17
1031.945	1171.85
1032.233	1167.33
1032.522	1138.85
1032.81	1174.79
1033.099	1144.5
1033.387	1144.73
1033.675	1129.14
1033.963	1120.55
1034.251	1110.38
1034.54	1106.09
1034.828	1089.36
1035.116	1105.41
1035.403	1082.58
1035.691	1086.88
1035.979	1087.33
1036.267	1071.51
1036.554	1052.3
1036.842	1034.9
1037.129	1069.93
1037.417	1033.09
1037.704	1036.94
1037.992	1019.31
1038.279	1020.21
1038.566	1027.44
1038.853	1027.44
1039.14	1027.44
