Data from hue_38_FLMS001491_00090.txt Node
Date: Tue Feb 07 17:32:07 GMT 2017
User: dcchb
Spectrometer: FLMS00149
Trigger mode: 0
Integration Time (sec): 2.000000E-2
Scans to average: 10
Electric dark correction enabled: true
Nonlinearity correction enabled: false
Boxcar width: 0
XAxis mode: Wavelengths
Number of Pixels in Spectrum: 2048
>>>>>Begin Spectral Data<<<<<
341.393	-17.2
341.776	-17.2
342.16	-17.2
342.543	-55.17
342.927	-61.27
343.31	-72.57
343.693	-56.3
344.077	-51.1
344.46	-67.82
344.843	-52.68
345.226	-44.55
345.61	-28.73
345.993	-12.46
346.376	-13.36
346.759	18.5
347.142	18.28
347.525	42.46
347.908	60.08
348.291	70.7
348.674	87.43
349.057	102.12
349.44	118.84
349.823	154.32
350.206	170.36
350.588	200.87
350.971	217.59
351.354	227.76
351.737	257.82
352.119	267.08
352.502	263.47
352.884	310.02
353.267	280.87
353.65	312.73
354.032	298.27
354.414	292.17
354.797	307.99
355.179	335.78
355.562	311.6
355.944	328.55
356.326	324.26
356.709	305.73
357.091	334.88
357.473	364.93
357.855	338.95
358.238	351.83
358.62	346.86
359.002	355.22
359.384	358.61
359.766	326.97
360.148	325.61
360.53	334.88
360.912	356.8
361.294	325.39
361.676	343.47
362.057	329.68
362.439	341.88
362.821	317.03
363.203	326.29
363.584	318.38
363.966	307.08
364.348	327.19
364.729	294.2
365.111	331.04
365.493	329.68
365.874	319.29
366.256	326.29
366.637	336.23
367.019	312.05
367.4	322
367.781	320.19
368.163	301.66
368.544	333.52
368.925	304.6
369.306	331.04
369.688	308.66
370.069	322
370.45	342.79
370.831	305.05
371.212	326.74
371.593	317.25
371.974	298.95
372.355	305.27
372.736	331.94
373.117	316.8
373.498	326.06
373.879	327.65
374.26	317.7
374.641	341.21
375.021	314.99
375.402	346.86
375.783	317.25
376.163	342.56
376.544	331.49
376.925	339.4
377.305	313.64
377.686	353.63
378.066	347.76
378.447	357.48
378.827	350.92
379.208	332.84
379.588	343.47
379.968	334.88
380.349	333.52
380.729	330.36
381.109	337.59
381.489	347.53
381.87	345.05
382.25	352.96
382.63	327.42
383.01	355.22
383.39	340.08
383.77	371.04
384.15	354.09
384.53	361.32
384.91	356.35
385.29	336.91
385.67	341.43
386.049	360.41
386.429	353.41
386.809	354.09
387.189	358.15
387.568	363.13
387.948	355.89
388.328	347.08
388.707	338.04
389.087	354.99
389.466	363.58
389.846	378.04
390.225	364.26
390.605	381.66
390.984	370.13
391.363	371.49
391.743	371.04
392.122	363.35
392.501	373.3
392.881	384.37
393.26	380.53
393.639	389.34
394.018	372.62
394.397	365.39
394.776	402.22
395.155	369
395.534	387.53
395.913	376.46
396.292	369
396.671	395.44
397.05	387.31
397.429	392.05
397.808	390.92
398.186	367.87
398.565	398.15
398.944	392.96
399.323	404.48
399.701	402
400.08	405.84
400.458	410.13
400.837	422.79
401.215	404.48
401.594	429.56
401.972	418.94
402.351	411.03
402.729	401.32
403.107	410.36
403.486	433.18
403.864	405.16
404.242	417.81
404.62	427.31
404.999	414.42
405.377	447.64
405.755	445.84
406.133	414.65
406.511	435.44
406.889	428.44
407.267	450.13
407.645	416.01
408.023	444.25
408.401	435.67
408.779	436.12
409.156	451.71
409.534	448.55
409.912	446.74
410.29	467.3
410.667	457.36
411.045	468.66
411.422	478.83
411.8	459.39
412.178	496.23
412.555	474.54
412.933	482.9
413.31	486.74
413.687	485.61
414.065	490.58
414.442	493.97
414.819	519.05
415.197	497.59
415.574	512.95
415.951	489.68
416.328	500.98
416.705	496
417.082	517.02
417.46	506.63
417.837	514.76
418.214	520.18
418.591	525.61
418.967	546.4
419.344	521.09
419.721	528.32
420.098	532.84
420.475	541.2
420.852	534.19
421.228	543.46
421.605	540.75
421.982	552.27
422.358	567.87
422.735	534.42
423.111	557.02
423.488	547.75
423.864	578.71
424.241	577.36
424.617	582.56
424.994	550.92
425.37	559.51
425.746	571.26
426.123	576.23
426.499	596.34
426.875	589.56
427.251	592.72
427.627	605.38
428.003	590.46
428.379	613.51
428.756	622.78
429.132	633.85
429.507	620.52
429.883	635.21
430.259	603.12
430.635	639.28
431.011	661.42
431.387	643.57
431.763	648.09
432.138	652.84
432.514	674.53
432.89	660.07
433.265	646.28
433.641	677.92
434.016	701.2
434.392	672.27
434.767	705.49
435.143	695.55
435.518	682.44
435.894	693.51
436.269	699.84
436.644	715.21
437.02	705.04
437.395	740.07
437.77	709.11
438.145	725.83
438.52	736
438.895	760.63
439.271	733.29
439.646	767.41
440.021	778.71
440.395	762.66
440.77	772.38
441.145	777.8
441.52	797.24
441.895	782.32
442.27	784.81
442.645	798.59
443.019	808.31
443.394	812.61
443.769	816.22
444.143	822.1
444.518	804.92
444.892	825.71
445.267	816.67
445.641	851.7
446.016	846.05
446.39	852.6
446.764	834.98
447.139	846.73
447.513	849.67
447.887	845.15
448.262	881.53
448.636	854.86
449.01	871.14
449.384	867.07
449.758	884.92
450.132	886.05
450.506	885.37
450.88	889.67
451.254	913.85
451.628	902.55
452.002	919.5
452.376	959.04
452.75	933.05
453.123	959.72
453.497	961.08
453.871	965.82
454.244	998.14
454.618	994.3
454.992	992.26
455.365	1011.92
455.739	1001.08
456.112	999.72
456.486	1030.23
456.859	1048.08
457.232	1071.13
457.606	1077.23
457.979	1080.17
458.352	1063.22
458.725	1078.36
459.099	1091.02
459.472	1106.38
459.845	1130.56
460.218	1123.78
460.591	1148.64
460.964	1160.17
461.337	1154.07
461.71	1180.51
462.083	1186.83
462.456	1197.91
462.829	1222.09
463.201	1249.2
463.574	1234.29
463.947	1267.96
464.32	1286.72
464.692	1289.43
465.065	1321.74
465.438	1333.95
465.81	1352.03
466.183	1352.03
466.555	1388.86
466.928	1388.41
467.3	1400.84
467.672	1421.86
468.045	1443.1
468.417	1467.5
468.789	1472.93
469.161	1467.05
469.534	1536.88
469.906	1553.38
470.278	1578.46
470.65	1597.9
471.022	1622.3
471.394	1703.2
471.766	1723.32
472.138	1727.84
472.51	1761.96
472.882	1817.1
473.253	1792.69
473.625	1891.45
473.997	1878.34
474.369	1943.65
474.74	1911.79
475.112	1994.95
475.484	2067.94
475.855	2082.4
476.227	2137.99
476.598	2185.68
476.97	2227.03
477.341	2267.71
477.713	2329.85
478.084	2363.07
478.455	2445.11
478.827	2496.4
479.198	2602.39
479.569	2588.6
479.94	2707.25
480.311	2764.19
480.682	2813.23
481.053	2879.9
481.424	3005.54
481.795	3012.77
482.166	3137.97
482.537	3180.23
482.908	3271.07
483.279	3344.29
483.65	3436.94
484.021	3526.21
484.391	3612.08
484.762	3677.16
485.133	3752.42
485.503	3834.22
485.874	3944.05
486.244	4024.95
486.615	4125.51
486.985	4235.79
487.356	4367.77
487.726	4412.06
488.097	4531.38
488.467	4628.32
488.837	4764.37
489.207	4880.52
489.578	4959.16
489.948	5026.28
490.318	5170.23
490.688	5207.07
491.058	5381.53
491.428	5532.93
491.798	5588.75
492.168	5713.72
492.538	5817.22
492.908	5934.28
493.278	6036.88
493.648	6111.9
494.017	6234.38
494.387	6355.28
494.757	6397.09
495.126	6586.01
495.496	6590.08
495.866	6680.7
496.235	6826.23
496.605	6862.62
496.974	6944.87
497.344	7084.98
497.713	7262.38
498.082	7268.93
498.452	7412.88
498.821	7421.25
499.19	7491.98
499.559	7674.8
499.928	7733.1
500.298	7829.6
500.667	7933.1
501.036	7981.23
501.405	8113.88
501.774	8197.5
502.143	8302.8
502.512	8320.66
502.88	8447.89
503.249	8569.46
503.618	8567.88
503.987	8653.3
504.356	8739.18
504.724	8795.45
505.093	8863.47
505.462	8904.6
505.83	9057.81
506.199	9143.91
506.567	9284.25
506.936	9294.64
507.304	9408.99
507.672	9475.43
508.041	9538.03
508.409	9605.82
508.777	9658.47
509.145	9815.98
509.514	9826.83
509.882	9955.19
510.25	9947.28
510.618	9992.48
510.986	10134.17
511.354	10220.49
511.722	10319.02
512.09	10377.1
512.458	10432.24
512.826	10507.72
513.193	10545.91
513.561	10556.3
513.929	10710.65
514.297	10861.61
514.664	10912.45
515.032	10905.22
515.4	10971.43
515.767	11090.53
516.135	11146.35
516.502	11038.78
516.869	11323.74
517.237	11333.69
517.604	11362.16
517.972	11427.02
518.339	11523.28
518.706	11502.49
519.073	11540.23
519.44	11692.32
519.808	11767.8
520.175	11838.76
520.542	11983.84
520.909	12099.09
521.276	12009.15
521.643	12242.36
522.009	12248.46
522.376	12340.44
522.743	12372.75
523.11	12542.92
523.477	12617.27
523.843	12724.83
524.21	12760.31
524.577	12873.98
524.943	12911.5
525.31	12982.23
525.676	13095.22
526.043	13268.78
526.409	13260.19
526.776	13389.45
527.142	13380.86
527.508	13484.59
527.874	13593.51
528.241	13677.8
528.607	13701.98
528.973	13745.37
529.339	13847.97
529.705	13987.63
530.071	14116.66
530.437	14194.17
530.803	14225.13
531.169	14322.31
531.535	14327.73
531.901	14351.01
532.267	14414.28
532.632	14535.41
532.998	14616.76
533.364	14773.59
533.73	14782.86
534.095	14871.9
534.461	14912.35
534.826	14974.27
535.192	14971.56
535.557	15100.59
535.923	15209.52
536.288	15158.22
536.653	15241.83
537.019	15293.35
537.384	15339.68
537.749	15364.77
538.114	15438.21
538.479	15579
538.845	15669.62
539.21	15602.05
539.575	15754.59
539.94	15798.43
540.305	15836.39
540.67	15820.57
541.034	15874.58
541.399	15969.5
541.764	16096.72
542.129	16150.51
542.494	16177.4
542.858	16221.47
543.223	16200.22
543.587	16362.93
543.952	16328.13
544.316	16445.42
544.681	16396.83
545.045	16577.61
545.41	16736.25
545.774	16725.18
546.138	16792.3
546.503	16907.1
546.867	16810.38
547.231	16983.03
547.595	17046.76
547.959	17154.1
548.324	17103.7
548.688	17197.49
549.052	17233.87
549.416	17258.73
549.779	17246.3
550.143	17462.56
550.507	17460.53
550.871	17512.51
551.235	17567.19
551.599	17703.46
551.962	17663.91
552.326	17764.02
552.689	17852.84
553.053	17772.84
553.417	17824.14
553.78	18058.71
554.143	18062.55
554.507	18139.38
554.87	18146.39
555.234	18355.42
555.597	18276.33
555.96	18333.05
556.323	18389.32
556.686	18455.98
557.05	18578.01
557.413	18568.75
557.776	18627.96
558.139	18753.6
558.502	18779.59
558.865	18855.3
559.228	19088.28
559.59	19050.32
559.953	18912.24
560.316	19340.03
560.679	19325.57
561.041	19445.11
561.404	19480.82
561.767	19448.95
562.129	19490.31
562.492	19681.71
562.854	19767.81
563.217	19723.07
563.579	19740.24
563.941	19860.47
564.304	20052.1
564.666	20128.26
565.028	20163.74
565.39	20259.1
565.753	20210.97
566.115	20300
566.477	20450.06
566.839	20513.1
567.201	20543.16
567.563	20610.73
567.925	20726.43
568.287	20780.22
568.648	20847.11
569.01	20908.57
569.372	21069.25
569.734	21073.99
570.095	21256.14
570.457	21320.99
570.819	21371.61
571.18	21323.48
571.542	21475.11
571.903	21502.46
572.265	21660.19
572.626	21815.44
572.987	21850.02
573.349	21964.82
573.71	21979.28
574.071	22036
574.432	22313.51
574.794	22473.51
575.155	22505.37
575.516	22518.25
575.877	22688.87
576.238	22691.35
576.599	22817.68
576.96	22997.56
577.32	23019.93
577.681	23216.76
578.042	23317.1
578.403	23464.89
578.763	23615.17
579.124	23705.79
579.485	23934.48
579.845	24023.75
580.206	24207.02
580.566	24167.25
580.927	24391.42
581.287	24612.43
581.648	24760.9
582.008	24946.21
582.368	24952.08
582.728	25225.52
583.089	25379.64
583.449	25464.39
583.809	25789.12
584.169	25940.08
584.529	26064.82
584.889	26447.86
585.249	26496.22
585.609	26464.13
585.969	26868.64
586.329	27106.15
586.688	27305.02
587.048	27432.24
587.408	27477.89
587.768	27735.97
588.127	28021.16
588.487	28200.59
588.846	28509.05
589.206	28533.23
589.565	28750.85
589.925	29193.78
590.284	29169.83
590.643	29434
591.003	29785.63
591.362	30092.29
591.721	30194.66
592.08	30272.85
592.44	30568.66
592.799	30806.85
593.158	30941.08
593.517	31129.1
593.876	31371.12
594.235	31420.61
594.593	31810.21
594.952	32115.51
595.311	32107.6
595.67	32437.99
596.029	32764.99
596.387	32858.09
596.746	33116.84
597.104	33138.31
597.463	33294.46
597.822	33592.99
598.18	33699.42
598.538	33851.29
598.897	34239.98
599.255	34034.56
599.613	34725.16
599.972	34717.48
600.33	34932.16
600.688	35006.06
601.046	35253.73
601.404	35562.2
601.762	35534.4
602.12	35873.6
602.478	36009.19
602.836	36213.93
603.194	36180.94
603.552	36429.97
603.91	36439.01
604.268	36795.39
604.625	36632.91
604.983	36947.47
605.341	37051.65
605.698	37403.73
606.056	37537.52
606.413	37573.9
606.771	37753.56
607.128	37777.06
607.485	37953.32
607.843	37946.09
608.2	38410.04
608.557	38493.87
608.914	38500.65
609.272	38747.65
609.629	38937.03
609.986	39042.56
610.343	38965.95
610.7	39437.13
611.057	39291.82
611.414	39513.28
611.771	39684.13
612.127	39911.69
612.484	39902.43
612.841	40127.96
613.198	40066.94
613.554	40031.46
613.911	40447.72
614.267	40477.1
614.624	40500.38
614.98	40666.25
615.337	40894.26
615.693	40849.29
616.05	40992.34
616.406	41190.98
616.762	41145.78
617.118	41053.58
617.475	41226.91
617.831	41436.4
618.187	41616.28
618.543	41584.42
618.899	41871.41
619.255	41794.81
619.611	41903.5
619.967	42047.23
620.323	42196.15
620.678	42079.54
621.034	42096.04
621.39	42165.19
621.746	42183.72
622.101	42773.08
622.457	42377.61
622.812	42518.18
623.168	42718.62
623.523	42680.21
623.879	42861.67
624.234	42627.55
624.589	42762.01
624.945	42736.48
625.3	42764.95
625.655	42915.23
626.01	42833.42
626.365	42993.42
626.72	43091.72
627.075	42993.87
627.43	43050.82
627.785	42966.75
628.14	43083.81
628.495	43138.27
628.85	43154.32
629.205	43028.9
629.559	43377.81
629.914	43147.54
630.269	43275.9
630.623	43154.77
630.978	43090.82
631.332	43258.04
631.687	43343.24
632.041	43197.93
632.396	43358.61
632.75	43151.61
633.104	43199.97
633.459	43110.02
633.813	43204.26
634.167	43250.81
634.521	43227.76
634.875	43145.28
635.229	43217.14
635.583	43113.87
635.937	43112.28
636.291	43143.24
636.645	43170.59
636.999	43004.49
637.352	43251.49
637.706	42993.87
638.06	43124.26
638.413	42980.08
638.767	42930.37
639.121	43107.99
639.474	42804.5
639.828	42875
640.181	42908.22
640.534	42842.46
640.888	42861.67
641.241	42550.49
641.594	42734.67
641.947	42859.41
642.301	42781.67
642.654	42820.54
643.007	42658.29
643.36	42790.49
643.713	42663.03
644.066	42900.09
644.419	42416.48
644.771	42147.11
645.124	41867.35
645.477	41895.14
645.83	41660.57
646.182	41516.62
646.535	41505.32
646.888	41587.8
647.24	41369.28
647.593	41640.01
647.945	41396.62
648.298	41267.36
648.65	41252.22
649.002	41252.22
649.355	41373.8
649.707	41229.4
650.059	41519.33
650.411	41876.61
650.763	41975.59
651.115	42238.41
651.467	42368.58
651.819	42239.54
652.171	42181.01
652.523	42127.68
652.875	42120.67
653.227	41897.18
653.578	42327.45
653.93	42116.15
654.282	41904.41
654.633	41858.98
654.985	41977.4
655.337	42029.38
655.688	41960.68
656.039	42036.83
656.391	41903.28
656.742	41878.19
657.094	41898.53
657.445	41975.37
657.796	41918.19
658.147	41973.11
658.498	41703.51
658.849	41865.31
659.2	41847.01
659.551	41794.81
659.902	41859.89
660.253	41817.4
660.604	41783.96
660.955	41624.41
661.306	41848.14
661.656	41716.61
662.007	41823.73
662.358	41590.74
662.708	41603.62
663.059	41712.77
663.409	41393.91
663.76	41710.06
664.11	41587.35
664.461	41826.67
664.811	41618.99
665.161	41769.27
665.511	41466.45
665.862	41693.11
666.212	41746.67
666.562	41656.96
666.912	41627.58
667.262	41519.11
667.612	41624.87
667.962	41732.66
668.312	41562.04
668.662	41797.06
669.011	41714.81
669.361	41465.77
669.711	41549.84
670.06	41508.48
670.41	41549.84
670.76	41367.47
671.109	41538.31
671.459	41429.39
671.808	41371.99
672.157	41417.64
672.507	41162.28
672.856	41290.64
673.205	41329.73
673.554	41400.24
673.904	41230.75
674.253	41541.48
674.602	41382.61
674.951	40828.73
675.3	40661.73
675.649	41309.62
675.998	41320.24
676.346	41319.34
676.695	41297.87
677.044	41018.33
677.393	41276.85
677.741	41180.36
678.09	41025.11
678.438	40990.08
678.787	41085.67
679.135	41084.09
679.484	40805.45
679.832	41061.26
680.181	40743.53
680.529	40861.5
680.877	40775.85
681.225	40849.97
681.573	40956.63
681.922	40606.81
682.27	40537.44
682.618	40447.27
682.966	40536.31
683.314	40476.65
683.661	40279.59
684.009	40312.36
684.357	40266.71
684.705	40163.66
685.053	40154.17
685.4	40198.46
685.748	40042.53
686.095	39920.73
686.443	39710.57
686.79	39786.04
687.138	39821.75
687.485	39709.44
687.832	39662.66
688.18	39803.9
688.527	39482.32
688.874	39530.23
689.221	39393.74
689.568	39273.29
689.915	39234.65
690.262	39203.23
690.609	39111.03
690.956	39121.2
691.303	38877.37
691.65	38730.7
691.997	38887.54
692.344	38639.41
692.69	38552.86
693.037	38563.7
693.383	38330.94
693.73	38387.21
694.077	38186.54
694.423	38166.65
694.769	37981.57
695.116	37956.94
695.462	38015.47
695.808	37690.28
696.155	37837.17
696.501	37698.64
696.847	37466.56
697.193	37412.32
697.539	37490.29
697.885	37256.39
698.231	37169.39
698.577	37123.29
698.923	37121.03
699.269	36890.75
699.614	36824.54
699.96	36600.59
700.306	36659.35
700.651	36580.25
700.997	36469.52
701.342	36426.13
701.688	36354.72
702.033	36219.58
702.379	36196.99
702.724	36117.21
703.069	36178.46
703.415	35688.07
703.76	35825.7
704.105	35655.31
704.45	35678.36
704.795	35480.85
705.14	35431.58
705.485	35230.01
705.83	35093.29
706.175	35237.69
706.52	35018.71
706.865	35016.9
707.209	35008.09
707.554	34940.07
707.899	34871.6
708.243	34752.5
708.588	34720.64
708.932	34604.94
709.277	34351.84
709.621	34473.42
709.966	34282.69
710.31	34233.2
710.654	34128.57
710.998	34081.11
711.342	34035.01
711.687	33915.01
712.031	33934.9
712.375	33742.14
712.719	33942.81
713.063	33761.57
713.407	33889.25
713.75	33644.51
714.094	33650.16
714.438	33488.13
714.782	33455.59
715.125	33348.47
715.469	33387.12
715.812	33233
716.156	33084.3
716.499	33155.03
716.843	33042.72
717.186	32881.59
717.53	33054.7
717.873	33035.49
718.216	32807.47
718.559	32810.18
718.902	32647.7
719.246	32619.23
719.589	32502.62
719.932	32459.91
720.275	32400.93
720.617	32394.15
720.96	32376.07
721.303	32242.97
721.646	32275.73
721.989	32049.3
722.331	32195.96
722.674	32040.26
723.016	32105.79
723.359	32034.84
723.701	32151.89
724.044	31753.71
724.386	31738.12
724.729	31785.8
725.071	31719.14
725.413	31747.61
725.755	31636.88
726.097	31616.54
726.439	31527.96
726.782	31409.77
727.124	31552.59
727.465	31420.61
727.807	31362.08
728.149	31387.4
728.491	31174.75
728.833	31299.04
729.175	31213.39
729.516	31193.95
729.858	31071.92
730.199	31065.6
730.541	31075.99
730.882	30846.62
731.224	31003.22
731.565	30802.55
731.906	30921.64
732.248	30711.25
732.589	30620.64
732.93	30485.72
733.271	30557.81
733.612	30642.1
733.953	30528.66
734.294	30497.7
734.635	30469.23
734.976	30424.03
735.317	30147.43
735.658	30280.31
735.999	30257.93
736.339	30248.22
736.68	30200.53
737.021	30162.34
737.361	30035.79
737.702	30192.85
738.042	30116.02
738.383	29968
738.723	30121.89
739.063	29842.58
739.404	29909.02
739.744	29863.37
740.084	29855.46
740.424	29901.56
740.764	29810.26
741.104	29815.23
741.444	29660.89
741.784	29659.53
742.124	29721.68
742.464	29625.86
742.804	29583.6
743.143	29358.07
743.483	29451.4
743.823	29361.69
744.162	29363.27
744.502	29387.22
744.841	29127.12
745.181	29396.94
745.52	29104.74
745.86	29142.93
746.199	29070.17
746.538	28971.64
746.877	29069.94
747.216	29021.36
747.556	28983.62
747.895	29035.14
748.234	28909.49
748.573	28789.05
748.911	28742.72
749.25	28789.72
749.589	28656.62
749.928	28664.53
750.267	28630.86
750.605	28641.03
750.944	28435.61
751.283	28383.63
751.621	28415.04
751.96	28345.22
752.298	28291.43
752.636	28321.49
752.975	28090.76
753.313	28083.08
753.651	28251.21
753.989	28029.52
754.327	27942.74
754.666	27819.13
755.004	27913.81
755.342	27942.51
755.679	27876.3
756.017	27687.38
756.355	27813.25
756.693	27543.88
757.031	27565.12
757.368	27478.35
757.706	27487.16
758.044	27380.04
758.381	27395.41
758.719	27340.04
759.056	27346.37
759.394	27235.64
759.731	26986.61
760.068	27131.24
760.405	26995.19
760.743	26791.81
761.08	26923.11
761.417	26598.14
761.754	26600.85
762.091	26736.22
762.428	26542.32
762.765	26370.35
763.102	26524.02
763.438	26255.78
763.775	26107.99
764.112	26121.77
764.449	26201.32
764.785	25998.16
765.122	25924.71
765.458	25778.73
765.795	25705.06
766.131	25683.82
766.467	25575.34
766.804	25522.92
767.14	25336.48
767.476	25321.57
767.812	25344.62
768.148	25309.36
768.485	25043.83
768.821	24999.54
769.157	25065.53
769.492	24915.47
769.828	24873.89
770.164	24658.98
770.5	24643.39
770.836	24491.31
771.171	24320.69
771.507	24362.5
771.842	24190.97
772.178	24203.86
772.513	24124.31
772.849	24037.98
773.184	23958.21
773.519	23912.34
773.855	23750.53
774.19	23622.63
774.525	23707.37
774.86	23691.1
775.195	23542.86
775.53	23454.04
775.865	23325.01
776.2	23221.96
776.535	23133.37
776.87	23057.22
777.205	22891.35
777.539	22902.42
777.874	22870.1
778.209	22660.62
778.543	22584.69
778.878	22451.36
779.212	22572.03
779.547	22317.13
779.881	22570.45
780.215	22306.73
780.55	22181.54
780.884	22113.97
781.218	22184.02
781.552	22030.13
781.886	21891.83
782.22	21716.46
782.554	21702.9
782.888	21425.85
783.222	21433.31
783.556	21362.35
783.889	21323.7
784.223	21161.9
784.557	21210.26
784.89	21217.72
785.224	21078.97
785.557	21062.47
785.891	20935.69
786.224	20837.39
786.558	20889.14
786.891	20578.19
787.224	20562.14
787.557	20551.52
787.891	20447.57
788.224	20474.24
788.557	20399.89
788.89	20331.87
789.223	20363.28
789.556	20193.79
789.888	20222.04
790.221	20136.62
790.554	19904.99
790.887	19936.62
791.219	19835.61
791.552	19749.96
791.884	19749.06
792.217	19611.21
792.549	19545.22
792.882	19441.04
793.214	19319.46
793.546	19340.48
793.879	19213.93
794.211	19106.14
794.543	19146.36
794.875	19126.47
795.207	19156.3
795.539	18962.19
795.871	18983.43
796.203	18865.24
796.535	18767.39
796.867	18636.54
797.198	18664.57
797.53	18563.1
797.862	18531.24
798.193	18527.39
798.525	18317.91
798.856	18448.98
799.188	18172.83
799.519	18139.16
799.85	18025.49
800.182	18077.69
800.513	18082.66
800.844	18010.12
801.175	18008.54
801.506	18024.13
801.837	17830.01
802.168	17899.61
802.499	17791.82
802.83	17704.82
803.161	17675.44
803.491	17634.08
803.822	17532.84
804.153	17415.11
804.483	17312.74
804.814	17349.8
805.145	17297.37
805.475	17331.95
805.805	17239.29
806.136	17162.68
806.466	17207.2
806.796	17117.71
807.126	17019.86
807.457	16959.53
807.787	16906.87
808.117	16941.22
808.447	16797.04
808.777	16833.88
809.107	16766.54
809.436	16660.1
809.766	16657.39
810.096	16677.27
810.426	16519.54
810.755	16647.9
811.085	16482.25
811.414	16468.01
811.744	16383.95
812.073	16373.1
812.403	16339.88
812.732	16152.77
813.061	16296.94
813.39	16213.1
813.719	16062.15
814.049	16233.44
814.378	16084.75
814.707	16044.52
815.036	15980.57
815.365	15905.77
815.693	15760.91
816.022	15795.26
816.351	15645.21
816.68	15625.55
817.008	15747.35
817.337	15489.73
817.665	15556.85
817.994	15529.73
818.322	15553.46
818.651	15406.35
818.979	15404.99
819.307	15491.54
819.636	15391.66
819.964	15305.33
820.292	15350.08
820.62	15272.34
820.948	15338.78
821.276	15301.72
821.604	15306.91
821.932	15171.32
822.259	15206.8
822.587	15237.31
822.915	15222.62
823.243	15254.94
823.57	15202.74
823.898	15257.88
824.225	15166.35
824.553	15237.76
824.88	15249.97
825.207	15244.77
825.535	15114.83
825.862	15270.76
826.189	15195.73
826.516	15260.36
826.843	15264.66
827.17	15184.21
827.497	15259.46
827.824	15185.79
828.151	15240.02
828.478	15191.21
828.805	15271.43
829.131	15164.32
829.458	15159.12
829.785	15140.59
830.111	15147.14
830.438	15209.97
830.764	15186.47
831.09	15189.85
831.417	15124.77
831.743	15085.22
832.069	15218.1
832.395	15022.4
832.722	15161.38
833.048	15073.7
833.374	15113.25
833.7	15001.39
834.026	14974.49
834.351	15072.57
834.677	15027.15
835.003	15010.2
835.329	14965
835.654	14995.96
835.98	14878.22
836.306	14917.55
836.631	14866.7
836.956	14807.27
837.282	14902.4
837.607	14791.9
837.932	14757.55
838.258	14759.36
838.583	14749.41
838.908	14712.58
839.233	14684.33
839.558	14687.5
839.883	14618.34
840.208	14542.41
840.533	14596.42
840.858	14558.46
841.182	14418.12
841.507	14485.69
841.832	14416.54
842.156	14381.74
842.481	14450.89
842.805	14279.6
843.13	14312.59
843.454	14324.79
843.778	14263.33
844.103	14203.67
844.427	14184.91
844.751	14231.91
845.075	14152.59
845.399	14115.31
845.723	13999.38
846.047	14075.08
846.371	13861.08
846.695	13951.02
847.019	13896.1
847.343	13772.49
847.666	13689.1
847.99	13638.48
848.313	13624.25
848.637	13532.95
848.96	13672.61
849.284	13470.35
849.607	13332.28
849.931	13353.97
850.254	13297.93
850.577	13174.54
850.9	13187.2
851.223	13122.56
851.546	12981.78
851.869	12975.9
852.192	13078.27
852.515	12968.44
852.838	12919.86
853.161	12829.01
853.483	12739.98
853.806	12709.47
854.129	12724.38
854.451	12706.76
854.774	12602.58
855.096	12551.73
855.419	12530.94
855.741	12473.77
856.063	12384.28
856.385	12419.53
856.708	12338.86
857.03	12337.5
857.352	12331.4
857.674	12155.36
857.996	12147.67
858.318	12217.73
858.64	12192.19
858.961	12098.64
859.283	11997.62
859.605	11962.14
859.926	11992.2
860.248	11954.01
860.57	11905.65
860.891	11868.59
861.212	11883.95
861.534	11833.78
861.855	11776.84
862.176	11747.23
862.498	11757.18
862.819	11782.94
863.14	11732.54
863.461	11714.01
863.782	11653
864.103	11689.16
864.424	11690.29
864.745	11725.99
865.065	11547.46
865.386	11603.73
865.707	11512.44
866.027	11564.41
866.348	11481.48
866.668	11571.87
866.989	11466.34
867.309	11388.15
867.63	11381.14
867.95	11402.61
868.27	11296.17
868.59	11378.43
868.91	11339.11
869.23	11311.31
869.55	11264.31
869.87	11369.16
870.19	11279.22
870.51	11246.68
870.83	11338.43
871.15	11188.6
871.469	11225.44
871.789	11188.38
872.109	11151.32
872.428	11122.84
872.748	11154.03
873.067	11068.61
873.386	11107.93
873.706	11080.36
874.025	11010.53
874.344	11075.39
874.663	11009.17
874.982	11030.42
875.301	10977.31
875.62	10953.13
875.939	10914.04
876.258	10911.32
876.577	10853.92
876.896	10845.34
877.214	10846.92
877.533	10874.49
877.852	10856.41
878.17	10825.45
878.489	10826.13
878.807	10753.81
879.125	10724.21
879.444	10707.26
879.762	10745.23
880.08	10775.51
880.398	10701.84
880.716	10740.71
881.034	10610.77
881.352	10670.2
881.67	10588.17
881.988	10582.52
882.306	10543.65
882.624	10615.51
882.941	10435.4
883.259	10412.58
883.577	10410.09
883.894	10430.21
884.212	10413.26
884.529	10400.6
884.846	10340.04
885.164	10331.9
885.481	10287.38
885.798	10288.74
886.115	10285.13
886.432	10249.42
886.75	10182.08
887.067	10218.46
887.383	10090.78
887.7	10172.59
888.017	10076.54
888.334	10125.13
888.651	10075.64
888.967	10092.36
889.284	9986.83
889.6	9982.99
889.917	9946.83
890.233	9870.67
890.55	9920.16
890.866	9880.39
891.182	9827.06
891.498	9859.37
891.815	9743.44
892.131	9745.48
892.447	9764.69
892.763	9589.78
893.079	9689.66
893.395	9664.58
893.71	9580.51
894.026	9644.92
894.342	9568.76
894.657	9511.36
894.973	9472.49
895.289	9519.5
895.604	9501.64
895.92	9374.87
896.235	9380.29
896.55	9357.24
896.865	9282.21
897.181	9284.93
897.496	9272.27
897.811	9199.05
898.126	9261.2
898.441	9175.78
898.756	9112.73
899.071	9084.93
899.386	9166.74
899.7	8994.31
900.015	8950.24
900.33	8906.86
900.644	8864.82
900.959	8958.15
901.273	8858.27
901.588	8824.37
901.902	8775.79
902.216	8764.71
902.531	8698.5
902.845	8785.05
903.159	8696.47
903.473	8644.26
903.787	8530.59
904.101	8528.79
904.415	8504.83
904.729	8456.47
905.042	8486.53
905.356	8444.5
905.67	8339.41
905.984	8398.17
906.297	8394.55
906.611	8325.4
906.924	8275.23
907.237	8224.16
907.551	8262.35
907.864	8192.75
908.177	8143.94
908.491	8141.68
908.804	8100.1
909.117	8080.89
909.43	8061.23
909.743	7966.32
910.056	7981.91
910.368	7928.58
910.681	7870.73
910.994	7939.42
911.307	7846.55
911.619	7788.02
911.932	7818.07
912.244	7767.45
912.557	7717.06
912.869	7681.13
913.181	7710.96
913.494	7667.79
913.806	7584.63
914.118	7568.81
914.43	7516.61
914.742	7522.94
915.054	7506.22
915.366	7446.33
915.678	7381.25
915.99	7364.75
916.302	7268.26
916.613	7302.15
916.925	7271.87
917.236	7257.63
917.548	7200.69
917.859	7243.85
918.171	7197.07
918.482	7105.1
918.794	7130.18
919.105	7097.41
919.416	7006.57
919.727	6970.86
920.038	6970.86
920.349	6940.13
920.66	6894.71
920.971	6934.48
921.282	6869.4
921.593	6819.23
921.903	6815.16
922.214	6753.24
922.525	6770.42
922.835	6741.72
923.146	6668.95
923.456	6653.13
923.767	6660.14
924.077	6600.93
924.387	6616.75
924.697	6572.23
925.008	6479.12
925.318	6504.66
925.628	6497.88
925.938	6451.33
926.248	6400.03
926.558	6365.45
926.867	6332.23
927.177	6315.96
927.487	6298.11
927.796	6244.78
928.106	6288.17
928.416	6204.78
928.725	6235.97
929.034	6184.89
929.344	6172.69
929.653	6131.79
929.962	6038.68
930.271	6107.38
930.581	6028.74
930.89	6025.12
931.199	5996.2
931.508	5944.22
931.817	5954.17
932.125	5926.82
932.434	5876.43
932.743	5839.82
933.051	5789.65
933.36	5835.52
933.669	5770.67
933.977	5720.27
934.286	5713.04
934.594	5746.26
934.902	5675.75
935.21	5657.22
935.519	5621.07
935.827	5604.34
936.135	5573.84
936.443	5528.41
936.751	5552.82
937.059	5538.36
937.367	5485.7
937.674	5496.55
937.982	5482.99
938.29	5398.93
938.597	5397.12
938.905	5392.37
939.213	5336.55
939.52	5328.42
939.827	5324.13
940.135	5270.79
940.442	5269.21
940.749	5260.4
941.056	5219.5
941.363	5203.68
941.67	5178.14
941.977	5134.3
942.284	5102.44
942.591	5124.13
942.898	5064.25
943.205	5059.5
943.511	5068.99
943.818	4992.83
944.125	4988.77
944.431	5033.96
944.738	4958.94
945.044	4936.11
945.35	4955.1
945.657	4873.97
945.963	4846.17
946.269	4845.27
946.575	4862.44
946.881	4807.53
947.187	4777.47
947.493	4760.75
947.799	4763.69
948.105	4752.62
948.41	4726.85
948.716	4715.78
949.022	4653.18
949.327	4626.74
949.633	4618.83
949.938	4627.42
950.244	4599.85
950.549	4557.82
950.854	4478.95
951.16	4529.12
951.465	4523.02
951.77	4518.27
952.075	4461.32
952.38	4445.73
952.685	4449.8
952.99	4401.44
953.294	4386.75
953.599	4383.13
953.904	4358.5
954.209	4291.16
954.513	4291.16
954.818	4284.83
955.122	4262.68
955.426	4287.09
955.731	4237.37
956.035	4205.51
956.339	4200.54
956.643	4198.51
956.948	4182.01
957.252	4148.79
957.556	4157.15
957.86	4121.45
958.163	4123.93
958.467	4044.84
958.771	4085.51
959.075	4043.48
959.378	4032.86
959.682	4042.8
959.985	4001.22
960.289	3918.96
960.592	3924.61
960.896	3923.94
961.199	3923.48
961.502	3896.14
961.805	3924.61
962.108	3871.73
962.411	3867.21
962.714	3862.02
963.017	3836.71
963.32	3836.93
963.623	3746.09
963.926	3792.41
964.228	3811.85
964.531	3721.23
964.833	3716.26
965.136	3717.39
965.438	3711.96
965.741	3676.03
966.043	3671.74
966.345	3656.37
966.648	3623.38
966.95	3577.96
967.252	3550.61
967.554	3604.17
967.856	3544.96
968.158	3522.37
968.46	3552.42
968.761	3481.01
969.063	3488.92
969.365	3443.05
969.666	3486.89
969.968	3408.02
970.269	3390.17
970.571	3394.01
970.872	3391.52
971.174	3397.17
971.475	3366.66
971.776	3345.65
972.077	3346.78
972.378	3329.83
972.679	3342.48
972.98	3343.39
973.281	3285.76
973.582	3246.44
973.883	3283.28
974.183	3237.85
974.484	3237.63
974.785	3226.1
975.085	3190.4
975.386	3229.72
975.686	3182.49
975.986	3172.09
976.287	3158.53
976.587	3108.82
976.887	3158.98
977.187	3125.77
977.487	3108.59
977.787	3053
978.087	3052.09
978.387	3060.68
978.687	3074.24
978.987	3011.87
979.286	2981.81
979.586	2996.5
979.885	2963.06
980.185	2958.54
980.484	2949.27
980.784	2937.07
981.083	2930.06
981.382	2917.41
981.682	2894.13
981.981	2896.62
982.28	2885.77
982.579	2867.69
982.878	2836.06
983.177	2859.78
983.475	2866.11
983.774	2811.65
984.073	2813.46
984.372	2796.73
984.67	2777.07
984.969	2756.74
985.267	2775.27
985.566	2757.64
985.864	2737.07
986.162	2714.25
986.461	2687.58
986.759	2707.7
987.057	2675.16
987.355	2686.45
987.653	2674.93
987.951	2674.7
988.249	2618.89
988.547	2643.74
988.844	2628.83
989.142	2617.76
989.44	2608.94
989.737	2583.41
990.035	2578.89
990.332	2541.15
990.63	2555.38
990.927	2486.23
991.224	2530.07
991.521	2479.91
991.819	2480.36
992.116	2494.6
992.413	2437.87
992.71	2461.6
993.006	2430.87
993.303	2469.74
993.6	2427.03
993.897	2424.77
994.193	2433.81
994.49	2374.37
994.787	2368.27
995.083	2336.86
995.379	2332.57
995.676	2339.8
995.972	2331.89
996.268	2352.9
996.565	2257.77
996.861	2323.75
997.157	2321.04
997.453	2259.57
997.749	2313.58
998.044	2277.2
998.34	2240.59
998.636	2233.13
998.932	2213.47
999.227	2171.67
999.523	2194.49
999.818	2193.81
1000.114	2154.94
1000.409	2171.21
1000.704	2158.11
1001	2124.66
1001.295	2145.68
1001.59	2128.73
1001.885	2099.8
1002.18	2085.57
1002.475	2055.28
1002.77	2050.31
1003.065	2039.24
1003.359	2076.08
1003.654	2033.82
1003.949	2029.97
1004.243	2059.58
1004.538	2019.13
1004.832	1986.59
1005.127	1969.86
1005.421	1992.91
1005.715	1976.42
1006.009	1957.43
1006.304	1942.07
1006.598	1942.29
1006.892	1931.22
1007.186	1893.03
1007.48	1877.21
1007.773	1875.18
1008.067	1871.33
1008.361	1871.79
1008.655	1862.75
1008.948	1848.51
1009.242	1867.04
1009.535	1852.58
1009.829	1813.48
1010.122	1798.34
1010.415	1808.29
1010.708	1807.38
1011.001	1778.46
1011.295	1766.93
1011.588	1752.69
1011.881	1748.4
1012.173	1742.75
1012.466	1717.89
1012.759	1721.51
1013.052	1731.9
1013.344	1702.3
1013.637	1692.13
1013.93	1644.45
1014.222	1662.98
1014.514	1654.39
1014.807	1641.74
1015.099	1659.59
1015.391	1636.54
1015.683	1620.27
1015.976	1621.17
1016.268	1574.17
1016.56	1608.74
1016.851	1576.2
1017.143	1555.19
1017.435	1537.78
1017.727	1559.25
1018.018	1527.39
1018.31	1520.38
1018.602	1528.97
1018.893	1534.62
1019.185	1480.61
1019.476	1493.49
1019.767	1504.56
1020.058	1510.67
1020.35	1486.03
1020.641	1444.68
1020.932	1457.56
1021.223	1436.09
1021.514	1440.39
1021.804	1409.2
1022.095	1413.72
1022.386	1409.43
1022.677	1392.25
1022.967	1381.18
1023.258	1352.7
1023.548	1363.78
1023.839	1358.81
1024.129	1355.42
1024.419	1349.99
1024.709	1336.43
1025	1319.94
1025.29	1325.36
1025.58	1305.47
1025.87	1289.43
1026.16	1279.94
1026.449	1279.94
1026.739	1256.89
1027.029	1289.43
1027.319	1289.88
1027.608	1239.71
1027.898	1272.71
1028.187	1220.05
1028.477	1233.84
1028.766	1217.11
1029.055	1200.84
1029.344	1205.14
1029.634	1185.93
1029.923	1181.18
1030.212	1167.85
1030.501	1167.62
1030.79	1152.48
1031.078	1165.59
1031.367	1145.25
1031.656	1141.64
1031.945	1142.54
1032.233	1116.78
1032.522	1106.84
1032.81	1084.69
1033.099	1118.81
1033.387	1068.64
1033.675	1087.63
1033.963	1073.62
1034.251	1070.45
1034.54	1072.94
1034.828	1063.67
1035.116	1037.91
1035.403	1040.4
1035.691	1012.37
1035.979	1019.38
1036.267	1020.96
1036.554	1017.35
1036.842	1052.6
1037.129	1004.24
1037.417	988.19
1037.704	989.32
1037.992	994.97
1038.279	983.67
1038.566	984.13
1038.853	984.13
1039.14	984.13
