Data from hue_160_FLMS001491_00066.txt Node
Date: Tue Feb 07 16:51:31 GMT 2017
User: dcchb
Spectrometer: FLMS00149
Trigger mode: 0
Integration Time (sec): 2.000000E-2
Scans to average: 10
Electric dark correction enabled: true
Nonlinearity correction enabled: false
Boxcar width: 0
XAxis mode: Wavelengths
Number of Pixels in Spectrum: 2048
>>>>>Begin Spectral Data<<<<<
341.393	-5.21
341.776	-5.21
342.16	-5.21
342.543	-76.17
342.927	-81.59
343.31	-56.96
343.693	-66.68
344.077	-63.52
344.46	-44.53
344.843	-50.41
345.226	-49.28
345.61	-30.07
345.993	-6.12
346.376	-4.76
346.759	7.67
347.142	8.57
347.525	36.6
347.908	42.92
348.291	83.6
348.674	91.73
349.057	101.23
349.44	104.39
349.823	129.7
350.206	154.78
350.588	197.95
350.971	204.73
351.354	221
351.737	226.19
352.119	239.53
352.502	247.21
352.884	256.02
353.267	274.78
353.65	286.76
354.032	311.39
354.414	304.16
354.797	313.42
355.179	308
355.562	312.97
355.944	318.85
356.326	320.43
356.709	352.07
357.091	325.4
357.473	333.54
357.855	344.84
358.238	341.22
358.62	327.43
359.002	358.85
359.384	332.18
359.766	310.26
360.148	322.46
360.53	346.19
360.912	318.62
361.294	336.25
361.676	328.56
362.057	325.63
362.439	298.96
362.821	310.94
363.203	306.42
363.584	324.72
363.966	336.47
364.348	312.29
364.729	320.66
365.111	303.03
365.493	309.81
365.874	299.19
366.256	308.23
366.637	310.94
367.019	307.55
367.4	305.06
367.781	328.56
368.163	310.03
368.544	316.59
368.925	329.02
369.306	285.85
369.688	315.23
370.069	323.59
370.45	301.22
370.831	327.43
371.212	308.68
371.593	302.58
371.974	311.84
372.355	301.22
372.736	311.39
373.117	304.61
373.498	329.92
373.879	306.19
374.26	298.96
374.641	329.69
375.021	318.85
375.402	300.77
375.783	328.11
376.163	338.51
376.544	301.22
376.925	317.04
377.305	314.55
377.686	331.95
378.066	315.46
378.447	320.43
378.827	321.79
379.208	340.32
379.588	333.99
379.968	319.98
380.349	329.69
380.729	335.12
381.109	329.24
381.489	322.24
381.87	323.37
382.25	317.94
382.63	362.69
383.01	327.89
383.39	336.7
383.77	335.8
384.15	336.02
384.53	351.39
384.91	355.68
385.29	350.94
385.67	339.86
386.049	344.38
386.429	357.26
386.809	371.95
387.189	340.99
387.568	339.86
387.948	373.76
388.328	356.59
388.707	372.18
389.087	357.72
389.466	384.38
389.846	362.69
390.225	352.97
390.605	338.06
390.984	346.42
391.363	357.94
391.743	356.81
392.122	357.72
392.501	356.59
392.881	359.52
393.26	368.34
393.639	381.9
394.018	377.6
394.397	356.13
394.776	386.87
395.155	379.64
395.534	379.86
395.913	364.04
396.292	385.96
396.671	369.92
397.05	388.45
397.429	378.06
397.808	391.61
398.186	384.61
398.565	403.37
398.944	382.12
399.323	390.94
399.701	404.95
400.08	387.55
400.458	402.69
400.837	412.63
401.215	392.74
401.594	388.45
401.972	395.91
402.351	398.62
402.729	409.01
403.107	397.26
403.486	408.34
403.864	408.79
404.242	418.28
404.62	412.63
404.999	399.52
405.377	407.21
405.755	442.69
406.133	413.99
406.511	402.01
406.889	437.49
407.267	434.78
407.645	456.02
408.023	435.91
408.401	445.17
408.779	438.84
409.156	446.53
409.534	437.26
409.912	463.48
410.29	450.6
410.667	462.8
411.045	477.04
411.422	453.76
411.8	492.85
412.178	475.23
412.555	463.02
412.933	472.97
413.31	466.19
413.687	494.21
414.065	486.53
414.442	467.32
414.819	488.79
415.197	512.29
415.574	479.07
415.951	502.35
416.328	496.02
416.705	497.6
417.082	514.32
417.46	499.63
417.837	508.67
418.214	533.53
418.591	517.94
418.967	514.1
419.344	537.37
419.721	537.82
420.098	538.5
420.475	543.7
420.852	542.12
421.228	563.59
421.605	574.43
421.982	577.15
422.358	572.63
422.735	584.6
423.111	549.12
423.488	572.63
423.864	578.05
424.241	610.59
424.617	570.82
424.994	595.68
425.37	593.64
425.746	620.08
426.123	631.16
426.499	599.97
426.875	604.04
427.251	634.09
427.627	613.53
428.003	639.52
428.379	640.87
428.756	623.7
429.132	641.55
429.507	693.53
429.883	653.53
430.259	667.76
430.635	667.54
431.011	700.31
431.387	658.5
431.763	686.52
432.138	675
432.514	684.26
432.89	704.6
433.265	732.62
433.641	698.95
434.016	724.03
434.392	741.89
434.767	736.69
435.143	772.62
435.518	762.23
435.894	757.03
436.269	771.27
436.644	764.71
437.02	795.67
437.395	803.81
437.77	792.06
438.145	809.91
438.52	808.1
438.895	809.68
439.271	823.24
439.646	837.25
440.021	811.72
440.395	833.86
440.77	832.05
441.145	852.84
441.52	874.31
441.895	850.81
442.27	858.72
442.645	875.67
443.019	862.56
443.394	872.51
443.769	905.27
444.143	888.1
444.518	938.27
444.892	902.34
445.267	951.6
445.641	911.6
446.016	905.05
446.39	940.75
446.764	958.83
447.139	931.94
447.513	972.84
447.887	958.83
448.262	962.9
448.636	956.57
449.01	976.46
449.384	983.01
449.758	1008.55
450.132	1007.19
450.506	1000.19
450.88	1024.14
451.254	1019.17
451.628	1050.58
452.002	1024.37
452.376	1069.11
452.75	1032.05
453.123	1092.61
453.497	1099.39
453.871	1086.96
454.244	1117.24
454.618	1135.32
454.992	1138.71
455.365	1131.03
455.739	1152.95
456.112	1173.74
456.486	1179.84
456.859	1189.11
457.232	1204.02
457.606	1223.23
457.979	1229.78
458.352	1228.43
458.725	1251.93
459.099	1278.82
459.472	1309.56
459.845	1292.38
460.218	1330.8
460.591	1350.23
460.964	1318.82
461.337	1353.62
461.71	1402.43
462.083	1416.22
462.456	1403.11
462.829	1455.09
463.201	1462.32
463.574	1462.77
463.947	1494.64
464.32	1533.73
464.692	1508.65
465.065	1542.09
465.438	1558.36
465.81	1604.01
466.183	1634.29
466.555	1661.86
466.928	1667.06
467.3	1678.36
467.672	1707.74
468.045	1767.4
468.417	1812.82
468.789	1816.44
469.161	1818.02
469.534	1868.19
469.906	1896.21
470.278	1928.3
470.65	1954.96
471.022	2012.36
471.394	2041.06
471.766	2051.91
472.138	2092.36
472.51	2151.79
472.882	2177.33
473.253	2221.4
473.625	2304.33
473.997	2346.14
474.369	2361.96
474.74	2413.03
475.112	2479.24
475.484	2533.93
475.855	2587.26
476.227	2648.5
476.598	2707.49
476.97	2770.76
477.341	2820.7
477.713	2903.19
478.084	2940.7
478.455	3082.84
478.827	3084.65
479.198	3224.76
479.569	3239.9
479.94	3380.91
480.311	3465.66
480.682	3501.36
481.053	3638.99
481.424	3748.36
481.795	3806.21
482.166	3897.06
482.537	3965.08
482.908	4060.22
483.279	4202.59
483.65	4295.24
484.021	4440.77
484.391	4536.59
484.762	4628.56
485.133	4695.46
485.503	4818.39
485.874	4932.74
486.244	5046.63
486.615	5198.95
486.985	5323.46
487.356	5453.18
487.726	5565.72
488.097	5689.1
488.467	5781.53
488.837	5932.71
489.207	6068.53
489.578	6152.82
489.948	6325.47
490.318	6439.14
490.688	6565.01
491.058	6723.88
491.428	6821.95
491.798	6982.18
492.168	7131.55
492.538	7235.95
492.908	7373.13
493.278	7539.9
493.648	7647.92
494.017	7736.73
494.387	7828.93
494.757	7980.79
495.126	8140.11
495.496	8205.19
495.866	8323.16
496.235	8436.37
496.605	8580.78
496.974	8620.78
497.344	8806.76
497.713	8916.14
498.082	8979.18
498.452	9155
498.821	9150.03
499.19	9227.54
499.559	9360.64
499.928	9479.06
500.298	9540.98
500.667	9728.09
501.036	9674.31
501.405	9858.94
501.774	9958.37
502.143	9992.72
502.512	10017.58
502.88	10130.11
503.249	10163.56
503.618	10308.19
503.987	10371.01
504.356	10415.31
504.724	10472.48
505.093	10519.71
505.462	10627.73
505.83	10719.25
506.199	10826.82
506.567	10901.62
506.936	10916.53
507.304	11051.22
507.672	11024.78
508.041	11059.58
508.409	11227.04
508.777	11289.18
509.145	11340.7
509.514	11333.25
509.882	11473.36
510.25	11515.84
510.618	11551.32
510.986	11605.1
511.354	11667.48
511.722	11696.4
512.09	11818.88
512.458	11733.46
512.826	11846.68
513.193	11842.84
513.561	11937.75
513.929	11879
514.297	12126.9
514.664	12092.78
515.032	12085.32
515.4	12124.64
515.767	12189.27
516.135	12273.34
516.502	12123.96
516.869	12367.12
517.237	12415.93
517.604	12328.7
517.972	12391.75
518.339	12417.96
518.706	12458.64
519.073	12466.78
519.44	12516.94
519.808	12604.85
520.175	12548.36
520.542	12726.88
520.909	12678.75
521.276	12599.88
521.643	12810.04
522.009	12766.43
522.376	12819.76
522.743	12904.05
523.11	12897.5
523.477	13005.29
523.843	13019.98
524.21	13084.84
524.577	13074.22
524.943	13060.21
525.31	13092.3
525.676	13196.02
526.043	13178.62
526.409	13260.43
526.776	13263.59
527.142	13258.39
527.508	13254.78
527.874	13356.24
528.241	13273.08
528.607	13287.55
528.973	13418.16
529.339	13364.15
529.705	13404.83
530.071	13431.95
530.437	13400.54
530.803	13435.11
531.169	13429.24
531.535	13295.23
531.901	13288.45
532.267	13353.53
532.632	13334.1
532.998	13387.66
533.364	13328.22
533.73	13396.92
534.095	13445.51
534.461	13348.79
534.826	13355.79
535.192	13346.3
535.557	13408.22
535.923	13367.77
536.288	13264.5
536.653	13301.11
537.019	13206.42
537.384	13258.17
537.749	13170.04
538.114	13088.23
538.479	13161.45
538.845	13092.97
539.21	13003.03
539.575	13088.46
539.94	13061.56
540.305	13097.27
540.67	12970.49
541.034	12978.4
541.399	12991.73
541.764	12955.13
542.129	12860.21
542.494	12801.23
542.858	12869.7
543.223	12836.48
543.587	12769.59
543.952	12753.32
544.316	12685.3
544.681	12583.61
545.045	12728.24
545.41	12644.63
545.774	12630.61
546.138	12570.73
546.503	12584.97
546.867	12489.83
547.231	12576.6
547.595	12480.34
547.959	12463.16
548.324	12328.93
548.688	12378.87
549.052	12401.02
549.416	12327.12
549.779	12231.08
550.143	12260.23
550.507	12243.05
550.871	12246.44
551.235	12127.8
551.599	12185.43
551.962	12216.84
552.326	12124.64
552.689	12081.25
553.053	12088.93
553.417	12082.83
553.78	12084.19
554.143	12018.88
554.507	12100.46
554.87	12017.07
555.234	12080.12
555.597	11956.96
555.96	11911.09
556.323	12011.42
556.686	11920.35
557.05	11938.88
557.413	11942.27
557.776	11867.7
558.139	11923.51
558.502	11888.49
558.865	11837.41
559.228	11902.95
559.59	11906.34
559.953	11910.86
560.316	11953.12
560.679	11875.61
561.041	11914.7
561.404	11866.11
561.767	11960.12
562.129	11948.15
562.492	12053.91
562.854	11848.49
563.217	11930.75
563.579	11889.62
563.941	11987.24
564.304	11930.97
564.666	12079.22
565.028	12041.93
565.39	12034.02
565.753	12129.61
566.115	12081.93
566.477	12056.62
566.839	12087.8
567.201	12092.55
567.563	12174.81
567.925	12217.74
568.287	12126.22
568.648	12135.26
569.01	12266.1
569.372	12274.24
569.734	12098.2
570.095	12283.96
570.457	12208.7
570.819	12272.66
571.18	12205.09
571.542	12315.37
571.903	12333.67
572.265	12275.6
572.626	12323.96
572.987	12334.12
573.349	12332.77
573.71	12351.07
574.071	12338.87
574.432	12296.16
574.794	12405.31
575.155	12463.16
575.516	12295.93
575.877	12361.02
576.238	12415.7
576.599	12466.32
576.96	12407.8
577.32	12443.27
577.681	12416.38
578.042	12515.59
578.403	12412.77
578.763	12392.43
579.124	12447.79
579.485	12401.02
579.845	12489.15
580.206	12415.03
580.566	12353.11
580.927	12499.54
581.287	12425.2
581.648	12414.12
582.008	12448.25
582.368	12429.94
582.728	12490.96
583.089	12356.27
583.449	12419.77
583.809	12407.34
584.169	12464.74
584.529	12357.63
584.889	12440.56
585.249	12430.85
585.609	12303.62
585.969	12410.73
586.329	12381.36
586.688	12352.66
587.048	12307.46
587.408	12269.04
587.768	12291.64
588.127	12321.24
588.487	12330.96
588.846	12323.73
589.206	12247.57
589.565	12317.4
589.925	12281.47
590.284	12255.26
590.643	12271.75
591.003	12316.72
591.362	12363.28
591.721	12229.27
592.08	12293.45
592.44	12218.2
592.799	12356.95
593.158	12212.09
593.517	12314.46
593.876	12290.28
594.235	12281.92
594.593	12212.77
594.952	12230.85
595.311	12238.99
595.67	12228.82
596.029	12290.51
596.387	12208.48
596.746	12201.7
597.104	12187.69
597.463	12231.53
597.822	12223.62
598.18	12210.29
598.538	12178.2
598.897	12198.99
599.255	12101.81
599.613	12240.12
599.972	12135.49
600.33	12159.21
600.688	12138.2
601.046	12181.81
601.404	12204.41
601.762	12231.3
602.12	12261.58
602.478	12217.97
602.836	12264.3
603.194	12218.42
603.552	12183.39
603.91	12208.48
604.268	12238.53
604.625	12224.3
604.983	12194.69
605.341	12100.46
605.698	12215.94
606.056	12361.24
606.413	12203.51
606.771	12282.83
607.128	12259.1
607.485	12245.09
607.843	12185.65
608.2	12212.55
608.557	12350.17
608.914	12384.52
609.272	12311.07
609.629	12331.87
609.986	12300.45
610.343	12423.16
610.7	12380.23
611.057	12377.29
611.414	12435.59
611.771	12317.18
612.127	12423.39
612.484	12443.27
612.841	12443.73
613.198	12304.52
613.554	12361.47
613.911	12394.91
614.267	12432.2
614.624	12386.1
614.98	12374.35
615.337	12520.33
615.693	12538.41
616.05	12429.49
616.406	12551.29
616.762	12515.81
617.118	12378.42
617.475	12576.15
617.831	12492.76
618.187	12510.84
618.543	12545.19
618.899	12637.39
619.255	12516.49
619.611	12523.72
619.967	12579.09
620.323	12616.15
620.678	12473.78
621.034	12473.33
621.39	12552.88
621.746	12435.82
622.101	12682.82
622.457	12488.92
622.812	12548.58
623.168	12581.8
623.523	12621.12
623.879	12570.5
624.234	12538.19
624.589	12555.59
624.945	12568.24
625.3	12570.95
625.655	12534.35
626.01	12632.87
626.365	12642.14
626.72	12588.13
627.075	12591.97
627.43	12568.02
627.785	12578.19
628.14	12603.72
628.495	12536.83
628.85	12610.28
629.205	12508.13
629.559	12555.14
629.914	12458.19
630.269	12462.71
630.623	12555.36
630.978	12557.62
631.332	12534.57
631.687	12603.72
632.041	12417.51
632.396	12476.49
632.75	12407.8
633.104	12404.86
633.459	12332.77
633.813	12412.31
634.167	12333.45
634.521	12371.64
634.875	12356.5
635.229	12333.22
635.583	12314.24
635.937	12333.22
636.291	12370.28
636.645	12327.35
636.999	12243.05
637.352	12275.14
637.706	12196.05
638.06	12249.83
638.413	12273.79
638.767	12242.83
639.121	12184.52
639.474	12121.7
639.828	12111.76
640.181	12206.44
640.534	12216.84
640.888	12088.71
641.241	12096.39
641.594	12098.2
641.947	12086.9
642.301	12106.79
642.654	12054.58
643.007	12037.41
643.36	12059.33
643.713	11971.42
644.066	12028.14
644.419	11995.6
644.771	11931.2
645.124	11833.57
645.477	11836.28
645.83	11690.07
646.182	11743.41
646.535	11691.2
646.888	11705.67
647.24	11644.65
647.593	11672
647.945	11617.08
648.298	11595.84
648.65	11614.14
649.002	11522.62
649.355	11544.77
649.707	11607.36
650.059	11602.39
650.411	11789.28
650.763	11812.33
651.115	11898.88
651.467	11838.77
651.819	11908.6
652.171	11806.23
652.523	11874.02
652.875	11866.11
653.227	11798.32
653.578	11965.55
653.93	11806.46
654.282	11805.78
654.633	11775.72
654.985	11797.87
655.337	11789.28
655.688	11854.59
656.039	11901.59
656.391	11808.49
656.742	11816.17
657.094	11835.61
657.445	11855.49
657.796	11871.09
658.147	11795.83
658.498	11811.88
658.849	11886.23
659.2	11824.99
659.551	11856.4
659.902	11872.67
660.253	11885.78
660.604	11860.92
660.955	11839.45
661.306	11844.87
661.656	11941.82
662.007	11803.74
662.358	11850.07
662.708	11871.31
663.059	11865.66
663.409	11826.34
663.76	11920.8
664.11	11916.28
664.461	11923.74
664.811	11861.82
665.161	11942.27
665.511	11907.7
665.862	11888.49
666.212	11918.54
666.562	11892.33
666.912	11907.7
667.262	11843.52
667.612	11857.75
667.962	11890.52
668.312	11885.78
668.662	11954.25
669.011	11795.61
669.361	11890.29
669.711	11845.55
670.06	11847.58
670.41	11822.5
670.76	11757.87
671.109	11798.32
671.459	11856.62
671.808	11753.8
672.157	11749.96
672.507	11763.52
672.856	11688.04
673.205	11834.02
673.554	11838.32
673.904	11687.59
674.253	11793.57
674.602	11791.99
674.951	11585.22
675.3	11629.74
675.649	11691.88
675.998	11709.28
676.346	11731.88
676.695	11753.35
677.044	11631.77
677.393	11606.23
677.741	11675.16
678.09	11591.55
678.438	11664.76
678.787	11645.78
679.135	11640.13
679.484	11545.45
679.832	11583.86
680.181	11507.03
680.529	11514.94
680.877	11539.57
681.225	11512.68
681.573	11564.88
681.922	11410.53
682.27	11446.24
682.618	11408.27
682.966	11377.99
683.314	11440.81
683.661	11297.54
684.009	11324.43
684.357	11393.13
684.705	11269.52
685.053	11273.81
685.4	11258.45
685.748	11232.23
686.095	11290.31
686.443	11212.35
686.79	11091.9
687.138	11154.49
687.485	11238.56
687.832	11107.26
688.18	11070.66
688.527	11029.75
688.874	11018.23
689.221	11001.5
689.568	10922.41
689.915	10872.02
690.262	10892.58
690.609	10882.41
690.956	10825.01
691.303	10836.76
691.65	10749.31
691.997	10755.18
692.344	10732.36
692.69	10722.87
693.037	10693.49
693.383	10559.48
693.73	10633.15
694.077	10570.56
694.423	10499.37
694.769	10438.36
695.116	10423.67
695.462	10381.18
695.808	10363.78
696.155	10373.05
696.501	10329.66
696.847	10324.23
697.193	10226.38
697.539	10243.11
697.885	10182.77
698.231	10098.93
698.577	10086.95
698.923	10052.38
699.269	10053.73
699.614	10010.34
699.96	9979.84
700.306	9928.99
700.651	9890.57
700.997	9831.82
701.342	9896
701.688	9838.82
702.033	9747.53
702.379	9702.33
702.724	9739.84
703.069	9709.79
703.415	9619.62
703.76	9598.83
704.105	9596.57
704.45	9614.42
704.795	9502.79
705.14	9486.06
705.485	9477.7
705.83	9417.59
706.175	9430.92
706.52	9345.5
706.865	9392.73
707.209	9368.55
707.554	9305.28
707.899	9273.87
708.243	9230.48
708.588	9191.83
708.932	9199.74
709.277	9193.64
709.621	9128.56
709.966	9077.04
710.31	9126.98
710.654	9064.38
710.998	9069.13
711.342	9069.13
711.687	9030.93
712.031	9010.6
712.375	8950.94
712.719	8985.74
713.063	8994.78
713.407	8989.81
713.75	8868.91
714.094	8910.26
714.438	8899.19
714.782	8818.74
715.125	8806.08
715.469	8849.02
715.812	8782.35
716.156	8727.44
716.499	8758.63
716.843	8799.98
717.186	8739.19
717.53	8767.44
717.873	8755.69
718.216	8748.68
718.559	8739.42
718.902	8627.1
719.246	8674.56
719.589	8650.38
719.932	8611.06
720.275	8593.21
720.617	8564.28
720.96	8578.74
721.303	8571.74
721.646	8555.69
721.989	8564.51
722.331	8568.8
722.674	8541.91
723.016	8548.91
723.359	8501.68
723.701	8560.21
724.044	8452.19
724.386	8428.69
724.729	8563.38
725.071	8502.59
725.413	8472.08
725.755	8509.14
726.097	8378.52
726.439	8397.28
726.782	8405.64
727.124	8427.79
727.465	8426.66
727.807	8415.13
728.149	8465.53
728.491	8437.05
728.833	8343.5
729.175	8371.29
729.516	8361.12
729.858	8306.89
730.199	8337.17
730.541	8376.49
730.882	8413.1
731.224	8447
731.565	8446.77
731.906	8365.19
732.248	8406.09
732.589	8368.81
732.93	8308.92
733.271	8328.81
733.612	8315.93
733.953	8313.67
734.294	8290.39
734.635	8297.62
734.976	8382.14
735.317	8338.75
735.658	8304.17
735.999	8331.97
736.339	8352.99
736.68	8312.76
737.021	8269.15
737.361	8265.08
737.702	8344.85
738.042	8289.49
738.383	8345.98
738.723	8361.8
739.063	8298.75
739.404	8317.96
739.744	8356.6
740.084	8371.07
740.424	8383.27
740.764	8365.42
741.104	8401.12
741.444	8373.78
741.784	8399.77
742.124	8428.46
742.464	8465.98
742.804	8448.13
743.143	8468.69
743.483	8496.94
743.823	8448.8
744.162	8475.7
744.502	8574.22
744.841	8545.52
745.181	8588.23
745.52	8636.59
745.86	8717.95
746.199	8692.86
746.538	8696.03
746.877	8734.67
747.216	8751.17
747.556	8768.57
747.895	8875.01
748.234	8923.82
748.573	8880.43
748.911	8950.71
749.25	9001.33
749.589	9046.3
749.928	9183.02
750.267	9183.47
750.605	9274.32
750.944	9376.24
751.283	9345.5
751.621	9504.59
751.96	9578.49
752.298	9644.93
752.636	9773.29
752.975	9797.69
753.313	9877.92
753.651	10023
753.989	10075.43
754.327	10120.4
754.666	10249.66
755.004	10385.48
755.342	10558.13
755.679	10636.99
756.017	10681.51
756.355	10867.72
756.693	10962.64
757.031	11114.72
757.368	11253.48
757.706	11405.79
758.044	11523.98
758.381	11634.71
758.719	11743.63
759.056	11962.84
759.394	12104.75
759.731	12151.3
760.068	12361.47
760.405	12488.7
760.743	12627.22
761.08	12859.53
761.417	12900.66
761.754	13116.25
762.091	13274.89
762.428	13360.99
762.765	13450.25
763.102	13763.24
763.438	13831.94
763.775	13942.67
764.112	14043.68
764.449	14363.22
764.785	14409.78
765.122	14512.37
765.458	14604.57
765.795	14817.9
766.131	15064.67
766.467	15172.92
766.804	15258.79
767.14	15345.12
767.476	15548.05
767.812	15641.38
768.148	15822.85
768.485	15839.12
768.821	15985.78
769.157	16110.3
769.492	16315.49
769.828	16317.97
770.164	16448.82
770.5	16529.04
770.836	16536.95
771.171	16641.58
771.507	16778.98
771.842	16790.28
772.178	17006.77
772.513	17035.47
772.849	17205.41
773.184	17192.3
773.519	17266.88
773.855	17307.33
774.19	17434.78
774.525	17499.86
774.86	17706.64
775.195	17665.28
775.53	17662.8
775.865	17656.92
776.2	17693.53
776.535	17676.36
776.87	17825.96
777.205	17754.1
777.539	17752.29
777.874	17960.42
778.209	17817.6
778.543	17889.01
778.878	17859.4
779.212	17931.94
779.547	17921.32
779.881	18056.69
780.215	17941.44
780.55	18068.89
780.884	17998.61
781.218	18050.81
781.552	18063.47
781.886	18126.29
782.22	18093.75
782.554	17992.73
782.888	17953.64
783.222	17929.46
783.556	17936.01
783.889	17900.98
784.223	17831.83
784.557	17983.24
784.89	17993.19
785.224	17869.12
785.557	17852.85
785.891	17849.69
786.224	17918.38
786.558	17879.29
786.891	17727.66
787.224	17751.16
787.557	17722.01
787.891	17691.95
788.224	17729.01
788.557	17677.71
788.89	17750.93
789.223	17702.35
789.556	17641.56
789.888	17549.58
790.221	17592.74
790.554	17479.07
790.887	17543.71
791.219	17443.82
791.552	17515.91
791.884	17354.78
792.217	17361.79
792.549	17393.65
792.882	17257.61
793.214	17276.14
793.546	17226.65
793.879	17193.43
794.211	17068.01
794.543	17234.79
794.875	17087.9
795.207	17180.55
795.539	17127.67
795.871	17109.59
796.203	16917.28
796.535	16836.61
796.867	16984.85
797.198	16952.53
797.53	16861.24
797.862	16732.88
798.193	16825.76
798.525	16730.62
798.856	16890.16
799.188	16575.82
799.519	16568.82
799.85	16375.83
800.182	16468.71
800.513	16473.45
800.844	16371.31
801.175	16460.57
801.506	16420.57
801.837	16366.11
802.168	16285.43
802.499	16231.42
802.83	16199.33
803.161	16236.4
803.491	16115.95
803.822	16170.86
804.153	16090.86
804.483	15992.33
804.814	15973.58
805.145	15986.23
805.475	15957.31
805.805	15821.49
806.136	15886.12
806.466	15873.01
806.796	15878.89
807.126	15770.42
807.457	15628.05
807.787	15618.56
808.117	15665.56
808.447	15496.98
808.777	15647.03
809.107	15552.35
809.436	15487.26
809.766	15546.92
810.096	15393.03
810.426	15365.23
810.755	15443.42
811.085	15429.64
811.414	15393.48
811.744	15303.76
812.073	15273.48
812.403	15242.75
812.732	15208.85
813.061	15207.95
813.39	15022.19
813.719	15070.1
814.049	15113.26
814.378	15019.25
814.707	15085.24
815.036	15040.04
815.365	14969.99
815.693	14792.37
816.022	14849.31
816.351	14817.9
816.68	14707.17
817.008	14845.92
817.337	14660.62
817.665	14660.39
817.994	14706.49
818.322	14724.57
818.651	14630.34
818.979	14525.71
819.307	14550.34
819.636	14592.82
819.964	14471.92
820.292	14561.86
820.62	14528.42
820.948	14465.14
821.276	14646.15
821.604	14463.11
821.932	14521.86
822.259	14528.87
822.587	14461.98
822.915	14460.17
823.243	14435.31
823.57	14486.16
823.898	14581.52
824.225	14386.73
824.553	14560.06
824.88	14584.24
825.207	14506.95
825.535	14478.93
825.862	14473.96
826.189	14464.24
826.516	14544.46
826.843	14564.12
827.17	14512.15
827.497	14522.77
827.824	14592.82
828.151	14523.9
828.478	14428.31
828.805	14652.93
829.131	14481.19
829.458	14527.29
829.785	14434.63
830.111	14510.11
830.438	14544.24
830.764	14538.13
831.09	14486.16
831.417	14431.02
831.743	14477.12
832.069	14452.04
832.395	14423.11
832.722	14443.67
833.048	14361.19
833.374	14393.51
833.7	14396.44
834.026	14365.48
834.351	14373.39
834.677	14358.48
835.003	14335.2
835.329	14275.32
835.654	14407.29
835.98	14285.71
836.306	14358.7
836.631	14237.35
836.956	14292.94
837.282	14245.94
837.607	14224.47
837.932	14212.95
838.258	14144.25
838.583	14193.74
838.908	14126.17
839.233	14155.32
839.558	14059.05
839.883	14030.8
840.208	14025.83
840.533	13987.19
840.858	14003.01
841.182	13999.39
841.507	14015.21
841.832	13863.12
842.156	13874.88
842.481	13834.2
842.805	13935.89
843.13	13797.82
843.454	13774.76
843.778	13595.11
844.103	13702.68
844.427	13677.59
844.751	13725.95
845.075	13605.05
845.399	13536.81
845.723	13500.65
846.047	13522.79
846.371	13418.62
846.695	13464.04
847.019	13295.46
847.343	13326.42
847.666	13213.65
847.99	13203.93
848.313	13038.97
848.637	13081.68
848.96	13090.94
849.284	12912.41
849.607	12906.54
849.931	12894.56
850.254	12783.15
850.577	12739.31
850.9	12644.63
851.223	12705.87
851.546	12517.62
851.869	12490.28
852.192	12583.16
852.515	12370.96
852.838	12363.73
853.161	12381.13
853.483	12257.52
853.806	12262.71
854.129	12259.55
854.451	12232.43
854.774	12222.49
855.096	12093
855.419	12154.69
855.741	12046.22
856.063	11981.59
856.385	11916.06
856.708	11949.28
857.03	11908.15
857.352	11809.84
857.674	11841.03
857.996	11699.11
858.318	11689.62
858.64	11790.64
858.961	11674.03
859.283	11570.98
859.605	11569.63
859.926	11605.56
860.248	11530.53
860.57	11556.74
860.891	11517.65
861.212	11455.5
861.534	11421.83
861.855	11373.25
862.176	11363.53
862.498	11414.38
862.819	11382.74
863.14	11369.4
863.461	11311.33
863.782	11261.84
864.103	11338.67
864.424	11228.17
864.745	11248.73
865.065	11236.07
865.386	11139.13
865.707	11147.04
866.027	11137.55
866.348	11092.35
866.668	11102.07
866.989	11118.56
867.309	11039.92
867.63	11087.83
867.95	11067.49
868.27	10961.05
868.59	11050.77
868.91	10947.27
869.23	10975.29
869.55	10962.64
869.87	10946.59
870.19	10925.8
870.51	10947.49
870.83	10899.36
871.15	10829.08
871.469	10815.52
871.789	10877.44
872.109	10857.55
872.428	10779.36
872.748	10777.1
873.067	10789.31
873.386	10740.27
873.706	10758.35
874.025	10669.08
874.344	10730.1
874.663	10671.57
874.982	10674.06
875.301	10707.27
875.62	10634.28
875.939	10597.67
876.258	10613.27
876.577	10581.4
876.896	10560.39
877.214	10476.77
877.533	10488.52
877.852	10573.04
878.17	10522.65
878.489	10495.53
878.807	10512.93
879.125	10386.61
879.444	10447.17
879.762	10414.18
880.08	10352.71
880.398	10367.4
880.716	10431.58
881.034	10339.6
881.352	10299.6
881.67	10269.55
881.988	10237
882.306	10189.32
882.624	10205.14
882.941	10222.99
883.259	10105.93
883.577	10099.61
883.894	10072.26
884.212	10081.98
884.529	10110.68
884.846	9971.7
885.164	10010.8
885.481	9980.06
885.798	9985.71
886.115	9922.89
886.432	9925.6
886.75	9857.13
887.067	9895.32
887.383	9775.77
887.7	9848.54
888.017	9813.06
888.334	9752.95
888.651	9752.72
888.967	9760.18
889.284	9759.28
889.6	9688.54
889.917	9627.76
890.233	9651.94
890.55	9594.54
890.866	9635.21
891.182	9507.08
891.498	9512.73
891.815	9489.68
892.131	9548.89
892.447	9402.68
892.763	9400.42
893.079	9383.47
893.395	9298.05
893.71	9347.76
894.026	9311.38
894.342	9281.78
894.657	9248.56
894.973	9201.1
895.289	9254.66
895.604	9208.78
895.92	9163.13
896.235	9056.02
896.55	9053.31
896.865	9057.83
897.181	9007.43
897.496	9012.18
897.811	8963.14
898.126	8981.67
898.441	8897.83
898.756	8893.76
899.071	8777.38
899.386	8743.48
899.7	8682.47
900.015	8731.06
900.33	8641.79
900.644	8579.87
900.959	8604.73
901.273	8585.52
901.588	8471.85
901.902	8471.63
902.216	8465.75
902.531	8424.62
902.845	8374
903.159	8397.28
903.473	8360.9
903.787	8294.01
904.101	8268.47
904.415	8257.4
904.729	8214.23
905.042	8185.99
905.356	8163.39
905.67	8109.83
905.984	8064.86
906.297	8078.64
906.611	8002.26
906.924	8060.11
907.237	8002.94
907.551	7925.2
907.864	7875.71
908.177	7871.19
908.491	7853.34
908.804	7789.39
909.117	7744.87
909.43	7670.52
909.743	7706.9
910.056	7665.1
910.368	7643.17
910.681	7580.35
910.994	7646.34
911.307	7584.42
911.619	7515.95
911.932	7495.61
912.244	7513.01
912.557	7416.74
912.869	7352.11
913.181	7402.5
913.494	7376.06
913.806	7339.68
914.118	7288.61
914.43	7224.88
914.742	7217.88
915.054	7213.13
915.366	7127.93
915.678	7125.22
915.99	7073.47
916.302	7071.66
916.613	7017.88
916.925	7023.3
917.236	7002.06
917.548	6971.1
917.859	6946.92
918.171	6869.41
918.482	6906.24
918.794	6863.76
919.105	6862.18
919.416	6781.05
919.727	6734.5
920.038	6778.79
920.349	6699.47
920.66	6615.18
920.971	6697.66
921.282	6702.86
921.593	6608.85
921.903	6584.67
922.214	6524.33
922.525	6537.22
922.835	6536.76
923.146	6452.47
923.456	6433.49
923.767	6431
924.077	6449.08
924.387	6418.12
924.697	6327.05
925.008	6288.41
925.318	6254.51
925.628	6220.84
925.938	6259.71
926.248	6195.53
926.558	6149.43
926.867	6151.01
927.177	6169.99
927.487	6102.42
927.796	6080.05
928.106	6071.92
928.416	6023.78
928.725	6012.94
929.034	5980.39
929.344	5988.3
929.653	5928.42
929.962	5913.05
930.271	5870.79
930.581	5855.2
930.89	5835.54
931.199	5809.55
931.508	5761.19
931.817	5784.92
932.125	5736.78
932.434	5670.35
932.743	5700.85
933.051	5671.02
933.36	5618.37
933.669	5584.25
933.977	5577.47
934.286	5602.1
934.594	5584.47
934.902	5532.95
935.21	5475.1
935.519	5497.47
935.827	5456.79
936.135	5431.93
936.443	5396
936.751	5419.5
937.059	5421.31
937.367	5406.85
937.674	5341.54
937.982	5314.87
938.29	5282.56
938.597	5253.63
938.905	5216.57
939.213	5193.07
939.52	5180.87
939.827	5180.64
940.135	5162.34
940.442	5100.87
940.749	5150.13
941.056	5112.62
941.363	5037.37
941.67	5037.37
941.977	4991.95
942.284	4978.16
942.591	4961.89
942.898	4966.41
943.205	4944.26
943.511	4921.66
943.818	4918.95
944.125	4884.83
944.431	4829.92
944.738	4812.29
945.044	4822.91
945.35	4803.25
945.657	4761.22
945.963	4778.62
946.269	4704.95
946.575	4739.97
946.881	4702.69
947.187	4704.95
947.493	4660.88
947.799	4646.64
948.105	4644.16
948.41	4585.85
948.716	4629.02
949.022	4608.23
949.327	4581.11
949.633	4524.39
949.938	4495.69
950.244	4495.69
950.549	4499.3
950.854	4428.12
951.16	4412.07
951.465	4365.97
951.77	4366.88
952.075	4351.06
952.38	4349.25
952.685	4347.44
952.99	4320.1
953.294	4276.94
953.599	4228.58
953.904	4241.68
954.209	4222.7
954.513	4193.77
954.818	4213.89
955.122	4178.86
955.426	4173.89
955.731	4156.94
956.035	4107.22
956.339	4105.87
956.643	4126.43
956.948	4090.73
957.252	4032.2
957.556	4040.78
957.86	4040.11
958.163	4025.64
958.467	4017.73
958.771	3974.57
959.075	3997.62
959.378	3973.67
959.682	3918.75
959.985	3925.76
960.289	3886.89
960.592	3864.52
960.896	3869.26
961.199	3821.81
961.502	3832.88
961.805	3796.5
962.108	3781.58
962.411	3755.82
962.714	3714.01
963.017	3721.24
963.32	3712.66
963.623	3704.97
963.926	3707.46
964.228	3692.32
964.531	3650.51
964.833	3655.26
965.136	3645.54
965.438	3605.31
965.741	3583.62
966.043	3560.8
966.345	3581.13
966.648	3546.11
966.95	3543.4
967.252	3503.62
967.554	3466.11
967.856	3476.5
968.158	3481.93
968.46	3429.05
968.761	3398.77
969.063	3445.54
969.365	3411.2
969.666	3407.58
969.968	3350.18
970.269	3383.85
970.571	3327.13
970.872	3343.63
971.174	3290.97
971.475	3297.75
971.776	3286.91
972.077	3289.84
972.378	3301.37
972.679	3230.41
972.98	3230.41
973.281	3229.73
973.582	3193.8
973.883	3226.79
974.183	3173.24
974.484	3147.02
974.785	3140.69
975.085	3133.91
975.386	3166.46
975.686	3121.49
975.986	3113.8
976.287	3093.92
976.587	3053.46
976.887	3083.07
977.187	3024.09
977.487	3057.76
977.787	3008.04
978.087	2973.92
978.387	2991.77
978.687	2977.31
978.987	2960.36
979.286	2910.19
979.586	2934.37
979.885	2903.19
980.185	2908.84
980.484	2883.98
980.784	2872.68
981.083	2894.15
981.382	2867.93
981.682	2845.11
981.981	2840.59
982.28	2820.02
982.579	2778.9
982.878	2794.26
983.177	2756.75
983.475	2795.39
983.774	2762.63
984.073	2722.4
984.372	2729.41
984.67	2719.91
984.969	2676.98
985.267	2700.93
985.566	2709.52
985.864	2678.11
986.162	2694.15
986.461	2646.02
986.759	2649.41
987.057	2617.54
987.355	2592.23
987.653	2622.97
987.951	2553.82
988.249	2554.04
988.547	2587.26
988.844	2545
989.142	2532.12
989.44	2527.15
989.737	2508.39
990.035	2460.26
990.332	2504.33
990.63	2500.26
990.927	2477.21
991.224	2476.98
991.521	2440.37
991.819	2447.83
992.116	2403.09
992.413	2404.67
992.71	2393.14
993.006	2412.35
993.303	2396.98
993.6	2396.08
993.897	2384.1
994.193	2337.78
994.49	2337.1
994.787	2316.99
995.083	2331.68
995.379	2279.93
995.676	2272.24
995.972	2301.85
996.268	2271.11
996.565	2248.06
996.861	2248.74
997.157	2213.71
997.453	2220.72
997.749	2208.06
998.044	2167.39
998.34	2200.15
998.636	2163.32
998.932	2158.57
999.227	2160.83
999.523	2148.4
999.818	2095.3
1000.114	2123.55
1000.409	2120.83
1000.704	2084.45
1001	2100.95
1001.295	2062.08
1001.59	2081.51
1001.885	2100.95
1002.18	2053.27
1002.475	2053.72
1002.77	2051.68
1003.065	2010.1
1003.359	2015.98
1003.654	2014.4
1003.949	1949.54
1004.243	1971.46
1004.538	1951.35
1004.832	1961.29
1005.127	1926.26
1005.421	1939.6
1005.715	1932.59
1006.009	1932.14
1006.304	1919.03
1006.598	1849.65
1006.892	1860.73
1007.186	1861.18
1007.48	1863.44
1007.773	1867.06
1008.067	1811.69
1008.361	1828.64
1008.655	1813.05
1008.948	1795.87
1009.242	1774.4
1009.535	1801.29
1009.829	1757
1010.122	1741.63
1010.415	1755.87
1010.708	1746.15
1011.001	1719.04
1011.295	1691.24
1011.588	1727.4
1011.881	1687.17
1012.173	1672.94
1012.466	1703.9
1012.759	1678.36
1013.052	1679.26
1013.344	1652.82
1013.637	1657.34
1013.93	1640.39
1014.222	1622.99
1014.514	1605.59
1014.807	1588.19
1015.099	1601.53
1015.391	1592.26
1015.683	1576.89
1015.976	1528.08
1016.268	1557.46
1016.56	1562.2
1016.851	1540.51
1017.143	1540.28
1017.435	1493.73
1017.727	1491.92
1018.018	1487.63
1018.31	1477.24
1018.602	1488.08
1018.893	1454.86
1019.185	1476.78
1019.476	1444.02
1019.767	1452.15
1020.058	1447.86
1020.35	1448.54
1020.641	1415.54
1020.932	1390.01
1021.223	1413.51
1021.514	1355.2
1021.804	1392.72
1022.095	1412.38
1022.386	1361.53
1022.677	1351.36
1022.967	1343.91
1023.258	1322.21
1023.548	1332.83
1023.839	1331.7
1024.129	1299.16
1024.419	1347.52
1024.709	1301.87
1025	1291.93
1025.29	1262.1
1025.58	1256.9
1025.87	1249.44
1026.16	1255.09
1026.449	1243.34
1026.739	1240.63
1027.029	1237.92
1027.319	1238.82
1027.608	1235.43
1027.898	1229.11
1028.187	1185.94
1028.477	1216.45
1028.766	1204.93
1029.055	1188.88
1029.344	1161.31
1029.634	1172.38
1029.923	1168.32
1030.212	1157.02
1030.501	1137.58
1030.79	1116.57
1031.078	1115.89
1031.367	1109.11
1031.656	1096.91
1031.945	1103.46
1032.233	1077.92
1032.522	1079.51
1032.81	1092.39
1033.099	1049.22
1033.387	1072.5
1033.675	1058.04
1033.963	1069.11
1034.251	1030.69
1034.54	1020.07
1034.828	1033.18
1035.116	1026.63
1035.403	1046.96
1035.691	1000.64
1035.979	995.67
1036.267	1008.09
1036.554	984.59
1036.842	964.93
1037.129	977.81
1037.417	980.3
1037.704	963.58
1037.992	930.81
1038.279	971.03
1038.566	960.41
1038.853	960.41
1039.14	960.41
