Data from hue_180_FLMS001491_00050.txt Node
Date: Tue Feb 07 16:47:03 GMT 2017
User: dcchb
Spectrometer: FLMS00149
Trigger mode: 0
Integration Time (sec): 2.000000E-2
Scans to average: 10
Electric dark correction enabled: true
Nonlinearity correction enabled: false
Boxcar width: 0
XAxis mode: Wavelengths
Number of Pixels in Spectrum: 2048
>>>>>Begin Spectral Data<<<<<
341.393	-10.66
341.776	-10.66
342.16	-10.66
342.543	-61.51
342.927	-54.5
343.31	-89.31
343.693	-51.57
344.077	-63.32
344.46	-75.07
344.843	-66.03
345.226	-54.05
345.61	-34.62
345.993	-24.45
346.376	-3.66
346.759	15.78
347.142	27.98
347.525	48.32
347.908	68.66
348.291	80.63
348.674	92.84
349.057	127.86
349.44	120.86
349.823	133.06
350.206	159.73
350.588	206.05
350.971	201.53
351.354	231.36
351.737	251.48
352.119	247.86
352.502	256.67
352.884	277.92
353.267	267.75
353.65	272.49
354.032	276.11
354.414	307.52
354.797	306.39
355.179	309.55
355.562	315.66
355.944	325.15
356.326	319.72
356.709	308.2
357.091	328.99
357.473	352.72
357.855	320.63
358.238	317.46
358.62	325.82
359.002	336.67
359.384	343
359.766	338.48
360.148	310.91
360.53	335.77
360.912	326.5
361.294	332.15
361.676	331.93
362.057	341.87
362.439	323.34
362.821	339.16
363.203	333.73
363.584	301.64
363.966	327.86
364.348	301.87
364.729	333.06
365.111	312.27
365.493	327.63
365.874	298.48
366.256	283.34
366.637	316.33
367.019	305.49
367.4	316.79
367.781	305.03
368.163	307.52
368.544	299.38
368.925	304.36
369.306	305.49
369.688	307.07
370.069	300.97
370.45	289.44
370.831	315.88
371.212	303.9
371.593	317.46
371.974	318.82
372.355	322.44
372.736	317.69
373.117	305.94
373.498	301.87
373.879	321.53
374.26	301.42
374.641	312.49
375.021	295.77
375.402	307.29
375.783	328.76
376.163	313.85
376.544	302.77
376.925	307.75
377.305	316.33
377.686	326.28
378.066	346.39
378.447	303.23
378.827	350.68
379.208	322.21
379.588	333.51
379.968	347.29
380.349	324.92
380.729	340.97
381.109	338.48
381.489	335.77
381.87	314.53
382.25	326.28
382.63	347.29
383.01	354.3
383.39	317.46
383.77	324.69
384.15	354.98
384.53	334.19
384.91	332.38
385.29	346.16
385.67	367.41
386.049	331.47
386.429	336.67
386.809	353.62
387.189	339.61
387.568	351.59
387.948	340.51
388.328	343.9
388.707	359.95
389.087	370.12
389.466	354.3
389.846	362.66
390.225	344.81
390.605	337.8
390.984	352.49
391.363	350.91
391.743	357.46
392.122	350.46
392.501	373.73
392.881	359.95
393.26	368.08
393.639	368.76
394.018	353.85
394.397	392.04
394.776	360.4
395.155	360.63
395.534	374.41
395.913	379.38
396.292	390.68
396.671	387.29
397.05	386.84
397.429	401.3
397.808	378.48
398.186	384.35
398.565	390.23
398.944	385.48
399.323	410.79
399.701	403.11
400.08	404.92
400.458	402.66
400.837	394.07
401.215	404.01
401.594	398.82
401.972	411.92
402.351	415.77
402.729	407.4
403.107	402.21
403.486	402.88
403.864	439.95
404.242	414.18
404.62	422.09
404.999	438.82
405.377	421.64
405.755	419.83
406.133	447.86
406.511	445.14
406.889	429.32
407.267	443.34
407.645	437.46
408.023	475.88
408.401	460.74
408.779	450.79
409.156	495.09
409.534	476.56
409.912	470.91
410.29	495.76
410.667	495.99
411.045	505.93
411.422	526.05
411.8	526.95
412.178	528.53
412.555	529.66
412.933	529.21
413.31	564.46
413.687	540.06
414.065	543.45
414.442	570.56
414.819	575.08
415.197	575.99
415.574	585.03
415.951	614.86
416.328	581.86
416.705	597.91
417.082	597.91
417.46	606.04
417.837	627.06
418.214	629.09
418.591	634.52
418.967	646.04
419.344	635.42
419.721	655.08
420.098	649.43
420.475	688.53
420.852	674.52
421.228	696.66
421.605	729.43
421.982	729.66
422.358	711.8
422.735	742.54
423.111	724.46
423.488	743.67
423.864	767.62
424.241	769.43
424.617	780.28
424.994	792.25
425.37	793.61
425.746	790.45
426.123	821.18
426.499	825.92
426.875	843.55
427.251	860.27
427.627	867.05
428.003	848.75
428.379	895.75
428.756	888.52
429.132	902.76
429.507	896.66
429.883	918.8
430.259	949.31
430.635	925.13
431.011	947.5
431.387	962.64
431.763	980.27
432.138	1008.29
432.514	1005.13
432.89	999.03
433.265	1046.71
433.641	1038.57
434.016	1062.53
434.392	1072.25
434.767	1101.85
435.143	1107.73
435.518	1132.13
435.894	1119.25
436.269	1161.51
436.644	1182.3
437.02	1194.95
437.395	1195.41
437.77	1225.46
438.145	1243.54
438.52	1255.74
438.895	1281.96
439.271	1300.26
439.646	1309.75
440.021	1354.72
440.395	1342.75
440.77	1384.1
441.145	1386.14
441.52	1436.53
441.895	1412.12
442.27	1426.36
442.645	1445.34
443.019	1451.44
443.394	1473.14
443.769	1461.61
444.143	1498.68
444.518	1502.52
444.892	1507.49
445.267	1530.76
445.641	1546.81
446.016	1522.18
446.39	1595.4
446.764	1603.53
447.139	1593.81
447.513	1607.6
447.887	1684.89
448.262	1658.45
448.636	1623.64
449.01	1653.7
449.384	1688.5
449.758	1657.77
450.132	1686.47
450.506	1681.04
450.88	1696.64
451.254	1731.21
451.628	1744.09
452.002	1766.46
452.376	1817.31
452.75	1813.92
453.123	1810.53
453.497	1874.03
453.871	1871.32
454.244	1882.85
454.618	1926.91
454.992	1929.85
455.365	1934.37
455.739	2015.95
456.112	2006.01
456.486	2002.84
456.859	2043.29
457.232	2107.7
457.606	2093.91
457.979	2113.8
458.352	2159
458.725	2176.17
459.099	2190.41
459.472	2245.1
459.845	2278.32
460.218	2263.4
460.591	2308.6
460.964	2341.14
461.337	2356.05
461.71	2442.38
462.083	2416.84
462.456	2477.41
462.829	2504.52
463.201	2526.9
463.574	2502.26
463.947	2594.47
464.32	2619.55
464.692	2643.96
465.065	2694.12
465.438	2701.13
465.81	2772.77
466.183	2789.71
466.555	2855.48
466.928	2832.65
467.3	2862.71
467.672	2926.89
468.045	2989.94
468.417	2988.35
468.789	3011.86
469.161	3100.22
469.534	3169.37
469.906	3212.3
470.278	3232.42
470.65	3289.36
471.022	3306.99
471.394	3434.44
471.766	3436.48
472.138	3497.49
472.51	3565.74
472.882	3646.87
473.253	3683.93
473.625	3721.44
473.997	3801.67
474.369	3875.56
474.74	3936.58
475.112	3991.72
475.484	4059.51
475.855	4129.34
476.227	4134.31
476.598	4277.13
476.97	4356.23
477.341	4443
477.713	4520.52
478.084	4575.2
478.455	4690.46
478.827	4741.53
479.198	4853.16
479.569	4904.46
479.94	5010.9
480.311	5111.24
480.682	5254.96
481.053	5338.12
481.424	5439.81
481.795	5480.49
482.166	5583.09
482.537	5670.99
482.908	5821.5
483.279	5850.2
483.65	6029.86
484.021	6115.96
484.391	6218.1
484.762	6311.66
485.133	6366.57
485.503	6455.16
485.874	6629.84
486.244	6693.57
486.615	6830.96
486.985	6924.75
487.356	7055.37
487.726	7161.8
488.097	7306.21
488.467	7285.87
488.837	7435.24
489.207	7539.87
489.578	7781.22
489.948	7764.5
490.318	7862.12
490.688	7947.32
491.058	8009.24
491.428	8139.18
491.798	8235.9
492.168	8411.94
492.538	8424.82
492.908	8596.34
493.278	8703.01
493.648	8738.26
494.017	8802.21
494.387	8892.83
494.757	8969.67
495.126	9113.84
495.496	9135.99
495.866	9171.47
496.235	9312.93
496.605	9326.04
496.974	9340.5
497.344	9474.28
497.713	9538.46
498.082	9575.75
498.452	9696.65
498.821	9709.53
499.19	9798.57
499.559	9820.04
499.928	9903.43
500.298	9959.7
500.667	10001.73
501.036	10016.87
501.405	10046.47
501.774	10138.9
502.143	10179.13
502.512	10239.91
502.88	10330.76
503.249	10305.68
503.618	10323.98
503.987	10403.3
504.356	10446.69
504.724	10467.93
505.093	10505.67
505.462	10499.79
505.83	10599.23
506.199	10650.98
506.567	10724.87
506.936	10741.82
507.304	10808.49
507.672	10898.43
508.041	10949.95
508.409	10894.59
508.777	11026.79
509.145	11029.05
509.514	10932.33
509.882	11003.51
510.25	11052.1
510.618	11128.93
510.986	11108.37
511.354	11153.34
511.722	11235.14
512.09	11245.31
512.458	11251.41
512.826	11334.8
513.193	11304.52
513.561	11373.67
513.929	11406.21
514.297	11468.13
514.664	11452.99
515.032	11489.83
515.4	11572.99
515.767	11588.13
516.135	11567.56
516.502	11419.77
516.869	11620.67
517.237	11611.63
517.604	11598.75
517.972	11568.02
518.339	11652.76
518.706	11631.52
519.073	11633.32
519.44	11687.56
519.808	11673.55
520.175	11643.27
520.542	11750.38
520.909	11752.87
521.276	11754
521.643	11805.75
522.009	11797.39
522.376	11867.44
522.743	11829.7
523.11	11903.15
523.477	11917.61
523.843	11975.91
524.21	11986.31
524.577	11993.54
524.943	11968.68
525.31	11968.46
525.676	12060.43
526.043	12079.19
526.409	12084.84
526.776	12165.51
527.142	12044.84
527.508	12109.7
527.874	12135.01
528.241	12155.34
528.607	12104.27
528.973	12158.28
529.339	11976.37
529.705	12125.29
530.071	12048.91
530.437	12106.98
530.803	12152.18
531.169	12100.66
531.535	12090.26
531.901	12084.61
532.267	11998.51
532.632	12012.98
532.998	11953.32
533.364	11935.46
533.73	11971.39
534.095	11918.74
534.461	11822.92
534.826	11873.09
535.192	11877.39
535.557	11848.91
535.923	11766.88
536.288	11816.14
536.653	11809.14
537.019	11626.77
537.384	11707.9
537.749	11647.11
538.114	11620.67
538.479	11547.45
538.845	11528.69
539.21	11447.34
539.575	11458.41
539.94	11452.76
540.305	11400.11
540.67	11393.33
541.034	11284.63
541.399	11305.88
541.764	11252.77
542.129	11196.95
542.494	11145.65
542.858	11211.87
543.223	11041.93
543.587	11064.53
543.952	11008.26
544.316	10999.89
544.681	10913.34
545.045	10927.35
545.41	10853.46
545.774	10891.42
546.138	10745.89
546.503	10740.24
546.867	10639
547.231	10674.03
547.595	10640.36
547.959	10563.52
548.324	10511.77
548.688	10473.58
549.052	10444.2
549.416	10409.63
549.779	10370.53
550.143	10354.26
550.507	10305.68
550.871	10275.39
551.235	10206.92
551.599	10201.27
551.962	10222.51
552.326	10130.99
552.689	10119.47
553.053	10083.99
553.417	9982.29
553.78	10029.07
554.143	9971.67
554.507	9953.14
554.87	9928.74
555.234	9960.15
555.597	9880.15
555.96	9799.25
556.323	9763.54
556.686	9761.73
557.05	9804.22
557.413	9756.31
557.776	9743.66
558.139	9726.48
558.502	9706.6
558.865	9684.67
559.228	9725.58
559.59	9726.48
559.953	9651.91
560.316	9654.62
560.679	9625.24
561.041	9645.81
561.404	9676.77
561.767	9654.62
562.129	9521.06
562.492	9593.83
562.854	9578.69
563.217	9542.31
563.579	9573.04
563.941	9546.37
564.304	9531.23
564.666	9535.75
565.028	9590.44
565.39	9471.57
565.753	9519.93
566.115	9555.19
566.477	9492.36
566.839	9528.29
567.201	9539.82
567.563	9532.14
567.925	9584.79
568.287	9505.92
568.648	9554.28
569.01	9522.87
569.372	9561.51
569.734	9559.71
570.095	9520.39
570.457	9552.25
570.819	9603.09
571.18	9470.22
571.542	9592.7
571.903	9492.14
572.265	9546.83
572.626	9545.02
572.987	9506.15
573.349	9511.35
573.71	9600.84
574.071	9571.46
574.432	9649.2
574.794	9570.33
575.155	9587.73
575.516	9468.86
575.877	9594.96
576.238	9612.59
576.599	9556.09
576.96	9588.63
577.32	9552.93
577.681	9632.92
578.042	9596.54
578.403	9572.59
578.763	9545.7
579.124	9574.62
579.485	9574.85
579.845	9564.9
580.206	9549.99
580.566	9527.39
580.927	9508.18
581.287	9544.57
581.648	9487.62
582.008	9557.22
582.368	9474.74
582.728	9550.89
583.089	9480.61
583.449	9502.31
583.809	9491.69
584.169	9505.47
584.529	9478.8
584.889	9540.72
585.249	9382.54
585.609	9382.08
585.969	9503.89
586.329	9367.85
586.688	9413.27
587.048	9421.18
587.408	9335.08
587.768	9401.74
588.127	9401.29
588.487	9314.29
588.846	9371.91
589.206	9378.92
589.565	9319.71
589.925	9325.81
590.284	9335.31
590.643	9326.04
591.003	9382.76
591.362	9333.27
591.721	9346.83
592.08	9259.15
592.44	9298.02
592.799	9258.92
593.158	9276.78
593.517	9227.06
593.876	9279.26
594.235	9267.96
594.593	9207.63
594.952	9226.16
595.311	9171.24
595.67	9215.99
596.029	9259.6
596.387	9228.42
596.746	9177.34
597.104	9150.9
597.463	9141.19
597.822	9246.95
598.18	9143.22
598.538	9213.05
598.897	9259.6
599.255	9063.67
599.613	9210.79
599.972	9146.84
600.33	9180.06
600.688	9092.15
601.046	9168.76
601.404	9230.22
601.762	9177.8
602.12	9170.34
602.478	9173.28
602.836	9090.34
603.194	9119.04
603.552	9103
603.91	9088.31
604.268	9117.46
604.625	9075.88
604.983	9089.89
605.341	9057.57
605.698	9131.24
606.056	9105.93
606.413	9142.09
606.771	9112.26
607.128	9180.06
607.485	9103.67
607.843	9112.03
608.2	9145.93
608.557	9190.22
608.914	9121.53
609.272	9161.07
609.629	9168.53
609.986	9202.88
610.343	9120.4
610.7	9244.46
611.057	9200.17
611.414	9206.5
611.771	9176.21
612.127	9180.28
612.484	9212.14
612.841	9175.76
613.198	9146.38
613.554	9130.57
613.911	9295.08
614.267	9270
614.624	9239.71
614.98	9215.76
615.337	9266.83
615.693	9261.64
616.05	9275.19
616.406	9266.15
616.762	9232.03
617.118	9219.15
617.475	9241.52
617.831	9313.39
618.187	9280.39
618.543	9323.78
618.899	9291.69
619.255	9287.85
619.611	9335.98
619.967	9343.21
620.323	9360.62
620.678	9324.68
621.034	9309.32
621.39	9273.84
621.746	9326.04
622.101	9363.33
622.457	9279.26
622.812	9356.1
623.168	9308.41
623.523	9333.05
623.879	9303.67
624.234	9349.32
624.589	9303.67
624.945	9297.11
625.3	9314.51
625.655	9350.9
626.01	9314.97
626.365	9400.16
626.72	9270
627.075	9318.58
627.43	9280.84
627.785	9214.86
628.14	9312.03
628.495	9340.95
628.85	9270.9
629.205	9271.35
629.559	9317.9
629.914	9320.39
630.269	9318.36
630.623	9262.54
630.978	9157.23
631.332	9315.19
631.687	9274.97
632.041	9184.35
632.396	9150.23
632.75	9169.43
633.104	9174.18
633.459	9146.38
633.813	9159.49
634.167	9169.89
634.521	9129.89
634.875	9200.39
635.229	9136.67
635.583	9091.47
635.937	9063.22
636.291	9045.37
636.645	9067.97
636.999	9062.54
637.352	9009.21
637.706	9035.65
638.06	9040.4
638.413	9031.13
638.767	8967.18
639.121	8971.7
639.474	8897.8
639.828	8980.29
640.181	8958.14
640.534	8968.31
640.888	8900.06
641.241	8873.85
641.594	8938.25
641.947	8945.71
642.301	8934.41
642.654	8949.33
643.007	8969.67
643.36	8908.42
643.713	8901.42
644.066	8906.62
644.419	8823
644.771	8771.7
645.124	8751.14
645.477	8750.91
645.83	8681.54
646.182	8611.71
646.535	8626.62
646.888	8583.46
647.24	8592.5
647.593	8601.54
647.945	8582.56
648.298	8535.1
648.65	8533.07
649.002	8542.11
649.355	8609
649.707	8557.25
650.059	8615.1
650.411	8677.24
650.763	8697.81
651.115	8793.4
651.467	8751.59
651.819	8794.3
652.171	8854.64
652.523	8760.63
652.875	8826.62
653.227	8718.82
653.578	8837.24
653.93	8805.6
654.282	8719.95
654.633	8710.92
654.985	8791.14
655.337	8828.2
655.688	8762.44
656.039	8844.7
656.391	8717.47
656.742	8788.43
657.094	8751.37
657.445	8800.18
657.796	8762.67
658.147	8764.7
658.498	8798.6
658.849	8806.05
659.2	8725.6
659.551	8792.04
659.902	8783
660.253	8827.97
660.604	8799.73
660.955	8757.24
661.306	8820.97
661.656	8816.9
662.007	8800.18
662.358	8843.11
662.708	8814.42
663.059	8901.42
663.409	8784.59
663.76	8793.85
664.11	8839.27
664.461	8841.76
664.811	8886.5
665.161	8879.95
665.511	8877.69
665.862	8861.19
666.212	8880.18
666.562	8921.53
666.912	8904.58
667.262	8832.72
667.612	8835.66
667.962	8863.45
668.312	8866.84
668.662	8876.79
669.011	8884.7
669.361	8874.07
669.711	8923.79
670.06	8827.97
670.41	8825.04
670.76	8859.61
671.109	8885.15
671.459	8838.14
671.808	8786.17
672.157	8768.99
672.507	8791.36
672.856	8809.9
673.205	8821.87
673.554	8763.34
673.904	8812.83
674.253	8874.53
674.602	8813.96
674.951	8712.27
675.3	8575.78
675.649	8761.54
675.998	8769.44
676.346	8743.91
676.695	8731.25
677.044	8697.81
677.393	8702.78
677.741	8702.1
678.09	8717.47
678.438	8716.79
678.787	8706.17
679.135	8645.38
679.484	8621.65
679.832	8681.54
680.181	8607.64
680.529	8590.47
680.877	8627.3
681.225	8558.15
681.573	8556.12
681.922	8481.54
682.27	8469.57
682.618	8502.78
682.966	8535.1
683.314	8547.3
683.661	8416.01
684.009	8456.46
684.357	8348.44
684.705	8408.78
685.053	8382.79
685.4	8332.85
685.748	8359.96
686.095	8304.6
686.443	8299.17
686.79	8295.33
687.138	8297.14
687.485	8290.81
687.832	8231.15
688.18	8200.65
688.527	8242.68
688.874	8178.73
689.221	8192.06
689.568	8108.67
689.915	8091.27
690.262	8116.58
690.609	8073.87
690.956	8054.66
691.303	8031.61
691.65	7989.13
691.997	7978.28
692.344	7944.83
692.69	7959.3
693.037	7903.93
693.383	7861.22
693.73	7847.66
694.077	7775.12
694.423	7808.79
694.769	7715.01
695.116	7653.09
695.462	7737.38
695.808	7731.73
696.155	7616.03
696.501	7582.36
696.847	7669.59
697.193	7535.58
697.539	7506.2
697.885	7477.95
698.231	7469.37
698.577	7421.01
698.923	7413.77
699.269	7399.54
699.614	7322.02
699.96	7325.19
700.306	7386.66
700.651	7302.36
700.997	7322.48
701.342	7237.06
701.688	7253.33
702.033	7199.99
702.379	7183.95
702.724	7155.25
703.069	7138.53
703.415	7080.22
703.76	7091.07
704.105	7073.9
704.45	7016.72
704.795	6974.01
705.14	6962.03
705.485	6945.09
705.83	6878.42
706.175	6915.48
706.52	6889.04
706.865	6828.7
707.209	6880.91
707.554	6803.62
707.899	6860.34
708.243	6785.77
708.588	6687.92
708.932	6724.98
709.277	6713.45
709.621	6713.68
709.966	6691.31
710.31	6677.07
710.654	6620.12
710.998	6619.44
711.342	6567.24
711.687	6602.95
712.031	6564.3
712.375	6509.39
712.719	6528.6
713.063	6500.13
713.407	6540.35
713.75	6478.21
714.094	6446.57
714.438	6461.48
714.782	6503.29
715.125	6436.62
715.469	6378.32
715.812	6442.73
716.156	6421.71
716.499	6359.11
716.843	6332.22
717.186	6327.25
717.53	6365.44
717.873	6400.69
718.216	6349.85
718.559	6340.81
718.902	6343.97
719.246	6326.34
719.589	6324.99
719.932	6257.65
720.275	6332.45
720.617	6276.18
720.96	6236.18
721.303	6263.75
721.646	6292.22
721.989	6241.15
722.331	6228.95
722.674	6230.08
723.016	6229.17
723.359	6230.53
723.701	6226.01
724.044	6184.2
724.386	6182.39
724.729	6213.81
725.071	6195.73
725.413	6193.24
725.755	6197.53
726.097	6168.83
726.439	6126.35
726.782	6175.84
727.124	6169.51
727.465	6177.2
727.807	6166.58
728.149	6151.43
728.491	6194.15
728.833	6140.14
729.175	6138.55
729.516	6159.57
729.858	6143.75
730.199	6093.36
730.541	6104.66
730.882	6102.4
731.224	6097.65
731.565	6103.75
731.906	6077.99
732.248	6121.15
732.589	6100.59
732.93	6088.61
733.271	6116.18
733.612	6094.71
733.953	6151.89
734.294	6119.34
734.635	6133.58
734.976	6218.55
735.317	6195.95
735.658	6147.37
735.999	6149.85
736.339	6120.02
736.68	6205.9
737.021	6182.85
737.361	6183.07
737.702	6174.03
738.042	6186.46
738.383	6221.26
738.723	6198.66
739.063	6164.99
739.404	6229.62
739.744	6250.41
740.084	6238.66
740.424	6223.97
740.764	6252.22
741.104	6254.93
741.444	6286.12
741.784	6292.45
742.124	6317.76
742.464	6308.04
742.804	6286.35
743.143	6321.6
743.483	6382.84
743.823	6394.14
744.162	6380.35
744.502	6478.21
744.841	6451.31
745.181	6521.37
745.52	6509.84
745.86	6499.67
746.199	6537.19
746.538	6637.52
746.877	6697.63
747.216	6711.65
747.556	6776.95
747.895	6779.44
748.234	6836.61
748.573	6950.51
748.911	6920.45
749.25	7025.54
749.589	7057.63
749.928	7090.84
750.267	7143.72
750.605	7300.56
750.944	7304.17
751.283	7342.14
751.621	7433.21
751.96	7529.03
752.298	7642.69
752.636	7722.92
752.975	7828.23
753.313	7924.04
753.651	7998.62
753.989	8118.16
754.327	8248.55
754.666	8271.15
755.004	8461.66
755.342	8570.81
755.679	8671.37
756.017	8776.45
756.355	8879.5
756.693	9066.16
757.031	9228.87
757.368	9264.12
757.706	9471.8
758.044	9615.98
758.381	9706.6
758.719	9892.8
759.056	10098.22
759.394	10255.06
759.731	10249.41
760.068	10423.86
760.405	10644.88
760.743	10723.29
761.08	10899.33
761.417	11113.79
761.754	11260
762.091	11364.86
762.428	11650.5
762.765	11731.85
763.102	11955.35
763.438	11989.25
763.775	12271.05
764.112	12439.4
764.449	12627.2
764.785	12726.18
765.122	12870.58
765.458	12994.87
765.795	13154.19
766.131	13384.92
766.467	13488.19
766.804	13661.97
767.14	13708.3
767.476	13873.49
767.812	14016.31
768.148	14242.3
768.485	14249.3
768.821	14376.53
769.157	14552.8
769.492	14668.27
769.828	14772
770.164	14750.53
770.5	15043.18
770.836	15181.03
771.171	15183.06
771.507	15332.21
771.842	15296.28
772.178	15506.67
772.513	15523.84
772.849	15596.84
773.184	15803.16
773.519	15854.68
773.855	15866.21
774.19	16045.64
774.525	15954.79
774.86	16118.4
775.195	16143.04
775.53	16207.44
775.865	16294.67
776.2	16365.4
776.535	16282.69
776.87	16339.64
777.205	16422.35
777.539	16539.18
777.874	16587.09
778.209	16613.53
778.543	16676.81
778.878	16566.3
779.212	16597.71
779.547	16703.47
779.881	16776.69
780.215	16657.37
780.55	16846.29
780.884	16793.87
781.218	16795.22
781.552	16868.21
781.886	16754.32
782.22	16799.74
782.554	16761.1
782.888	16668.22
783.222	16755.9
783.556	16729.24
783.889	16733.53
784.223	16624.61
784.557	16720.65
784.89	16795
785.224	16672.06
785.557	16728.33
785.891	16662.12
786.224	16725.17
786.558	16787.54
786.891	16654.66
787.224	16631.38
787.557	16601.33
787.891	16615.34
788.224	16616.24
788.557	16666.86
788.89	16686.98
789.223	16633.64
789.556	16474.33
789.888	16521.78
790.221	16423.48
790.554	16490.15
790.887	16473.2
791.219	16398.62
791.552	16453.76
791.884	16393.42
792.217	16363.14
792.549	16332.41
792.882	16294.44
793.214	16262.35
793.546	16187.55
793.879	16223.03
794.211	16168.12
794.543	16153.21
794.875	16046.32
795.207	16212.19
795.539	16150.95
795.871	16093.77
796.203	15945.75
796.535	15923.15
796.867	15903.04
797.198	15826.89
797.53	15880.44
797.862	15830.73
798.193	15891.52
798.525	15735.82
798.856	15844.06
799.188	15574.69
799.519	15586.89
799.85	15571.98
800.182	15559.55
800.513	15629.15
800.844	15370.4
801.175	15569.04
801.506	15474.8
801.837	15473.22
802.168	15401.81
802.499	15393
802.83	15250.86
803.161	15257.18
803.491	15271.42
803.822	15283.4
804.153	15098.54
804.483	15055.15
804.814	15032.33
805.145	15081.82
805.475	15020.35
805.805	14997.3
806.136	14992.56
806.466	15013.12
806.796	14922.96
807.126	14944.88
807.457	14845.67
807.787	14879.11
808.117	14771.32
808.447	14800.7
808.777	14818.1
809.107	14690.19
809.436	14681.83
809.766	14699.91
810.096	14642.51
810.426	14533.59
810.755	14666.01
811.085	14646.13
811.414	14544.43
811.744	14425.34
812.073	14384.21
812.403	14393.03
812.732	14367.72
813.061	14349.86
813.39	14281.62
813.719	14239.81
814.049	14303.31
814.378	14217.44
814.707	14183.09
815.036	14191
815.365	14214.95
815.693	14036.2
816.022	14040.04
816.351	14037.55
816.68	13983.09
817.008	14076.42
817.337	13939.48
817.665	13864.68
817.994	14037.78
818.322	13873.27
818.651	13836.2
818.979	13785.81
819.307	13888.41
819.636	13898.12
819.964	13764.57
820.292	13851.12
820.62	13831.01
820.948	13777
821.276	13824.9
821.604	13802.31
821.932	13798.46
822.259	13776.77
822.587	13765.47
822.915	13594.85
823.243	13803.21
823.57	13725.7
823.898	13721.18
824.225	13715.3
824.553	13685.25
824.88	13768.41
825.207	13787.62
825.535	13760.5
825.862	13734.51
826.189	13716.66
826.516	13717.56
826.843	13777.9
827.17	13803.21
827.497	13837.79
827.824	13731.12
828.151	13808.86
828.478	13770.22
828.805	13774.96
829.131	13804.34
829.458	13698.58
829.785	13690.9
830.111	13806.15
830.438	13861.74
830.764	13807.28
831.09	13840.05
831.417	13681.86
831.743	13713.95
832.069	13750.1
832.395	13732.7
832.722	13738.81
833.048	13672.59
833.374	13672.14
833.7	13608.41
834.026	13596.66
834.351	13725.25
834.677	13614.74
835.003	13672.37
835.329	13676.89
835.654	13634.85
835.98	13523.44
836.306	13586.72
836.631	13499.26
836.956	13571.8
837.282	13572.26
837.607	13577.68
837.932	13479.38
838.258	13537
838.583	13559.6
838.908	13452.26
839.233	13428.98
839.558	13461.3
839.883	13358.02
840.208	13326.61
840.533	13290.23
840.858	13290
841.182	13248.2
841.507	13316.67
841.832	13223.79
842.156	13172.94
842.481	13188.54
842.805	13140.86
843.13	13088.88
843.454	13146.28
843.778	13071.03
844.103	13011.82
844.427	12986.96
844.751	13074.87
845.075	12926.62
845.399	12918.71
845.723	12800.3
846.047	12866.74
846.371	12720.75
846.695	12697.93
847.019	12606.63
847.343	12550.59
847.666	12574.99
847.99	12514.88
848.313	12554.2
848.637	12419.07
848.96	12355.79
849.284	12441.21
849.607	12256.36
849.931	12252.74
850.254	12168.9
850.577	12110.37
850.9	12002.81
851.223	12046.19
851.546	11950.38
851.869	11921.45
852.192	11923.71
852.515	11912.19
852.838	11825.64
853.161	11735.69
853.483	11734.11
853.806	11712.19
854.129	11615.47
854.451	11706.32
854.774	11598.52
855.096	11514.46
855.419	11501.35
855.741	11475.14
856.063	11394.69
856.385	11433.56
856.708	11481.46
857.03	11352.65
857.352	11273.33
857.674	11247.35
857.996	11194.47
858.318	11192.88
858.64	11135.71
858.961	11151.53
859.283	11131.64
859.605	11093.9
859.926	11122.15
860.248	11057.07
860.57	10967.58
860.891	10992.44
861.212	10936.85
861.534	10925.77
861.855	10848.94
862.176	10942.04
862.498	10896.85
862.819	10840.58
863.14	10810.29
863.461	10745.21
863.782	10762.84
864.103	10739.34
864.424	10697.98
864.745	10747.02
865.065	10696.85
865.386	10570.3
865.707	10596.97
866.027	10654.37
866.348	10603.52
866.668	10596.74
866.989	10562.17
867.309	10530.98
867.63	10547.48
867.95	10523.75
868.27	10441.49
868.59	10493.69
868.91	10486.01
869.23	10437.2
869.55	10393.13
869.87	10465.22
870.19	10346.35
870.51	10396.52
870.83	10421.15
871.15	10385
871.469	10334.6
871.789	10360.59
872.109	10333.47
872.428	10237.43
872.748	10273.81
873.067	10224.1
873.386	10257.32
873.706	10218.45
874.025	10171.67
874.344	10198.56
874.663	10159.92
874.982	10128.28
875.301	10175.74
875.62	10167.15
875.939	10137.09
876.258	10119.01
876.577	10032.69
876.896	10057.77
877.214	10076.75
877.533	10026.81
877.852	10060.26
878.17	9965.8
878.489	10028.39
878.807	10003.54
879.125	9956.53
879.444	9956.98
879.762	9846.25
880.08	9919.02
880.398	9851.68
880.716	9860.04
881.034	9871.11
881.352	9859.36
881.67	9825.69
881.988	9781.17
882.306	9733.49
882.624	9688.97
882.941	9677.44
883.259	9695.52
883.577	9709.08
883.894	9625.47
884.212	9636.31
884.529	9604
884.846	9563.55
885.164	9546.37
885.481	9540.5
885.798	9531.01
886.115	9426.6
886.432	9477.9
886.75	9427.28
887.067	9446.71
887.383	9442.2
887.7	9363.78
888.017	9341.86
888.334	9349.09
888.651	9340.5
888.967	9321.97
889.284	9280.62
889.6	9244.91
889.917	9117.91
890.233	9195.42
890.55	9126.05
890.866	9140.73
891.182	9111.36
891.498	9046.95
891.815	9051.25
892.131	8978.48
892.447	8978.7
892.763	8951.81
893.079	8899.38
893.395	8886.05
893.71	8903.23
894.026	8885.6
894.342	8818.93
894.657	8825.04
894.973	8750.24
895.289	8796.34
895.604	8770.35
895.92	8738.94
896.235	8637.92
896.55	8632.95
896.865	8573.74
897.181	8609
897.496	8642.22
897.811	8506.4
898.126	8500.3
898.441	8474.99
898.756	8435.67
899.071	8391.83
899.386	8378.72
899.7	8268.44
900.015	8250.36
900.33	8236.35
900.644	8196.8
900.959	8282.23
901.273	8203.13
901.588	8115.22
901.902	8086.07
902.216	8070.48
902.531	8017.6
902.845	8067.32
903.159	8013.31
903.473	7989.58
903.787	7954.55
904.101	7929.92
904.415	7843.82
904.729	7863.48
905.042	7791.39
905.356	7747.32
905.67	7808.57
905.984	7780.32
906.297	7752.3
906.611	7656.48
906.924	7637.5
907.237	7660.1
907.551	7614.67
907.864	7590.27
908.177	7499.87
908.491	7477.28
908.804	7429.59
909.117	7434.34
909.43	7289.48
909.743	7327.22
910.056	7304.17
910.368	7252.42
910.681	7216.94
910.994	7234.12
911.307	7194.34
911.619	7211.07
911.932	7106.66
912.244	7079.09
912.557	7100.79
912.869	7106.66
913.181	6999.77
913.494	7007.23
913.806	6948.25
914.118	6935.59
914.43	6905.09
914.742	6939.44
915.054	6842.72
915.366	6839.78
915.678	6809.72
915.99	6772.43
916.302	6712.1
916.613	6723.4
916.925	6723.62
917.236	6676.62
917.548	6669.84
917.859	6654.02
918.171	6612.21
918.482	6558.2
918.794	6517.53
919.105	6520.69
919.416	6463.74
919.727	6431.2
920.038	6438.21
920.349	6413.57
920.66	6373.58
920.971	6370.19
921.282	6333.58
921.593	6325.22
921.903	6254.26
922.214	6178.33
922.525	6207.93
922.835	6185.56
923.146	6146.24
923.456	6164.99
923.767	6106.24
924.077	6134.49
924.387	6139.91
924.697	6048.84
925.008	6007.48
925.318	5988.27
925.628	6015.84
925.938	5971.78
926.248	5909.18
926.558	5871.22
926.867	5887.26
927.177	5882.97
927.487	5818.11
927.796	5824.44
928.106	5763.65
928.416	5765
928.725	5733.59
929.034	5710.99
929.344	5725.46
929.653	5722.07
929.962	5593.71
930.271	5615.86
930.581	5613.82
930.89	5536.76
931.199	5504.45
931.508	5530.43
931.817	5536.31
932.125	5505.8
932.434	5455.41
932.743	5402.98
933.051	5381.74
933.36	5396.2
933.669	5352.81
933.977	5384.9
934.286	5385.58
934.594	5282.3
934.902	5273.27
935.21	5301.97
935.519	5289.08
935.827	5227.84
936.135	5209.31
936.443	5172.25
936.751	5189.88
937.059	5168.18
937.367	5142.42
937.674	5107.39
937.982	5085.47
938.29	5050.67
938.597	5025.59
938.905	4992.14
939.213	4966.38
939.52	4981.75
939.827	4990.11
940.135	4930.68
940.442	4904.91
940.749	4937.91
941.056	4913.27
941.363	4857.91
941.67	4857.01
941.977	4781.07
942.284	4732.71
942.591	4822.88
942.898	4748.08
943.205	4724.81
943.511	4738.59
943.818	4720.51
944.125	4685.71
944.431	4629.44
944.738	4638.25
945.044	4607.97
945.35	4608.42
945.657	4556.22
945.963	4550.8
946.269	4552.83
946.575	4497.01
946.881	4475.55
947.187	4510.35
947.493	4482.55
947.799	4427.86
948.105	4418.6
948.41	4343.57
948.716	4377.24
949.022	4374.31
949.327	4383.57
949.633	4328.66
949.938	4285.04
950.244	4317.58
950.549	4274.42
950.854	4234.42
951.16	4233.07
951.465	4209.34
951.77	4205.72
952.075	4169.79
952.38	4160.75
952.685	4115.56
952.99	4107.19
953.294	4116.69
953.599	4055.9
953.904	4038.5
954.209	4076.91
954.513	4063.13
954.818	4014.09
955.122	4048.66
955.426	4015.9
955.731	3996.91
956.035	3950.59
956.339	3998.95
956.643	3959.18
956.948	3915.56
957.252	3891.15
957.556	3912.85
957.86	3833.3
958.163	3845.96
958.467	3831.72
958.771	3819.29
959.075	3802.8
959.378	3766.64
959.682	3744.94
959.985	3725.96
960.289	3730.71
960.592	3724.38
960.896	3712.18
961.199	3686.41
961.502	3681.44
961.805	3640.99
962.108	3667.66
962.411	3645.74
962.714	3578.85
963.017	3557.83
963.32	3583.14
963.623	3599.86
963.926	3549.24
964.228	3485.97
964.531	3519.19
964.833	3498.85
965.136	3466.08
965.438	3521.45
965.741	3445.74
966.043	3417.49
966.345	3399.19
966.648	3422.01
966.95	3353.99
967.252	3424.05
967.554	3341.79
967.856	3346.54
968.158	3371.85
968.46	3325.97
968.761	3366.2
969.063	3298.18
969.365	3271.74
969.666	3248.91
969.968	3226.09
970.269	3182.25
970.571	3212.3
970.872	3221.79
971.174	3208.01
971.475	3153.77
971.776	3155.35
972.077	3136.82
972.378	3150.16
972.679	3130.72
972.98	3109.48
973.281	3118.07
973.582	3048.92
973.883	3059.99
974.183	3037.62
974.484	3042.59
974.785	3011.4
975.085	3058.18
975.386	3010.05
975.686	2975.92
975.986	2966.89
976.287	2954.46
976.587	2929.6
976.887	2913.55
977.187	2937.96
977.487	2936.38
977.787	2924.4
978.087	2907.45
978.387	2855.25
978.687	2874.46
978.987	2829.04
979.286	2844.63
979.586	2808.47
979.885	2802.37
980.185	2798.75
980.484	2801.69
980.784	2789.26
981.083	2771.18
981.382	2765.99
981.682	2747.91
981.981	2688.47
982.28	2694.12
982.579	2699.77
982.878	2726.89
983.177	2695.93
983.475	2691.64
983.774	2644.41
984.073	2625.65
984.372	2622.49
984.67	2596.95
984.969	2575.71
985.267	2580.68
985.566	2582.04
985.864	2563.51
986.162	2560.57
986.461	2538.87
986.759	2532.32
987.057	2540.23
987.355	2484.64
987.653	2487.35
987.951	2484.64
988.249	2471.76
988.547	2467.46
988.844	2458.88
989.142	2480.8
989.44	2445.77
989.737	2421.81
990.035	2405.09
990.332	2389.5
990.63	2389.5
990.927	2376.62
991.224	2355.83
991.521	2348.37
991.819	2321.7
992.116	2346.34
992.413	2327.81
992.71	2318.09
993.006	2303.63
993.303	2273.12
993.6	2293.91
993.897	2276.73
994.193	2266.56
994.49	2250.97
994.787	2237.64
995.083	2200.8
995.379	2205.78
995.676	2202.61
995.972	2175.04
996.268	2184.53
996.565	2179.34
996.861	2156.29
997.157	2144.99
997.453	2154.7
997.749	2155.83
998.044	2092.33
998.34	2101.15
998.636	2111.77
998.932	2093.01
999.227	2078.32
999.523	2066.34
999.818	2069.73
1000.114	2005.78
1000.409	2039.68
1000.704	2023.41
1001	2031.77
1001.295	2017.98
1001.59	1971.88
1001.885	1994.26
1002.18	1974.14
1002.475	1938.66
1002.77	1964.88
1003.065	1960.13
1003.359	1921.26
1003.654	1945.22
1003.949	1908.16
1004.243	1891.21
1004.538	1876.52
1004.832	1880.13
1005.127	1853.47
1005.421	1843.98
1005.715	1854.82
1006.009	1847.59
1006.304	1830.42
1006.598	1791.1
1006.892	1819.34
1007.186	1766.24
1007.48	1791.1
1007.773	1782.28
1008.067	1764.21
1008.361	1752
1008.655	1717.2
1008.948	1743.64
1009.242	1713.58
1009.535	1736.64
1009.829	1707.48
1010.122	1710.2
1010.415	1696.41
1010.708	1691.66
1011.001	1668.39
1011.295	1649.86
1011.588	1644.66
1011.881	1625.45
1012.173	1599.24
1012.466	1621.38
1012.759	1585.23
1013.052	1598.33
1013.344	1594.94
1013.637	1586.58
1013.93	1582.06
1014.222	1550.88
1014.514	1567.83
1014.807	1552.01
1015.099	1563.98
1015.391	1533.93
1015.683	1513.82
1015.976	1550.88
1016.268	1510.2
1016.56	1466.13
1016.851	1471.78
1017.143	1485.79
1017.435	1467.49
1017.727	1480.82
1018.018	1446.02
1018.31	1437.43
1018.602	1426.13
1018.893	1420.49
1019.185	1424.33
1019.476	1397.21
1019.767	1384.33
1020.058	1396.76
1020.35	1396.31
1020.641	1370.77
1020.932	1349.53
1021.223	1372.12
1021.514	1358.79
1021.804	1353.82
1022.095	1320.6
1022.386	1307.72
1022.677	1317.44
1022.967	1305.23
1023.258	1304.1
1023.548	1293.71
1023.839	1282.41
1024.129	1267.04
1024.419	1271.11
1024.709	1263.2
1025	1229.53
1025.29	1240.6
1025.58	1247.61
1025.87	1212.81
1026.16	1219.59
1026.449	1193.82
1026.739	1192.02
1027.029	1188.85
1027.319	1181.4
1027.608	1188.63
1027.898	1154.73
1028.187	1175.52
1028.477	1160.83
1028.766	1147.72
1029.055	1140.27
1029.344	1114.28
1029.634	1151.34
1029.923	1124
1030.212	1113.15
1030.501	1085.35
1030.79	1101.62
1031.078	1093.71
1031.367	1092.58
1031.656	1056.2
1031.945	1053.04
1032.233	1058.23
1032.522	1050.33
1032.81	1065.01
1033.099	1028.86
1033.387	1035.18
1033.675	1014.17
1033.963	1009.2
1034.251	1029.54
1034.54	992.7
1034.828	996.99
1035.116	996.99
1035.403	982.3
1035.691	992.7
1035.979	961.51
1036.267	972.36
1036.554	959.93
1036.842	969.2
1037.129	971.68
1037.417	953.38
1037.704	947.96
1037.992	905.24
1038.279	946.15
1038.566	935.75
1038.853	935.75
1039.14	935.75
