Data from hue_26_FLMS001491_00096.txt Node
Date: Tue Feb 07 17:14:50 GMT 2017
User: dcchb
Spectrometer: FLMS00149
Trigger mode: 0
Integration Time (sec): 2.000000E-2
Scans to average: 10
Electric dark correction enabled: true
Nonlinearity correction enabled: false
Boxcar width: 0
XAxis mode: Wavelengths
Number of Pixels in Spectrum: 2048
>>>>>Begin Spectral Data<<<<<
341.393	-12.91
341.776	-12.91
342.16	-12.91
342.543	-72.12
342.927	-61.95
343.31	-62.85
343.693	-77.77
344.077	-74.83
344.46	-52.91
344.843	-49.29
345.226	-42.51
345.61	-27.82
345.993	-34.83
346.376	-6.13
346.759	8.79
347.142	10.59
347.525	33.87
347.908	72.51
348.291	90.14
348.674	91.04
349.057	122
349.44	138.27
349.823	141.21
350.206	179.63
350.588	207.42
350.971	227.08
351.354	245.39
351.737	241.1
352.119	259.4
352.502	273.86
352.884	291.26
353.267	303.47
353.65	332.17
354.032	330.81
354.414	322.45
354.797	333.52
355.179	340.98
355.562	337.14
355.944	362.45
356.326	351.37
356.709	337.82
357.091	367.42
357.473	366.97
357.855	361.54
358.238	364.93
358.62	370.13
359.002	370.81
359.384	351.37
359.766	376.91
360.148	411.26
360.53	351.15
360.912	352.28
361.294	346.4
361.676	330.36
362.057	360.87
362.439	349.34
362.821	342.34
363.203	350.92
363.584	369.68
363.966	347.53
364.348	350.92
364.729	334.2
365.111	354.31
365.493	342.79
365.874	344.37
366.256	347.08
366.637	363.35
367.019	337.82
367.4	330.81
367.781	330.13
368.163	330.13
368.544	336.69
368.925	339.4
369.306	352.5
369.688	339.4
370.069	353.63
370.45	327.87
370.831	321.32
371.212	337.59
371.593	342.79
371.974	347.76
372.355	342.56
372.736	343.24
373.117	343.47
373.498	328.78
373.879	321.09
374.26	323.58
374.641	330.58
375.021	352.5
375.402	352.05
375.783	352.28
376.163	360.19
376.544	337.36
376.925	352.73
377.305	344.82
377.686	349.34
378.066	354.54
378.447	348.44
378.827	377.36
379.208	372.17
379.588	377.81
379.968	364.03
380.349	374.65
380.729	368.1
381.109	370.36
381.489	371.49
381.87	363.35
382.25	347.76
382.63	387.08
383.01	363.13
383.39	376.46
383.77	391.6
384.15	370.81
384.53	389.79
384.91	384.59
385.29	379.4
385.67	407.42
386.049	406.74
386.429	373.07
386.809	408.77
387.189	415.55
387.568	405.16
387.948	401.54
388.328	411.71
388.707	408.55
389.087	407.64
389.466	420.98
389.846	399.74
390.225	406.29
390.605	427.31
390.984	407.64
391.363	427.08
391.743	419.85
392.122	432.28
392.501	425.5
392.881	409.45
393.26	461.88
393.639	414.65
394.018	425.05
394.397	428.21
394.776	412.84
395.155	451.71
395.534	428.44
395.913	428.66
396.292	443.12
396.671	478.15
397.05	462.78
397.429	458.26
397.808	466.4
398.186	437.47
398.565	440.41
398.944	443.12
399.323	470.02
399.701	452.62
400.08	476.8
400.458	477.25
400.837	463.24
401.215	465.27
401.594	466.4
401.972	476.12
402.351	484.93
402.729	482.67
403.107	494.2
403.486	511.37
403.864	494.42
404.242	494.65
404.62	529
404.999	483.35
405.377	505.27
405.755	513.4
406.133	495.55
406.511	515.89
406.889	528.77
407.267	532.84
407.645	514.08
408.023	533.52
408.401	529.22
408.779	533.97
409.156	539.17
409.534	555.44
409.912	537.58
410.29	556.34
410.667	533.74
411.045	547.98
411.422	566.06
411.8	573.97
412.178	570.58
412.555	577.36
412.933	587.3
413.31	593.85
413.687	604.7
414.065	600.63
414.442	594.53
414.819	620.97
415.197	622.1
415.574	642.21
415.951	617.13
416.328	617.81
416.705	624.81
417.082	622.55
417.46	637.24
417.837	643.34
418.214	641.08
418.591	633.4
418.967	655.1
419.344	648.32
419.721	661.2
420.098	655.55
420.475	656.9
420.852	679.95
421.228	676.11
421.605	711.37
421.982	682.89
422.358	692.83
422.735	688.77
423.111	691.7
423.488	726.73
423.864	729.44
424.241	719.5
424.617	730.35
424.994	721.76
425.37	701.2
425.746	731.48
426.123	740.07
426.499	769.44
426.875	771.93
427.251	761.76
427.627	755.88
428.003	776.9
428.379	773.96
428.756	784.36
429.132	793.17
429.507	794.98
429.883	827.97
430.259	839.72
430.635	832.27
431.011	833.62
431.387	852.83
431.763	856.22
432.138	877.91
432.514	871.81
432.89	889.67
433.265	873.85
433.641	893.96
434.016	916.56
434.392	927.86
434.767	926.73
435.143	922.89
435.518	938.03
435.894	957.46
436.269	980.06
436.644	960.62
437.02	976.44
437.395	979.61
437.77	989.32
438.145	1002.43
438.52	1026.61
438.895	1013.28
439.271	1009.21
439.646	1046.95
440.021	1045.14
440.395	1052.37
440.77	1034.75
441.145	1066.38
441.52	1070
441.895	1071.81
442.27	1077.01
442.645	1093.28
443.019	1112.71
443.394	1100.28
443.769	1110.45
444.143	1111.13
444.518	1142.99
444.892	1115.65
445.267	1119.72
445.641	1159.49
446.016	1152.48
446.39	1145.25
446.764	1164.01
447.139	1126.04
447.513	1159.49
447.887	1163.11
448.262	1181.86
448.636	1174.63
449.01	1198.36
449.384	1220.96
449.758	1231.8
450.132	1220.05
450.506	1246.04
450.88	1256.89
451.254	1268.19
451.628	1228.41
452.002	1301.86
452.376	1263.22
452.75	1288.53
453.123	1303.89
453.497	1332.14
453.871	1349.99
454.244	1357.22
454.618	1347.73
454.992	1404
455.365	1370.33
455.739	1399.26
456.112	1441.52
456.486	1422.31
456.859	1464.34
457.232	1492.59
457.606	1489.65
457.979	1502.76
458.352	1525.58
458.725	1566.03
459.099	1569.65
459.472	1554.28
459.845	1562.19
460.218	1624.79
460.591	1630.44
460.964	1637.22
461.337	1650.1
461.71	1683.09
462.083	1703.66
462.456	1710.44
462.829	1716.54
463.201	1759.02
463.574	1758.34
463.947	1800.83
464.32	1813.48
464.692	1837.89
465.065	1849.19
465.438	1903.42
465.81	1879.47
466.183	1889.87
466.555	1968.06
466.928	2000.15
467.3	1983.87
467.672	1989.07
468.045	2024.78
468.417	2040.82
468.789	2089.41
469.161	2122.63
469.534	2113.59
469.906	2165.79
470.278	2215.28
470.65	2241.72
471.022	2288.95
471.394	2341.61
471.766	2344.99
472.138	2361.04
472.51	2435.16
472.882	2433.13
473.253	2504.99
473.625	2510.87
473.997	2554.25
474.369	2636.06
474.74	2634.25
475.112	2669.51
475.484	2765.77
475.855	2807.13
476.227	2808.94
476.598	2882.83
476.97	2947.92
477.341	3010.51
477.713	3045.09
478.084	3060
478.455	3163.05
478.827	3174.13
479.198	3292.54
479.569	3302.94
479.94	3428.58
480.311	3476.49
480.682	3521.91
481.053	3634
481.424	3654.11
481.795	3723.26
482.166	3812.98
482.537	3855.46
482.908	3907.89
483.279	4011.39
483.65	4084.16
484.021	4164.83
484.391	4219.52
484.762	4245.06
485.133	4329.8
485.503	4419.52
485.874	4504.49
486.244	4551.49
486.615	4675.56
486.985	4654.76
487.356	4800.75
487.726	4892.5
488.097	4996.68
488.467	4995.32
488.837	5125.71
489.207	5173.62
489.578	5243.45
489.948	5328.65
490.318	5421.98
490.688	5461.07
491.058	5554.18
491.428	5659.71
491.798	5715.75
492.168	5812.7
492.538	5851.57
492.908	5873.49
493.278	5993.71
493.648	6095.63
494.017	6128.4
494.387	6211.79
494.757	6267.83
495.126	6328.39
495.496	6401.61
495.866	6410.88
496.235	6561.61
496.605	6571.55
496.974	6630.98
497.344	6723.41
497.713	6710.08
498.082	6756.63
498.452	6889.28
498.821	6948.04
499.19	6956.4
499.559	6961.37
499.928	7072.33
500.298	7174.7
500.667	7129.28
501.036	7204.98
501.405	7316.39
501.774	7222.61
502.143	7356.84
502.512	7395.94
502.88	7450.4
503.249	7516.61
503.618	7545.76
503.987	7602.03
504.356	7648.36
504.724	7651.52
505.093	7735.14
505.462	7805.64
505.83	7811.29
506.199	7913.66
506.567	7965.64
506.936	7982.13
507.304	8068.69
507.672	8083.38
508.041	8167.21
508.409	8227.78
508.777	8237.5
509.145	8275.46
509.514	8276.36
509.882	8381.22
510.25	8358.4
510.618	8436.59
510.986	8471.39
511.354	8511.84
511.722	8622.12
512.09	8636.58
512.458	8626.64
512.826	8742.11
513.193	8853.52
513.561	8748.89
513.929	8837.71
514.297	8907.53
514.664	8957.25
515.032	8947.76
515.4	9023.24
515.767	9057.81
516.135	9160.86
516.502	9125.83
516.869	9170.13
517.237	9250.8
517.604	9288.32
517.972	9368.09
518.339	9421.64
518.706	9389.1
519.073	9448.76
519.44	9488.08
519.808	9584.8
520.175	9544.58
520.542	9671.36
520.909	9686.5
521.276	9695.31
521.643	9847.85
522.009	9834.74
522.376	9922.87
522.743	9937.56
523.11	10019.6
523.477	10119.71
523.843	10116.32
524.21	10267.27
524.577	10314.5
524.943	10356.31
525.31	10420.26
525.676	10492.8
526.043	10486.7
526.409	10619.58
526.776	10684.21
527.142	10734.15
527.508	10757.88
527.874	10858.67
528.241	10922.85
528.607	10889.63
528.973	11046.23
529.339	11012.11
529.705	11102.96
530.071	11206.23
530.437	11257.98
530.803	11331.65
531.169	11415.94
531.535	11359.22
531.901	11478.09
532.267	11457.52
532.632	11484.19
532.998	11670.4
533.364	11657.52
533.73	11735.26
534.095	11758.76
534.461	11787.46
534.826	11905.65
535.192	11902.94
535.557	11928.92
535.923	11994.01
536.288	12040.79
536.653	12190.39
537.019	12050.5
537.384	12195.36
537.749	12258.86
538.114	12335.69
538.479	12314.45
538.845	12430.15
539.21	12384.05
539.575	12422.92
539.94	12474.9
540.305	12580.21
540.67	12582.24
541.034	12626.53
541.399	12739.52
541.764	12779.3
542.129	12825.85
542.494	12849.35
542.858	12947.2
543.223	12935.9
543.587	13010.48
543.952	13025.62
544.316	13063.81
544.681	13186.97
545.045	13209.79
545.41	13261.32
545.774	13322.56
546.138	13338.6
546.503	13395.78
546.867	13508.54
547.231	13552.38
547.595	13603.46
547.959	13633.29
548.324	13679.39
548.688	13740.63
549.052	13735.66
549.416	13852.26
549.779	13807.74
550.143	13884.58
550.507	14016.55
550.871	13987.85
551.235	13991.47
551.599	14096.78
551.962	14075.53
552.326	14139.94
552.689	14282.99
553.053	14179.49
553.417	14205.93
553.78	14461.29
554.143	14391.68
554.507	14499.93
554.87	14534.73
555.234	14645.69
555.597	14539.25
555.96	14681.85
556.323	14727.04
556.686	14718.68
557.05	14842.52
557.413	14866.02
557.776	14957.77
558.139	15038.22
558.502	15035.96
558.865	15091.55
559.228	15215.39
559.59	15187.37
559.953	15230.98
560.316	15421.49
560.679	15436.63
561.041	15435.72
561.404	15518.43
561.767	15614.48
562.129	15503.74
562.492	15777.64
562.854	15758.65
563.217	15738.54
563.579	15840.69
563.941	15848.14
564.304	15991.64
564.666	15982.6
565.028	16019.89
565.39	16102.15
565.753	16152.54
566.115	16260.56
566.477	16298.07
566.839	16357.73
567.201	16461.69
567.563	16481.57
567.925	16630.04
568.287	16566.09
568.648	16680.21
569.01	16875.69
569.372	16832.52
569.734	16884.95
570.095	16910.26
570.457	17077.04
570.819	17023.03
571.18	17096.47
571.542	17228.9
571.903	17326.3
572.265	17381.44
572.626	17479.06
572.987	17435.67
573.349	17621.66
573.71	17669.79
574.071	17712.5
574.432	17852.61
574.794	18076.11
575.155	18065.26
575.516	18104.13
575.877	18228.19
576.238	18240.62
576.599	18424.8
576.96	18539.6
577.32	18609.65
577.681	18715.19
578.042	18886.71
578.403	18963.77
578.763	19123.08
579.124	19202.4
579.485	19511.55
579.845	19572.56
580.206	19735.95
580.566	19848.94
580.927	20026.34
581.287	20217.29
581.648	20359.89
582.008	20685.53
582.368	20749.48
582.728	21004.84
583.089	21159.64
583.449	21322.8
583.809	21720.53
584.169	21908.77
584.529	21996.68
584.889	22385.15
585.249	22566.61
585.609	22767.73
585.969	23158.01
586.329	23338.57
586.688	23614.72
587.048	23828.05
587.408	24074.59
587.768	24336.51
588.127	24697.63
588.487	25072.31
588.846	25396.59
589.206	25649.24
589.565	25956.35
589.925	26449.9
590.284	26584.58
590.643	27083.33
591.003	27440.38
591.362	27830.2
591.721	28177.76
592.08	28388.38
592.44	28925.99
592.799	29293.21
593.158	29589.25
593.517	29932.97
593.876	30342.45
594.235	30628.09
594.593	31057.91
594.952	31519.14
595.311	31746.03
595.67	32147.6
596.029	32721.15
596.387	33170.17
596.746	33430.05
597.104	33686.77
597.463	34062.58
597.822	34615.11
598.18	34839.73
598.538	35307.97
598.897	35724.23
599.255	35780.05
599.613	36568.5
599.972	36754.26
600.33	37263.62
600.688	37545.88
601.046	37965.3
601.404	38352.18
601.762	38676.02
602.12	39154.65
602.478	39515.09
602.836	39880.05
603.194	39967.73
603.552	40455.63
603.91	40551.67
604.268	41124.09
604.625	41308.72
604.983	41720
605.341	41898.53
605.698	42357.95
606.056	42743.03
606.413	42848.56
606.771	43337.82
607.128	43673.4
607.485	43793.4
607.843	44067.74
608.2	44544.34
608.557	44878.79
608.914	44890.99
609.272	45244.88
609.629	45647.59
609.986	45973
610.343	45883.29
610.7	46508.81
611.057	46620.89
611.414	46711.29
611.771	46869.93
612.127	47362.79
612.484	47449.12
612.841	47741.32
613.198	47828.32
613.554	47973.85
613.911	48391.02
614.267	48467.17
614.624	48555.76
614.98	48760.72
615.337	49063.99
615.693	49081.39
616.05	49279.35
616.406	49619.01
616.762	49579.23
617.118	49649.06
617.475	49795.5
617.831	50027.36
618.187	50228.26
618.543	50301.47
618.899	50577.17
619.255	50637.96
619.611	50695.36
619.967	50874.57
620.323	51056.71
620.678	51018.52
621.034	51000.44
621.39	51144.62
621.746	51176.03
622.101	51707.09
622.457	51448.11
622.812	51624.6
623.168	51684.04
623.523	51825.28
623.879	51928.1
624.234	51799.51
624.589	51979.17
624.945	52077.92
625.3	52164.93
625.655	52186.17
626.01	52215.1
626.365	52234.98
626.72	52301.42
627.075	52402.21
627.43	52372.83
627.785	52454.41
628.14	52559.49
628.495	52589.55
628.85	52646.27
629.205	52550.45
629.559	52755.65
629.914	52634.52
630.269	52714.52
630.623	52604.24
630.978	52588.19
631.332	52776.44
631.687	52928.3
632.041	52767.4
632.396	52851.01
632.75	52679.72
633.104	52808.53
633.459	52683.56
633.813	52765.59
634.167	52888.75
634.521	52759.49
634.875	52823.67
635.229	52911.8
635.583	52768.75
635.937	52766.27
636.291	52752.93
636.645	52871.35
636.999	52818.7
637.352	52875.87
637.706	52688.53
638.06	52836.77
638.413	52834.06
638.767	52694.63
639.121	52754.97
639.474	52622.54
639.828	52637.23
640.181	52708.87
640.534	52720.62
640.888	52618.02
641.241	52501.64
641.594	52642.43
641.947	52747.96
642.301	52599.49
642.654	52617.35
643.007	52653.73
643.36	52643.11
643.713	52583.22
644.066	52764.69
644.419	52515.43
644.771	52255.55
645.124	51944.59
645.477	52009.45
645.83	51817.59
646.182	51726.07
646.535	51626.64
646.888	51710.93
647.24	51555
647.593	51673.42
647.945	51631.83
648.298	51554.55
648.65	51526.75
649.002	51334.67
649.355	51526.53
649.707	51536.24
650.059	51722.45
650.411	52058.26
650.763	52084.48
651.115	52314.53
651.467	52241.76
651.819	52358.37
652.171	52225.04
652.523	52096
652.875	52183.91
653.227	52099.39
653.578	52251.48
653.93	52149.56
654.282	52117.25
654.633	51978.94
654.985	52012.62
655.337	52069.56
655.688	52025.95
656.039	52181.88
656.391	51914.54
656.742	51940.3
657.094	52049
657.445	52106.4
657.796	52048.55
658.147	51859.85
658.498	51940.53
658.849	51965.39
659.2	51907.99
659.551	51910.25
659.902	51949.57
660.253	51830.93
660.604	52027.3
660.955	51824.82
661.306	51969.9
661.656	51997.93
662.007	51882
662.358	51922
662.708	51867.31
663.059	51959.74
663.409	51823.02
663.76	51977.36
664.11	51918.38
664.461	51925.84
664.811	52076.12
665.161	51946.63
665.511	51894.2
665.862	51890.13
666.212	51934.65
666.562	51853.75
666.912	51839.96
667.262	51853.3
667.612	51846.07
667.962	51848.55
668.312	51731.72
668.662	51882.68
669.011	51752.74
669.361	51723.13
669.711	51715.22
670.06	51697.37
670.41	51547.77
670.76	51695.11
671.109	51697.82
671.459	51606.75
671.808	51624.38
672.157	51696.69
672.507	51425.51
672.856	51447.66
673.205	51546.41
673.554	51672.29
673.904	51541.67
674.253	51663.7
674.602	51573.08
674.951	51046.99
675.3	50920.44
675.649	51564.94
675.998	51512.52
676.346	51489.92
676.695	51624.15
677.044	51316.36
677.393	51378.51
677.741	51449.01
678.09	51362.01
678.438	51246.08
678.787	51388.23
679.135	51267.78
679.484	51091.06
679.832	51162.47
680.181	51069.14
680.529	51126.09
680.877	50901.23
681.225	50905.07
681.573	51140.1
681.922	50771.52
682.27	50800.9
682.618	50769.71
682.966	50730.84
683.314	50824.62
683.661	50694.91
684.009	50524.07
684.357	50440.45
684.705	50528.13
685.053	50504.41
685.4	50529.72
685.748	50315.71
686.095	50379.89
686.443	50201.14
686.79	50205.66
687.138	50098.32
687.485	50178.99
687.832	50119.33
688.18	50053.34
688.527	49885.89
688.874	49801.37
689.221	49714.14
689.568	49802.73
689.915	49579.23
690.262	49598.22
690.609	49478.67
690.956	49299.92
691.303	49419.69
691.65	49193.25
691.997	49056.53
692.344	48973.83
692.69	48944.22
693.037	48944.67
693.383	48625.36
693.73	48781.97
694.077	48532.71
694.423	48572.71
694.769	48412.94
695.116	48299.04
695.462	48256.56
695.808	48099.95
696.155	48174.98
696.501	47994.64
696.847	47914.19
697.193	47649.11
697.539	47704.03
697.885	47520.53
698.231	47371.61
698.577	47487.31
698.923	47377.03
699.269	47226.3
699.614	46994.44
699.96	46922.13
700.306	46950.38
700.651	46820.44
700.997	46658.86
701.342	46854.56
701.688	46703.38
702.033	46350.39
702.379	46439.43
702.724	46274.24
703.069	46440.33
703.415	45930.52
703.76	46096.84
704.105	45997.41
704.45	45756.28
704.795	45583.41
705.14	45491.43
705.485	45572.33
705.83	45401.04
706.175	45400.81
706.52	45406.24
706.865	45163.08
707.209	45050.99
707.554	44834.05
707.899	45037.88
708.243	44692.36
708.588	44576.88
708.932	44460.95
709.277	44452.81
709.621	44434.96
709.966	44136.66
710.31	44253.72
710.654	43880.63
710.998	43921.3
711.342	44077
711.687	43958.36
712.031	43654.42
712.375	43590.46
712.719	43604.7
713.063	43557.92
713.407	43603.35
713.75	43436.12
714.094	43325.84
714.438	43187.08
714.782	43261.89
715.125	43095.56
715.469	43217.59
715.812	42920.88
716.156	42742.12
716.499	42816.02
716.843	42992.51
717.186	42589.81
717.53	42877.94
717.873	42657.83
718.216	42525.41
718.559	42424.17
718.902	42215.58
719.246	42268.46
719.589	42119.99
719.932	41902.6
720.275	42061.69
720.617	42008.36
720.96	41830.28
721.303	41854.01
721.646	41871.87
721.989	41663.74
722.331	41729.04
722.674	41560.46
723.016	41634.13
723.359	41503.51
723.701	41472.1
724.044	41283.41
724.386	41129.29
724.729	41331.99
725.071	41191.88
725.413	41052.45
725.755	40966.13
726.097	40901.72
726.439	40579.7
726.782	40709.41
727.124	40868.73
727.465	40627.15
727.807	40530.88
728.149	40521.17
728.491	40473.26
728.833	40534.95
729.175	40393.71
729.516	40238.46
729.858	40212.7
730.199	40176.77
730.541	40249.76
730.882	40040.73
731.224	40268.74
731.565	39962.99
731.906	39947.62
732.248	40106.26
732.589	39844.35
732.93	39698.14
733.271	39700.62
733.612	39740.17
733.953	39665.6
734.294	39559.38
734.635	39534.07
734.976	39611.36
735.317	39364.59
735.658	39454.53
735.999	39280.75
736.339	39246.62
736.68	39438.26
737.021	39162.78
737.361	39047.31
737.702	39303.57
738.042	39058.61
738.383	38956.69
738.723	39060.64
739.063	38843.24
739.404	38841.66
739.744	38640.76
740.084	38547.21
740.424	38766.18
740.764	38536.81
741.104	38713.53
741.444	38472.86
741.784	38275.58
742.124	38372.52
742.464	38369.36
742.804	38363.93
743.143	38192.64
743.483	38109.25
743.823	37914.23
744.162	37935.02
744.502	38023.15
744.841	37717.62
745.181	37942.25
745.52	37848.47
745.86	37894.12
746.199	37799.2
746.538	37681.24
746.877	37784.29
747.216	37704.52
747.556	37652.54
747.895	37768.24
748.234	37468.59
748.573	37415.71
748.911	37387.69
749.25	37392.66
749.589	37125.78
749.928	37281.48
750.267	37248.26
750.605	37211.42
750.944	36900.7
751.283	36961.94
751.621	37026.12
751.96	36778.67
752.298	36826.8
752.636	36760.81
752.975	36663.87
753.313	36477.2
753.651	36563.08
753.989	36429.07
754.327	36506.36
754.666	36046.48
755.004	36262.52
755.342	36223.65
755.679	36172.81
756.017	35907.5
756.355	36021.85
756.693	35692.82
757.031	35998.57
757.368	35778.69
757.706	35681.75
758.044	35559.26
758.381	35635.19
758.719	35377.12
759.056	35432.03
759.394	35241.31
759.731	35212.38
760.068	35077.69
760.405	34953.85
760.743	34904.82
761.08	35004.7
761.417	34721.77
761.754	34666.18
762.091	34594.99
762.428	34431.61
762.765	34324.04
763.102	34319.52
763.438	34164.05
763.775	34057.83
764.112	34110.04
764.449	33992.3
764.785	33879.98
765.122	33676.37
765.458	33623.27
765.795	33523.61
766.131	33429.38
766.467	33372.65
766.804	33288.59
767.14	33039.1
767.476	33086.79
767.812	32921.82
768.148	32821.71
768.485	32790.97
768.821	32501.72
769.157	32551.21
769.492	32337.2
769.828	32398.44
770.164	31996.64
770.5	31980.6
770.836	31936.99
771.171	31779.7
771.507	31767.72
771.842	31442.08
772.178	31529.99
772.513	31327.51
772.849	31367.28
773.184	31237.57
773.519	31238.02
773.855	30953.73
774.19	30801.65
774.525	30736.79
774.86	30819.95
775.195	30694.31
775.53	30511.49
775.865	30388.78
776.2	30180.87
776.535	30019.52
776.87	30143.13
777.205	29999.18
777.539	29813.65
777.874	29822.24
778.209	29514
778.543	29588.57
778.878	29359.43
779.212	29325.98
779.547	29233.1
779.881	29113.56
780.215	29063.61
780.55	29002.37
780.884	28962.6
781.218	28714.92
781.552	28724.64
781.886	28565.32
782.22	28370.07
782.554	28288.04
782.888	28017.77
783.222	27931.21
783.556	27951.55
783.889	27883.53
784.223	27699.58
784.557	27624.33
784.89	27633.6
785.224	27392.47
785.557	27182.08
785.891	27314.73
786.224	27245.58
786.558	27158.81
786.891	26911.35
787.224	26876.33
787.557	26763.11
787.891	26735.09
788.224	26696.9
788.557	26641.53
788.89	26496.9
789.223	26545.94
789.556	26261.2
789.888	26234.99
790.221	26207.64
790.554	25990.47
790.887	25933.75
791.219	25696.7
791.552	25764.27
791.884	25621.67
792.217	25552.52
792.549	25540.54
792.882	25295.58
793.214	25162.25
793.546	25219.42
793.879	25091.74
794.211	24927.68
794.543	25074.34
794.875	24917.73
795.207	24909.83
795.539	24771.98
795.871	24657.18
796.203	24550.51
796.535	24519.78
796.867	24410.63
797.198	24291.31
797.53	24327.92
797.862	24126.12
798.193	24166.12
798.525	23995.27
798.856	24011.09
799.188	23734.94
799.519	23749.63
799.85	23619.46
800.182	23642.74
800.513	23637.32
800.844	23411.33
801.175	23467.15
801.506	23395.74
801.837	23277.78
802.168	23205.92
802.499	23196.2
802.83	22956.43
803.161	22852.7
803.491	22899.48
803.822	22977.67
804.153	22732.03
804.483	22614.52
804.814	22503.33
805.145	22498.82
805.475	22596.67
805.805	22420.4
806.136	22443.68
806.466	22353.06
806.796	22329.78
807.126	22140.86
807.457	22064.7
807.787	22040.97
808.117	21896.8
808.447	21942.45
808.777	22038.26
809.107	21776.12
809.436	21610.48
809.766	21788.78
810.096	21660.65
810.426	21535.22
810.755	21610.7
811.085	21539.52
811.414	21500.2
811.744	21247.77
812.073	21231.5
812.403	21276.02
812.732	21147.44
813.061	21161
813.39	21064.5
813.719	21002.13
814.049	21055.24
814.378	20956.48
814.707	20828.12
815.036	20795.58
815.365	20685.3
815.693	20657.96
816.022	20520.34
816.351	20496.83
816.68	20453.67
817.008	20404.18
817.337	20289.16
817.665	20292.77
817.994	20213.9
818.322	20323.73
818.651	20203.28
818.979	20087.35
819.307	20113.79
819.636	20104.08
819.964	19864.99
820.292	20052.1
820.62	20043.51
820.948	19914.93
821.276	19974.36
821.604	19963.97
821.932	20003.29
822.259	19921.26
822.587	19924.19
822.915	19735.05
823.243	19856.4
823.57	19846.91
823.898	19856.85
824.225	19794.03
824.553	19797.87
824.88	19817.98
825.207	19818.43
825.535	19801.94
825.862	19829.28
826.189	19728.94
826.516	19909.96
826.843	19890.52
827.17	19925.55
827.497	19856.62
827.824	19884.42
828.151	19891.43
828.478	19739.79
828.805	19883.97
829.131	19799.68
829.458	19850.3
829.785	19545.9
830.111	19726.91
830.438	19869.73
830.764	19745.22
831.09	19734.59
831.417	19649.85
831.743	19719.68
832.069	19747.48
832.395	19653.01
832.722	19718.55
833.048	19597.42
833.374	19667.48
833.7	19441.04
834.026	19581.38
834.351	19566.69
834.677	19517.88
835.003	19604.43
835.329	19594.03
835.654	19483.3
835.98	19424.32
836.306	19413.92
836.631	19402.85
836.956	19434.71
837.282	19396.3
837.607	19364.66
837.932	19260.71
838.258	19317.2
838.583	19310.2
838.908	19098.68
839.233	19081.05
839.558	19106.59
839.883	19019.58
840.208	18935.75
840.533	18903.66
840.858	19013.94
841.182	18927.84
841.507	18939.36
841.832	18847.16
842.156	18792.02
842.481	18889.42
842.805	18787.73
843.13	18746.15
843.454	18700.05
843.778	18699.82
844.103	18538.02
844.427	18602.65
844.751	18512.03
845.075	18413.27
845.399	18419.6
845.723	18282.43
846.047	18312.71
846.371	18149.1
846.695	18155.43
847.019	18080.17
847.343	17915.43
847.666	17870.46
847.99	17768.54
848.313	17787.53
848.637	17690.58
848.96	17603.35
849.284	17558.83
849.607	17439.97
849.931	17395.67
850.254	17305.28
850.577	17124.72
850.9	16998.85
851.223	17087.88
851.546	16982.58
851.869	16860.09
852.192	17070.48
852.515	16722.47
852.838	16592.76
853.161	16728.57
853.483	16629.59
853.806	16496.49
854.129	16477.73
854.451	16478.41
854.774	16391.86
855.096	16361.58
855.419	16287.68
855.741	16238.41
856.063	16132.88
856.385	16124.52
856.708	16139.66
857.03	16063.28
857.352	16079.32
857.674	15927.69
857.996	15927.46
858.318	15771.99
858.64	15756.85
858.961	15756.62
859.283	15686.34
859.605	15658.32
859.926	15677.75
860.248	15650.18
860.57	15603.18
860.891	15564.99
861.212	15448.83
861.534	15428.27
861.855	15402.5
862.176	15329.06
862.498	15346.69
862.819	15403.41
863.14	15332.22
863.461	15277.99
863.782	15274.6
864.103	15217.42
864.424	15195.73
864.745	15174.49
865.065	15012.01
865.386	14996.41
865.707	14997.32
866.027	15034.38
866.348	14967.26
866.668	14964.78
866.989	14997.09
867.309	14905.12
867.63	14901.05
867.95	14893.14
868.27	14757.55
868.59	14709.42
868.91	14733.6
869.23	14693.6
869.55	14607.95
869.87	14773.14
870.19	14616.31
870.51	14604.11
870.83	14727.49
871.15	14536.76
871.469	14544
871.789	14608.85
872.109	14494.05
872.428	14407.95
872.748	14349.2
873.067	14419.03
873.386	14447.95
873.706	14397.56
874.025	14320.5
874.344	14367.5
874.663	14327.05
874.982	14233.04
875.301	14296.09
875.62	14199.15
875.939	14175.64
876.258	14202.99
876.577	14097.68
876.896	14104.46
877.214	14106.95
877.533	14143.78
877.852	14097.91
878.17	13973.62
878.489	14049.09
878.807	14071.01
879.125	14024.01
879.444	14022.88
879.762	13909.66
880.08	13913.05
880.398	13878.48
880.716	13923.45
881.034	13786.95
881.352	13871.92
881.67	13834.41
881.988	13860.85
882.306	13719.16
882.624	13631.93
882.941	13588.54
883.259	13477.81
883.577	13603.23
883.894	13581.54
884.212	13533.63
884.529	13531.59
884.846	13495.66
885.164	13433.52
885.481	13424.25
885.798	13362.78
886.115	13327.53
886.432	13321.43
886.75	13306.06
887.067	13196.91
887.383	13217.25
887.7	13222.67
888.017	13136.12
888.334	13145.39
888.651	13097.71
888.967	13091.15
889.284	13080.08
889.6	13046.18
889.917	12899.52
890.233	12906.53
890.55	12843.93
890.866	12900.88
891.182	12777.94
891.498	12772.97
891.815	12742.46
892.131	12723.25
892.447	12612.97
892.763	12600.09
893.079	12591.73
893.395	12460.21
893.71	12504.05
894.026	12423.37
894.342	12452.07
894.657	12337.73
894.973	12306.54
895.289	12255.24
895.604	12325.07
895.92	12229.25
896.235	12137.51
896.55	12182.48
896.865	12103.38
897.181	12105.64
897.496	12038.07
897.811	11991.29
898.126	11865.42
898.441	11919.88
898.756	11885.76
899.071	11779.32
899.386	11796.95
899.7	11706.1
900.015	11630.63
900.33	11536.62
900.644	11468.6
900.959	11537.3
901.273	11556.05
901.588	11429.95
901.902	11370.52
902.216	11351.54
902.531	11333.23
902.845	11326.91
903.159	11250.3
903.473	11128.27
903.787	11177.98
904.101	11130.98
904.415	11059.12
904.729	11032.22
905.042	10996.29
905.356	10992.68
905.67	10898.67
905.984	10851.21
906.297	10793.13
906.611	10772.12
906.924	10757.88
907.237	10751.1
907.551	10748.62
907.864	10640.14
908.177	10653.93
908.491	10593.59
908.804	10502.97
909.117	10459.81
909.43	10368.74
909.743	10362.64
910.056	10333.94
910.368	10297.1
910.681	10193.15
910.994	10248.52
911.307	10168.97
911.619	10153.38
911.932	10143.21
912.244	10112.93
912.557	10059.37
912.869	9953.83
913.181	9937.79
913.494	9905.47
913.806	9785.03
914.118	9795.65
914.43	9769.43
914.742	9795.42
915.054	9708.87
915.366	9645.14
915.678	9582.09
915.99	9529.66
916.302	9495.32
916.613	9519.27
916.925	9439.27
917.236	9417.58
917.548	9348.65
917.859	9357.24
918.171	9251.25
918.482	9210.35
918.794	9161.09
919.105	9147.53
919.416	9105.5
919.727	9141.65
920.038	9049.23
920.349	9005.38
920.66	8977.36
920.971	8946.63
921.282	8876.35
921.593	8827.99
921.903	8854.65
922.214	8726.3
922.525	8792.28
922.835	8728.33
923.146	8656.47
923.456	8568.11
923.767	8616.02
924.077	8611.5
924.387	8521.33
924.697	8449.02
925.008	8452.86
925.318	8407.21
925.628	8359.3
925.938	8314.78
926.248	8276.59
926.558	8289.7
926.867	8264.16
927.177	8152.53
927.487	8130.83
927.796	8086.31
928.106	8074.34
928.416	8011.96
928.725	7966.32
929.034	7982.36
929.344	8053.32
929.653	7958.63
929.962	7872.76
930.271	7845.87
930.581	7813.55
930.89	7781.91
931.199	7719.99
931.508	7709.6
931.817	7674.57
932.125	7691.52
932.434	7621.92
932.743	7542.37
933.051	7511.41
933.36	7490.62
933.669	7358.2
933.977	7407.23
934.286	7394.13
934.594	7378.76
934.902	7329.72
935.21	7275.03
935.519	7299.67
935.827	7199.33
936.135	7144.64
936.443	7126.34
936.751	7129.28
937.059	7146.68
937.367	7063.97
937.674	7086.57
937.982	7054.7
938.29	7014.7
938.597	6953.46
938.905	6929.73
939.213	6906.68
939.52	6873.01
939.827	6863.07
940.135	6834.14
940.442	6741.94
940.749	6727.93
941.056	6721.15
941.363	6652.9
941.67	6656.07
941.977	6560.7
942.284	6608.39
942.591	6588.73
942.898	6537.65
943.205	6552.57
943.511	6501.72
943.818	6465.79
944.125	6453.81
944.431	6420.14
944.738	6405.23
945.044	6336.3
945.35	6299.02
945.657	6252.46
945.963	6248.62
946.269	6228.28
946.575	6232.58
946.881	6172.92
947.187	6206.14
947.493	6085.01
947.799	6080.04
948.105	6078.23
948.41	6069.19
948.716	6015.86
949.022	5988.06
949.327	5935.41
949.633	5891.57
949.938	5943.32
950.244	5832.59
950.549	5861.29
950.854	5855.19
951.16	5739.48
951.465	5818.35
951.77	5759.14
952.075	5719.82
952.38	5728.41
952.685	5672.82
952.99	5628.75
953.294	5666.49
953.599	5560.5
953.904	5541.75
954.209	5499.04
954.513	5555.08
954.818	5517.34
955.122	5459.49
955.426	5453.61
955.731	5388.76
956.035	5380.4
956.339	5359.15
956.643	5344.24
956.948	5283.9
957.252	5310.34
957.556	5320.28
957.86	5267.86
958.163	5291.81
958.467	5235.54
958.771	5184.47
959.075	5192.83
959.378	5143.11
959.682	5076.9
959.985	5074.41
960.289	5038.94
960.592	5023.12
960.896	5043.45
961.199	4972.27
961.502	4989.45
961.805	5011.37
962.108	4914.64
962.411	4950.35
962.714	4903.12
963.017	4837.13
963.32	4927.75
963.623	4850.47
963.926	4869.22
964.228	4819.51
964.531	4807.98
964.833	4818.15
965.136	4681.88
965.438	4709.45
965.741	4691.6
966.043	4690.92
966.345	4665.39
966.648	4598.49
966.95	4615.44
967.252	4559.63
967.554	4582.9
967.856	4528.21
968.158	4497.48
968.46	4517.59
968.761	4458.16
969.063	4499.29
969.365	4422.45
969.666	4398.5
969.968	4380.2
970.269	4394.43
970.571	4379.74
970.872	4335.22
971.174	4291.16
971.475	4320.54
971.776	4285.96
972.077	4314.21
972.378	4234.21
972.679	4209.35
972.98	4196.02
973.281	4179.52
973.582	4172.29
973.883	4105.85
974.183	4139.07
974.484	4174.55
974.785	4089.36
975.085	4057.27
975.386	4060.2
975.686	4037.15
975.986	4043.71
976.287	4023.14
976.587	3999.87
976.887	3992.86
977.187	3958.29
977.487	3970.49
977.787	3900.89
978.087	3862.7
978.387	3863.6
978.687	3867.21
978.987	3838.29
979.286	3812.75
979.586	3827.22
979.885	3789.48
980.185	3755.13
980.484	3755.81
980.784	3773.88
981.083	3728.91
981.382	3656.37
981.682	3692.3
981.981	3642.14
982.28	3658.18
982.579	3643.49
982.878	3638.97
983.177	3589.03
983.475	3615.24
983.774	3543.38
984.073	3569.82
984.372	3520.33
984.67	3528.01
984.969	3519.88
985.267	3526.66
985.566	3474.46
985.864	3438.98
986.162	3468.36
986.461	3395.81
986.759	3407.79
987.057	3449.6
987.355	3392.42
987.653	3415.7
987.951	3328.02
988.249	3311.98
988.547	3378.64
988.844	3300.9
989.142	3345.65
989.44	3268.81
989.737	3263.39
990.035	3235.59
990.332	3212.54
990.63	3202.6
990.927	3174.8
991.224	3169.38
991.521	3163.73
991.819	3149.04
992.116	3105.43
992.413	3134.13
992.71	3074.92
993.006	3117.86
993.303	3123.28
993.6	3048.48
993.897	3032.21
994.193	3042.15
994.49	3036.5
994.787	3032.43
995.083	3024.75
995.379	2938.88
995.676	2947.69
995.972	2900.01
996.268	2939.78
996.565	2901.14
996.861	2888.94
997.157	2881.7
997.453	2859.11
997.749	2859.56
998.044	2818.2
998.34	2812.78
998.636	2789.5
998.932	2807.58
999.227	2763.51
999.523	2776.85
999.818	2733.69
1000.114	2726.23
1000.409	2714.93
1000.704	2681.48
1001	2689.62
1001.295	2649.85
1001.59	2671.54
1001.885	2684.87
1002.18	2632.67
1002.475	2622.5
1002.77	2608.04
1003.065	2574.59
1003.359	2573.01
1003.654	2573.46
1003.949	2541.15
1004.243	2530.75
1004.538	2518.78
1004.832	2493.01
1005.127	2490.08
1005.421	2467.7
1005.715	2467.48
1006.009	2466.12
1006.304	2418.44
1006.598	2465.44
1006.892	2393.36
1007.186	2417.08
1007.48	2403.75
1007.773	2342.74
1008.067	2321.49
1008.361	2340.7
1008.655	2343.19
1008.948	2315.39
1009.242	2328.27
1009.535	2286.92
1009.829	2267.93
1010.122	2219.12
1010.415	2233.81
1010.708	2203.76
1011.001	2213.92
1011.295	2188.39
1011.588	2195.39
1011.881	2179.12
1012.173	2153.14
1012.466	2156.07
1012.759	2127.15
1013.052	2119.24
1013.344	2147.49
1013.637	2112.23
1013.93	2121.95
1014.222	2063.87
1014.514	2065.91
1014.807	2049.18
1015.099	2040.37
1015.391	2031.1
1015.683	1998.11
1015.976	2003.53
1016.268	1986.13
1016.56	1980.94
1016.851	1955.17
1017.143	1956.3
1017.435	1923.99
1017.727	1893.26
1018.018	1895.06
1018.31	1850.54
1018.602	1898.45
1018.893	1857.78
1019.185	1885.35
1019.476	1859.58
1019.767	1860.49
1020.058	1829.75
1020.35	1785.91
1020.641	1783.2
1020.932	1789.76
1021.223	1771.9
1021.514	1745.24
1021.804	1736.2
1022.095	1755.63
1022.386	1705.24
1022.677	1726.48
1022.967	1680.15
1023.258	1708.18
1023.548	1676.09
1023.839	1670.21
1024.129	1615.52
1024.419	1641.96
1024.709	1639.25
1025	1614.39
1025.29	1600.83
1025.58	1573.49
1025.87	1564
1026.16	1581.17
1026.449	1579.37
1026.739	1543.21
1027.029	1532.81
1027.319	1536.2
1027.608	1508.86
1027.898	1528.29
1028.187	1489.2
1028.477	1474.06
1028.766	1477
1029.055	1472.48
1029.344	1457.79
1029.634	1467.05
1029.923	1433.61
1030.212	1448.3
1030.501	1425.7
1030.79	1398.35
1031.078	1411.91
1031.367	1381.18
1031.656	1386.38
1031.945	1385.7
1032.233	1389.31
1032.522	1366.26
1032.81	1362.42
1033.099	1315.87
1033.387	1317.23
1033.675	1322.42
1033.963	1344.8
1034.251	1285.14
1034.54	1297.34
1034.828	1298.69
1035.116	1288.07
1035.403	1250.79
1035.691	1239.94
1035.979	1234.52
1036.267	1241.75
1036.554	1234.97
1036.842	1204.91
1037.129	1193.84
1037.417	1221.63
1037.704	1193.61
1037.992	1199.94
1038.279	1159.94
1038.566	1192.48
1038.853	1192.48
1039.14	1192.48
