Data from hue_300_FLMS001491_00100.txt Node
Date: Tue Feb 07 15:51:29 GMT 2017
User: dcchb
Spectrometer: FLMS00149
Trigger mode: 0
Integration Time (sec): 2.000000E-2
Scans to average: 10
Electric dark correction enabled: true
Nonlinearity correction enabled: false
Boxcar width: 0
XAxis mode: Wavelengths
Number of Pixels in Spectrum: 2048
>>>>>Begin Spectral Data<<<<<
341.393	-8.62
341.776	-8.62
342.16	-8.62
342.543	-48.61
342.927	-76.64
343.31	-64.89
343.693	-77.77
344.077	-76.64
344.46	-53.13
344.843	-47.03
345.226	-32.12
345.61	-45.9
345.993	-5.9
346.376	1.33
346.759	20.99
347.142	30.03
347.525	36.58
347.908	58.28
348.291	52.4
348.674	85.39
349.057	118.39
349.44	106.18
349.823	141.21
350.206	169.46
350.588	199.29
350.971	220.08
351.354	231.15
351.737	230.02
352.119	239.97
352.502	250.59
352.884	273.64
353.267	279.51
353.65	279.74
354.032	290.36
354.414	304.37
354.797	303.01
355.179	315.67
355.562	314.99
355.944	310.25
356.326	304.6
356.709	322.68
357.091	317.48
357.473	332.84
357.855	329.68
358.238	344.82
358.62	338.27
359.002	351.37
359.384	333.52
359.766	348.44
360.148	317.03
360.53	346.86
360.912	322.9
361.294	331.71
361.676	309.57
362.057	342.11
362.439	336.91
362.821	336.46
363.203	328.1
363.584	331.49
363.966	306.4
364.348	325.61
364.729	310.47
365.111	319.74
365.493	303.92
365.874	338.04
366.256	317.7
366.637	321.32
367.019	314.77
367.4	307.53
367.781	305.73
368.163	323.58
368.544	299.85
368.925	318.61
369.306	330.81
369.688	316.35
370.069	335.78
370.45	306.4
370.831	312.73
371.212	315.9
371.593	320.64
371.974	325.61
372.355	300.08
372.736	319.51
373.117	307.31
373.498	318.16
373.879	323.81
374.26	324.71
374.641	312.73
375.021	305.05
375.402	309.57
375.783	318.16
376.163	315.44
376.544	340.3
376.925	321.09
377.305	318.16
377.686	320.64
378.066	311.83
378.447	323.35
378.827	346.4
379.208	339.17
379.588	320.64
379.968	321.77
380.349	323.13
380.729	341.43
381.109	310.47
381.489	331.26
381.87	352.28
382.25	315.44
382.63	321.77
383.01	337.36
383.39	333.52
383.77	349.79
384.15	343.24
384.53	336.91
384.91	335.56
385.29	342.11
385.67	358.15
386.049	352.5
386.429	335.33
386.809	348.44
387.189	341.43
387.568	358.38
387.948	348.66
388.328	360.19
388.707	339.85
389.087	345.5
389.466	359.06
389.846	355.89
390.225	362.22
390.605	367.19
390.984	372.17
391.363	339.62
391.743	357.7
392.122	354.09
392.501	372.17
392.881	382.33
393.26	383.69
393.639	378.27
394.018	372.17
394.397	378.27
394.776	363.58
395.155	383.69
395.534	373.3
395.913	370.81
396.292	375.1
396.671	389.57
397.05	410.13
397.429	368.1
397.808	385.5
398.186	371.04
398.565	388.44
398.944	387.98
399.323	402
399.701	410.13
400.08	406.97
400.458	423.69
400.837	386.18
401.215	411.26
401.594	394.54
401.972	393.18
402.351	422.56
402.729	406.51
403.107	425.27
403.486	435.67
403.864	444.93
404.242	416.91
404.62	420.07
404.999	428.21
405.377	423.69
405.755	433.41
406.133	444.03
406.511	439.28
406.889	447.64
407.267	468.21
407.645	465.5
408.023	472.95
408.401	468.43
408.779	487.42
409.156	488.77
409.534	503.46
409.912	468.21
410.29	507.53
410.667	519.96
411.045	510.69
411.422	527.19
411.8	526.29
412.178	515.44
412.555	532.84
412.933	546.85
413.31	555.66
413.687	562.44
414.065	567.64
414.442	569.22
414.819	580.3
415.197	593.85
415.574	605.61
415.951	616.23
416.328	599.96
416.705	621.88
417.082	630.01
417.46	612.61
417.837	651.71
418.214	649.9
418.591	669.33
418.967	688.77
419.344	677.24
419.721	686.96
420.098	703.91
420.475	680.18
420.852	696.45
421.228	718.14
421.605	707.07
421.982	734.87
422.358	741.87
422.735	760.4
423.111	747.97
423.488	736.45
423.864	788.65
424.241	788.65
424.617	792.27
424.994	803.79
425.37	799.5
425.746	795.66
426.123	816.9
426.499	820.52
426.875	829.78
427.251	831.81
427.627	844.7
428.003	891.93
428.379	877.69
428.756	872.27
429.132	873.4
429.507	913.39
429.883	894.41
430.259	944.35
430.635	953.17
431.011	954.75
431.387	983.67
431.763	960.62
432.138	975.31
432.514	1000.4
432.89	1030
433.265	1053.5
433.641	1032.49
434.016	1015.54
434.392	1069.1
434.767	1069.77
435.143	1053.5
435.518	1062.77
435.894	1098.25
436.269	1101.41
436.644	1114.97
437.02	1136.44
437.395	1136.44
437.77	1140.96
438.145	1152.71
438.52	1186.16
438.895	1163.11
439.271	1190
439.646	1208.75
440.021	1212.14
440.395	1200.84
440.77	1199.26
441.145	1222.99
441.52	1221.41
441.895	1237.68
442.27	1260.28
442.645	1257.79
443.019	1265.93
443.394	1268.86
443.769	1289.66
444.143	1273.38
444.518	1279.26
444.892	1262.76
445.267	1281.75
445.641	1298.02
446.016	1294.85
446.39	1303.21
446.764	1326.72
447.139	1285.14
447.513	1340.05
447.887	1318.58
448.262	1322.87
448.636	1324.91
449.01	1345.25
449.384	1338.47
449.758	1346.83
450.132	1343.44
450.506	1362.2
450.88	1359.94
451.254	1376.21
451.628	1394.51
452.002	1371.24
452.376	1387.96
452.75	1418.01
453.123	1396.09
453.497	1448.97
453.871	1447.62
454.244	1450.56
454.618	1443.55
454.992	1446.26
455.365	1457.11
455.739	1516.77
456.112	1516.09
456.486	1489.65
456.859	1506.82
457.232	1495.75
457.606	1530.78
457.979	1515.41
458.352	1556.32
458.725	1537.56
459.099	1543.66
459.472	1616.2
459.845	1566.03
460.218	1559.48
460.591	1632.25
460.964	1608.29
461.337	1615.52
461.71	1609.19
462.083	1679.93
462.456	1677.22
462.829	1641.28
463.201	1678.8
463.574	1686.26
463.947	1712.7
464.32	1727.84
464.692	1737.55
465.065	1753.37
465.438	1758.8
465.81	1778.23
466.183	1804.44
466.555	1812.58
466.928	1798.12
467.3	1811.45
467.672	1836.31
468.045	1837.44
468.417	1833.82
468.789	1879.7
469.161	1866.14
469.534	1898.45
469.906	1903.88
470.278	1933.48
470.65	1971.45
471.022	1970.77
471.394	1989.98
471.766	1983.87
472.138	2035.4
472.51	2032.01
472.882	2063.65
473.253	2077.43
473.625	2064.55
473.997	2129.41
474.369	2137.09
474.74	2167.82
475.112	2169.18
475.484	2221.83
475.855	2234.94
476.227	2243.75
476.598	2274.71
476.97	2259.57
477.341	2326.24
477.713	2352.23
478.084	2335.28
478.455	2397.87
478.827	2422.96
479.198	2452.11
479.569	2450.75
479.94	2503.41
480.311	2487.82
480.682	2564.65
481.053	2532.79
481.424	2581.37
481.795	2578.21
482.166	2647.13
482.537	2638.32
482.908	2695.95
483.279	2685.78
483.65	2744.31
484.021	2739.79
484.391	2778.43
484.762	2824.08
485.133	2789.05
485.503	2861.37
485.874	2875.38
486.244	2892.55
486.615	2924.64
486.985	2931.87
487.356	3019.55
487.726	2990.85
488.097	3012.55
488.467	3024.3
488.837	3074.02
489.207	3117.4
489.578	3125.09
489.948	3150.85
490.318	3197.85
490.688	3180.68
491.058	3235.14
491.428	3231.07
491.798	3298.42
492.168	3312.2
492.538	3339.77
492.908	3294.35
493.278	3347
493.648	3375.25
494.017	3387.45
494.387	3364.18
494.757	3447.34
495.126	3459.54
495.496	3429.71
495.866	3456.15
496.235	3491.41
496.605	3509.03
496.974	3519.65
497.344	3539.99
497.713	3565.75
498.082	3558.07
498.452	3614.11
498.821	3617.28
499.19	3629.71
499.559	3661.34
499.928	3658.18
500.298	3659.54
500.667	3723.72
501.036	3702.7
501.405	3723.49
501.774	3749.48
502.143	3729.37
502.512	3780.89
502.88	3774.34
503.249	3789.25
503.618	3756.03
503.987	3781.57
504.356	3857.5
504.724	3818.63
505.093	3810.94
505.462	3848.46
505.83	3844.84
506.199	3826.99
506.567	3916.03
506.936	3881.23
507.304	3942.47
507.672	3958.29
508.041	3930.26
508.409	3968.91
508.777	3943.14
509.145	3939.76
509.514	3975.46
509.882	4003.71
510.25	4003.71
510.618	4027.21
510.986	4000.09
511.354	4039.64
511.722	4048.9
512.09	4074.67
512.458	4078.28
512.826	4082.58
513.193	4094.55
513.561	4080.99
513.929	4151.05
514.297	4107.89
514.664	4153.99
515.032	4151.28
515.4	4145.4
515.767	4175.68
516.135	4189.69
516.502	4145.4
516.869	4210.48
517.237	4223.36
517.604	4176.13
517.972	4209.8
518.339	4239.86
518.706	4224.49
519.073	4231.95
519.44	4262.91
519.808	4334.1
520.175	4259.97
520.542	4297.71
520.909	4338.39
521.276	4298.84
521.643	4335.9
522.009	4343.81
522.376	4412.06
522.743	4415.22
523.11	4397.6
523.477	4435.34
523.843	4501.32
524.21	4469.68
524.577	4509.91
524.943	4461.55
525.31	4510.14
525.676	4562.34
526.043	4566.18
526.409	4594.2
526.776	4591.72
527.142	4615.22
527.508	4643.24
527.874	4657.48
528.241	4687.53
528.607	4698.38
528.973	4753.29
529.339	4763.91
529.705	4768.66
530.071	4767.53
530.437	4737.47
530.803	4806.17
531.169	4868.77
531.535	4813.86
531.901	4843.69
532.267	4926.85
532.632	4938.82
532.998	4890.92
533.364	4996
533.73	4949.67
534.095	5000.52
534.461	5033.29
534.826	5019.27
535.192	5033.06
535.557	5092.27
535.923	5061.08
536.288	5146.73
536.653	5106.96
537.019	5125.49
537.384	5180.63
537.749	5183.11
538.114	5236.9
538.479	5154.19
538.845	5228.08
539.21	5198.25
539.575	5297.69
539.94	5256.1
540.305	5291.13
540.67	5330.45
541.034	5260.4
541.399	5352.83
541.764	5360.51
542.129	5423.56
542.494	5412.71
542.858	5427.85
543.223	5457.68
543.587	5445.25
543.952	5487.29
544.316	5524.35
544.681	5511.69
545.045	5602.99
545.41	5572.48
545.774	5586.72
546.138	5629.2
546.503	5650.44
546.867	5696.09
547.231	5712.82
547.595	5716.43
547.959	5742.87
548.324	5739.03
548.688	5757.56
549.052	5769.76
549.416	5791.46
549.779	5803.21
550.143	5818.35
550.507	5877.78
550.871	5849.99
551.235	5836.2
551.599	5901.06
551.962	5891.34
552.326	5917.56
552.689	5925.47
553.053	5926.37
553.417	5926.6
553.78	6014.05
554.143	6005.46
554.507	6035.07
554.87	6085.01
555.234	6051.11
555.597	6070.09
555.96	6092.01
556.323	6118.91
556.686	6138.34
557.05	6133.6
557.413	6164.56
557.776	6224.21
558.139	6232.12
558.502	6233.25
558.865	6239.81
559.228	6262.41
559.59	6300.82
559.953	6272.35
560.316	6305.57
560.679	6300.6
561.041	6326.13
561.404	6375.17
561.767	6445.23
562.129	6390.09
562.492	6442.51
562.854	6395.06
563.217	6408.62
563.579	6464.89
563.941	6469.41
564.304	6497.65
564.666	6502.17
565.028	6502.17
565.39	6566.35
565.753	6575.84
566.115	6614.71
566.477	6608.39
566.839	6696.74
567.201	6701.04
567.563	6681.38
567.925	6713.24
568.287	6722.51
568.648	6765.44
569.01	6813.13
569.372	6874.14
569.734	6857.87
570.095	6899.68
570.457	6963.63
570.819	6971.77
571.18	6965.89
571.542	7057.87
571.903	7026.68
572.265	7110.07
572.626	7140.57
572.987	7193.91
573.349	7189.16
573.71	7257.86
574.071	7331.98
574.432	7363.17
574.794	7454.24
575.155	7369.5
575.516	7538.76
575.877	7535.59
576.238	7648.13
576.599	7703.5
576.96	7771.29
577.32	7795.47
577.681	7945.53
578.042	7997.95
578.403	8045.64
578.763	8122.92
579.124	8276.82
579.485	8364.5
579.845	8523.14
580.206	8575.34
580.566	8627.77
580.927	8776.01
581.287	8974.43
581.648	9019.4
582.008	9238.15
582.368	9348.2
582.728	9442.89
583.089	9672.71
583.449	9809.43
583.809	9974.17
584.169	10140.72
584.529	10326.03
584.889	10510.88
585.249	10701.84
585.609	10883.75
585.969	11089.4
586.329	11292.78
586.688	11516.51
587.048	11764.86
587.408	11911.97
587.768	12160.1
588.127	12420.89
588.487	12637.38
588.846	12977.71
589.206	13162.34
589.565	13377.7
589.925	13696.79
590.284	13894.07
590.643	14232.14
591.003	14525.69
591.362	14830.77
591.721	15148.95
592.08	15325.67
592.44	15668.03
592.799	15961.59
593.158	16211.52
593.517	16473.89
593.876	16863.94
594.235	17101.44
594.593	17410.81
594.952	17751.82
595.311	17967.18
595.67	18205.82
596.029	18678.35
596.387	18933.03
596.746	19283.31
597.104	19488.27
597.463	19761.03
597.822	20121.25
598.18	20335.48
598.538	20702.25
598.897	21096.14
599.255	21233.31
599.613	21733.64
599.972	21829.68
600.33	22200.07
600.688	22495.88
601.046	22697.45
601.404	23084.79
601.762	23264.9
602.12	23740.59
602.478	23874.82
602.836	24152.56
603.194	24437.75
603.552	24609.27
603.91	24824.4
604.268	25184.62
604.625	25440.43
604.983	25705.28
605.341	25865.28
605.698	26252.61
606.056	26473.4
606.413	26794.75
606.771	27032.26
607.128	27269.31
607.485	27432.7
607.843	27599.92
608.2	27930.31
608.557	28262.73
608.914	28281.04
609.272	28688.48
609.629	28862.49
609.986	29137.51
610.343	29096.83
610.7	29593.54
611.057	29780.43
611.414	29975.91
611.771	30010.03
612.127	30365.28
612.484	30536.34
612.841	30744.25
613.198	30844.13
613.554	31005.94
613.911	31402.08
614.267	31375.87
614.624	31585.36
614.98	31753.49
615.337	32029.86
615.693	32141.73
616.05	32283.42
616.406	32482.28
616.762	32501.49
617.118	32688.38
617.475	32893.8
617.831	33121.13
618.187	33161.59
618.543	33262.83
618.899	33573.33
619.255	33563.16
619.611	33642.03
619.967	33905.75
620.323	34018.74
620.678	34045.63
621.034	34125.18
621.39	34340.54
621.746	34397.26
622.101	34865.5
622.457	34470.25
622.812	34658.04
623.168	34740.08
623.523	34864.82
623.879	35241.53
624.234	34968.77
624.589	35177.13
624.945	35291.93
625.3	35434.07
625.655	35426.16
626.01	35454.18
626.365	35558.81
626.72	35549.77
627.075	35686.72
627.43	35778.69
627.785	35783.89
628.14	35832.02
628.495	35820.72
628.85	35906.37
629.205	35706.83
629.559	36046.71
629.914	35888.07
630.269	36210.77
630.623	35971.23
630.978	36077.67
631.332	36159.7
631.687	36215.29
632.041	36085.58
632.396	36235.63
632.75	36138.23
633.104	36238.11
633.459	36147.95
633.813	36087.84
634.167	36063.43
634.521	36292.8
634.875	36207.83
635.229	36212.35
635.583	36185.91
635.937	36259.81
636.291	36347.72
636.645	36359.02
636.999	36295.74
637.352	36335.06
637.706	36095.29
638.06	36346.36
638.413	36254.16
638.767	36202.86
639.121	36300.26
639.474	36081.06
639.828	36146.37
640.181	36290.77
640.534	36236.76
640.888	36140.94
641.241	36018.23
641.594	36096.65
641.947	36112.02
642.301	36146.82
642.654	36142.3
643.007	36249.87
643.36	36121.06
643.713	35978.01
644.066	36314.95
644.419	35995.64
644.771	35867.96
645.124	35478.13
645.477	35463.9
645.83	35217.35
646.182	35245.37
646.535	35016.23
646.888	35245.82
647.24	35214.19
647.593	35250.8
647.945	35144.13
648.298	35027.75
648.65	34952.5
649.002	34855.33
649.355	35037.02
649.707	35133.74
650.059	35119.5
650.411	35646.27
650.763	35700.05
651.115	35903.89
651.467	35852.14
651.819	35809.43
652.171	35858.92
652.523	35612.59
652.875	35833.15
653.227	35592.26
653.578	35898.69
653.93	35735.76
654.282	35704.8
654.633	35653.05
654.985	35651.69
655.337	35546.83
655.688	35834.28
656.039	35776.21
656.391	35474.97
656.742	35571.24
657.094	35557.91
657.445	35755.64
657.796	35622.09
658.147	35571.24
658.498	35538.7
658.849	35679.49
659.2	35609.43
659.551	35470
659.902	35707.51
660.253	35512.03
660.604	35507.74
660.955	35386.39
661.306	35550
661.656	35531.69
662.007	35521.52
662.358	35628.41
662.708	35489.43
663.059	35519.49
663.409	35309.55
663.76	35663.67
664.11	35587.06
664.461	35639.03
664.811	35672.48
665.161	35376.44
665.511	35422.77
665.862	35335.54
666.212	35476.33
666.562	35524.24
666.912	35575.53
667.262	35436.1
667.612	35385.93
667.962	35440.85
668.312	35471.58
668.662	35522.65
669.011	35497.12
669.361	35279.27
669.711	35408.08
670.06	35369.89
670.41	35204.02
670.76	35302.55
671.109	35387.06
671.459	35321.98
671.808	35121.76
672.157	35380.51
672.507	35100.97
672.856	35220.06
673.205	35141.19
673.554	35393.39
673.904	35107.07
674.253	35341.87
674.602	35198.82
674.951	34712.51
675.3	34599.97
675.649	35149.1
675.998	35023.68
676.346	35041.31
676.695	35172.83
677.044	34940.52
677.393	35064.81
677.741	35101.87
678.09	34959.96
678.438	34935.1
678.787	34943.46
679.135	34947.98
679.484	34670.47
679.832	34874.08
680.181	34594.99
680.529	34742.56
680.877	34733.52
681.225	34634.32
681.573	34893.29
681.922	34580.98
682.27	34479.07
682.618	34571.94
682.966	34352.97
683.314	34498.27
683.661	34380.08
684.009	34207.89
684.357	34104.39
684.705	34091.5
685.053	34179.64
685.4	34044.5
685.748	33931.96
686.095	33820.33
686.443	33719.31
686.79	33805.18
687.138	33871.62
687.485	33835.01
687.832	33657.17
688.18	33677.28
688.527	33477.74
688.874	33480.9
689.221	33374.91
689.568	33295.82
689.915	33204.97
690.262	33256.72
690.609	33178.76
690.956	33013.34
691.303	33049.05
691.65	32950.29
691.997	32922.5
692.344	32739.45
692.69	32735.83
693.037	32704.2
693.383	32449.06
693.73	32647.93
694.077	32375.17
694.423	32388.72
694.769	32198.9
695.116	32108.73
695.462	32188.5
695.808	32045
696.155	32128.39
696.501	31898.57
696.847	31961.84
697.193	31604.11
697.539	31816.99
697.885	31573.38
698.231	31491.35
698.577	31510.33
698.923	31381.29
699.269	31319.37
699.614	31042.55
699.96	31061.08
700.306	31197.8
700.651	30879.39
700.997	30939.72
701.342	30816.34
701.688	30675.55
702.033	30730.92
702.379	30554.2
702.724	30593.07
703.069	30646.17
703.415	30236.92
703.76	30246.41
704.105	30260.87
704.45	30125.51
704.795	29967.77
705.14	30005.96
705.485	29866.31
705.83	29785.86
706.175	29812.52
706.52	29807.78
706.865	29659.76
707.209	29494.11
707.554	29469.93
707.899	29550.16
708.243	29306.55
708.588	29309.03
708.932	29162.82
709.277	29215.7
709.621	29163.72
709.966	28920.12
710.31	29040.56
710.654	28888.7
710.998	28844.19
711.342	28893
711.687	28674.47
712.031	28623.85
712.375	28502.27
712.719	28572.1
713.063	28491.88
713.407	28586.79
713.75	28431.09
714.094	28291.66
714.438	28194.26
714.782	28341.83
715.125	28197.2
715.469	28160.14
715.812	28047.37
716.156	27983.64
716.499	28043.3
716.843	28000.82
717.186	27788.17
717.53	27900.03
717.873	28003.76
718.216	27840.6
718.559	27820.94
718.902	27528.74
719.246	27611.68
719.589	27484.9
719.932	27387.73
720.275	27493.94
720.617	27434.96
720.96	27302.08
721.303	27252.36
721.646	27399.25
721.989	27216.88
722.331	27224.57
722.674	27051.69
723.016	27098.02
723.359	27009.43
723.701	27028.87
724.044	26965.14
724.386	26794.97
724.729	26963.78
725.071	26810.34
725.413	26803.79
725.755	26764.24
726.097	26554.08
726.439	26525.6
726.782	26500.07
727.124	26670.46
727.465	26525.6
727.807	26527.64
728.149	26462.1
728.491	26455.32
728.833	26515.43
729.175	26393.63
729.516	26361.31
729.858	26256.46
730.199	26367.41
730.541	26160.87
730.882	26190.7
731.224	26175.55
731.565	26071.83
731.906	26168.78
732.248	26178.49
732.589	26029.57
732.93	25852.85
733.271	26043.13
733.612	25983.24
733.953	25923.81
734.294	25912.06
734.635	25790.93
734.976	25893.3
735.317	25702.12
735.658	25632.07
735.999	25643.14
736.339	25682.69
736.68	25693.31
737.021	25589.58
737.361	25473.88
737.702	25654.66
738.042	25501.67
738.383	25512.07
738.723	25591.16
739.063	25339.19
739.404	25522.46
739.744	25366.54
740.084	25294.67
740.424	25303.49
740.764	25123.38
741.104	25314.56
741.444	25172.87
741.784	25068.47
742.124	25207.9
742.464	25053.32
742.804	25077.28
743.143	25080.89
743.483	24982.82
743.823	24851.52
744.162	24854.01
744.502	24950.73
744.841	24909.83
745.181	24965.64
745.52	24707.57
745.86	24858.98
746.199	24797.51
746.538	24693.11
746.877	24848.81
747.216	24749.38
747.556	24605.43
747.895	24568.82
748.234	24622.83
748.573	24527.01
748.911	24550.06
749.25	24531.76
749.589	24448.37
749.928	24517.75
750.267	24444.98
750.605	24412.21
750.944	24318.2
751.283	24297.19
751.621	24421.7
751.96	24192.56
752.298	24291.99
752.636	24290.63
752.975	24188.94
753.313	24135.38
753.651	24214.7
753.989	24100.36
754.327	24080.69
754.666	23961.38
755.004	23986.91
755.342	23968.16
755.679	23924.54
756.017	23831.66
756.355	23873.24
756.693	23750.31
757.031	23715.73
757.368	23689.74
757.706	23656.98
758.044	23594.61
758.381	23508.05
758.719	23593.25
759.056	23494.27
759.394	23460.82
759.731	23270.32
760.068	23313.94
760.405	23207.72
760.743	23249.08
761.08	23182.41
761.417	23055.41
761.754	23104.22
762.091	23072.81
762.428	23035.07
762.765	22937.9
763.102	22897
763.438	22781.75
763.775	22710.11
764.112	22823.78
764.449	22694.52
764.785	22587.17
765.122	22502.43
765.458	22519.83
765.795	22398.25
766.131	22346.73
766.467	22274.41
766.804	22087.53
767.14	22135.43
767.476	22120.29
767.812	21911.94
768.148	21970.24
768.485	21821.54
768.821	21701.32
769.157	21759.4
769.492	21679.85
769.828	21688.22
770.164	21483.02
770.5	21428.33
770.836	21393.31
771.171	21319.86
771.507	21219.98
771.842	21117.38
772.178	21131.39
772.513	21029.7
772.849	20986.09
773.184	20810.95
773.519	20946.31
773.855	20746.32
774.19	20773.21
774.525	20626.32
774.86	20669.94
775.195	20553.1
775.53	20401.24
775.865	20362.6
776.2	20324.18
776.535	20187.01
776.87	20182.94
777.205	20022.72
777.539	19955.61
777.874	20017.52
778.209	19818.66
778.543	19718.55
778.878	19689.17
779.212	19577.31
779.547	19476.75
779.881	19520.59
780.215	19418.22
780.55	19462.28
780.884	19335.51
781.218	19298.45
781.552	19245.12
781.886	19083.54
782.22	19065.01
782.554	18953.82
782.888	18827.73
783.222	18780.72
783.556	18582.53
783.889	18557.45
784.223	18504.34
784.557	18475.19
784.89	18460.73
785.224	18359.49
785.557	18252.6
785.891	18300.51
786.224	18239.04
786.558	18234.29
786.891	18049.44
787.224	17945.49
787.557	17904.81
787.891	17915.66
788.224	17943.91
788.557	17837.92
788.89	17796.57
789.223	17782.56
789.556	17595.44
789.888	17674.08
790.221	17443.35
790.554	17298.73
790.887	17411.94
791.219	17296.92
791.552	17283.59
791.884	17224.38
792.217	17137.37
792.549	17088.34
792.882	16868.68
793.214	16872.75
793.546	17011.05
793.879	16815.8
794.211	16716.37
794.543	16805.86
794.875	16714.79
795.207	16725.18
795.539	16662.58
795.871	16545.75
796.203	16469.14
796.535	16417.85
796.867	16382.37
797.198	16316.6
797.53	16270.28
797.862	16169.94
798.193	16193.22
798.525	16158.87
798.856	16047.01
799.188	15946.9
799.519	15894.47
799.85	15777.41
800.182	15889.95
800.513	15808.82
800.844	15610.18
801.175	15786
801.506	15652.22
801.837	15598.88
802.168	15546.23
802.499	15563.86
802.83	15442.05
803.161	15339.46
803.491	15327.48
803.822	15271.89
804.153	15233.47
804.483	15196.86
804.814	15079.35
805.145	15138.78
805.475	15044.32
805.805	15051.33
806.136	15083.19
806.466	14995.06
806.796	14859.02
807.126	14807.27
807.457	14864.89
807.787	14712.81
808.117	14639.36
808.447	14633.94
808.777	14696.99
809.107	14651.11
809.436	14639.59
809.766	14533.37
810.096	14560.27
810.426	14508.52
810.755	14475.3
811.085	14361.63
811.414	14360.27
811.744	14280.5
812.073	14288.18
812.403	14373.38
812.732	14168.64
813.061	14236.66
813.39	14119.6
813.719	14074.86
814.049	14137.91
814.378	14074.18
814.707	13937.91
815.036	13977.91
815.365	13951.24
815.693	13709.22
816.022	13782.89
816.351	13719.61
816.68	13652.95
817.008	13685.71
817.337	13643.68
817.665	13541.08
817.994	13638.94
818.322	13605.49
818.651	13514.87
818.979	13367.98
819.307	13526.4
819.636	13529.33
819.964	13478.94
820.292	13418.6
820.62	13456.79
820.948	13353.74
821.276	13374.08
821.604	13325.72
821.932	13362.11
822.259	13347.64
822.587	13321.88
822.915	13318.72
823.243	13284.59
823.57	13285.5
823.898	13322.56
824.225	13287.08
824.553	13294.31
824.88	13278.27
825.207	13365.95
825.535	13324.37
825.862	13341.77
826.189	13298.15
826.516	13264.03
826.843	13378.38
827.17	13351.94
827.497	13352.39
827.824	13298.15
828.151	13321.43
828.478	13280.07
828.805	13341.32
829.131	13291.83
829.458	13319.85
829.785	13136.35
830.111	13273.52
830.438	13283.69
830.764	13212.73
831.09	13210.47
831.417	13181.55
831.743	13303.58
832.069	13170.47
832.395	13127.31
832.722	13201.43
833.048	13062.68
833.374	13102.23
833.7	13071.72
834.026	13131.6
834.351	13174.54
834.677	13105.62
835.003	13076.69
835.329	13057.26
835.654	13011.38
835.98	12996.69
836.306	12932.06
836.631	12988.33
836.956	12986.75
837.282	13085.73
837.607	12986.52
837.932	12925.96
838.258	12890.48
838.583	12907.88
838.908	12848.22
839.233	12910.37
839.558	12768.68
839.883	12762.35
840.208	12751.27
840.533	12770.71
840.858	12718.51
841.182	12758.51
841.507	12670.15
841.832	12624.95
842.156	12625.63
842.481	12609.36
842.805	12552.86
843.13	12614.56
843.454	12505.63
843.778	12574.78
844.103	12452.3
844.427	12376.82
844.751	12490.72
845.075	12410.94
845.399	12342.92
845.723	12257.95
846.047	12269.25
846.371	12209.59
846.695	12212.76
847.019	12010.28
847.343	12067.68
847.666	12022.25
847.99	11869.72
848.313	11911.75
848.637	11808.93
848.96	11786.55
849.284	11751.75
849.607	11556.28
849.931	11664.75
850.254	11589.72
850.577	11572.55
850.9	11441.93
851.223	11450.29
851.546	11458.88
851.869	11345.89
852.192	11388.15
852.515	11241.48
852.838	11197.19
853.161	11191.99
853.483	11090.98
853.806	11137.98
854.129	11168.27
854.451	11030.87
854.774	10993.13
855.096	10962.17
855.419	10911.55
855.741	10953.13
856.063	10860.93
856.385	10846.47
856.708	10792.68
857.03	10716.53
857.352	10762.63
857.674	10655.74
857.996	10649.86
858.318	10615.74
858.64	10631.56
858.961	10587.72
859.283	10542.97
859.605	10492.13
859.926	10601.05
860.248	10421.62
860.57	10422.97
860.891	10487.61
861.212	10312.02
861.534	10347.5
861.855	10335.52
862.176	10345.69
862.498	10348.85
862.819	10307.95
863.14	10225.47
863.461	10268.4
863.782	10217.78
864.103	10186.37
864.424	10177.33
864.745	10208.29
865.065	10156.09
865.386	10112.93
865.707	10105.02
866.027	10116.77
866.348	10090.33
866.668	10161.51
866.989	10038.58
867.309	10006.49
867.63	10006.71
867.95	9970.11
868.27	9851.01
868.59	9950.22
868.91	9923.33
869.23	9880.84
869.55	9867.96
869.87	9875.19
870.19	9868.86
870.51	9842.2
870.83	9878.58
871.15	9781.86
871.469	9808.98
871.789	9810.56
872.109	9824.57
872.428	9696.89
872.748	9752.03
873.067	9802.88
873.386	9759.94
873.706	9709.32
874.025	9724.24
874.344	9667.06
874.663	9649.89
874.982	9569.89
875.301	9605.82
875.62	9580.51
875.939	9550.91
876.258	9594.52
876.577	9522.21
876.896	9582.09
877.214	9540.06
877.533	9496.45
877.852	9486.28
878.17	9559.49
878.489	9505.71
878.807	9496.22
879.125	9462.77
879.444	9423.23
879.762	9347.97
880.08	9387.97
880.398	9324.02
880.716	9340.74
881.034	9371.25
881.352	9321.31
881.67	9296
881.988	9305.49
882.306	9238.15
882.624	9194.31
882.941	9135.32
883.259	9200.86
883.577	9150.69
883.894	9117.25
884.212	9198.37
884.529	9078.38
884.846	9027.31
885.164	9035.89
885.481	8979.62
885.798	9025.5
886.115	8991.15
886.432	8980.53
886.75	8957.25
887.067	8896.01
887.383	8854.43
887.7	8929.23
888.017	8869.57
888.334	8832.51
888.651	8848.33
888.967	8846.29
889.284	8731.72
889.6	8752.06
889.917	8693.08
890.233	8669.12
890.55	8637.94
890.866	8710.03
891.182	8655.56
891.498	8561.33
891.815	8501.22
892.131	8552.06
892.447	8455.34
892.763	8442.01
893.079	8439.75
893.395	8465.06
893.71	8404.95
894.026	8339.19
894.342	8336.7
894.657	8318.62
894.973	8289.47
895.289	8306.19
895.604	8250.83
895.92	8181
896.235	8208.8
896.55	8207.44
896.865	8216.93
897.181	8092.87
897.496	8127.22
897.811	8073.88
898.126	8035.69
898.441	8004.28
898.756	8005.41
899.071	7925.41
899.386	7947.79
899.7	7861.23
900.015	7869.6
900.33	7854.68
900.644	7809.71
900.959	7804.51
901.273	7791.18
901.588	7746.89
901.902	7654.23
902.216	7661.24
902.531	7620.79
902.845	7681.8
903.159	7582.6
903.473	7574.69
903.787	7550.06
904.101	7512.54
904.415	7497.63
904.729	7404.07
905.042	7394.13
905.356	7315.71
905.67	7418.53
905.984	7412.88
906.297	7354.13
906.611	7244.75
906.924	7285.66
907.237	7218.54
907.551	7266.45
907.864	7193.23
908.177	7155.04
908.491	7135.83
908.804	7111.65
909.117	7093.57
909.43	7067.13
909.743	6958.21
910.056	6983.97
910.368	6941.94
910.681	6929.51
910.994	6954.59
911.307	6870.3
911.619	6819.45
911.932	6907.13
912.244	6779
912.557	6753.47
912.869	6731.55
913.181	6669.85
913.494	6724.77
913.806	6666.46
914.118	6640.02
914.43	6567.71
914.742	6567.93
915.054	6482.97
915.366	6537.43
915.678	6510.99
915.99	6473.25
916.302	6402.29
916.613	6344.66
916.925	6379.47
917.236	6383.31
917.548	6346.47
917.859	6312.35
918.171	6289.07
918.482	6245.23
918.794	6199.36
919.105	6260.82
919.416	6166.36
919.727	6175.63
920.038	6095.18
920.349	6068.06
920.66	6055.18
920.971	6096.76
921.282	5999.81
921.593	5966.59
921.903	5968.18
922.214	5919.59
922.525	5918.69
922.835	5865.58
923.146	5863.09
923.456	5867.16
923.767	5773.38
924.077	5807.5
924.387	5790.33
924.697	5772.93
925.008	5750.78
925.318	5713.49
925.628	5678.24
925.938	5617.45
926.248	5598.02
926.558	5641.86
926.867	5580.84
927.177	5547.85
927.487	5522.54
927.796	5471.47
928.106	5450.45
928.416	5473.5
928.725	5425.37
929.034	5450.68
929.344	5391.24
929.653	5373.62
929.962	5353.28
930.271	5313.5
930.581	5293.62
930.89	5302.21
931.199	5280.51
931.508	5224.02
931.817	5152.38
932.125	5163.45
932.434	5177.24
932.743	5112.38
933.051	5122.1
933.36	5105.83
933.669	5116.9
933.977	5057.24
934.286	5060.86
934.594	5013.85
934.902	4940.41
935.21	4986.51
935.519	4993.51
935.827	4977.92
936.135	4902.22
936.443	4835.1
936.751	4861.31
937.059	4889.11
937.367	4796
937.674	4841.65
937.982	4802.78
938.29	4753.97
938.597	4779.96
938.905	4725.95
939.213	4680.07
939.52	4707.19
939.827	4692.28
940.135	4655.89
940.442	4619.74
940.749	4588.78
941.056	4618.61
941.363	4553.3
941.67	4549.46
941.977	4490.7
942.284	4481.44
942.591	4484.15
942.898	4492.06
943.205	4467.2
943.511	4468.33
943.818	4409.12
944.125	4368.67
944.431	4391.27
944.738	4367.54
945.044	4352.63
945.35	4296.81
945.657	4287.99
945.963	4255.68
946.269	4269.92
946.575	4258.84
946.881	4267.88
947.187	4202.35
947.493	4188.11
947.799	4178.39
948.105	4166.42
948.41	4138.85
948.716	4122.58
949.022	4108.11
949.327	4065.85
949.633	4033.99
949.938	4056.81
950.244	4037.15
950.549	3997.15
950.854	3989.7
951.16	3976.36
951.465	3939.98
951.77	3888.68
952.075	3938.63
952.38	3906.08
952.685	3902.24
952.99	3867.89
953.294	3852.07
953.599	3801.23
953.904	3810.94
954.209	3756.71
954.513	3813.88
954.818	3784.73
955.122	3730.72
955.426	3726.43
955.731	3718.07
956.035	3681.68
956.339	3666.09
956.643	3667.67
956.948	3664.06
957.252	3606.66
957.556	3636.49
957.86	3636.94
958.163	3573.66
958.467	3575.47
958.771	3542.93
959.075	3544.96
959.378	3497.96
959.682	3501.8
959.985	3502.25
960.289	3465.19
960.592	3478.07
960.896	3436.49
961.199	3426.1
961.502	3417.51
961.805	3414.12
962.108	3425.42
962.411	3385.19
962.714	3328.25
963.017	3340.45
963.32	3359.88
963.623	3330.73
963.926	3298.42
964.228	3280.56
964.531	3277.4
964.833	3264.29
965.136	3241.69
965.438	3253.9
965.741	3204.41
966.043	3220.68
966.345	3199.21
966.648	3194.46
966.95	3189.49
967.252	3142.94
967.554	3143.39
967.856	3131.64
968.158	3081.25
968.46	3132.09
968.761	3085.09
969.063	3101.36
969.365	3081.25
969.666	3014.81
969.968	3048.71
970.269	3016.84
970.571	3007.58
970.872	3034.02
971.174	2932.1
971.475	2963.51
971.776	2942.04
972.077	2978.65
972.378	2951.31
972.679	2895.26
972.98	2908.14
973.281	2924.87
973.582	2890.07
973.883	2892.55
974.183	2853.91
974.484	2891.42
974.785	2863.63
975.085	2847.58
975.386	2850.74
975.686	2795.38
975.986	2801.25
976.287	2775.94
976.587	2772.78
976.887	2728.04
977.187	2777.07
977.487	2740.69
977.787	2729.84
978.087	2703.63
978.387	2704.08
978.687	2674.03
978.987	2654.59
979.286	2676.06
979.586	2653.69
979.885	2606.91
980.185	2613.24
980.484	2598.32
980.784	2591.77
981.083	2565.55
981.382	2584.08
981.682	2572.79
981.981	2574.59
982.28	2537.98
982.579	2496.18
982.878	2531.88
983.177	2513.13
983.475	2491.88
983.774	2485.78
984.073	2472.9
984.372	2470.19
984.67	2462.73
984.969	2441.72
985.267	2453.24
985.566	2412.56
985.864	2400.59
986.162	2424.09
986.461	2366.01
986.759	2377.08
987.057	2385.45
987.355	2344.77
987.653	2370.98
987.951	2333.02
988.249	2339.12
988.547	2305.22
988.844	2298.89
989.142	2300.93
989.44	2275.17
989.737	2265
990.035	2235.39
990.332	2250.53
990.63	2260.48
990.927	2225.68
991.224	2236.98
991.521	2212.12
991.819	2226.81
992.116	2166.92
992.413	2192.68
992.71	2168.95
993.006	2169.18
993.303	2160.14
993.6	2170.31
993.897	2119.92
994.193	2105.68
994.49	2120.37
994.787	2111.55
995.083	2095.74
995.379	2082.18
995.676	2084.89
995.972	2064.55
996.268	2062.97
996.565	2054.83
996.861	2025.68
997.157	2031.33
997.453	2008.05
997.749	2014.16
998.044	1990.2
998.34	1980.94
998.636	1935.97
998.932	1967.15
999.227	1955.85
999.523	1940.49
999.818	1939.13
1000.114	1922.41
1000.409	1910.66
1000.704	1896.42
1001	1877.44
1001.295	1894.61
1001.59	1871.33
1001.885	1866.14
1002.18	1859.13
1002.475	1836.53
1002.77	1842.64
1003.065	1829.08
1003.359	1821.62
1003.654	1836.99
1003.949	1795.63
1004.243	1793.37
1004.538	1760.6
1004.832	1785.91
1005.127	1729.87
1005.421	1733.49
1005.715	1738.68
1006.009	1725.35
1006.304	1687.84
1006.598	1697.33
1006.892	1749.3
1007.186	1691.23
1007.48	1683.54
1007.773	1632.92
1008.067	1649.19
1008.361	1659.36
1008.655	1616.65
1008.948	1634.96
1009.242	1633.6
1009.535	1608.97
1009.829	1600.16
1010.122	1608.97
1010.415	1564.9
1010.708	1590.89
1011.001	1586.14
1011.295	1556.99
1011.588	1566.48
1011.881	1533.26
1012.173	1535.75
1012.466	1503.44
1012.759	1496.66
1013.052	1520.84
1013.344	1474.96
1013.637	1503.66
1013.93	1480.16
1014.222	1468.41
1014.514	1465.92
1014.807	1445.81
1015.099	1451.46
1015.391	1462.98
1015.683	1451.01
1015.976	1420.27
1016.268	1430.22
1016.56	1411.91
1016.851	1397
1017.143	1398.81
1017.435	1376.66
1017.727	1395.19
1018.018	1343.89
1018.31	1347.05
1018.602	1351.12
1018.893	1347.28
1019.185	1331.24
1019.476	1324
1019.767	1332.59
1020.058	1308.41
1020.35	1322.2
1020.641	1292.59
1020.932	1271.8
1021.223	1281.52
1021.514	1242.88
1021.804	1238.36
1022.095	1261.86
1022.386	1221.86
1022.677	1231.58
1022.967	1242.42
1023.258	1250.56
1023.548	1211.24
1023.839	1204.69
1024.129	1208.3
1024.419	1189.09
1024.709	1161.98
1025	1176.89
1025.29	1145.7
1025.58	1136.89
1025.87	1141.86
1026.16	1152.94
1026.449	1152.03
1026.739	1109.32
1027.029	1129.43
1027.319	1121.98
1027.608	1124.24
1027.898	1080.4
1028.187	1112.48
1028.477	1096.89
1028.766	1081.07
1029.055	1071.81
1029.344	1076.78
1029.634	1060.73
1029.923	1052.37
1030.212	1049.44
1030.501	1033.62
1030.79	1050.57
1031.078	1030
1031.367	1010.11
1031.656	1016.67
1031.945	1001.98
1032.233	1013.73
1032.522	1002.66
1032.81	1001.53
1033.099	994.97
1033.387	1004.92
1033.675	968.53
1033.963	963.34
1034.251	976.67
1034.54	966.05
1034.828	948.2
1035.116	945.94
1035.403	973.28
1035.691	926.05
1035.979	938.93
1036.267	916.78
1036.554	912.49
1036.842	907.29
1037.129	893.73
1037.417	913.62
1037.704	891.47
1037.992	900.06
1038.279	899.61
1038.566	857.12
1038.853	857.12
1039.14	857.12
