Data from hue_110_FLMS001491_00038.txt Node
Date: Tue Feb 07 17:01:14 GMT 2017
User: dcchb
Spectrometer: FLMS00149
Trigger mode: 0
Integration Time (sec): 2.000000E-2
Scans to average: 10
Electric dark correction enabled: true
Nonlinearity correction enabled: false
Boxcar width: 0
XAxis mode: Wavelengths
Number of Pixels in Spectrum: 2048
>>>>>Begin Spectral Data<<<<<
341.393	-12.6
341.776	-12.6
342.16	-12.6
342.543	-62.77
342.927	-59.83
343.31	-66.16
343.693	-66.38
344.077	-57.8
344.46	-81.3
344.843	-53.28
345.226	-48.76
345.61	-31.58
345.993	-14.86
346.376	-2.43
346.759	17.01
347.142	28.76
347.525	47.29
347.908	67.63
348.291	68.53
348.674	104.23
349.057	89.09
349.44	122.31
349.823	140.62
350.206	155.53
350.588	197.34
350.971	218.81
351.354	224.68
351.737	240.05
352.119	254.06
352.502	257
352.884	281.86
353.267	267.62
353.65	278.02
354.032	294.74
354.414	304.23
354.797	304.91
355.179	326.6
355.562	318.47
355.944	338.58
356.326	335.87
356.709	334.06
357.091	347.17
357.473	339.26
357.855	357.56
358.238	352.82
358.62	358.01
359.002	346.26
359.384	332.7
359.766	350.33
360.148	329.31
360.53	321.4
360.912	361.4
361.294	346.49
361.676	337.67
362.057	335.19
362.439	324.79
362.821	338.58
363.203	341.52
363.584	346.49
363.966	332.03
364.348	337.45
364.729	340.16
365.111	322.08
365.493	307.39
365.874	317.11
366.256	344
366.637	280.5
367.019	322.99
367.4	306.49
367.781	316.66
368.163	298.81
368.544	308.97
368.925	318.69
369.306	327.05
369.688	320.95
370.069	329.99
370.45	319.6
370.831	308.75
371.212	306.94
371.593	320.05
371.974	316.88
372.355	335.19
372.736	327.28
373.117	334.51
373.498	317.79
373.879	331.12
374.26	330.9
374.641	314.4
375.021	308.07
375.402	314.62
375.783	321.86
376.163	339.93
376.544	313.04
376.925	340.61
377.305	343.78
377.686	323.89
378.066	329.31
378.447	344.45
378.827	305.81
379.208	340.84
379.588	353.04
379.968	342.65
380.349	306.94
380.729	328.41
381.109	331.35
381.489	322.76
381.87	366.37
382.25	338.8
382.63	356.66
383.01	342.42
383.39	356.66
383.77	359.37
384.15	357.34
384.53	330.67
384.91	343.32
385.29	361.4
385.67	367.73
386.049	349.43
386.429	354.85
386.809	350.1
387.189	356.66
387.568	360.5
387.948	367.96
388.328	359.14
388.707	362.08
389.087	379.93
389.466	359.37
389.846	365.24
390.225	372.48
390.605	357.34
390.984	372.02
391.363	376.54
391.743	373.15
392.122	377
392.501	360.27
392.881	359.14
393.26	393.49
393.639	378.8
394.018	373.38
394.397	374.06
394.776	392.14
395.155	385.13
395.534	395.53
395.913	376.77
396.292	410.22
396.671	418.8
397.05	397.56
397.429	412.48
397.808	374.96
398.186	412.25
398.565	413.38
398.944	400.72
399.323	392.36
399.701	405.47
400.08	414.51
400.458	389.2
400.837	426.71
401.215	415.41
401.594	404.79
401.972	412.25
402.351	422.42
402.729	405.47
403.107	427.84
403.486	425.81
403.864	419.25
404.242	425.81
404.62	415.19
404.999	431.46
405.377	429.42
405.755	431.23
406.133	431.68
406.511	442.76
406.889	448.41
407.267	448.41
407.645	460.16
408.023	466.71
408.401	451.8
408.779	462.42
409.156	474.62
409.534	440.72
409.912	477.11
410.29	470.1
410.667	465.35
411.045	478.01
411.422	467.61
411.8	477.11
412.178	484.34
412.555	499.25
412.933	482.08
413.31	522.53
413.687	513.04
414.065	492.47
414.442	510.1
414.819	493.83
415.197	503.55
415.574	515.3
415.951	539.03
416.328	511.91
416.705	522.75
417.082	518.01
417.46	517.78
417.837	543.09
418.214	528.63
418.591	537.44
418.967	552.13
419.344	560.49
419.721	544
420.098	540.61
420.475	551.91
420.852	539.7
421.228	558.23
421.605	541.29
421.982	571.11
422.358	562.75
422.735	594.17
423.111	585.58
423.488	594.62
423.864	581.06
424.241	602.53
424.617	590.55
424.994	609.98
425.37	602.3
425.746	609.31
426.123	589.87
426.499	607.72
426.875	635.29
427.251	621.96
427.627	608.63
428.003	644.79
428.379	629.87
428.756	668.06
429.132	659.7
429.507	662.19
429.883	666.93
430.259	670.55
430.635	685.24
431.011	700.15
431.387	692.92
431.763	690.43
432.138	705.57
432.514	674.16
432.89	692.92
433.265	707.38
433.641	707.16
434.016	727.04
434.392	723.43
434.767	739.02
435.143	760.49
435.518	751.22
435.894	758.91
436.269	775.63
436.644	775.86
437.02	771.79
437.395	782.41
437.77	811.56
438.145	799.81
438.52	815.85
438.895	803.65
439.271	809.75
439.646	822.86
440.021	824.22
440.395	792.8
440.77	812.92
441.145	838.23
441.52	851.56
441.895	857.44
442.27	841.39
442.645	853.14
443.019	877.1
443.394	889.52
443.769	889.3
444.143	873.71
444.518	877.1
444.892	891.56
445.267	898.34
445.641	914.38
446.016	921.16
446.39	934.72
446.764	920.26
447.139	917.77
447.513	927.94
447.887	961.61
448.262	952.57
448.636	961.16
449.01	943.31
449.384	957.32
449.758	964.1
450.132	991.44
450.506	998.9
450.88	976.98
451.254	1002.29
451.628	1013.59
452.002	1023.76
452.376	1023.98
452.75	1012.69
453.123	1035.51
453.497	1060.14
453.871	1069.18
454.244	1090.88
454.618	1099.46
454.992	1081.16
455.365	1122.06
455.739	1125.9
456.112	1136.98
456.486	1159.35
456.859	1182.17
457.232	1163.64
457.606	1152.34
457.979	1201.61
458.352	1200.7
458.725	1248.84
459.099	1229.18
459.472	1252.9
459.845	1271.66
460.218	1290.19
460.591	1322.51
460.964	1301.27
461.337	1307.14
461.71	1359.12
462.083	1378.55
462.456	1366.57
462.829	1397.08
463.201	1428.49
463.574	1422.39
463.947	1446.12
464.32	1475.05
464.692	1489.51
465.065	1506.68
465.438	1528.15
465.81	1560.47
466.183	1567.47
466.555	1579.68
466.928	1604.76
467.3	1626.23
467.672	1656.74
468.045	1701.93
468.417	1702.61
468.789	1736.06
469.161	1770.63
469.534	1808.14
469.906	1844.08
470.278	1847.69
470.65	1882.72
471.022	1940.34
471.394	1968.14
471.766	1984.41
472.138	2011.98
472.51	2098.08
472.882	2121.81
473.253	2153.22
473.625	2167.46
473.997	2273.44
474.369	2292.65
474.74	2340.33
475.112	2362.48
475.484	2444.29
475.855	2512.76
476.227	2565.86
476.598	2649.48
476.97	2687.67
477.341	2792.75
477.713	2841.34
478.084	2884.5
478.455	2954.33
478.827	3033.2
479.198	3181.44
479.569	3229.58
479.94	3331.49
480.311	3366.07
480.682	3490.36
481.053	3603.13
481.424	3682.9
481.795	3756.12
482.166	3879.95
482.537	3948.2
482.908	4094.19
483.279	4183.9
483.65	4272.26
484.021	4438.13
484.391	4562.65
484.762	4641.29
485.133	4740.72
485.503	4886.26
485.874	5035.18
486.244	5096.65
486.615	5239.47
486.985	5342.51
487.356	5557.42
487.726	5668.16
488.097	5806.01
488.467	5933.69
488.837	6101.14
489.207	6191.98
489.578	6368.25
489.948	6477.17
490.318	6656.83
490.688	6782.25
491.058	6951.74
491.428	7098.4
491.798	7212.07
492.168	7419.07
492.538	7559.63
492.908	7695.45
493.278	7868.55
493.648	7909.91
494.017	8120.29
494.387	8274.87
494.757	8379.27
495.126	8543.56
495.496	8608.42
495.866	8782.42
496.235	8933.38
496.605	9070.78
496.974	9209.31
497.344	9361.17
497.713	9499.24
498.082	9622.4
498.452	9794.83
498.821	9792.34
499.19	9941.04
499.559	10068.94
499.928	10162.05
500.298	10178.32
500.667	10407.24
501.036	10468.26
501.405	10591.19
501.774	10690.85
502.143	10887.91
502.512	10919.54
502.88	11008.35
503.249	11058.52
503.618	11222.36
503.987	11313.66
504.356	11413.77
504.724	11513.88
505.093	11563.82
505.462	11660.09
505.83	11701.44
506.199	11878.61
506.567	12055.11
506.936	12019.4
507.304	12173.3
507.672	12219.17
508.041	12314.31
508.409	12410.58
508.777	12514.76
509.145	12616
509.514	12584.36
509.882	12684.24
510.25	12800.4
510.618	12874.97
510.986	12930.56
511.354	12975.31
511.722	13094.85
512.09	13224.79
512.458	13122.88
512.826	13319.93
513.193	13389.31
513.561	13365.58
513.929	13391.79
514.297	13518.57
514.664	13668.85
515.032	13755.4
515.4	13800.82
515.767	13725.8
516.135	13893.7
516.502	13797.66
516.869	14022.29
517.237	13935.74
517.604	13956.53
517.972	14015.06
518.339	14097.76
518.706	14059.35
519.073	14156.07
519.44	14149.29
519.808	14368.27
520.175	14233.35
520.542	14457.3
520.909	14471.09
521.276	14444.87
521.643	14559.22
522.009	14529.84
522.376	14626.11
522.743	14598.99
523.11	14683.29
523.477	14891.19
523.843	14909.04
524.21	14995.82
524.577	15022.03
524.943	14967.8
525.31	15054.12
525.676	15090.96
526.043	15100.68
526.409	15156.49
526.776	15345.87
527.142	15244.4
527.508	15311.29
527.874	15307.9
528.241	15363.27
528.607	15399.65
528.973	15429.93
529.339	15419.76
529.705	15431.29
530.071	15492.53
530.437	15408.92
530.803	15499.76
531.169	15564.17
531.535	15430.39
531.901	15454.57
532.267	15515.35
532.632	15500.89
532.998	15491.63
533.364	15668.35
533.73	15481.91
534.095	15661.11
534.461	15620.21
534.826	15545.41
535.192	15613.21
535.557	15622.02
535.923	15488.01
536.288	15535.92
536.653	15547.9
537.019	15339.31
537.384	15333.44
537.749	15516.48
538.114	15382.48
538.479	15382.25
538.845	15401.46
539.21	15335.47
539.575	15393.32
539.94	15301.8
540.305	15409.37
540.67	15306.32
541.034	15268.36
541.399	15228.36
541.764	15263.38
542.129	15274.23
542.494	15227.45
542.858	15109.49
543.223	15045.08
543.587	15201.01
543.952	15035.14
544.316	15082.15
544.681	14928.48
545.045	14973.67
545.41	15017.51
545.774	14932.77
546.138	14910.62
546.503	14876.5
546.867	14821.59
547.231	14914.92
547.595	14761.48
547.959	14790.4
548.324	14751.53
548.688	14694.59
549.052	14640.12
549.416	14691.42
549.779	14659.11
550.143	14520.35
550.507	14650.52
550.871	14563.97
551.235	14626.11
551.599	14554.48
551.962	14590.63
552.326	14580.01
552.689	14582.72
553.053	14425.89
553.417	14420.47
553.78	14623.63
554.143	14410.3
554.507	14412.78
554.87	14376.18
555.234	14529.17
555.597	14337.53
555.96	14341.83
556.323	14346.12
556.686	14315.16
557.05	14471.31
557.413	14380.24
557.776	14289.62
558.139	14341.83
558.502	14379.11
558.865	14263.41
559.228	14383.41
559.59	14304.99
559.953	14293.47
560.316	14398.32
560.679	14372.33
561.041	14346.57
561.404	14417.3
561.767	14465.89
562.129	14342.5
562.492	14511.77
562.854	14386.34
563.217	14304.31
563.579	14402.62
563.941	14418.66
564.304	14453.91
564.666	14554.48
565.028	14428.38
565.39	14581.14
565.753	14574.81
566.115	14548.15
566.477	14654.36
566.839	14594.93
567.201	14661.37
567.563	14665.43
567.925	14687.81
568.287	14695.72
568.648	14728.71
569.01	14636.28
569.372	14795.6
569.734	14655.94
570.095	14773.91
570.457	14833.56
570.819	14689.39
571.18	14711.31
571.542	14865.43
571.903	14860
572.265	14876.05
572.626	14851.64
572.987	14937.29
573.349	14893
573.71	14851.64
574.071	14949.27
574.432	14928.93
574.794	15071.52
575.155	15046.67
575.516	14901.13
575.877	14997.4
576.238	14954.69
576.599	15083.05
576.96	14984.97
577.32	14957.4
577.681	15089.38
578.042	15069.72
578.403	14943.84
578.763	15043.28
579.124	14978.87
579.485	15095.03
579.845	15122.14
580.206	15063.39
580.566	15087.34
580.927	15044.63
581.287	15067
581.648	15074.91
582.008	15088.7
582.368	15104.52
582.728	15123.05
583.089	15014.12
583.449	14985.2
583.809	14970.06
584.169	15043.95
584.529	14977.97
584.889	14962.15
585.249	14931.19
585.609	14987.69
585.969	14986.1
586.329	14938.42
586.688	14982.26
587.048	14884.64
587.408	14891.19
587.768	14988.36
588.127	14932.55
588.487	14908.14
588.846	14989.27
589.206	14923.96
589.565	14872.21
589.925	14992.88
590.284	14821.81
590.643	14943.62
591.003	14894.13
591.362	14975.93
591.721	14845.99
592.08	14905.88
592.44	14889.16
592.799	14909.72
593.158	14823.85
593.517	14755.15
593.876	14806.9
594.235	14774.36
594.593	14848.03
594.952	14768.71
595.311	14773.68
595.67	14743.85
596.029	14875.15
596.387	14743.4
596.746	14845.32
597.104	14735.94
597.463	14710.4
597.822	14844.41
598.18	14669.5
598.538	14705.66
598.897	14699.11
599.255	14612.55
599.613	14868.82
599.972	14698.43
600.33	14785.2
600.688	14726
601.046	14765.09
601.404	14798.54
601.762	14734.36
602.12	14836.5
602.478	14716.28
602.836	14799.89
603.194	14756.05
603.552	14736.17
603.91	14742.95
604.268	14772.55
604.625	14780.91
604.983	14683.06
605.341	14730.06
605.698	14767.13
606.056	14730.06
606.413	14790.85
606.771	14763.28
607.128	14826.33
607.485	14720.12
607.843	14769.61
608.2	14821.81
608.557	14818.65
608.914	14783.17
609.272	14812.55
609.629	14910.17
609.986	14948.82
610.343	14830.85
610.7	14839.44
611.057	14915.37
611.414	14932.55
611.771	14881.47
612.127	14929.61
612.484	14951.98
612.841	15017.29
613.198	14931.19
613.554	14915.14
613.911	15050.96
614.267	15024.97
614.624	14958.99
614.98	15035.14
615.337	15051.19
615.693	15076.27
616.05	14975.48
616.406	15168.92
616.762	15126.89
617.118	15101.35
617.475	15072.88
617.831	15124.86
618.187	15209.37
618.543	15182.26
618.899	15211.41
619.255	15196.04
619.611	15123.27
619.967	15201.69
620.323	15261.58
620.678	15246.89
621.034	15167.79
621.39	15095.48
621.746	15134.35
622.101	15336.83
622.457	15098.42
622.812	15235.36
623.168	15382.7
623.523	15176.83
623.879	15285.08
624.234	15243.72
624.589	15244.85
624.945	15276.26
625.3	15185.87
625.655	15247.34
626.01	15229.03
626.365	15221.8
626.72	15180.45
627.075	15325.08
627.43	15249.6
627.785	15170.51
628.14	15193.33
628.495	15348.58
628.85	15216.38
629.205	15235.59
629.559	15210.5
629.914	15114.69
630.269	15045.76
630.623	15081.47
630.978	15087.8
631.332	15073.78
631.687	15167.12
632.041	14996.5
632.396	15019.55
632.75	15123.05
633.104	15079.89
633.459	15034.46
633.813	14994.69
634.167	14950.85
634.521	14998.08
634.875	14914.24
635.229	14981.13
635.583	14948.82
635.937	14857.29
636.291	14915.37
636.645	14901.13
636.999	14847.8
637.352	14901.13
637.706	14748.6
638.06	14830.85
638.413	14747.47
638.767	14839.67
639.121	14748.6
639.474	14699.56
639.828	14687.58
640.181	14735.04
640.534	14737.52
640.888	14686.9
641.241	14630.18
641.594	14687.58
641.947	14596.06
642.301	14699.11
642.654	14592.22
643.007	14642.84
643.36	14599.45
643.713	14496.85
644.066	14665.66
644.419	14537.3
644.771	14476.96
645.124	14275.16
645.477	14438.32
645.83	14212.34
646.182	14220.7
646.535	14144.09
646.888	14120.82
647.24	14018.22
647.593	14106.13
647.945	14115.84
648.298	14048.05
648.65	14022.96
649.002	13976.64
649.355	14127.37
649.707	14042.63
650.059	14112
650.411	14354.48
650.763	14272.45
651.115	14521.48
651.467	14410.98
651.819	14453.24
652.171	14379.11
652.523	14381.15
652.875	14408.27
653.227	14415.04
653.578	14499.34
653.93	14536.4
654.282	14301.15
654.633	14419.34
654.985	14327.82
655.337	14428.15
655.688	14404.65
656.039	14486.46
656.391	14364.42
656.742	14391.09
657.094	14355.61
657.445	14404.42
657.796	14456.4
658.147	14374.14
658.498	14407.14
658.849	14474.7
659.2	14404.2
659.551	14346.35
659.902	14401.03
660.253	14450.3
660.604	14426.12
660.955	14395.84
661.306	14383.18
661.656	14402.62
662.007	14463.41
662.358	14431.77
662.708	14453.69
663.059	14508.6
663.409	14397.64
663.76	14456.63
664.11	14382.05
664.461	14406.46
664.811	14472.22
665.161	14503.86
665.511	14435.61
665.862	14401.94
666.212	14495.49
666.562	14488.94
666.912	14502.05
667.262	14408.94
667.612	14515.38
667.962	14488.72
668.312	14420.24
668.662	14493.91
669.011	14420.69
669.361	14496.4
669.711	14474.03
670.06	14436.06
670.41	14303.86
670.76	14370.75
671.109	14454.59
671.459	14353.8
671.808	14433.58
672.157	14429.28
672.507	14314.03
672.856	14285.1
673.205	14318.55
673.554	14354.26
673.904	14226.35
674.253	14380.7
674.602	14272.9
674.951	14160.36
675.3	14004.43
675.649	14197.42
675.998	14280.36
676.346	14257.53
676.695	14291.88
677.044	14163.53
677.393	14218.89
677.741	14253.69
678.09	14161.94
678.438	14137.31
678.787	14090.99
679.135	14168.5
679.484	14073.81
679.832	14110.42
680.181	13987.94
680.529	14088.5
680.877	14008.28
681.225	14039.46
681.573	14082.4
681.922	13923.98
682.27	13935.06
682.618	13922.85
682.966	13889.18
683.314	13901.16
683.661	13878.79
684.009	13779.13
684.357	13775.97
684.705	13790.2
685.053	13783.42
685.4	13673.6
685.748	13675.86
686.095	13647.83
686.443	13629.53
686.79	13564.67
687.138	13660.49
687.485	13627.72
687.832	13544.79
688.18	13462.98
688.527	13454.17
688.874	13400.83
689.221	13396.09
689.568	13318.8
689.915	13228.64
690.262	13234.51
690.609	13300.05
690.956	13117
691.303	13199.48
691.65	13086.94
691.997	13045.14
692.344	12944.8
692.69	12904.8
693.037	12959.49
693.383	12826.84
693.73	12925.37
694.077	12799.04
694.423	12756.78
694.769	12713.85
695.116	12747.29
695.462	12621.65
695.808	12577.35
696.155	12642.89
696.501	12535.55
696.847	12454.42
697.193	12414.42
697.539	12453.51
697.885	12329.9
698.231	12249.45
698.577	12298.94
698.923	12268.89
699.269	12223.24
699.614	12160.19
699.96	12117.48
700.306	12037.25
700.651	11997.71
700.997	11960.42
701.342	11934.88
701.688	11883.13
702.033	11843.36
702.379	11830.25
702.724	11859.41
703.069	11826.19
703.415	11736.25
703.76	11685.62
704.105	11637.04
704.45	11591.62
704.795	11555.23
705.14	11504.16
705.485	11523.14
705.83	11421.23
706.175	11441.11
706.52	11423.03
706.865	11390.49
707.209	11356.59
707.554	11298.74
707.899	11335.58
708.243	11242.92
708.588	11208.58
708.932	11070.73
709.277	11097.39
709.621	11078.18
709.966	11016.04
710.31	11038.18
710.654	10953.44
710.998	10928.58
711.342	11039.54
711.687	10873.67
712.031	10930.39
712.375	10840.22
712.719	10862.14
713.063	10783.28
713.407	10890.84
713.75	10769.26
714.094	10815.37
714.438	10720.68
714.782	10798.87
715.125	10712.09
715.469	10698.76
715.812	10708.25
716.156	10598.42
716.499	10584.64
716.843	10643.84
717.186	10543.73
717.53	10553.9
717.873	10605.88
718.216	10500.57
718.559	10585.31
718.902	10412.44
719.246	10450.63
719.589	10409.73
719.932	10433.23
720.275	10396.85
720.617	10405.88
720.96	10307.58
721.303	10374.25
721.646	10393.46
721.989	10309.62
722.331	10322.72
722.674	10280.69
723.016	10280.69
723.359	10296.06
723.701	10381.48
724.044	10308.71
724.386	10191.2
724.729	10228.49
725.071	10258.32
725.413	10216.29
725.755	10149.17
726.097	10148.72
726.439	10098.32
726.782	10153.69
727.124	10185.33
727.465	10148.04
727.807	10126.34
728.149	10150.98
728.491	10046.8
728.833	10145.33
729.175	10040.24
729.516	10033.92
729.858	10056.74
730.199	10049.28
730.541	10037.31
730.882	10044.99
731.224	10056.74
731.565	10072.11
731.906	10078.89
732.248	10042.05
732.589	10063.75
732.93	9994.6
733.271	10070.53
733.612	10065.1
733.953	10073.92
734.294	10049.06
734.635	9993.92
734.976	10101.03
735.317	10028.95
735.658	10007.93
735.999	10045.89
736.339	10079.34
736.68	10040.47
737.021	10074.14
737.361	10016.06
737.702	10147.13
738.042	10044.31
738.383	10051.32
738.723	10155.04
739.063	10061.26
739.404	10123.63
739.744	10105.78
740.084	10106.68
740.424	10166.34
740.764	10126.8
741.104	10177.87
741.444	10138.77
741.784	10151.43
742.124	10133.8
742.464	10240.24
742.804	10323.17
743.143	10210.41
743.483	10247.47
743.823	10296.96
744.162	10283.18
744.502	10349.84
744.841	10353.23
745.181	10426
745.52	10372.67
745.86	10459.89
746.199	10492.21
746.538	10542.38
746.877	10659.21
747.216	10662.83
747.556	10681.13
747.895	10771.52
748.234	10705.54
748.573	10854.23
748.911	10914.57
749.25	10977.17
749.589	10988.47
749.928	11058.07
750.267	11160.44
750.605	11195.02
750.944	11300.1
751.283	11357.05
751.621	11443.82
751.96	11510.49
752.298	11657.38
752.636	11767.43
752.975	11779.86
753.313	11841.55
753.651	12061.89
753.989	12136.46
754.327	12201.77
754.666	12331.71
755.004	12418.71
755.342	12604.24
755.679	12734.41
756.017	12797.91
756.355	13023.22
756.693	13099.83
757.031	13244.45
757.368	13391.57
757.706	13613.03
758.044	13614.61
758.381	13882.4
758.719	13980.71
759.056	14180.25
759.394	14328.49
759.731	14370.53
760.068	14535.72
760.405	14713.34
760.743	14874.02
761.08	15059.32
761.417	15263.84
761.754	15365.53
762.091	15527.78
762.428	15703.37
762.765	15867.89
763.102	16027.66
763.438	16092.29
763.775	16278.05
764.112	16482.11
764.449	16627.42
764.785	16773.85
765.122	16793.97
765.458	16965.94
765.795	17162.54
766.131	17320.05
766.467	17396.44
766.804	17559.37
767.14	17581.29
767.476	17772.47
767.812	17895.86
768.148	18027.61
768.485	18129.07
768.821	18157.77
769.157	18342.85
769.492	18489.29
769.828	18668.27
770.164	18589.62
770.5	18789.17
770.836	18802.05
771.171	18844.98
771.507	18985.09
771.842	18999.33
772.178	19130.4
772.513	19152.1
772.849	19250.17
773.184	19311.19
773.519	19340.11
773.855	19379.66
774.19	19378.98
774.525	19589.15
774.86	19573.33
775.195	19721.8
775.53	19690.61
775.865	19706.66
776.2	19700.1
776.535	19575.81
776.87	19666.43
777.205	19738.52
777.539	19696.71
777.874	19811.74
778.209	19728.35
778.543	19741.91
778.878	19784.62
779.212	19839.76
779.547	19802.7
779.881	19841.57
780.215	19778.52
780.55	19861.68
780.884	19755.92
781.218	19759.31
781.552	19802.02
781.886	19694.45
782.22	19775.13
782.554	19713.21
782.888	19652.65
783.222	19719.76
783.556	19583.72
783.889	19636.15
784.223	19607.22
784.557	19584.63
784.89	19673.89
785.224	19619.2
785.557	19480.45
785.891	19489.26
786.224	19602.7
786.558	19564.51
786.891	19361.13
787.224	19319.77
787.557	19277.06
787.891	19291.98
788.224	19304.18
788.557	19349.38
788.89	19288.14
789.223	19287.68
789.556	19233
789.888	19209.72
790.221	19069.61
790.554	19006.79
790.887	19001.82
791.219	19003.17
791.552	18929.73
791.884	18901.71
792.217	18907.36
792.549	18782.61
792.882	18746.91
793.214	18661.49
793.546	18737.87
793.879	18645.89
794.211	18581.94
794.543	18630.98
794.875	18560.47
795.207	18602.05
795.539	18473.02
795.871	18589.4
796.203	18324.32
796.535	18288.62
796.867	18299.46
797.198	18244.32
797.53	18265.56
797.862	18075.29
798.193	18223.31
798.525	18016.76
798.856	18064.44
799.188	17830.77
799.519	17842.75
799.85	17760.27
800.182	17744
800.513	17725.24
800.844	17654.28
801.175	17775.63
801.506	17674.17
801.837	17548.3
802.168	17564.34
802.499	17552.82
802.83	17506.71
803.161	17338.81
803.491	17424.01
803.822	17454.51
804.153	17413.61
804.483	17231.24
804.814	17125.48
805.145	17196.44
805.475	17094.52
805.805	17054.3
806.136	17080.74
806.466	17098.14
806.796	17057.69
807.126	16848.43
807.457	16930.23
807.787	16937.46
808.117	16788.09
808.447	16808.2
808.777	16810.46
809.107	16707.19
809.436	16671.03
809.766	16709.9
810.096	16564.59
810.426	16488.21
810.755	16554.2
811.085	16548.55
811.414	16411.15
811.744	16308.1
812.073	16327.76
812.403	16346.97
812.732	16268.33
813.061	16212.29
813.39	16135.68
813.719	16124.38
814.049	16150.37
814.378	16096.81
814.707	16090.71
815.036	16190.82
815.365	16072.63
815.693	15941.33
816.022	16015
816.351	15851.39
816.68	15831.73
817.008	15853.88
817.337	15721.9
817.665	15699.3
817.994	15762.58
818.322	15782.92
818.651	15659.98
818.979	15485.07
819.307	15653.2
819.636	15676.48
819.964	15502.02
820.292	15564.62
820.62	15572.3
820.948	15412.76
821.276	15540.44
821.604	15469.03
821.932	15554.22
822.259	15482.36
822.587	15535.24
822.915	15526.2
823.243	15506.99
823.57	15444.4
823.898	15416.83
824.225	15349.03
824.553	15450.72
824.88	15428.8
825.207	15499.76
825.535	15558.52
825.862	15497.5
826.189	15437.39
826.516	15546.77
826.843	15580.44
827.17	15537.5
827.497	15598.29
827.824	15512.19
828.151	15498.63
828.478	15436.71
828.805	15553.32
829.131	15507.45
829.458	15363.49
829.785	15392.87
830.111	15476.71
830.438	15527.56
830.764	15543.15
831.09	15490.72
831.417	15430.39
831.743	15456.83
832.069	15467.9
832.395	15358.07
832.722	15458.86
833.048	15445.53
833.374	15365.08
833.7	15268.81
834.026	15334.57
834.351	15300.22
834.677	15295.47
835.003	15373.21
835.329	15334.79
835.654	15266.32
835.98	15375.92
836.306	15271.75
836.631	15219.54
836.956	15296.83
837.282	15238.07
837.607	15144.52
837.932	15168.25
838.258	15124.18
838.583	15123.73
838.908	15125.53
839.233	15073.78
839.558	15049.15
839.883	14995.59
840.208	15001.47
840.533	15002.83
840.858	14944.52
841.182	14937.29
841.507	14914.24
841.832	14745.43
842.156	14839.21
842.481	14913.34
842.805	14758.76
843.13	14782.49
843.454	14682.38
843.778	14610.97
844.103	14537.53
844.427	14541.37
844.751	14637.86
845.075	14538.21
845.399	14569.62
845.723	14387.93
846.047	14417.08
846.371	14290.98
846.695	14364.42
847.019	14289.62
847.343	14122.17
847.666	14128.72
847.99	14025.45
848.313	14066.13
848.637	13889.86
848.96	13922.63
849.284	13873.14
849.607	13743.88
849.931	13745.46
850.254	13622.52
850.577	13625.01
850.9	13507.5
851.223	13464.56
851.546	13472.7
851.869	13372.59
852.192	13382.53
852.515	13292.59
852.838	13247.17
853.161	13279.26
853.483	13211.23
853.806	13143.67
854.129	13099.37
854.451	12987.51
854.774	12945.93
855.096	12898.93
855.419	12914.07
855.741	12825.71
856.063	12792.71
856.385	12789.78
856.708	12731.02
857.03	12700.29
857.352	12721.76
857.674	12567.86
857.996	12613.28
858.318	12503
858.64	12561.08
858.961	12503.46
859.283	12432.05
859.605	12355.21
859.926	12349.34
860.248	12323.12
860.57	12278.6
860.891	12250.58
861.212	12281.32
861.534	12236.12
861.855	12161.32
862.176	12214.65
862.498	12100.76
862.819	12176.91
863.14	12086.07
863.461	12085.61
863.782	12022.57
864.103	12046.07
864.424	11931.27
864.745	12010.14
865.065	11814.21
865.386	11899.4
865.707	11929.23
866.027	11865.06
866.348	11845.62
866.668	11852.17
866.989	11797.71
867.309	11724.49
867.63	11815.57
867.95	11771.27
868.27	11741.89
868.59	11699.18
868.91	11650.15
869.23	11691.27
869.55	11695.79
869.87	11625.29
870.19	11672.29
870.51	11618.06
870.83	11646.98
871.15	11529.02
871.469	11636.59
871.789	11577.83
872.109	11551.39
872.428	11483.82
872.748	11473.2
873.067	11507.32
873.386	11467.33
873.706	11450.38
874.025	11409.47
874.344	11406.76
874.663	11390.94
874.982	11390.27
875.301	11347.78
875.62	11340.1
875.939	11359.31
876.258	11183.49
876.577	11249.25
876.896	11203.83
877.214	11224.62
877.533	11159.09
877.852	11205.64
878.17	11157.73
878.489	11180.78
878.807	11107.11
879.125	11081.12
879.444	11088.13
879.762	11066.66
880.08	11049.48
880.398	10980.78
880.716	10998.41
881.034	10957.73
881.352	10971.52
881.67	10953.21
881.988	10954.57
882.306	10887.23
882.624	10918.87
882.941	10932.42
883.259	10768.81
883.577	10769.49
883.894	10783.05
884.212	10720.23
884.529	10763.39
884.846	10709.83
885.164	10700.34
885.481	10650.17
885.798	10691.75
886.115	10593.45
886.432	10589.16
886.75	10537.41
887.067	10544.86
887.383	10455.6
887.7	10509.16
888.017	10477.97
888.334	10504.41
888.651	10374.47
888.967	10316.62
889.284	10324.53
889.6	10297.19
889.917	10218.54
890.233	10273.23
890.55	10240.47
890.866	10238.66
891.182	10128.83
891.498	10182.16
891.815	10054.03
892.131	10085.67
892.447	10017.65
892.763	10072.11
893.079	10022.62
893.395	9916.18
893.71	9920.47
894.026	9882.96
894.342	9820.59
894.657	9804.77
894.973	9823.08
895.289	9753.92
895.604	9814.04
895.92	9731.78
896.235	9705.11
896.55	9674.83
896.865	9605.68
897.181	9627.6
897.496	9622.18
897.811	9516.87
898.126	9481.62
898.441	9416.31
898.756	9468.51
899.071	9315.29
899.386	9290.21
899.7	9234.62
900.015	9263.77
900.33	9182.41
900.644	9115.97
900.959	9148.29
901.273	9064.9
901.588	9071.91
901.902	9051.8
902.216	9023.77
902.531	9029.2
902.845	8985.58
903.159	8921.86
903.473	8870.78
903.787	8843.21
904.101	8755.76
904.415	8755.31
904.729	8798.7
905.042	8662.43
905.356	8710.56
905.67	8657
905.984	8659.72
906.297	8618.13
906.611	8504.92
906.924	8534.52
907.237	8560.51
907.551	8448.87
907.864	8416.78
908.177	8428.76
908.491	8405.94
908.804	8335.88
909.117	8294.08
909.43	8266.73
909.743	8203.91
910.056	8207.52
910.368	8184.93
910.681	8073.52
910.994	8066.06
911.307	8085.04
911.619	7996
911.932	8007.3
912.244	7946.06
912.557	7974.31
912.869	7847.99
913.181	7808.44
913.494	7824.26
913.806	7781.09
914.118	7745.16
914.43	7679.85
914.742	7704.94
915.054	7686.41
915.366	7603.02
915.678	7607.54
915.99	7530.25
916.302	7531.16
916.613	7477.83
916.925	7500.65
917.236	7447.09
917.548	7397.6
917.859	7464.72
918.171	7354.44
918.482	7328.9
918.794	7264.05
919.105	7278.74
919.416	7276.7
919.727	7218.62
920.038	7182.92
920.349	7143.82
920.66	7109.02
920.971	7079.19
921.282	7039.65
921.593	6985.86
921.903	6993.77
922.214	6889.82
922.525	6970.95
922.835	6908.58
923.146	6862.25
923.456	6874
923.767	6817.73
924.077	6818.86
924.387	6780.22
924.697	6697.51
925.008	6757.39
925.318	6665.19
925.628	6646.66
925.938	6654.12
926.248	6627
926.558	6565.08
926.867	6548.13
927.177	6519.66
927.487	6498.19
927.796	6453.45
928.106	6466.1
928.416	6425.42
928.725	6394.92
929.034	6313.79
929.344	6383.62
929.653	6297.52
929.962	6262.49
930.271	6260.91
930.581	6242.6
930.89	6228.14
931.199	6172.78
931.508	6159.89
931.817	6152.21
932.125	6121.7
932.434	6081.03
932.743	6067.92
933.051	6057.07
933.36	6020.01
933.669	5971.65
933.977	5942.73
934.286	5926.23
934.594	5914.25
934.902	5832.45
935.21	5842.61
935.519	5864.08
935.827	5769.85
936.135	5762.84
936.443	5746.12
936.751	5775.95
937.059	5666.57
937.367	5673.35
937.674	5679
937.982	5606.69
938.29	5609.85
938.597	5604.43
938.905	5536.63
939.213	5512.45
939.52	5474.04
939.827	5500.02
940.135	5475.17
940.442	5457.09
940.749	5451.21
941.056	5488.05
941.363	5347.26
941.67	5354.04
941.977	5293.93
942.284	5287.6
942.591	5273.82
942.898	5249.41
943.205	5239.69
943.511	5202.86
943.818	5211.67
944.125	5153.82
944.431	5138.23
944.738	5139.13
945.044	5082.18
945.35	5039.47
945.657	5047.16
945.963	5019.36
946.269	5006.7
946.575	4999.25
946.881	5011.22
947.187	4972.36
947.493	4915.63
947.799	4896.88
948.105	4914.73
948.41	4873.6
948.716	4839.93
949.022	4841.51
949.327	4826.37
949.633	4768.52
949.938	4753.38
950.244	4733.94
950.549	4669.54
950.854	4686.94
951.16	4682.42
951.465	4645.13
951.77	4621.63
952.075	4607.62
952.38	4560.16
952.685	4582.99
952.99	4552.93
953.294	4510.67
953.599	4533.27
953.904	4494.85
954.209	4443.78
954.513	4478.58
954.818	4435.87
955.122	4425.25
955.426	4398.13
955.731	4387.74
956.035	4381.64
956.339	4322.65
956.643	4342.09
956.948	4297.57
957.252	4289.21
957.556	4303.22
957.86	4224.13
958.163	4258.48
958.467	4236.1
958.771	4183.68
959.075	4201.08
959.378	4124.92
959.682	4156.33
959.985	4116.78
960.289	4128.31
960.592	4096.9
960.896	4076.33
961.199	4036.56
961.502	4038.59
961.805	4034.3
962.108	4033.4
962.411	4006.96
962.714	3939.61
963.017	3955.21
963.32	3958.37
963.623	3926.73
963.926	3905.04
964.228	3863.01
964.531	3874.98
964.833	3886.51
965.136	3859.16
965.438	3826.17
965.741	3839.05
966.043	3805.61
966.345	3771.48
966.648	3724.03
966.95	3724.03
967.252	3674.31
967.554	3677.02
967.856	3681.77
968.158	3693.52
968.46	3667.76
968.761	3653.75
969.063	3618.94
969.365	3636.8
969.666	3580.53
969.968	3556.8
970.269	3528.33
970.571	3543.47
970.872	3561.09
971.174	3528.33
971.475	3486.52
971.776	3503.47
972.077	3465.73
972.378	3487.42
972.679	3405.84
972.98	3444.49
973.281	3414.88
973.582	3433.86
973.883	3358.16
974.183	3368.56
974.484	3349.35
974.785	3310.48
975.085	3331.27
975.386	3336.92
975.686	3308.44
975.986	3328.56
976.287	3296.24
976.587	3250.37
976.887	3254.21
977.187	3211.72
977.487	3235
977.787	3173.76
978.087	3185.96
978.387	3145.51
978.687	3174.89
978.987	3153.87
979.286	3109.58
979.586	3119.52
979.885	3069.58
980.185	3065.29
980.484	3033.65
980.784	3023.48
981.083	3035
981.382	3048.34
981.682	3015.8
981.981	2993.2
982.28	2967.89
982.579	2927.89
982.878	2956.36
983.177	2924.5
983.475	2936.7
983.774	2919.3
984.073	2911.62
984.372	2881.34
984.67	2880.43
984.969	2855.57
985.267	2869.36
985.566	2856.03
985.864	2828.68
986.162	2841.34
986.461	2798.4
986.759	2787.78
987.057	2795.46
987.355	2785.07
987.653	2748.46
987.951	2743.26
988.249	2725.86
988.547	2715.69
988.844	2711.85
989.142	2659.2
989.44	2666.43
989.737	2658.52
990.035	2685.41
990.332	2625.98
990.63	2646.99
990.927	2617.61
991.224	2611.06
991.521	2571.74
991.819	2548.46
992.116	2611.06
992.413	2568.35
992.71	2565.41
993.006	2532.65
993.303	2547.11
993.6	2508.24
993.897	2458.07
994.193	2496.26
994.49	2440.44
994.787	2444.29
995.083	2470.73
995.379	2403.84
995.676	2428.69
995.972	2393.21
996.268	2392.31
996.565	2402.71
996.861	2354.12
997.157	2367.68
997.453	2366.55
997.749	2354.8
998.044	2326.1
998.34	2305.08
998.636	2288.36
998.932	2318.87
999.227	2280
999.523	2235.7
999.818	2236.83
1000.114	2248.81
1000.409	2259.88
1000.704	2189.6
1001	2195.25
1001.295	2199.55
1001.59	2213.56
1001.885	2246.33
1002.18	2157.51
1002.475	2129.49
1002.77	2155.25
1003.065	2121.36
1003.359	2097.4
1003.654	2132.66
1003.949	2081.36
1004.243	2068.93
1004.538	2064.18
1004.832	2091.3
1005.127	2035.26
1005.421	1997.74
1005.715	2013.79
1006.009	1994.35
1006.304	1985.32
1006.598	1963.39
1006.892	1966.78
1007.186	1969.95
1007.48	1968.59
1007.773	1961.36
1008.067	1945.32
1008.361	1894.24
1008.655	1901.93
1008.948	1864.41
1009.242	1893.11
1009.535	1872.55
1009.829	1880.69
1010.122	1842.72
1010.415	1854.25
1010.708	1819.67
1011.001	1815.83
1011.295	1800.69
1011.588	1823.06
1011.881	1767.69
1012.173	1776.96
1012.466	1786.9
1012.759	1780.12
1013.052	1729.95
1013.344	1733.34
1013.637	1729.28
1013.93	1714.14
1014.222	1690.41
1014.514	1694.25
1014.807	1696.96
1015.099	1666.68
1015.391	1671.88
1015.683	1651.31
1015.976	1630.3
1016.268	1655.15
1016.56	1622.84
1016.851	1620.13
1017.143	1608.6
1017.435	1566.34
1017.727	1592.11
1018.018	1569.51
1018.31	1573.12
1018.602	1572.67
1018.893	1540.35
1019.185	1539.68
1019.476	1531.32
1019.767	1541.48
1020.058	1487.25
1020.35	1489.28
1020.641	1479.34
1020.932	1477.76
1021.223	1469.4
1021.514	1471.88
1021.804	1431.21
1022.095	1427.82
1022.386	1463.29
1022.677	1407.93
1022.967	1399.79
1023.258	1397.76
1023.548	1409.28
1023.839	1398.44
1024.129	1384.43
1024.419	1370.64
1024.709	1392.11
1025	1350.98
1025.29	1336.29
1025.58	1317.08
1025.87	1318.67
1026.16	1317.76
1026.449	1309.4
1026.739	1303.07
1027.029	1296.97
1027.319	1290.87
1027.608	1290.87
1027.898	1259.91
1028.187	1266.01
1028.477	1241.15
1028.766	1214.49
1029.055	1233.7
1029.344	1228.95
1029.634	1208.61
1029.923	1214.04
1030.212	1198.67
1030.501	1176.75
1030.79	1180.36
1031.078	1164.32
1031.367	1182.85
1031.656	1177.43
1031.945	1143.08
1032.233	1169.07
1032.522	1134.04
1032.81	1125.9
1033.099	1132.91
1033.387	1123.19
1033.675	1087.94
1033.963	1083.42
1034.251	1110.54
1034.54	1079.8
1034.828	1068.05
1035.116	1066.47
1035.403	1064.66
1035.691	1054.04
1035.979	1059.46
1036.267	1061.05
1036.554	1045
1036.842	1053.36
1037.129	1045.23
1037.417	1040.03
1037.704	1016.75
1037.992	999.13
1038.279	1014.72
1038.566	1000.03
1038.853	1000.03
1039.14	1000.03
