Data from hue_110_FLMS001491_00024.txt Node
Date: Tue Feb 07 17:01:05 GMT 2017
User: dcchb
Spectrometer: FLMS00149
Trigger mode: 0
Integration Time (sec): 2.000000E-2
Scans to average: 10
Electric dark correction enabled: true
Nonlinearity correction enabled: false
Boxcar width: 0
XAxis mode: Wavelengths
Number of Pixels in Spectrum: 2048
>>>>>Begin Spectral Data<<<<<
341.393	-17.9
341.776	-17.9
342.16	-17.9
342.543	-80.04
342.927	-69.19
343.31	-66.03
343.693	-75.52
344.077	-62.64
344.46	-56.99
344.843	-67.84
345.226	-38.46
345.61	-33.49
345.993	-13.6
346.376	7.42
346.759	-14.73
347.142	30.92
347.525	41.31
347.908	68.43
348.291	77.02
348.674	80.41
349.057	123.8
349.44	119.95
349.823	140.52
350.206	148.2
350.588	202.21
350.971	223.91
351.354	226.62
351.737	239.95
352.119	233.17
352.502	252.38
352.884	261.65
353.267	277.01
353.65	283.57
354.032	286.5
354.414	296
354.797	313.85
355.179	307.97
355.562	304.36
355.944	321.76
356.326	331.7
356.709	311.81
357.091	330.57
357.473	312.04
357.855	323.11
358.238	343
358.62	321.31
359.002	327.18
359.384	330.57
359.766	335.54
360.148	331.47
360.53	333.28
360.912	330.8
361.294	345.26
361.676	326.28
362.057	327.18
362.439	324.92
362.821	345.26
363.203	307.75
363.584	312.49
363.966	333.73
364.348	306.16
364.729	326.5
365.111	309.78
365.493	300.29
365.874	305.71
366.256	301.42
366.637	293.06
367.019	296.67
367.4	296.45
367.781	333.73
368.163	297.12
368.544	307.52
368.925	311.36
369.306	317.01
369.688	305.26
370.069	318.37
370.45	302.77
370.831	322.21
371.212	300.51
371.593	314.53
371.974	312.49
372.355	312.94
372.736	319.72
373.117	307.29
373.498	316.33
373.879	307.75
374.26	320.85
374.641	322.89
375.021	314.53
375.402	336.22
375.783	327.63
376.163	309.55
376.544	330.34
376.925	314.75
377.305	320.63
377.686	324.02
378.066	318.59
378.447	326.05
378.827	334.64
379.208	300.29
379.588	331.47
379.968	327.18
380.349	335.09
380.729	312.04
381.109	334.64
381.489	348.2
381.87	338.25
382.25	333.28
382.63	348.88
383.01	352.26
383.39	313.17
383.77	332.6
384.15	329.21
384.53	347.07
384.91	341.19
385.29	359.5
385.67	349.55
386.049	351.59
386.429	330.57
386.809	353.39
387.189	338.71
387.568	339.16
387.948	332.6
388.328	341.42
388.707	365.15
389.087	361.08
389.466	351.36
389.846	351.13
390.225	353.39
390.605	340.74
390.984	350.91
391.363	352.04
391.743	368.54
392.122	357.46
392.501	374.19
392.881	366.05
393.26	344.36
393.639	348.88
394.018	374.41
394.397	369.67
394.776	364.24
395.155	373.06
395.534	381.19
395.913	372.83
396.292	387.29
396.671	366.5
397.05	356.78
397.429	398.14
397.808	384.58
398.186	373.28
398.565	380.96
398.944	391.13
399.323	380.74
399.701	388.65
400.08	405.14
400.458	399.27
400.837	376.44
401.215	385.26
401.594	405.82
401.972	397.69
402.351	397.46
402.729	399.5
403.107	396.33
403.486	380.06
403.864	409.21
404.242	406.73
404.62	428.19
404.999	399.72
405.377	417.8
405.755	413.05
406.133	393.62
406.511	404.24
406.889	413.51
407.267	394.3
407.645	420.96
408.023	427.97
408.401	431.13
408.779	436.56
409.156	431.58
409.534	426.61
409.912	430.91
410.29	422.55
410.667	451.47
411.045	432.49
411.422	449.21
411.8	442.21
412.178	443.56
412.555	444.69
412.933	445.37
413.31	469.1
413.687	472.94
414.065	473.39
414.442	471.58
414.819	445.14
415.197	484.92
415.574	482.43
415.951	475.43
416.328	475.43
416.705	490.11
417.082	476.1
417.46	477.69
417.837	513.84
418.214	491.92
418.591	483.11
418.967	486.72
419.344	505.93
419.721	497.57
420.098	525.37
420.475	503.67
420.852	526.5
421.228	538.25
421.605	527.63
421.982	529.44
422.358	527.85
422.735	539.38
423.111	522.2
423.488	523.11
423.864	541.41
424.241	535.54
424.617	561.75
424.994	543.22
425.37	552.03
425.746	572.6
426.123	560.17
426.499	553.16
426.875	555.88
427.251	584.8
427.627	575.76
428.003	559.94
428.379	571.47
428.756	581.64
429.132	605.14
429.507	607.63
429.883	617.34
430.259	583.22
430.635	602.43
431.011	645.82
431.387	610.11
431.763	613.5
432.138	599.49
432.514	624.8
432.89	623.9
433.265	641.3
433.641	640.62
434.016	645.36
434.392	665.93
434.767	665.48
435.143	668.87
435.518	684.91
435.894	666.61
436.269	715.42
436.644	699.83
437.02	693.72
437.395	698.24
437.77	702.76
438.145	710
438.52	716.55
438.895	728.75
439.271	710.45
439.646	750.45
440.021	710.22
440.395	731.01
440.77	736.44
441.145	753.38
441.52	751.35
441.895	777.79
442.27	763.55
442.645	788.41
443.019	750.67
443.394	760.16
443.769	806.26
444.143	769.43
444.518	766.94
444.892	792.71
445.267	795.87
445.641	802.2
446.016	829.99
446.39	808.07
446.764	828.64
447.139	830.9
447.513	859.6
447.887	824.34
448.262	837
448.636	844
449.01	846.94
449.384	853.95
449.758	860.5
450.132	867.05
450.506	867.05
450.88	876.32
451.254	884.45
451.628	902.76
452.002	886.04
452.376	876.54
452.75	902.08
453.123	912.02
453.497	938.92
453.871	934.62
454.244	975.53
454.618	961.29
454.992	959.25
455.365	942.31
455.739	996.54
456.112	1011.68
456.486	1012.59
456.859	1039.7
457.232	1046.71
457.606	1035.18
457.979	1055.98
458.352	1060.04
458.725	1089.19
459.099	1081.96
459.472	1089.87
459.845	1106.37
460.218	1111.11
460.591	1151.34
460.964	1119.25
461.337	1172.13
461.71	1171
462.083	1209.87
462.456	1206.48
462.829	1205.58
463.201	1240.83
463.574	1256.65
463.947	1276.76
464.32	1281.28
464.692	1290.55
465.065	1312.24
465.438	1326.7
465.81	1326.48
466.183	1347.27
466.555	1380.94
466.928	1406.25
467.3	1432.46
467.672	1424.1
468.045	1486.92
468.417	1486.25
468.789	1511.33
469.161	1524.21
469.534	1573.7
469.906	1605.57
470.278	1609.63
470.65	1646.92
471.022	1671.1
471.394	1732.12
471.766	1727.82
472.138	1740.7
472.51	1820.25
472.882	1843.52
473.253	1864.54
473.625	1923.3
473.997	1963.52
474.369	1991.54
474.74	2037.42
475.112	2083.29
475.484	2110.86
475.855	2185.44
476.227	2249.62
476.598	2308.15
476.97	2387.24
477.341	2408.71
477.713	2475.6
478.084	2542.94
478.455	2613.22
478.827	2676.95
479.198	2780
479.569	2779.09
479.94	2944.96
480.311	2958.98
480.682	3055.24
481.053	3147.45
481.424	3271.74
481.795	3358.51
482.166	3397.16
482.537	3485.52
482.908	3637.6
483.279	3715.11
483.65	3815.45
484.021	3987.42
484.391	4050.02
484.762	4121.66
485.133	4240.52
485.503	4307.19
485.874	4493.17
486.244	4590.8
486.615	4713.28
486.985	4825.37
487.356	4982.65
487.726	5103.55
488.097	5202.98
488.467	5279.82
488.837	5581.28
489.207	5622.41
489.578	5723.2
489.948	5899.46
490.318	6053.81
490.688	6131.77
491.058	6289.28
491.428	6498.54
491.798	6549.39
492.168	6750.97
492.538	6839.1
492.908	6978.98
493.278	7198.41
493.648	7266.66
494.017	7441.57
494.387	7582.13
494.757	7661.45
495.126	7824.84
495.496	7910.71
495.866	8047.88
496.235	8145.96
496.605	8313.19
496.974	8462.56
497.344	8607.64
497.713	8674.98
498.082	8777.58
498.452	8997.46
498.821	9018.48
499.19	9114.07
499.559	9305.48
499.928	9331.69
500.298	9523.55
500.667	9654.62
501.036	9666.37
501.405	9739.81
501.774	9862.3
502.143	9975.97
502.512	10096.87
502.88	10200.59
503.249	10269.07
503.618	10370.31
503.987	10500.47
504.356	10529.17
504.724	10652.56
505.093	10746.57
505.462	10728.49
505.83	10869.5
506.199	10929.39
506.567	11084.64
506.936	11121.47
507.304	11280.34
507.672	11284.86
508.041	11370.51
508.409	11508.81
508.777	11589.48
509.145	11592.2
509.514	11619.31
509.882	11719.65
510.25	11756.48
510.618	11777.28
510.986	11931.62
511.354	11974.56
511.722	12040.77
512.09	12115.12
512.458	12129.58
512.826	12191.05
513.193	12361.89
513.561	12363.93
513.929	12416.35
514.297	12571.15
514.664	12523.92
515.032	12591.94
515.4	12621.32
515.767	12716.46
516.135	12678.49
516.502	12668.78
516.869	12859.28
517.237	12867.19
517.604	12845.5
517.972	12865.61
518.339	12876.68
518.706	12977.92
519.073	13026.06
519.44	13076.45
519.808	13091.14
520.175	13019.73
520.542	13197.35
520.909	13277.57
521.276	13216.33
521.643	13329.1
522.009	13400.06
522.376	13342.88
522.743	13395.76
523.11	13510.79
523.477	13584.23
523.843	13559.83
524.21	13735.87
524.577	13688.64
524.943	13694.06
525.31	13638.7
525.676	13751.46
526.043	13789.43
526.409	13828.75
526.776	13934.51
527.142	13888.41
527.508	13899.71
527.874	13915.75
528.241	13992.36
528.607	14007.5
528.973	14017.44
529.339	13937.22
529.705	13958.23
530.071	14091.79
530.437	14060.15
530.803	14096.54
531.169	14143.31
531.535	14048.4
531.901	14015.86
532.267	14014.5
532.632	14136.54
532.998	14069.64
533.364	14070.1
533.73	14048.85
534.095	14058.8
534.461	14097.44
534.826	14080.94
535.192	14078.68
535.557	14099.93
535.923	14030.55
536.288	13967.95
536.653	14046.37
537.019	13835.98
537.384	13829.65
537.749	13884.79
538.114	13836.2
538.479	13824.68
538.845	13823.77
539.21	13751.46
539.575	13782.65
539.94	13817.22
540.305	13785.81
540.67	13680.05
541.034	13716.21
541.399	13672.37
541.764	13649.32
542.129	13610
542.494	13595.76
542.858	13656.1
543.223	13524.57
543.587	13543.78
543.952	13445.25
544.316	13427.85
544.681	13375.65
545.045	13475.08
545.41	13459.94
545.774	13344.47
546.138	13340.4
546.503	13277.8
546.867	13167.07
547.231	13286.61
547.595	13255.65
547.959	13193.96
548.324	13187.41
548.688	13138.14
549.052	13076.45
549.416	13134.98
549.779	13040.97
550.143	13023.8
550.507	13059.73
550.871	12974.53
551.235	12930.69
551.599	12940.18
551.962	13002.33
552.326	12884.14
552.689	12883.23
553.053	12802.78
553.417	12867.87
553.78	12900.41
554.143	12795.1
554.507	12850.24
554.87	12732.96
555.234	12855.66
555.597	12735.44
555.96	12721.66
556.323	12786.74
556.686	12693.41
557.05	12765.72
557.413	12686.18
557.776	12668.1
558.139	12746.06
558.502	12713.07
558.865	12659.96
559.228	12730.92
559.59	12670.13
559.953	12664.71
560.316	12771.15
560.679	12736.8
561.041	12730.24
561.404	12736.35
561.767	12735.44
562.129	12665.39
562.492	12734.54
562.854	12669.23
563.217	12660.87
563.579	12693.86
563.941	12793.29
564.304	12723.92
564.666	12851.6
565.028	12744.26
565.39	12785.84
565.753	12793.29
566.115	12838.72
566.477	12848.66
566.839	12937.47
567.201	12892.95
567.563	12895.89
567.925	12920.07
568.287	12845.27
568.648	12869
569.01	12932.95
569.372	12961.88
569.734	12972.27
570.095	13039.84
570.457	13001.2
570.819	12923.69
571.18	13078.48
571.542	13040.52
571.903	12993.74
572.265	12996.45
572.626	12960.97
572.987	13093.62
573.349	13073.96
573.71	13071.7
574.071	13109.22
574.432	13129.56
574.794	13162.1
575.155	13141.31
575.516	13104.47
575.877	13148.31
576.238	13049.33
576.599	13193.06
576.96	13208.88
577.32	13112.83
577.681	13206.16
578.042	13221.53
578.403	13140.4
578.763	13117.58
579.124	13116.22
579.485	13219.5
579.845	13254.3
580.206	13236.9
580.566	13208.2
580.927	13148.09
581.287	13241.42
581.648	13132.72
582.008	13268.99
582.368	13087.07
582.728	13174.3
583.089	13146.73
583.449	13117.58
583.809	13184.47
584.169	13188.54
584.529	13106.96
584.889	13168.42
585.249	13034.87
585.609	12995.32
585.969	13170.23
586.329	13003.91
586.688	13069.9
587.048	13007.98
587.408	13005.27
587.768	13010.46
588.127	13016.11
588.487	13108.77
588.846	13116.9
589.206	12971.82
589.565	13064.02
589.925	13110.8
590.284	13035.77
590.643	13036
591.003	12988.77
591.362	13106.73
591.721	13005.49
592.08	12953.06
592.44	13039.84
592.799	13078.26
593.158	12980.86
593.517	12978.15
593.876	12962.78
594.235	12960.29
594.593	12997.58
594.952	12885.04
595.311	12941.99
595.67	12908.32
596.029	12984.47
596.387	12989.45
596.746	13022.67
597.104	12869.22
597.463	12871.48
597.822	12915.55
598.18	12935.44
598.538	12901.31
598.897	12911.26
599.255	12839.85
599.613	12991.93
599.972	12943.35
600.33	12935.21
600.688	12919.39
601.046	12904.25
601.404	12970.24
601.762	13016.34
602.12	12984.25
602.478	12992.16
602.836	12966.4
603.194	12852.28
603.552	12831.48
603.91	12880.97
604.268	12880.97
604.625	12898.15
604.983	12854.76
605.341	12950.13
605.698	12935.21
606.056	12950.35
606.413	12920.75
606.771	12953.97
607.128	13028.09
607.485	12934.08
607.843	12916.68
608.2	12967.75
608.557	13034.42
608.914	13013.17
609.272	12986.51
609.629	13115.32
609.986	13053.17
610.343	12987.86
610.7	13063.34
611.057	13065.38
611.414	13080.97
611.771	13003.91
612.127	13084.59
612.484	13146.5
612.841	13152.61
613.198	13101.08
613.554	13046.39
613.911	13175.43
614.267	13146.28
614.624	13113.96
614.98	13060.86
615.337	13167.75
615.693	13149.67
616.05	13180.4
616.406	13215.88
616.762	13185.83
617.118	13110.8
617.475	13174.75
617.831	13222.43
618.187	13200.06
618.543	13332.04
618.899	13370
619.255	13290.91
619.611	13287.07
619.967	13283.45
620.323	13374.52
620.678	13320.74
621.034	13254.98
621.39	13275.31
621.746	13259.5
622.101	13370.45
622.457	13225.6
622.812	13295.65
623.168	13342.66
623.523	13298.14
623.879	13451.58
624.234	13278.48
624.589	13264.24
624.945	13346.05
625.3	13419.72
625.655	13383.56
626.01	13340.85
626.365	13409.32
626.72	13320.51
627.075	13241.19
627.43	13265.37
627.785	13305.6
628.14	13332.04
628.495	13337.23
628.85	13305.82
629.205	13251.36
629.559	13315.99
629.914	13213.85
630.269	13295.43
630.623	13207.29
630.978	13163.68
631.332	13301.98
631.687	13274.18
632.041	13130.91
632.396	13236.67
632.75	13174.53
633.104	13174.98
633.459	13137.24
633.813	13114.87
634.167	13127.75
634.521	13125.71
634.875	13122.55
635.229	13092.27
635.583	13063.57
635.937	13054.08
636.291	13010.24
636.645	13063.79
636.999	12981.09
637.352	13047.3
637.706	12919.17
638.06	13031.25
638.413	12962.55
638.767	12913.97
639.121	12845.95
639.474	12844.37
639.828	12818.38
640.181	12838.72
640.534	12836
640.888	12789.9
641.241	12781.54
641.594	12775.21
641.947	12859.05
642.301	12750.58
642.654	12785.61
643.007	12824.71
643.36	12842.33
643.713	12741.09
644.066	12847.3
644.419	12700.41
644.771	12675.56
645.124	12605.73
645.477	12552.85
645.83	12414.55
646.182	12388.56
646.535	12359.18
646.888	12400.54
647.24	12348.79
647.593	12391.72
647.945	12366.19
648.298	12295.45
648.65	12313.31
649.002	12209.58
649.355	12349.69
649.707	12357.15
650.059	12382.23
650.411	12497.26
650.763	12486.86
651.115	12603.92
651.467	12600.08
651.819	12645.5
652.171	12593.07
652.523	12566.41
652.875	12523.24
653.227	12548.55
653.578	12674.65
653.93	12605.95
654.282	12563.02
654.633	12583.58
654.985	12513.53
655.337	12536.58
655.688	12641.43
656.039	12700.19
656.391	12569.34
656.742	12639.4
657.094	12605.28
657.445	12628.78
657.796	12624.26
658.147	12624.03
658.498	12664.94
658.849	12671.49
659.2	12596.91
659.551	12614.32
659.902	12636.01
660.253	12675.1
660.604	12635.33
660.955	12654.31
661.306	12677.36
661.656	12659.96
662.007	12635.56
662.358	12702.67
662.708	12666.07
663.059	12696.8
663.409	12631.49
663.76	12758.04
664.11	12736.57
664.461	12721.21
664.811	12659.96
665.161	12646.63
665.511	12632.62
665.862	12646.18
666.212	12790.13
666.562	12667.87
666.912	12724.14
667.262	12707.42
667.612	12743.35
667.962	12679.4
668.312	12661.09
668.662	12677.36
669.011	12631.04
669.361	12639.85
669.711	12638.04
670.06	12677.14
670.41	12637.59
670.76	12627.65
671.109	12718.04
671.459	12666.07
671.808	12569.12
672.157	12631.26
672.507	12606.63
672.856	12516.69
673.205	12593.07
673.554	12655.22
673.904	12557.14
674.253	12666.74
674.602	12623.58
674.951	12390.14
675.3	12358.05
675.649	12532.51
675.998	12489.35
676.346	12471.95
676.695	12558.27
677.044	12362.57
677.393	12455.22
677.741	12547.88
678.09	12444.83
678.438	12388.78
678.787	12387.65
679.135	12400.99
679.484	12338.84
679.832	12375.68
680.181	12304.49
680.529	12254.55
680.877	12269.24
681.225	12351.05
681.573	12392.63
681.922	12242.8
682.27	12190.37
682.618	12153.54
682.966	12233.31
683.314	12179.3
683.661	12160.77
684.009	12043.03
684.357	12015.46
684.705	12002.13
685.053	12079.64
685.4	12024.95
685.748	11943.15
686.095	11875.8
686.443	11938.4
686.79	11921.45
687.138	11896.37
687.485	11902.7
687.832	11862.92
688.18	11890.04
688.527	11801.91
688.874	11705.86
689.221	11769.82
689.568	11704.28
689.915	11629.71
690.262	11639.43
690.609	11531.41
690.956	11547.9
691.303	11597.39
691.65	11441.92
691.997	11485.08
692.344	11383.61
692.69	11408.92
693.037	11337.96
693.383	11251.87
693.73	11284.63
694.077	11155.6
694.423	11202.37
694.769	11174.13
695.116	11151.75
695.462	11102.26
695.808	11034.24
696.155	11114.24
696.501	10954.92
696.847	11013.45
697.193	10885.55
697.539	10887.58
697.885	10753.8
698.231	10722.16
698.577	10771.65
698.923	10749.05
699.269	10709.28
699.614	10632.45
699.96	10644.65
700.306	10596.29
700.651	10562.62
700.997	10511.09
701.342	10461.15
701.688	10442.85
702.033	10353.81
702.379	10326.24
702.724	10339.8
703.069	10252.12
703.415	10197.43
703.76	10203.53
704.105	10206.24
704.45	10171.44
704.795	10079.24
705.14	10069.3
705.485	10118.79
705.83	10032.91
706.175	9988.17
706.52	10014.38
706.865	9918.57
707.209	9948.17
707.554	9860.49
707.899	9981.16
708.243	9906.82
708.588	9841.73
708.932	9797.67
709.277	9781.85
709.621	9750.21
709.966	9666.37
710.31	9682.87
710.654	9638.12
710.998	9580.72
711.342	9579.59
711.687	9543.44
712.031	9516.77
712.375	9511.12
712.719	9549.09
713.063	9557.9
713.407	9489.2
713.75	9442.65
714.094	9462.76
714.438	9394.06
714.782	9436.77
715.125	9369.43
715.469	9331.01
715.812	9331.46
716.156	9322.42
716.499	9302.76
716.843	9307.96
717.186	9228.42
717.53	9282.2
717.873	9321.75
718.216	9281.07
718.559	9182.32
718.902	9150.23
719.246	9207.17
719.589	9190.45
719.932	9117.23
720.275	9104.58
720.617	9116.55
720.96	9106.84
721.303	9074.3
721.646	9152.03
721.989	8993.85
722.331	9144.58
722.674	9067.06
723.016	9093.28
723.359	9078.59
723.701	8989.55
724.044	8989.33
724.386	8973.28
724.729	9084.46
725.071	8912.49
725.413	8994.75
725.755	8960.85
726.097	8911.81
726.439	8997.01
726.782	8962.66
727.124	8988.65
727.465	8922.66
727.807	8920.85
728.149	8920.63
728.491	8929.44
728.833	8903.68
729.175	8888.99
729.516	8905.03
729.858	8851.02
730.199	8882.89
730.541	8878.37
730.882	8830.01
731.224	8879.05
731.565	8861.19
731.906	8879.72
732.248	8818.71
732.589	8803.79
732.93	8831.59
733.271	8756.11
733.612	8817.13
733.953	8925.37
734.294	8823.68
734.635	8845.83
734.976	8833.85
735.317	8866.39
735.658	8837.92
735.999	8859.39
736.339	8860.74
736.68	8891.02
737.021	8847.18
737.361	8754.3
737.702	8830.23
738.042	8871.14
738.383	8873.62
738.723	8813.51
739.063	8934.86
739.404	8957.46
739.744	8847.41
740.084	8953.85
740.424	8923.79
740.764	8901.64
741.104	8970.34
741.444	8910.68
741.784	8916.11
742.124	9053.5
742.464	9051.25
742.804	9000.17
743.143	9062.09
743.483	9052.15
743.823	9047.18
744.162	9166.95
744.502	9190.22
744.841	9177.8
745.181	9231.13
745.52	9285.14
745.86	9241.75
746.199	9247.62
746.538	9395.87
746.877	9370.78
747.216	9404.46
747.556	9552.25
747.895	9537.56
748.234	9631.34
748.573	9623.89
748.911	9718.57
749.25	9810.32
749.589	9749.76
749.928	9886.7
750.267	9933.71
750.605	10003.31
750.944	10128.96
751.283	10144.78
751.621	10314.26
751.96	10311.78
752.298	10399.68
752.636	10542.51
752.975	10572.79
753.313	10660.24
753.651	10781.82
753.989	10893.23
754.327	10996.5
754.666	11085.77
755.004	11191.98
755.342	11412.54
755.679	11430.62
756.017	11555.59
756.355	11764.39
756.693	11891.17
757.031	12012.07
757.368	12075.12
757.706	12263.59
758.044	12438.95
758.381	12651.38
758.719	12673.07
759.056	12860.64
759.394	13047.52
759.731	13213.62
760.068	13302.21
760.405	13480.51
760.743	13568.64
761.08	13823.55
761.417	13925.92
761.754	14196.19
762.091	14305.8
762.428	14485.9
762.765	14628.05
763.102	14800.02
763.438	14794.37
763.775	14952.56
764.112	15217.18
764.449	15432.32
764.785	15566.33
765.122	15619.43
765.458	15768.36
765.795	15898.3
766.131	16094.45
766.467	16179.87
766.804	16238.4
767.14	16412.18
767.476	16546.87
767.812	16746.18
768.148	16890.13
768.485	16944.37
768.821	17045.16
769.157	17210.13
769.492	17274.98
769.828	17367.18
770.164	17380.52
770.5	17498.93
770.836	17677.01
771.171	17646.5
771.507	17801.07
771.842	17827.06
772.178	17849.88
772.513	18075.87
772.849	18073.83
773.184	17997
773.519	18225.92
773.855	18241.51
774.19	18234.73
774.525	18321.28
774.86	18418
775.195	18521.73
775.53	18501.39
775.865	18525.35
776.2	18413.71
776.535	18436.99
776.87	18527.15
777.205	18536.19
777.539	18599.69
777.874	18676.3
778.209	18594.04
778.543	18665.91
778.878	18604.44
779.212	18750.65
779.547	18680.14
779.881	18747.94
780.215	18582.97
780.55	18782.06
780.884	18709.07
781.218	18702.74
781.552	18785.45
781.886	18701.84
782.22	18682.63
782.554	18700.03
782.888	18646.47
783.222	18533.48
783.556	18508.85
783.889	18642.86
784.223	18472.69
784.557	18476.31
784.89	18591.11
785.224	18492.58
785.557	18318.57
785.891	18392.92
786.224	18389.53
786.558	18430.43
786.891	18321.06
787.224	18360.83
787.557	18282.41
787.891	18198.58
788.224	18289.19
788.557	18314.96
788.89	18278.12
789.223	18375.07
789.556	18202.64
789.888	18097.56
790.221	18002.87
790.554	18018.92
790.887	18056.88
791.219	17942.99
791.552	17987.51
791.884	17897.34
792.217	17868.19
792.549	17846.72
792.882	17840.84
793.214	17701.41
793.546	17773.95
793.879	17698.7
794.211	17594.07
794.543	17687.4
794.875	17627.74
795.207	17660.96
795.539	17500.29
795.871	17537.58
796.203	17448.99
796.535	17363.57
796.867	17334.42
797.198	17334.42
797.53	17301.88
797.862	17141.43
798.193	17192.27
798.525	17197.92
798.856	17103.01
799.188	17015.1
799.519	16896.91
799.85	16874.32
800.182	16981.21
800.513	16884.03
800.844	16769.23
801.175	16901.89
801.506	16894.65
801.837	16764.04
802.168	16735.34
802.499	16592.97
802.83	16472.74
803.161	16595.91
803.491	16667.54
803.822	16594.1
804.153	16382.58
804.483	16403.37
804.814	16273.2
805.145	16303.26
805.475	16289.47
805.805	16235.01
806.136	16231.4
806.466	16169.93
806.796	16227.78
807.126	16103.04
807.457	16066.88
807.787	16112.3
808.117	16011.06
808.447	15951.85
808.777	16054
809.107	15853.33
809.436	15851.52
809.766	15817.62
810.096	15767.45
810.426	15674.35
810.755	15725.65
811.085	15718.19
811.414	15756.83
811.744	15597.97
812.073	15530.85
812.403	15589.83
812.732	15485.65
813.061	15408.14
813.39	15296.28
813.719	15388.71
814.049	15468.93
814.378	15407.01
814.707	15199.56
815.036	15221.93
815.365	15229.16
815.693	15062.84
816.022	15086.57
816.351	15084.76
816.68	15051.77
817.008	15113.68
817.337	14956.85
817.665	14817.65
817.994	14979.22
818.322	14917.08
818.651	14908.27
818.979	14807.93
819.307	14916.4
819.636	14811.09
819.964	14774.48
820.292	14909.62
820.62	14849.51
820.948	14788.95
821.276	14855.39
821.604	14729.97
821.932	14863.97
822.259	14784.88
822.587	14716.63
822.915	14734.71
823.243	14770.87
823.57	14778.1
823.898	14678.67
824.225	14597.09
824.553	14720.93
824.88	14771.09
825.207	14781.26
825.535	14739.46
825.862	14769.51
826.189	14771.55
826.516	14760.93
826.843	14715.95
827.17	14727.25
827.497	14806.8
827.824	14691.1
828.151	14757.08
828.478	14819.45
828.805	14748.72
829.131	14733.13
829.458	14682.96
829.785	14633.92
830.111	14725.45
830.438	14668.5
830.764	14753.02
831.09	14781.94
831.417	14637.09
831.743	14779
832.069	14666.46
832.395	14605.9
832.722	14672.11
833.048	14675.5
833.374	14578.33
833.7	14595.96
834.026	14600.93
834.351	14608.84
834.677	14556.64
835.003	14647.71
835.329	14592.57
835.654	14551.89
835.98	14453.14
836.306	14556.86
836.631	14467.37
836.956	14514.83
837.282	14452.91
837.607	14463.76
837.932	14364.55
838.258	14435.28
838.583	14343.31
838.908	14318
839.233	14386.7
839.558	14396.87
839.883	14272.8
840.208	14273.48
840.533	14270.77
840.858	14162.98
841.182	14222.86
841.507	14181.05
841.832	14047.95
842.156	14133.15
842.481	14104.9
842.805	14078.01
843.13	14042.3
843.454	13975.64
843.778	13905.58
844.103	13843.44
844.427	13972.92
844.751	13900.16
845.075	13843.89
845.399	13797.11
845.723	13677.11
846.047	13735.64
846.371	13655.87
846.695	13634.63
847.019	13538.13
847.343	13400.51
847.666	13394.41
847.99	13316.22
848.313	13317.12
848.637	13332.26
848.96	13180.85
849.284	13218.37
849.607	13094.08
849.931	13054.3
850.254	13010.24
850.577	12971.37
850.9	12889.79
851.223	12858.38
851.546	12836.23
851.869	12721.88
852.192	12801.88
852.515	12598.04
852.838	12586.52
853.161	12634.43
853.483	12538.16
853.806	12447.99
854.129	12532.96
854.451	12380.65
854.774	12384.04
855.096	12362.57
855.419	12269.69
855.741	12170.71
856.063	12173.87
856.385	12088
856.708	12118.96
857.03	12066.53
857.352	12015.23
857.674	12048.23
857.996	12010.94
858.318	11883.49
858.64	11934.11
858.961	11814.11
859.283	11902.92
859.605	11739.76
859.926	11730.95
860.248	11746.77
860.57	11672.19
860.891	11699.76
861.212	11646.88
861.534	11603.49
861.855	11589.03
862.176	11605.98
862.498	11634.23
862.819	11528.24
863.14	11550.16
863.461	11553.1
863.782	11396.49
864.103	11422.71
864.424	11362.37
864.745	11429.94
865.065	11396.72
865.386	11360.34
865.707	11251.87
866.027	11349.49
866.348	11265.2
866.668	11280.56
866.989	11252.54
867.309	11175.48
867.63	11270.4
867.95	11193.34
868.27	11175.26
868.59	11092.55
868.91	11110.17
869.23	11087.35
869.55	11076.28
869.87	11088.71
870.19	11042.15
870.51	11034.47
870.83	11064.3
871.15	10986.34
871.469	10985.43
871.789	10999.44
872.109	10935.94
872.428	10921.93
872.748	10896.85
873.067	10893.46
873.386	10827.47
873.706	10781.82
874.025	10782.72
874.344	10792.22
874.663	10686.46
874.982	10777.98
875.301	10830.18
875.62	10711.31
875.939	10710.64
876.258	10775.95
876.577	10699.34
876.896	10730.3
877.214	10733.23
877.533	10671.99
877.852	10683.07
878.17	10676.97
878.489	10662.5
878.807	10637.64
879.125	10565.78
879.444	10587.48
879.762	10522.17
880.08	10532.11
880.398	10448.04
880.716	10534.6
881.034	10445.33
881.352	10459.8
881.67	10442.17
881.988	10357.88
882.306	10333.7
882.624	10386.58
882.941	10320.59
883.259	10269.52
883.577	10179.8
883.894	10284.66
884.212	10211.44
884.529	10164.44
884.846	10196.53
885.164	10248.95
885.481	10178.67
885.798	10151.33
886.115	10104.55
886.432	10048.96
886.75	10039.24
887.067	9985.91
887.383	9981.39
887.7	10009.86
888.017	9889.42
888.334	9965.35
888.651	9881.05
888.967	9887.38
889.284	9872.69
889.6	9844.67
889.917	9725.13
890.233	9757.44
890.55	9726.03
890.866	9720.61
891.182	9585.47
891.498	9613.26
891.815	9628.18
892.131	9533.72
892.447	9531.23
892.763	9460.05
893.079	9496.88
893.395	9466.83
893.71	9443.78
894.026	9413.27
894.342	9378.47
894.657	9337.57
894.973	9274.97
895.289	9308.87
895.604	9283.33
895.92	9246.04
896.235	9147.74
896.55	9149.32
896.865	9093.96
897.181	9051.02
897.496	9057.57
897.811	9039.72
898.126	9017.35
898.441	9002.88
898.756	8922.89
899.071	8907.07
899.386	8931.02
899.7	8820.52
900.015	8830.23
900.33	8707.75
900.644	8715.66
900.959	8722.44
901.273	8733.97
901.588	8655.55
901.902	8646.51
902.216	8546.17
902.531	8531.26
902.845	8568.77
903.159	8541.88
903.473	8501.2
903.787	8379.17
904.101	8380.75
904.415	8407.42
904.729	8341.43
905.042	8317.71
905.356	8235.67
905.67	8230.48
905.984	8230.7
906.297	8197.71
906.611	8106.19
906.924	8125.39
907.237	8105.06
907.551	8086.07
907.864	8060.54
908.177	7980.31
908.491	8008.33
908.804	7920.2
909.117	7796.59
909.43	7868.23
909.743	7849.69
910.056	7829.13
910.368	7771.73
910.681	7760.43
910.994	7750.49
911.307	7651.96
911.619	7587.78
911.932	7656.48
912.244	7588.91
912.557	7582.81
912.869	7441.34
913.181	7462.81
913.494	7475.02
913.806	7376.49
914.118	7417.62
914.43	7324.74
914.742	7343.27
915.054	7241.8
915.366	7254.46
915.678	7218.52
915.99	7211.29
916.302	7167.68
916.613	7139.2
916.925	7071.86
917.236	7140.33
917.548	7072.99
917.859	7023.05
918.171	6939.44
918.482	6945.76
918.794	6929.04
919.105	6960
919.416	6883.84
919.727	6866.22
920.038	6842.26
920.349	6771.53
920.66	6830.29
920.971	6787.12
921.282	6745.77
921.593	6689.27
921.903	6680.46
922.214	6608.37
922.525	6637.52
922.835	6565.43
923.146	6552.1
923.456	6533.35
923.767	6496.74
924.077	6491.76
924.387	6455.61
924.697	6401.15
925.008	6366.12
925.318	6323.63
925.628	6331.54
925.938	6383.74
926.248	6245.67
926.558	6235.73
926.867	6190.76
927.177	6211.55
927.487	6192.56
927.796	6107.82
928.106	6124.09
928.416	6080.25
928.725	6105.56
929.034	6034.6
929.344	6053.36
929.653	6000.93
929.962	5971.1
930.271	5915.06
930.581	5953.7
930.89	5910.08
931.199	5861.95
931.508	5842.29
931.817	5814.95
932.125	5811.33
932.434	5833.93
932.743	5763.87
933.051	5754.61
933.36	5706.93
933.669	5727.26
933.977	5686.81
934.286	5693.14
934.594	5665.57
934.902	5598.68
935.21	5552.13
935.519	5556.42
935.827	5573.14
936.135	5525.01
936.443	5461.73
936.751	5470.32
937.059	5445.69
937.367	5410.21
937.674	5389.19
937.982	5401.62
938.29	5373.6
938.597	5344.22
938.905	5268.97
939.213	5279.14
939.52	5293.83
939.827	5242.98
940.135	5231.91
940.442	5206.6
940.749	5130.67
941.056	5147.62
941.363	5129.99
941.67	5092.25
941.977	5084.12
942.284	5056.77
942.591	5044.57
942.898	4988.75
943.205	5045.02
943.511	4972.26
943.818	4996.21
944.125	4884.35
944.431	4893.16
944.738	4920.28
945.044	4853.16
945.35	4841.64
945.657	4857.91
945.963	4797.57
946.269	4806.84
946.575	4782.88
946.881	4730.45
947.187	4717.57
947.493	4725.94
947.799	4674.41
948.105	4633.73
948.41	4629.89
948.716	4638.71
949.022	4571.59
949.327	4611.14
949.633	4528.65
949.938	4566.17
950.244	4563
950.549	4483.23
950.854	4473.29
951.16	4435.1
951.465	4471.25
951.77	4433.29
952.075	4416.56
952.38	4426.96
952.685	4370.92
952.99	4358.26
953.294	4345.61
953.599	4315.1
953.904	4319.17
954.209	4277.36
954.513	4259.73
954.818	4252.73
955.122	4266.74
955.426	4223.58
955.731	4175.44
956.035	4182.67
956.339	4134.76
956.643	4129.11
956.948	4113.07
957.252	4102.22
957.556	4086.86
957.86	4052.28
958.163	4091.38
958.467	4012.28
958.771	4024.26
959.075	4007.99
959.378	3985.39
959.682	3976.8
959.985	3976.35
960.289	3955.79
960.592	3908.78
960.896	3914.88
961.199	3842.79
961.502	3831.27
961.805	3837.37
962.108	3806.86
962.411	3799.63
962.714	3793.76
963.017	3752.85
963.32	3766.41
963.623	3732.74
963.926	3714.21
964.228	3725.28
964.531	3692.29
964.833	3705.17
965.136	3683.48
965.438	3649.13
965.741	3599.19
966.043	3608.22
966.345	3574.55
966.648	3552.86
966.95	3566.19
967.252	3527.32
967.554	3527.1
967.856	3549.24
968.158	3511.05
968.46	3499.75
968.761	3489.81
969.063	3462.47
969.365	3487.1
969.666	3436.03
969.968	3378.17
970.269	3409.59
970.571	3405.29
970.872	3394.67
971.174	3373.65
971.475	3307.44
971.776	3334.33
972.077	3337.5
972.378	3297.27
972.679	3276.93
972.98	3259.98
973.281	3237.16
973.582	3228.8
973.883	3200.55
974.183	3231.96
974.484	3232.64
974.785	3173.66
975.085	3169.37
975.386	3188.35
975.686	3171.17
975.986	3132.08
976.287	3119.88
976.587	3105.64
976.887	3108.35
977.187	3109.03
977.487	3043.72
977.787	3045.53
978.087	3030.16
978.387	3041.46
978.687	3042.59
978.987	3006.21
979.286	2981.12
979.586	2961.01
979.885	2954.46
980.185	2942.03
980.484	2939.77
980.784	2875.59
981.083	2929.37
981.382	2872.42
981.682	2865.19
981.981	2864.06
982.28	2871.07
982.579	2829.49
982.878	2837.17
983.177	2812.99
983.475	2799.66
983.774	2763.27
984.073	2784.52
984.372	2734.35
984.67	2737.29
984.969	2740.22
985.267	2694.35
985.566	2726.67
985.864	2728.25
986.162	2690.73
986.461	2683.05
986.759	2646.44
987.057	2582.94
987.355	2637.85
987.653	2634.46
987.951	2595.6
988.249	2623.17
988.547	2589.04
988.844	2579.32
989.142	2559.44
989.44	2555.14
989.737	2540.68
990.035	2540.91
990.332	2497.29
990.63	2513.79
990.927	2484.19
991.224	2479.21
991.521	2496.62
991.819	2453
992.116	2454.36
992.413	2452.55
992.71	2416.17
993.006	2442.15
993.303	2409.39
993.6	2402.83
993.897	2366
994.193	2376.62
994.49	2351.08
994.787	2354.92
995.083	2330.97
995.379	2322.61
995.676	2319.9
995.972	2290.97
996.268	2304.3
996.565	2281.03
996.861	2296.85
997.157	2255.94
997.453	2259.56
997.749	2253.46
998.044	2248.94
998.34	2215.49
998.636	2202.39
998.932	2206.68
999.227	2162.39
999.523	2178.43
999.818	2159.67
1000.114	2163.74
1000.409	2147.02
1000.704	2133.01
1001	2109.51
1001.295	2077.87
1001.59	2076.74
1001.885	2114.25
1002.18	2059.79
1002.475	2054.37
1002.77	2041.26
1003.065	2049.62
1003.359	2021.15
1003.654	2030.19
1003.949	1973.47
1004.243	2009.85
1004.538	1944.09
1004.832	1971.21
1005.127	1968.72
1005.421	1939.12
1005.715	1959.91
1006.009	1913.58
1006.304	1928.95
1006.598	1905.9
1006.892	1912
1007.186	1856.63
1007.48	1879.68
1007.773	1832.68
1008.067	1837.88
1008.361	1844.65
1008.655	1829.06
1008.948	1822.51
1009.242	1811.66
1009.535	1770.53
1009.829	1809.4
1010.122	1789.06
1010.415	1750.65
1010.708	1757.2
1011.001	1756.97
1011.295	1729.63
1011.588	1720.59
1011.881	1688.95
1012.173	1686.69
1012.466	1697.54
1012.759	1673.36
1013.052	1682.85
1013.344	1649.41
1013.637	1669.52
1013.93	1650.54
1014.222	1626.81
1014.514	1618.22
1014.807	1599.69
1015.099	1606.24
1015.391	1599.92
1015.683	1589.97
1015.976	1601.5
1016.268	1587.71
1016.56	1555.62
1016.851	1559.24
1017.143	1535.06
1017.435	1554.27
1017.727	1537.77
1018.018	1507.71
1018.31	1505.68
1018.602	1501.84
1018.893	1501.84
1019.185	1451.9
1019.476	1451.44
1019.767	1426.59
1020.058	1446.93
1020.35	1426.59
1020.641	1427.26
1020.932	1424.33
1021.223	1399.92
1021.514	1420.26
1021.804	1389.53
1022.095	1363.76
1022.386	1423.42
1022.677	1361.73
1022.967	1373.03
1023.258	1357.89
1023.548	1360.15
1023.839	1320.15
1024.129	1323.09
1024.419	1313.6
1024.709	1280.15
1025	1318.57
1025.29	1277.66
1025.58	1276.31
1025.87	1260.26
1026.16	1258
1026.449	1249.19
1026.739	1218.46
1027.029	1253.03
1027.319	1230.66
1027.608	1239.25
1027.898	1230.43
1028.187	1198.12
1028.477	1194.95
1028.766	1205.35
1029.055	1184.79
1029.344	1165.8
1029.634	1140.27
1029.923	1162.19
1030.212	1176.42
1030.501	1136.65
1030.79	1115.86
1031.078	1139.59
1031.367	1133.94
1031.656	1137.33
1031.945	1122.41
1032.233	1122.19
1032.522	1095.3
1032.81	1092.36
1033.099	1062.3
1033.387	1080.16
1033.675	1068.4
1033.963	1044.9
1034.251	1052.13
1034.54	1015.98
1034.828	1038.12
1035.116	1026.15
1035.403	1032.92
1035.691	1013.94
1035.979	1009.65
1036.267	1004.23
1036.554	1008.97
1036.842	989.31
1037.129	1017.56
1037.417	973.27
1037.704	968.07
1037.992	945.7
1038.279	955.86
1038.566	961.74
1038.853	961.74
1039.14	961.74
