Data from hue_150_FLMS001491_00017.txt Node
Date: Tue Feb 07 16:53:42 GMT 2017
User: dcchb
Spectrometer: FLMS00149
Trigger mode: 0
Integration Time (sec): 2.000000E-2
Scans to average: 10
Electric dark correction enabled: true
Nonlinearity correction enabled: false
Boxcar width: 0
XAxis mode: Wavelengths
Number of Pixels in Spectrum: 2048
>>>>>Begin Spectral Data<<<<<
341.393	-3.52
341.776	-3.52
342.16	-3.52
342.543	-48.71
342.927	-80.35
343.31	-85.1
343.693	-64.76
344.077	-69.5
344.46	-61.37
344.843	-61.82
345.226	-34.25
345.61	-36.28
345.993	-17.53
346.376	-10.97
346.759	28.57
347.142	24.96
347.525	42.36
347.908	52.53
348.291	87.33
348.674	101.79
349.057	104.05
349.44	113.54
349.823	152.41
350.206	163.48
350.588	192.86
350.971	212.75
351.354	221.11
351.737	218.62
352.119	245.06
352.502	282.35
352.884	265.4
353.267	260.43
353.65	308.57
354.032	299.3
354.414	306.76
354.797	319.19
355.179	313.31
355.562	311.73
355.944	313.08
356.326	321.22
356.709	337.49
357.091	341.33
357.473	330.71
357.855	338.85
358.238	334.33
358.62	341.78
359.002	337.72
359.384	340.43
359.766	352.63
360.148	344.72
360.53	344.95
360.912	307.44
361.294	364.84
361.676	333.42
362.057	332.97
362.439	320.77
362.821	327.32
363.203	318.73
363.584	318.96
363.966	324.84
364.348	330.94
364.729	318.28
365.111	325.74
365.493	311.5
365.874	324.38
366.256	318.51
366.637	324.61
367.019	302.46
367.4	313.31
367.781	315.57
368.163	336.14
368.544	327.32
368.925	337.04
369.306	321.67
369.688	311.05
370.069	300.2
370.45	311.96
370.831	322.35
371.212	325.06
371.593	308.34
371.974	332.07
372.355	307.89
372.736	336.14
373.117	301.11
373.498	335.23
373.879	315.8
374.26	312.86
374.641	318.96
375.021	332.52
375.402	325.06
375.783	314.21
376.163	323.03
376.544	337.72
376.925	316.25
377.305	347.66
377.686	334.78
378.066	332.97
378.447	340.88
378.827	330.94
379.208	332.97
379.588	330.26
379.968	334.33
380.349	319.19
380.729	347.43
381.109	344.04
381.489	358.96
381.87	361.22
382.25	335.68
382.63	349.24
383.01	333.88
383.39	365.06
383.77	350.15
384.15	339.98
384.53	370.94
384.91	354.67
385.29	356.7
385.67	362.58
386.049	372.97
386.429	379.98
386.809	362.35
387.189	361.67
387.568	346.53
387.948	368.45
388.328	341.78
388.707	367.09
389.087	351.95
389.466	374.78
389.846	382.24
390.225	346.76
390.605	371.16
390.984	396.47
391.363	373.42
391.743	380.43
392.122	372.74
392.501	357.6
392.881	392.18
393.26	384.5
393.639	381.78
394.018	397.83
394.397	378.39
394.776	390.15
395.155	404.16
395.534	381.33
395.913	407.09
396.292	392.4
396.671	411.61
397.05	391.95
397.429	409.58
397.808	398.51
398.186	410.03
398.565	395.12
398.944	414.78
399.323	420.43
399.701	412.97
400.08	399.18
400.458	406.87
400.837	406.19
401.215	410.26
401.594	440.09
401.972	422.69
402.351	416.81
402.729	442.12
403.107	433.53
403.486	438.28
403.864	434.44
404.242	424.04
404.62	439.64
404.999	441.9
405.377	444.38
405.755	456.36
406.133	450.48
406.511	422.91
406.889	459.07
407.267	444.61
407.645	436.02
408.023	454.78
408.401	465.17
408.779	469.92
409.156	474.44
409.534	473.31
409.912	498.62
410.29	479.63
410.667	476.47
411.045	482.35
411.422	492.97
411.8	506.75
412.178	486.19
412.555	511.05
412.933	494.32
413.31	526.64
413.687	515.11
414.065	505.17
414.442	523.7
414.819	522.57
415.197	535.9
415.574	525.51
415.951	529.58
416.328	565.06
416.705	537.03
417.082	552.63
417.46	551.95
417.837	575.68
418.214	547.43
418.591	561.89
418.967	548.56
419.344	570.25
419.721	582.23
420.098	564.38
420.475	560.99
420.852	581.55
421.228	584.04
421.605	597.15
421.982	594.66
422.358	629.01
422.735	609.8
423.111	603.02
423.488	589.24
423.864	601.89
424.241	626.07
424.617	629.69
424.994	619.74
425.37	627.65
425.746	640.76
426.123	669.46
426.499	650.48
426.875	633.98
427.251	670.59
427.627	678.95
428.003	682.79
428.379	691.38
428.756	665.39
429.132	683.02
429.507	670.36
429.883	659.74
430.259	701.78
430.635	716.46
431.011	718.95
431.387	732.73
431.763	727.99
432.138	757.14
432.514	754.2
432.89	749.91
433.265	771.15
433.641	763.47
434.016	785.16
434.392	780.42
434.767	791.49
435.143	794.43
435.518	797.37
435.894	782.68
436.269	812.96
436.644	824.26
437.02	827.42
437.395	816.35
437.77	850.25
438.145	842.11
438.52	854.31
438.895	853.18
439.271	873.52
439.646	898.61
440.021	875.56
440.395	885.5
440.77	877.82
441.145	898.61
441.52	905.61
441.895	937.48
442.27	904.26
442.645	940.19
443.019	962.56
443.394	930.24
443.769	968.66
444.143	935.67
444.518	944.48
444.892	976.34
445.267	985.61
445.641	994.87
446.016	969.56
446.39	995.78
446.764	989.68
447.139	1006.63
447.513	1007.53
447.887	1018.6
448.262	1020.64
448.636	1020.19
449.01	1053.4
449.384	1063.8
449.758	1056.79
450.132	1071.03
450.506	1089.79
450.88	1069.9
451.254	1095.66
451.628	1081.2
452.002	1091.82
452.376	1125.94
452.75	1120.97
453.123	1127.98
453.497	1121.88
453.871	1147.64
454.244	1189.9
454.618	1196
454.992	1193.74
455.365	1214.3
455.739	1238.71
456.112	1247.3
456.486	1264.47
456.859	1273.51
457.232	1299.73
457.606	1310.35
457.979	1292.04
458.352	1353.96
458.725	1343.34
459.099	1355.32
459.472	1388.54
459.845	1412.27
460.218	1403
460.591	1426.28
460.964	1424.47
461.337	1457.01
461.71	1494.07
462.083	1498.14
462.456	1511.25
462.829	1537.01
463.201	1520.28
463.574	1556.89
463.947	1601.41
464.32	1591.92
464.692	1616.55
465.065	1665.82
465.438	1684.8
465.81	1698.13
466.183	1754.4
466.555	1759.37
466.928	1799.6
467.3	1786.04
467.672	1845.47
468.045	1866.26
468.417	1882.54
468.789	1889.31
469.161	1941.97
469.534	1969.31
469.906	2024.23
470.278	2044.56
470.65	2076.2
471.022	2107.39
471.394	2181.96
471.766	2199.59
472.138	2216.99
472.51	2288.85
472.882	2353.26
473.253	2394.16
473.625	2433.93
473.997	2464.67
474.369	2500.15
474.74	2543.99
475.112	2651.78
475.484	2660.59
475.855	2757.09
476.227	2800.03
476.598	2878.22
476.97	2895.16
477.341	3038.21
477.713	3076.4
478.084	3096.06
478.455	3221.03
478.827	3282.27
479.198	3386
479.569	3419.44
479.94	3554.58
480.311	3638.42
480.682	3735.59
481.053	3906.21
481.424	3918.41
481.795	3992.54
482.166	4120.67
482.537	4236.37
482.908	4338.52
483.279	4441.34
483.65	4559.3
484.021	4717.71
484.391	4793.87
484.762	4888.11
485.133	5032.73
485.503	5104.82
485.874	5279.06
486.244	5350.47
486.615	5495.55
486.985	5670.91
487.356	5787.07
487.726	5832.04
488.097	6035.19
488.467	6135.53
488.837	6309.99
489.207	6466.14
489.578	6591.56
489.948	6688.28
490.318	6885.79
490.688	6949.97
491.058	7212.56
491.428	7321.49
491.798	7447.59
492.168	7671.99
492.538	7794.02
492.908	7876.95
493.278	8009.15
493.648	8160.56
494.017	8313.78
494.387	8407.79
494.757	8536.82
495.126	8720.55
495.496	8772.07
495.866	8931.84
496.235	9092.06
496.605	9183.36
496.974	9301.1
497.344	9461.09
497.713	9544.93
498.082	9665.61
498.452	9856.11
498.821	9951.25
499.19	9984.24
499.559	10145.14
499.928	10212.03
500.298	10328.87
500.667	10462.65
501.036	10551.01
501.405	10623.77
501.774	10712.36
502.143	10854.95
502.512	10924.33
502.88	11015.4
503.249	11051.79
503.618	11172.91
503.987	11261.05
504.356	11349.18
504.724	11449.52
505.093	11421.49
505.462	11509.4
505.83	11722.5
506.199	11737.64
506.567	11948.49
506.936	11951.65
507.304	12121.59
507.672	12076.17
508.041	12157.29
508.409	12275.03
508.777	12375.37
509.145	12474.12
509.514	12437.29
509.882	12551.18
510.25	12581.46
510.618	12655.36
510.986	12693.1
511.354	12798.86
511.722	12917.5
512.09	12957.05
512.458	12978.97
512.826	13018.29
513.193	13120.43
513.561	13117.04
513.929	13246.53
514.297	13313.2
514.664	13284.27
515.032	13380.76
515.4	13469.12
515.767	13512.96
516.135	13502.79
516.502	13460.54
516.869	13637.03
517.237	13684.03
517.604	13602.68
517.972	13816.46
518.339	13733.98
518.706	13832.5
519.073	13928.55
519.44	13859.4
519.808	13971.93
520.175	13938.49
520.542	14128.99
520.909	14136
521.276	14106.85
521.643	14214.87
522.009	14173.96
522.376	14277.69
522.743	14314.98
523.11	14373.28
523.477	14402.66
523.843	14529.21
524.21	14565.82
524.577	14565.37
524.943	14562.88
525.31	14625.48
525.676	14685.36
526.043	14745.25
526.409	14759.94
526.776	14802.87
527.142	14830.67
527.508	14866.6
527.874	14933.04
528.241	14915.19
528.607	14991.8
528.973	15001.51
529.339	14928.97
529.705	15050.78
530.071	15014.17
530.437	15051.23
530.803	15065.92
531.169	15070.66
531.535	14994.51
531.901	15014.17
532.267	15057.56
532.632	15061.62
532.998	15124.67
533.364	15053.94
533.73	15021.62
534.095	15170.77
534.461	15067.27
534.826	15198.12
535.192	15119.48
535.557	15132.13
535.923	15113.15
536.288	15142.07
536.653	15057.1
537.019	14897.33
537.384	14917.67
537.749	14998.57
538.114	14940.5
538.479	14898.69
538.845	14938.01
539.21	14786.83
539.575	14807.85
539.94	14865.7
540.305	14875.41
540.67	14809.2
541.034	14782.54
541.399	14820.73
541.764	14733.72
542.129	14761.52
542.494	14636.55
542.858	14659.15
543.223	14623.9
543.587	14659.6
543.952	14586.16
544.316	14614.18
544.681	14462.77
545.045	14525.37
545.41	14522.65
545.774	14540.28
546.138	14387.07
546.503	14417.57
546.867	14435.65
547.231	14429.78
547.595	14347.97
547.959	14335.32
548.324	14348.42
548.688	14333.51
549.052	14240.85
549.416	14222.32
549.779	14214.64
550.143	14186.39
550.507	14216.22
550.871	14135.55
551.235	14070.24
551.599	14150.91
551.962	13996.12
552.326	14097.81
552.689	14142.55
553.053	13936.91
553.417	14056.68
553.78	14140.74
554.143	14066.85
554.507	14088.32
554.87	14027.3
555.234	14067.98
555.597	13902.33
555.96	13964.7
556.323	13941.2
556.686	13874.76
557.05	13949.34
557.413	13895.1
557.776	13909.11
558.139	13927.87
558.502	13921.54
558.865	13874.31
559.228	13892.39
559.59	13926.96
559.953	13834.76
560.316	14013.97
560.679	13902.56
561.041	14038.83
561.404	14013.97
561.767	14082.67
562.129	13976.23
562.492	14134.19
562.854	14092.16
563.217	14070.24
563.579	14026.85
563.941	14075.66
564.304	14063.01
564.666	14209.67
565.028	14079.95
565.39	14148.2
565.753	14194.75
566.115	14148.43
566.477	14282.66
566.839	14131.03
567.201	14327.86
567.563	14223.68
567.925	14358.14
568.287	14313.17
568.648	14355.2
569.01	14327.86
569.372	14453.28
569.734	14378.93
570.095	14388.42
570.457	14483.56
570.819	14476.78
571.18	14414.86
571.542	14421.87
571.903	14489.21
572.265	14491.24
572.626	14499.6
572.987	14516.33
573.349	14533.5
573.71	14679.71
574.071	14538.02
574.432	14626.61
574.794	14658.92
575.155	14625.03
575.516	14574.18
575.877	14662.76
576.238	14643.78
576.599	14690.11
576.96	14645.36
577.32	14680.16
577.681	14685.81
578.042	14670.22
578.403	14643.1
578.763	14735.53
579.124	14675.42
579.485	14815.08
579.845	14714.74
580.206	14677
580.566	14678.36
580.927	14655.31
581.287	14820.05
581.648	14698.92
582.008	14775.53
582.368	14726.27
582.728	14699.15
583.089	14716.55
583.449	14644.01
583.809	14776.66
584.169	14755.87
584.529	14644.69
584.889	14830.44
585.249	14637
585.609	14681.29
585.969	14709.54
586.329	14653.95
586.688	14595.2
587.048	14665.93
587.408	14613.05
587.768	14601.07
588.127	14551.13
588.487	14549.32
588.846	14671.35
589.206	14562.43
589.565	14575.08
589.925	14604.23
590.284	14563.33
590.643	14458.02
591.003	14542.54
591.362	14589.32
591.721	14599.04
592.08	14527.85
592.44	14593.61
592.799	14535.54
593.158	14458.25
593.517	14467.74
593.876	14542.09
594.235	14353.17
594.593	14543.45
594.952	14491.92
595.311	14430.91
595.67	14449.66
596.029	14555.87
596.387	14474.97
596.746	14596.33
597.104	14410.34
597.463	14460.51
597.822	14519.94
598.18	14487.63
598.538	14405.37
598.897	14511.81
599.255	14311.59
599.613	14537.34
599.972	14515.42
600.33	14529.43
600.688	14444.92
601.046	14461.41
601.404	14596.33
601.762	14463
602.12	14564.24
602.478	14561.52
602.836	14483.11
603.194	14504.8
603.552	14457.57
603.91	14394.75
604.268	14469.77
604.625	14419.61
604.983	14514.75
605.341	14375.99
605.698	14479.04
606.056	14611.92
606.413	14535.54
606.771	14484.92
607.128	14505.03
607.485	14476.33
607.843	14528.76
608.2	14494.86
608.557	14591.81
608.914	14580.51
609.272	14565.37
609.629	14588.42
609.986	14684.01
610.343	14587.51
610.7	14655.08
611.057	14703.44
611.414	14625.48
611.771	14626.61
612.127	14680.39
612.484	14754.74
612.841	14679.03
613.198	14650.56
613.554	14703.44
613.911	14727.17
614.267	14820.73
614.624	14691.01
614.98	14804.23
615.337	14823.89
615.693	14759.71
616.05	14740.95
616.406	14877.9
616.762	14768.98
617.118	14837
617.475	14798.81
617.831	14856.43
618.187	14927.84
618.543	14897.33
618.899	14947.73
619.255	14913.38
619.611	14921.06
619.967	14969.87
620.323	15007.84
620.678	14867.73
621.034	14987.5
621.39	14899.59
621.746	14811.91
622.101	15105.24
622.457	14945.24
622.812	14974.17
623.168	15042.19
623.523	15020.49
623.879	15048.97
624.234	14890.55
624.589	15008.52
624.945	14967.84
625.3	15023.66
625.655	15036.54
626.01	14881.29
626.365	15007.84
626.72	14900.27
627.075	14975.75
627.43	14963.77
627.785	15038.57
628.14	14865.47
628.495	14920.16
628.85	14968.07
629.205	14877.45
629.559	14911.35
629.914	14927.62
630.269	14859.6
630.623	14805.36
630.978	14772.14
631.332	14781.63
631.687	14826.38
632.041	14705.25
632.396	14796.09
632.75	14669.09
633.104	14675.42
633.459	14655.31
633.813	14659.6
634.167	14614.63
634.521	14645.59
634.875	14719.94
635.229	14699.37
635.583	14568.08
635.937	14564.46
636.291	14566.5
636.645	14523.33
636.999	14507.29
637.352	14541.64
637.706	14455.31
638.06	14495.54
638.413	14409.21
638.767	14448.76
639.121	14483.79
639.474	14431.36
639.828	14399.04
640.181	14446.5
640.534	14422.09
640.888	14380.96
641.241	14356.78
641.594	14357.01
641.947	14359.04
642.301	14398.82
642.654	14348.65
643.007	14335.54
643.36	14365.82
643.713	14334.41
644.066	14260.29
644.419	14282.44
644.771	14232.49
645.124	14054.19
645.477	13981.65
645.83	13860.75
646.182	13874.31
646.535	13856.46
646.888	13900.98
647.24	13723.35
647.593	13779.85
647.945	13729.91
648.298	13617.82
648.65	13723.81
649.002	13697.37
649.355	13794.31
649.707	13766.06
650.059	13837.7
650.411	14012.39
650.763	13948.43
651.115	14168.54
651.467	14036.79
651.819	14128.99
652.171	14034.53
652.523	14073.4
652.875	14100.75
653.227	14051.71
653.578	14105.49
653.93	14075.89
654.282	13991.37
654.633	14043.8
654.985	14071.37
655.337	14006.51
655.688	13956.79
656.039	14100.97
656.391	13891.03
656.742	14060.52
657.094	13973.52
657.445	14024.59
657.796	13893.97
658.147	14016.45
658.498	14009.67
658.849	14089.45
659.2	14062.78
659.551	14036.79
659.902	14113.17
660.253	13965.16
660.604	14056.68
660.955	13912.73
661.306	13947.98
661.656	14027.53
662.007	14119.95
662.358	14082.44
662.708	14086.73
663.059	14112.27
663.409	13929.22
663.76	14090.12
664.11	14185.04
664.461	14086.96
664.811	14037.47
665.161	14081.54
665.511	14081.99
665.862	13976
666.212	14091.71
666.562	14050.8
666.912	14104.59
667.262	13917.7
667.612	13920.18
667.962	14048.32
668.312	13914.99
668.662	14086.96
669.011	14094.87
669.361	14034.53
669.711	14057.58
670.06	13987.98
670.41	14015.32
670.76	13912.28
671.109	14026.17
671.459	13939.17
671.808	14021.65
672.157	13981.88
672.507	13946.4
672.856	13896.46
673.205	13888.32
673.554	13938.04
673.904	13881.77
674.253	13980.52
674.602	13873.63
674.951	13745.95
675.3	13660.53
675.649	13921.09
675.998	13807.42
676.346	13862.11
676.695	13844.48
677.044	13733.98
677.393	13747.31
677.741	13794.09
678.09	13620.08
678.438	13748.89
678.787	13759.29
679.135	13716.8
679.484	13672.73
679.832	13694.88
680.181	13570.59
680.529	13578.27
680.877	13589.57
681.225	13490.37
681.573	13657.59
681.922	13469.35
682.27	13442.91
682.618	13525.62
682.966	13536.69
683.314	13515.9
683.661	13437.71
684.009	13352.29
684.357	13291.05
684.705	13298.28
685.053	13363.14
685.4	13363.36
685.748	13146.19
686.095	13228.68
686.443	13174.67
686.79	13158.4
687.138	13165.4
687.485	13160.43
687.832	13177.61
688.18	13183.71
688.527	13041.34
688.874	13068.68
689.221	12920.44
689.568	12951.85
689.915	12884.51
690.262	12832.08
690.609	12761.57
690.956	12801.57
691.303	12785.75
691.65	12792.76
691.997	12678.18
692.344	12642.48
692.69	12651.74
693.037	12531.97
693.383	12509.6
693.73	12508.24
694.077	12435.03
694.423	12409.04
694.769	12370.17
695.116	12365.88
695.462	12352.32
695.808	12301.7
696.155	12275.93
696.501	12197.07
696.847	12158.88
697.193	12026.22
697.539	12101.93
697.885	11994.81
698.231	11954.81
698.577	11887.24
698.923	11849.73
699.269	11900.58
699.614	11814.25
699.96	11726.12
700.306	11744.2
700.651	11742.16
700.997	11672.79
701.342	11642.28
701.688	11591.66
702.033	11544.65
702.379	11514.37
702.724	11474.37
703.069	11561.38
703.415	11363.87
703.76	11356.41
704.105	11359.8
704.45	11352.34
704.795	11243.65
705.14	11238.22
705.485	11186.02
705.83	11184.66
706.175	11121.84
706.52	11059.02
706.865	11078.45
707.209	11040.26
707.554	10945.8
707.899	10993.48
708.243	10912.35
708.588	10864.67
708.932	10852.69
709.277	10767.5
709.621	10794.84
709.966	10734.05
710.31	10773.15
710.654	10668.97
710.998	10707.84
711.342	10678.91
711.687	10605.7
712.031	10551.23
712.375	10572.93
712.719	10588.97
713.063	10589.88
713.407	10569.31
713.75	10558.01
714.094	10502.65
714.438	10388.75
714.782	10470.78
715.125	10469.88
715.469	10441.18
715.812	10462.42
716.156	10373.61
716.499	10315.76
716.843	10286.38
717.186	10269.21
717.53	10297.68
717.873	10313.95
718.216	10242.99
718.559	10231.02
718.902	10111.92
719.246	10145.59
719.589	10112.83
719.932	10079.83
720.275	10077.35
720.617	10156.22
720.96	10032.6
721.303	10003.9
721.646	10056.56
721.989	9999.84
722.331	10069.66
722.674	10010.23
723.016	9995.09
723.359	9954.64
723.701	10019.5
724.044	9908.99
724.386	9889.56
724.729	9925.94
725.071	9951.25
725.413	9950.35
725.755	9877.13
726.097	9908.99
726.439	9853.63
726.782	9851.59
727.124	9927.97
727.465	9880.29
727.807	9864.02
728.149	9843.23
728.491	9792.84
728.833	9835.77
729.175	9846.62
729.516	9810.46
729.858	9772.05
730.199	9797.81
730.541	9720.97
730.882	9728.66
731.224	9856.56
731.565	9725.04
731.906	9739.73
732.248	9793.51
732.589	9722.78
732.93	9676.23
733.271	9713.52
733.612	9716
733.953	9773.63
734.294	9760.29
734.635	9702.22
734.976	9704.48
735.317	9678.94
735.658	9675.32
735.999	9728.2
736.339	9667.64
736.68	9761.2
737.021	9725.72
737.361	9660.18
737.702	9739.73
738.042	9731.14
738.383	9727.07
738.723	9764.14
739.063	9723.01
739.404	9805.49
739.744	9747.64
740.084	9767.3
740.424	9741.76
740.764	9735.66
741.104	9805.26
741.444	9754.42
741.784	9805.04
742.124	9871.03
742.464	9856.79
742.804	9815.21
743.143	9825.38
743.483	9871.93
743.823	9848.65
744.162	9983.79
744.502	9969.1
744.841	9987.63
745.181	10053.62
745.52	9967.52
745.86	10043.9
746.199	10073.28
746.538	10127.06
746.877	10150.34
747.216	10195.54
747.556	10253.61
747.895	10273.05
748.234	10345.59
748.573	10380.62
748.911	10492.7
749.25	10517.79
749.589	10453.16
749.928	10580.61
750.267	10648.41
750.605	10669.42
750.944	10782.64
751.283	10811.34
751.621	10921.85
751.96	10840.72
752.298	11083.65
752.636	11132.91
752.975	11184.89
753.313	11297.88
753.651	11498.1
753.989	11486.12
754.327	11544.65
754.666	11602.05
755.004	11783.52
755.342	11997.98
755.679	12083.62
756.017	12169.04
756.355	12329.49
756.693	12456.95
757.031	12605.42
757.368	12645.19
757.706	12840.67
758.044	12962.47
758.381	13195.46
758.719	13237.72
759.056	13533.3
759.394	13658.95
759.731	13751.6
760.068	13775.78
760.405	13945.04
760.743	14100.75
761.08	14275.66
761.417	14451.24
761.754	14592.03
762.091	14760.16
762.428	14854.62
762.765	15036.77
763.102	15222.3
763.438	15396.08
763.775	15494.83
764.112	15640.59
764.449	15791.32
764.785	15958.55
765.122	16003.52
765.458	16199.22
765.795	16359.44
766.131	16545.2
766.467	16671.07
766.804	16803.27
767.14	16914.68
767.476	17039.2
767.812	17202.13
768.148	17403.48
768.485	17414.56
768.821	17432.18
769.157	17678.96
769.492	17874.21
769.828	17936.8
770.164	17973.64
770.5	18098.15
770.836	18214.54
771.171	18217.47
771.507	18237.81
771.842	18381.54
772.178	18572.49
772.513	18575.66
772.849	18673.05
773.184	18650.68
773.519	18947.4
773.855	18843.67
774.19	18889.77
774.525	18948.75
774.86	19131.35
775.195	19186.04
775.53	19147.17
775.865	19167.5
776.2	19230.55
776.535	19163.44
776.87	19192.14
777.205	19252.47
777.539	19300.16
777.874	19377.22
778.209	19284.11
778.543	19376.76
778.878	19404.56
779.212	19412.92
779.547	19351
779.881	19548.51
780.215	19416.31
780.55	19546.03
780.884	19483.43
781.218	19480.26
781.552	19592.13
781.886	19475.52
782.22	19493.82
782.554	19513.71
782.888	19308.74
783.222	19341.29
783.556	19344.67
783.889	19419.02
784.223	19287.28
784.557	19360.49
784.89	19391.68
785.224	19254.73
785.557	19243.66
785.891	19296.77
786.224	19242.98
786.558	19265.81
786.891	19231.91
787.224	19184.23
787.557	19111.46
787.891	19201.85
788.224	19206.15
788.557	19215.41
788.89	19159.6
789.223	19169.31
789.556	18957.57
789.888	19105.59
790.221	18983.33
790.554	18837.57
790.887	18856.33
791.219	18887.06
791.552	18777.91
791.884	18674.64
792.217	18783.33
792.549	18655.2
792.882	18586.28
793.214	18638.93
793.546	18671.02
793.879	18466.73
794.211	18483.68
794.543	18527.3
794.875	18450.69
795.207	18509.89
795.539	18401.42
795.871	18448.65
796.203	18291.6
796.535	18265.38
796.867	18187.64
797.198	18182.22
797.53	18126.63
797.862	18069.23
798.193	18092.28
798.525	17991.72
798.856	18016.57
799.188	17848.44
799.519	17853.64
799.85	17746.52
800.182	17818.84
800.513	17732.97
800.844	17517.6
801.175	17769.58
801.506	17677.37
801.837	17649.13
802.168	17605.51
802.499	17566.42
802.83	17475.35
803.161	17452.75
803.491	17380.21
803.822	17423.6
804.153	17369.13
804.483	17200.32
804.814	17168.69
805.145	17133.43
805.475	17141.12
805.805	17102.93
806.136	17083.04
806.466	17092.08
806.796	16975.02
807.126	16885.98
807.457	16846.21
807.787	16866.32
808.117	16858.86
808.447	16707.23
808.777	16802.59
809.107	16699.09
809.436	16616.39
809.766	16695.25
810.096	16584.07
810.426	16494.81
810.755	16648.02
811.085	16472.43
811.414	16515.6
811.744	16393.11
812.073	16303.62
812.403	16345.88
812.732	16266.56
813.061	16282.16
813.39	16143.4
813.719	16085.55
814.049	16332.1
814.378	16219.11
814.707	16163.52
815.036	16086.91
815.365	16031.54
815.693	15940.47
816.022	15992.67
816.351	15914.71
816.68	15891.43
817.008	15901.15
817.337	15734.83
817.665	15690.31
817.994	15742.51
818.322	15737.76
818.651	15637.43
818.979	15581.38
819.307	15669.29
819.636	15613.7
819.964	15563.76
820.292	15671.1
820.62	15576.41
820.948	15484.89
821.276	15596.98
821.604	15511.56
821.932	15582.51
822.259	15548.16
822.587	15504.1
822.915	15442.86
823.243	15639.46
823.57	15502.06
823.898	15445.12
824.225	15494.83
824.553	15514.49
824.88	15504.1
825.207	15654.15
825.535	15551.33
825.862	15584.1
826.189	15514.72
826.516	15633.59
826.843	15662.96
827.17	15562.4
827.497	15593.14
827.824	15582.97
828.151	15607.37
828.478	15516.3
828.805	15688.27
829.131	15572.34
829.458	15514.49
829.785	15451.9
830.111	15555.62
830.438	15570.08
830.764	15594.72
831.09	15636.52
831.417	15524.44
831.743	15564.89
832.069	15540.48
832.395	15424.78
832.722	15474.04
833.048	15519.01
833.374	15493.93
833.7	15469.3
834.026	15400.37
834.351	15468.17
834.677	15413.03
835.003	15481.5
835.329	15283.31
835.654	15298.91
835.98	15349.07
836.306	15413.93
836.631	15285.8
836.956	15333.71
837.282	15356.76
837.607	15215.29
837.932	15269.53
838.258	15138.01
838.583	15263.2
838.908	15088.29
839.233	15149.08
839.558	15101.62
839.883	15074.28
840.208	14939.37
840.533	14995.64
840.858	15031.57
841.182	15099.81
841.507	14986.15
841.832	14950.67
842.156	14837.22
842.481	14869.09
842.805	14891.91
843.13	14837.45
843.454	14784.57
843.778	14785.02
844.103	14732.59
844.427	14630.67
844.751	14680.62
845.075	14639.94
845.399	14618.25
845.723	14451.47
846.047	14539.6
846.371	14321.08
846.695	14413.28
847.019	14302.32
847.343	14219.16
847.666	14267.75
847.99	14084.25
848.313	14093.06
848.637	14017.13
848.96	14005.83
849.284	13966.96
849.607	13837.25
849.931	13853.52
850.254	13747.99
850.577	13626.63
850.9	13645.84
851.223	13526.75
851.546	13563.58
851.869	13434.55
852.192	13509.57
852.515	13321.78
852.838	13303.48
853.161	13252.41
853.483	13237.26
853.806	13210.6
854.129	13110.04
854.451	13072.75
854.774	13016.03
855.096	13018.97
855.419	12935.13
855.741	12889.25
856.063	12875.24
856.385	12799.99
856.708	12856.94
857.03	12710.95
857.352	12763.15
857.674	12748.92
857.996	12627.11
858.318	12581.01
858.64	12542.14
858.961	12584.17
859.283	12448.36
859.605	12460.56
859.926	12536.94
860.248	12452.88
860.57	12328.59
860.891	12390.73
861.212	12287.91
861.534	12283.39
861.855	12162.49
862.176	12189.61
862.498	12242.49
862.819	12227.12
863.14	12174.47
863.461	12126.56
863.782	12119.1
864.103	12138.99
864.424	12080.23
864.745	12168.59
865.065	11986.68
865.386	11893.35
865.707	11948.71
866.027	11989.61
866.348	11954.59
866.668	11903.06
866.989	11983.06
867.309	11808.83
867.63	11838.21
867.95	11840.24
868.27	11726.57
868.59	11755.04
868.91	11822.39
869.23	11814.48
869.55	11727.7
869.87	11786.23
870.19	11696.06
870.51	11658.55
870.83	11682.28
871.15	11649.06
871.469	11608.38
871.789	11598.44
872.109	11534.94
872.428	11515.28
872.748	11588.49
873.067	11547.82
873.386	11507.14
873.706	11512.79
874.025	11467.37
874.344	11371.1
874.663	11404.54
874.982	11308.05
875.301	11409.29
875.62	11352.34
875.939	11343.53
876.258	11361.61
876.577	11315.06
876.896	11301.27
877.214	11255.62
877.533	11223.08
877.852	11257.43
878.17	11237.54
878.489	11271.89
878.807	11235.96
879.125	11193.93
879.444	11156.64
879.762	11122.29
880.08	11071.45
880.398	11038.68
880.716	11066.93
881.034	11068.96
881.352	11081.16
881.67	11044.33
881.988	11013.14
882.306	10988.74
882.624	10915.07
882.941	10892.92
883.259	10857.21
883.577	10801.17
883.894	10803.88
884.212	10859.47
884.529	10779.48
884.846	10814.96
885.164	10772.92
885.481	10664
885.798	10739.7
886.115	10653.38
886.432	10612.48
886.75	10568.86
887.067	10657.22
887.383	10494.51
887.7	10571.57
888.017	10559.37
888.334	10546.49
888.651	10459.71
888.967	10412.48
889.284	10355.53
889.6	10339.94
889.917	10294.29
890.233	10333.16
890.55	10238.7
890.866	10226.95
891.182	10264.46
891.498	10218.36
891.815	10158.48
892.131	10165.26
892.447	10077.12
892.763	10066.27
893.079	10041.87
893.395	9946.73
893.71	9958.93
894.026	9864.25
894.342	9873.51
894.657	9805.72
894.973	9838.94
895.289	9768.66
895.604	9749
895.92	9751.93
896.235	9749.9
896.55	9681.43
896.865	9595.33
897.181	9598.04
897.496	9636.23
897.811	9495.67
898.126	9524.14
898.441	9476.69
898.756	9497.25
899.071	9410.92
899.386	9419.06
899.7	9311.72
900.015	9296.35
900.33	9237.82
900.644	9231.04
900.959	9262.91
901.273	9164.83
901.588	9078.5
901.902	9063.59
902.216	9034.21
902.531	9033.53
902.845	9040.77
903.159	8964.83
903.473	8962.12
903.787	8858.17
904.101	8801.45
904.415	8762.58
904.729	8790.38
905.042	8718.06
905.356	8768
905.67	8647.1
905.984	8691.85
906.297	8648.46
906.611	8533.66
906.924	8590.61
907.237	8541.57
907.551	8490.72
907.864	8476.49
908.177	8450.5
908.491	8466.77
908.804	8354.91
909.117	8264.97
909.43	8204.18
909.743	8234.01
910.056	8277.4
910.368	8170.51
910.681	8142.03
910.994	8154.91
911.307	8082.15
911.619	8056.16
911.932	8083.95
912.244	7968.02
912.557	7971.19
912.869	7963.05
913.181	7848.48
913.494	7857.75
913.806	7793.57
914.118	7801.02
914.43	7758.31
914.742	7746.34
915.054	7749.05
915.366	7624.08
915.678	7634.02
915.99	7563.29
916.302	7500.69
916.613	7582.27
916.925	7532.1
917.236	7517.64
917.548	7418.21
917.859	7493.91
918.171	7365.33
918.482	7376.4
918.794	7312.22
919.105	7364.43
919.416	7291.88
919.727	7212.56
920.038	7267.25
920.349	7167.14
920.66	7166.69
920.971	7129.63
921.282	7070.42
921.593	7041.27
921.903	7026.58
922.214	7047.37
922.525	6947.26
922.835	6960.14
923.146	6887.38
923.456	6904.32
923.767	6867.04
924.077	6806.7
924.387	6794.27
924.697	6771.45
925.008	6778
925.318	6760.15
925.628	6711.11
925.938	6656.42
926.248	6646.48
926.558	6580.72
926.867	6613.94
927.177	6591.79
927.487	6513.83
927.796	6475.41
928.106	6497.78
928.416	6427.95
928.725	6402.42
929.034	6329.65
929.344	6420.5
929.653	6338.69
929.962	6271.35
930.271	6268.63
930.581	6231.57
930.89	6207.39
931.199	6211.46
931.508	6171.24
931.817	6196.09
932.125	6122.42
932.434	6108.86
932.743	6043.1
933.051	6064.12
933.36	5999.04
933.669	5979.38
933.977	5985.7
934.286	5956.33
934.594	5976.89
934.902	5894.41
935.21	5880.4
935.519	5872.03
935.827	5842.88
936.135	5820.51
936.443	5808.08
936.751	5793.62
937.059	5705.03
937.367	5669.78
937.674	5701.19
937.982	5692.15
938.29	5688.54
938.597	5625.04
938.905	5549.56
939.213	5542.33
939.52	5546.17
939.827	5566.28
940.135	5475.44
940.442	5439.73
940.749	5533.96
941.056	5373.52
941.363	5378.49
941.67	5362.9
941.977	5334.42
942.284	5289.23
942.591	5287.87
942.898	5292.62
943.205	5297.59
943.511	5272.05
943.818	5210.81
944.125	5197.02
944.431	5139.85
944.738	5136.69
945.044	5139.85
945.35	5111.83
945.657	5073.86
945.963	5038.61
946.269	5058.04
946.575	5028.89
946.881	4977.82
947.187	4991.61
947.493	4962.23
947.799	4977.6
948.105	4905.73
948.41	4898.05
948.716	4935.11
949.022	4862.34
949.327	4825.96
949.633	4804.49
949.938	4805.4
950.244	4802.91
950.549	4748.67
950.854	4727.21
951.16	4743.03
951.465	4673.65
951.77	4714.1
952.075	4711.16
952.38	4588.68
952.685	4619.41
952.99	4592.29
953.294	4550.04
953.599	4524.27
953.904	4505.97
954.209	4464.61
954.513	4489.47
954.818	4512.75
955.122	4453.54
955.426	4426.42
955.731	4403.37
956.035	4376.93
956.339	4355.01
956.643	4375.35
956.948	4313.43
957.252	4301
957.556	4296.26
957.86	4265.75
958.163	4284.05
958.467	4219.87
958.771	4266.2
959.075	4190.95
959.378	4196.6
959.682	4193.66
959.985	4177.62
960.289	4171.29
960.592	4090.16
960.896	4109.14
961.199	4069.82
961.502	4035.02
961.805	4042.03
962.108	4010.84
962.411	3960.45
962.714	3959.77
963.017	4023.72
963.32	3938.3
963.623	3922.26
963.926	3945.76
964.228	3923.39
964.531	3900.11
964.833	3924.97
965.136	3799.1
965.438	3805.42
965.741	3833.44
966.043	3807
966.345	3815.59
966.648	3765.42
966.95	3783.73
967.252	3724.52
967.554	3737.4
967.856	3741.47
968.158	3710.06
968.46	3712.54
968.761	3718.87
969.063	3630.51
969.365	3612.43
969.666	3624.41
969.968	3607.46
970.269	3555.03
970.571	3602.26
970.872	3532.89
971.174	3572.21
971.475	3498.54
971.776	3512.55
972.077	3477.52
972.378	3469.84
972.679	3492.44
972.98	3491.98
973.281	3413.79
973.582	3412.89
973.883	3432.33
974.183	3418.54
974.484	3393.46
974.785	3345.32
975.085	3347.13
975.386	3337.64
975.686	3346.68
975.986	3317.98
976.287	3278.88
976.587	3250.41
976.887	3270.75
977.187	3257.64
977.487	3216.06
977.787	3216.96
978.087	3163.86
978.387	3147.81
978.687	3165.67
978.987	3165.67
979.286	3129.96
979.586	3103.52
979.885	3089.96
980.185	3102.62
980.484	3026.69
980.784	3081.6
981.083	3036.63
981.382	3049.96
981.682	3023.07
981.981	3011.55
982.28	2994.14
982.579	2929.74
982.878	2964.31
983.177	3000.92
983.475	2988.04
983.774	2946.24
984.073	2902.4
984.372	2890.19
984.67	2895.39
984.969	2913.69
985.267	2888.16
985.566	2874.37
985.864	2822.17
986.162	2815.39
986.461	2828.5
986.759	2801.38
987.057	2788.95
987.355	2783.3
987.653	2758.22
987.951	2749.41
988.249	2708.28
988.547	2738.11
988.844	2718.22
989.142	2711.44
989.44	2677.54
989.737	2644.78
990.035	2679.12
990.332	2681.38
990.63	2650.2
990.927	2658.11
991.224	2650.88
991.521	2581.5
991.819	2580.37
992.116	2565.46
992.413	2549.64
992.71	2572.46
993.006	2530.65
993.303	2534.04
993.6	2538.34
993.897	2488.85
994.193	2493.59
994.49	2496.3
994.787	2459.92
995.083	2473.71
995.379	2422.86
995.676	2458.57
995.972	2409.75
996.268	2446.59
996.565	2386.48
996.861	2397.78
997.157	2416.08
997.453	2351.68
997.749	2381.96
998.044	2344.22
998.34	2329.76
998.636	2307.16
998.932	2311.45
999.227	2299.25
999.523	2310.77
999.818	2276.2
1000.114	2243.66
1000.409	2216.09
1000.704	2233.26
1001	2232.13
1001.295	2199.14
1001.59	2196.43
1001.885	2183.09
1002.18	2173.38
1002.475	2169.99
1002.77	2135.18
1003.065	2130.66
1003.359	2139.7
1003.654	2110.33
1003.949	2132.7
1004.243	2098.35
1004.538	2069.87
1004.832	2075.98
1005.127	2024.45
1005.421	2043.43
1005.715	2054.73
1006.009	2040.05
1006.304	2027.39
1006.598	2022.42
1006.892	1969.31
1007.186	1972.7
1007.48	1994.62
1007.773	1944.45
1008.067	1956.21
1008.361	1948.97
1008.655	1913.49
1008.948	1903.33
1009.242	1900.39
1009.535	1900.16
1009.829	1872.82
1010.122	1864.23
1010.415	1847.73
1010.708	1813.84
1011.001	1846.38
1011.295	1817
1011.588	1826.49
1011.881	1796.66
1012.173	1786.49
1012.466	1785.81
1012.759	1767.28
1013.052	1766.38
1013.344	1743.78
1013.637	1738.13
1013.93	1731.58
1014.222	1712.82
1014.514	1708.53
1014.807	1675.76
1015.099	1672.37
1015.391	1692.94
1015.683	1670.11
1015.976	1680.96
1016.268	1633.5
1016.56	1636.89
1016.851	1632.82
1017.143	1622.2
1017.435	1585.59
1017.727	1590.34
1018.018	1591.7
1018.31	1575.88
1018.602	1572.94
1018.893	1541.53
1019.185	1544.24
1019.476	1571.58
1019.767	1557.8
1020.058	1507.4
1020.35	1501.75
1020.641	1489.78
1020.932	1480.74
1021.223	1473.96
1021.514	1484.35
1021.804	1440.96
1022.095	1424.69
1022.386	1450.23
1022.677	1446.84
1022.967	1414.75
1023.258	1411.59
1023.548	1418.14
1023.839	1369.55
1024.129	1383.79
1024.419	1354.19
1024.709	1367.75
1025	1338.82
1025.29	1340.4
1025.58	1322.78
1025.87	1332.27
1026.16	1319.61
1026.449	1332.49
1026.739	1297.69
1027.029	1303.57
1027.319	1287.97
1027.608	1259.73
1027.898	1292.95
1028.187	1262.66
1028.477	1263.57
1028.766	1258.37
1029.055	1237.35
1029.344	1247.3
1029.634	1233.96
1029.923	1229.45
1030.212	1235.09
1030.501	1203.23
1030.79	1207.3
1031.078	1197.58
1031.367	1162.55
1031.656	1151.26
1031.945	1149.45
1032.233	1158.94
1032.522	1156.9
1032.81	1156.23
1033.099	1138.6
1033.387	1113.29
1033.675	1083.46
1033.963	1116.23
1034.251	1087.53
1034.54	1077.36
1034.828	1088.43
1035.116	1075.78
1035.403	1076.45
1035.691	1060.18
1035.979	1064.25
1036.267	1073.52
1036.554	1055.66
1036.842	1043.01
1037.129	1041.65
1037.417	1043.46
1037.704	996
1037.992	1008.21
1038.279	998.49
1038.566	1009.56
1038.853	1009.56
1039.14	1009.56
