Data from hue_34_FLMS001491_00018.txt Node
Date: Tue Feb 07 17:25:16 GMT 2017
User: dcchb
Spectrometer: FLMS00149
Trigger mode: 0
Integration Time (sec): 2.000000E-2
Scans to average: 10
Electric dark correction enabled: true
Nonlinearity correction enabled: false
Boxcar width: 0
XAxis mode: Wavelengths
Number of Pixels in Spectrum: 2048
>>>>>Begin Spectral Data<<<<<
341.393	-21.5
341.776	-21.5
342.16	-21.5
342.543	-88.16
342.927	-78.44
343.31	-71.66
343.693	-68.05
344.077	-78.9
344.46	-51.78
344.843	-36.86
345.226	-34.6
345.61	-38.9
345.993	-26.69
346.376	9.01
346.759	-12.23
347.142	20.08
347.525	26.86
347.908	53.08
348.291	75.22
348.674	106.18
349.057	129.23
349.44	123.81
349.823	147.76
350.206	155
350.588	189.57
350.971	211.49
351.354	242
351.737	268.67
352.119	237.25
352.502	274.54
352.884	266.86
353.267	278.16
353.65	279.96
354.032	294.65
354.414	305.95
354.797	322.22
355.179	333.3
355.562	341.21
355.944	315.9
356.326	322.22
356.709	349.12
357.091	333.07
357.473	339.85
357.855	333.07
358.238	324.26
358.62	335.1
359.002	343.01
359.384	339.62
359.766	341.66
360.148	353.63
360.53	342.34
360.912	352.73
361.294	322.9
361.676	303.69
362.057	329.23
362.439	346.63
362.821	331.71
363.203	330.36
363.584	295.11
363.966	324.26
364.348	312.51
364.729	327.65
365.111	342.56
365.493	324.26
365.874	327.87
366.256	308.21
366.637	321.77
367.019	316.35
367.4	322.9
367.781	330.58
368.163	303.69
368.544	328.55
368.925	330.13
369.306	327.19
369.688	319.74
370.069	311.83
370.45	313.86
370.831	325.39
371.212	323.81
371.593	300.98
371.974	314.31
372.355	319.51
372.736	323.58
373.117	292.62
373.498	314.54
373.879	319.29
374.26	300.53
374.641	330.58
375.021	323.13
375.402	338.04
375.783	303.24
376.163	328.1
376.544	330.58
376.925	313.18
377.305	331.49
377.686	318.38
378.066	332.62
378.447	332.62
378.827	344.82
379.208	324.93
379.588	332.17
379.968	341.21
380.349	357.02
380.729	321.32
381.109	340.08
381.489	339.62
381.87	348.66
382.25	352.5
382.63	338.49
383.01	351.15
383.39	343.92
383.77	329.23
384.15	343.47
384.53	352.28
384.91	348.44
385.29	344.14
385.67	348.89
386.049	372.62
386.429	347.76
386.809	339.85
387.189	353.41
387.568	354.99
387.948	353.18
388.328	353.18
388.707	343.24
389.087	366.74
389.466	382.79
389.846	364.71
390.225	370.13
390.605	363.35
390.984	362
391.363	378.72
391.743	368.1
392.122	369.23
392.501	379.85
392.881	380.53
393.26	376.91
393.639	376.01
394.018	359.28
394.397	378.27
394.776	373.07
395.155	357.7
395.534	378.27
395.913	369.91
396.292	392.28
396.671	379.17
397.05	391.15
397.429	391.15
397.808	386.4
398.186	391.37
398.565	394.54
398.944	402.45
399.323	392.05
399.701	399.28
400.08	416.68
400.458	381.66
400.837	418.49
401.215	415.33
401.594	400.64
401.972	415.78
402.351	389.34
402.729	399.28
403.107	395.89
403.486	413.97
403.864	398.83
404.242	392.05
404.62	409.45
404.999	420.98
405.377	411.03
405.755	414.42
406.133	440.41
406.511	443.35
406.889	437.93
407.267	424.37
407.645	441.09
408.023	422.11
408.401	422.56
408.779	433.18
409.156	457.81
409.534	461.2
409.912	439.06
410.29	466.63
410.667	461.88
411.045	448.55
411.422	452.62
411.8	478.6
412.178	483.8
412.555	462.33
412.933	450.81
413.31	457.59
413.687	463.91
414.065	465.27
414.442	477.47
414.819	475.89
415.197	506.4
415.574	504.37
415.951	470.69
416.328	485.61
416.705	511.37
417.082	490.81
417.46	472.05
417.837	521.09
418.214	492.84
418.591	488.09
418.967	511.6
419.344	499.62
419.721	510.47
420.098	515.44
420.475	525.83
420.852	527.87
421.228	513.86
421.605	543.91
421.982	561.76
422.358	533.52
422.735	544.36
423.111	529.22
423.488	536.68
423.864	564.02
424.241	554.08
424.617	570.13
424.994	577.13
425.37	559.96
425.746	561.54
426.123	553.18
426.499	578.04
426.875	573.06
427.251	582.33
427.627	560.18
428.003	586.17
428.379	574.87
428.756	601.76
429.132	587.07
429.507	620.52
429.883	632.95
430.259	625.27
430.635	626.4
431.011	611.26
431.387	624.81
431.763	648.32
432.138	637.24
432.514	632.05
432.89	614.87
433.265	652.84
433.641	663.68
434.016	662.33
434.392	680.41
434.767	693.51
435.143	686.51
435.518	685.15
435.894	677.47
436.269	715.21
436.644	707.75
437.02	719.27
437.395	732.38
437.77	725.6
438.145	732.83
438.52	738.03
438.895	720.63
439.271	719.73
439.646	759.05
440.021	747.97
440.395	738.03
440.77	751.82
441.145	764.92
441.52	765.15
441.895	769.9
442.27	767.64
442.645	752.27
443.019	792.04
443.394	766.05
443.769	765.15
444.143	764.7
444.518	805.37
444.892	813.28
445.267	811.7
445.641	813.28
446.016	807.18
446.39	820.06
446.764	804.47
447.139	839.5
447.513	832.72
447.887	876.33
448.262	852.38
448.636	810.8
449.01	866.62
449.384	865.03
449.758	852.6
450.132	884.24
450.506	878.82
450.88	874.07
451.254	886.5
451.628	884.92
452.002	898.48
452.376	894.86
452.75	905.03
453.123	914.3
453.497	915.43
453.871	922.89
454.244	941.87
454.618	966.27
454.992	957.23
455.365	963.11
455.739	975.54
456.112	978.25
456.486	981.64
456.859	1002.88
457.232	992.49
457.606	1032.94
457.979	1027.29
458.352	1038.36
458.725	1054.41
459.099	1058.02
459.472	1088.08
459.845	1070.23
460.218	1103.45
460.591	1096.89
460.964	1097.8
461.337	1118.81
461.71	1161.98
462.083	1147.06
462.456	1154.97
462.829	1178.25
463.201	1210.56
463.574	1182.54
463.947	1221.18
464.32	1244.68
464.692	1256.66
465.065	1267.74
465.438	1281.29
465.81	1312.93
466.183	1312.71
466.555	1308.41
466.928	1341.41
467.3	1324
467.672	1373.72
468.045	1391.8
468.417	1396.55
468.789	1413.27
469.161	1433.38
469.534	1438.8
469.906	1488.07
470.278	1502.08
470.65	1534.17
471.022	1586.6
471.394	1574.62
471.766	1611
472.138	1622.75
472.51	1667.27
472.882	1704.11
473.253	1712.24
473.625	1737.55
473.997	1779.81
474.369	1787.95
474.74	1825.23
475.112	1849.64
475.484	1926.47
475.855	2003.53
476.227	1979.13
476.598	2028.39
476.97	2074.95
477.341	2088.73
477.713	2158.56
478.084	2192.91
478.455	2258.67
478.827	2299.8
479.198	2344.99
479.569	2395.84
479.94	2481.04
480.311	2544.76
480.682	2564.2
481.053	2637.42
481.424	2718.32
481.795	2771.42
482.166	2810.29
482.537	2910.63
482.908	2998.09
483.279	3034.92
483.65	3097.29
484.021	3170.96
484.391	3253.22
484.762	3325.08
485.133	3366.44
485.503	3474.23
485.874	3601.91
486.244	3610.95
486.615	3748.35
486.985	3810.49
487.356	3889.14
487.726	3965.07
488.097	4079.19
488.467	4083.25
488.837	4276.92
489.207	4297.94
489.578	4406.86
489.948	4399.4
490.318	4563.92
490.688	4664.71
491.058	4735.67
491.428	4820.86
491.798	4929.33
492.168	5045.71
492.538	5068.54
492.908	5210.91
493.278	5292.04
493.648	5364.58
494.017	5416.33
494.387	5549.88
494.757	5594.4
495.126	5729.99
495.496	5754.85
495.866	5800.05
496.235	5895.41
496.605	5985.8
496.974	6054.73
497.344	6158.68
497.713	6230.54
498.082	6292.91
498.452	6373.14
498.821	6404.32
499.19	6475.51
499.559	6583.75
499.928	6686.35
500.298	6732.68
500.667	6768.38
501.036	6845.22
501.405	6914.37
501.774	6922.05
502.143	7032.1
502.512	7079.11
502.88	7204.75
503.249	7280.46
503.618	7269.84
503.987	7350.96
504.356	7455.82
504.724	7472.09
505.093	7556.38
505.462	7599.32
505.83	7666.21
506.199	7687.68
506.567	7802.7
506.936	7884.51
507.304	8010.38
507.672	8018.97
508.041	8040.21
508.409	8096.26
508.777	8121.79
509.145	8234.33
509.514	8316.82
509.882	8333.99
510.25	8361.79
510.618	8422.35
510.986	8442.24
511.354	8590.93
511.722	8658.5
512.09	8677.71
512.458	8700.53
512.826	8781.21
513.193	8769.01
513.561	8882
513.929	8941.21
514.297	9007.64
514.664	9098.72
515.032	9112.27
515.4	9170.13
515.767	9188.88
516.135	9220.97
516.502	9247.86
516.869	9378.71
517.237	9457.8
517.604	9376.22
517.972	9488.08
518.339	9498.71
518.706	9614.18
519.073	9576.67
519.44	9610.79
519.808	9696.89
520.175	9752.71
520.542	9850.56
520.909	9909.32
521.276	9924.46
521.643	10020.5
522.009	10069.09
522.376	10060.05
522.743	10128.07
523.11	10237.89
523.477	10340.94
523.843	10376.2
524.21	10514.95
524.577	10530.99
524.943	10540.94
525.31	10594.72
525.676	10705
526.043	10812.12
526.409	10783.87
526.776	10982.73
527.142	10953.58
527.508	11033.13
527.874	11154.25
528.241	11117.42
528.607	11158.55
528.973	11319.22
529.339	11323.74
529.705	11381.59
530.071	11495.71
530.437	11458.43
530.803	11480.12
531.169	11620.01
531.535	11623.62
531.901	11719.21
532.267	11737.74
532.632	11839.66
532.998	11873.56
533.364	11926.89
533.73	11957.4
534.095	12040.56
534.461	12108.58
534.826	12114.46
535.192	12207.33
535.557	12278.07
535.923	12292.98
536.288	12255.92
536.653	12486.42
537.019	12404.84
537.384	12463.82
537.749	12564.61
538.114	12506.31
538.479	12597.38
538.845	12653.88
539.21	12647.55
539.575	12702.01
539.94	12804.38
540.305	12857.94
540.67	12834.66
541.034	12944.26
541.399	12985.84
541.764	13047.76
542.129	13077.59
542.494	13137.93
542.858	13180.19
543.223	13184.03
543.587	13321.43
543.952	13264.03
544.316	13277.81
544.681	13376.12
545.045	13412.95
545.41	13518.94
545.774	13585.38
546.138	13674.64
546.503	13656.56
546.867	13660.18
547.231	13774.07
547.595	13805.71
547.959	13845.26
548.324	13918.7
548.688	13927.29
549.052	14056.1
549.416	14021.52
549.779	14003.22
550.143	14073.5
550.507	14138.36
550.871	14245.25
551.235	14207.51
551.599	14355.07
551.962	14298.8
552.326	14519.82
552.689	14453.15
553.053	14481.85
553.417	14517.1
553.78	14732.01
554.143	14690.43
554.507	14720.04
554.87	14833.93
555.234	14916.87
555.597	14769.53
555.96	14857.89
556.323	14980.14
556.686	14989.18
557.05	15056.75
557.413	15159.8
557.776	15192.57
558.139	15242.06
558.502	15243.41
558.865	15266.91
559.228	15365.9
559.59	15322.05
559.953	15479.79
560.316	15621.03
560.679	15681.14
561.041	15667.58
561.404	15750.29
561.767	15900.34
562.129	15850.85
562.492	15983.96
562.854	15975.6
563.217	15984.41
563.579	16054.24
563.941	16121.36
564.304	16155.25
564.666	16291.75
565.028	16313.44
565.39	16445.64
565.753	16430.95
566.115	16430.05
566.477	16470.73
566.839	16581.23
567.201	16706.2
567.563	16764.05
567.925	16848.57
568.287	16822.13
568.648	16936.02
569.01	17000.65
569.372	17108.9
569.734	17145.51
570.095	17257.82
570.457	17263.47
570.819	17347.31
571.18	17313.87
571.542	17387.54
571.903	17456.69
572.265	17657.13
572.626	17742.33
572.987	17791.82
573.349	17868.88
573.71	17988.88
574.071	17998.37
574.432	18023
574.794	18296.89
575.155	18330.56
575.516	18309.32
575.877	18455.08
576.238	18506.15
576.599	18582.99
576.96	18720.38
577.32	18789.99
577.681	18918.34
578.042	19084.44
578.403	19193.37
578.763	19227.49
579.124	19473.13
579.485	19595.39
579.845	19840.58
580.206	19981.37
580.566	19953.57
580.927	20147.69
581.287	20363.73
581.648	20527.34
582.008	20621.12
582.368	20796.49
582.728	21080.1
583.089	21199.64
583.449	21422.69
583.809	21628.1
584.169	21727.76
584.529	21974.54
584.889	22318.25
585.249	22243.23
585.609	22495.43
585.969	22842.76
586.329	22948.07
586.688	23257.89
587.048	23522.74
587.408	23535.17
587.768	23843.86
588.127	23966.8
588.487	24224.87
588.846	24647.46
589.206	24630.06
589.565	24974.23
589.925	25283.83
590.284	25547.77
590.643	25726.98
591.003	26118.38
591.362	26402.44
591.721	26502.33
592.08	26786.16
592.44	27045.81
592.799	27316.54
593.158	27482.19
593.517	27719.47
593.876	28015.05
594.235	28038.1
594.593	28464.99
594.952	28746.79
595.311	28820.68
595.67	29242.59
596.029	29625.41
596.387	29765.74
596.746	30060.42
597.104	30227.43
597.463	30285.96
597.822	30755.1
598.18	31001.64
598.538	31005.26
598.897	31524.11
599.255	31455.64
599.613	32139.69
599.972	32174.04
600.33	32441.15
600.688	32483.64
601.046	32798.43
601.404	33125.88
601.762	33262.37
602.12	33573.55
602.478	33745.53
602.836	33941.45
603.194	33941.68
603.552	34307.32
603.91	34288.56
604.268	34621.66
604.625	34749.79
604.983	35054.19
605.341	35057.36
605.698	35388.65
606.056	35641.75
606.413	35701.63
606.771	35885.13
607.128	36127.84
607.485	36085.12
607.843	36349.98
608.2	36723.53
608.557	36758.55
608.914	36821.15
609.272	37046
609.629	37260.69
609.986	37614.58
610.343	37471.75
610.7	37848.92
611.057	38032.87
611.414	38074.22
611.771	38228.8
612.127	38527.32
612.484	38458.4
612.841	38725.06
613.198	38752.17
613.554	38799.4
613.911	39176.57
614.267	39175.89
614.624	39260.41
614.98	39275.78
615.337	39716.44
615.693	39710.11
616.05	39659.72
616.406	40086.83
616.762	39898.58
617.118	40098.8
617.475	40202.98
617.831	40389.87
618.187	40440.26
618.543	40628.96
618.899	40859.01
619.255	40856.98
619.611	40851.78
619.967	41160.7
620.323	41289.96
620.678	41047.71
621.034	41046.12
621.39	41104.88
621.746	41265.1
622.101	41874.58
622.457	41559.33
622.812	41569.95
623.168	41741.02
623.523	41664.19
623.879	42059.43
624.234	41781.92
624.589	42055.59
624.945	42012.43
625.3	41997.74
625.655	42041.13
626.01	42284.06
626.365	42271.85
626.72	42373.77
627.075	42294.68
627.43	42250.84
627.785	42216.71
628.14	42437.05
628.495	42458.06
628.85	42446.31
629.205	42249.26
629.559	42539.19
629.914	42411.74
630.269	42558.4
630.623	42413.77
630.978	42267.33
631.332	42647.21
631.687	42760.66
632.041	42557.04
632.396	42626.87
632.75	42514.79
633.104	42631.17
633.459	42438.86
633.813	42465.97
634.167	42443.6
634.521	42404.51
634.875	42564.73
635.229	42511.4
635.583	42358.63
635.937	42344.4
636.291	42304.4
636.645	42443.83
636.999	42285.41
637.352	42433.66
637.706	42267.79
638.06	42399.08
638.413	42345.07
638.767	42266.88
639.121	42391.17
639.474	42205.87
639.828	42249.48
640.181	42195.25
640.534	42258.97
640.888	42190.27
641.241	41955.25
641.594	42064.18
641.947	42201.57
642.301	42121.58
642.654	42132.65
643.007	42170.84
643.36	42164.74
643.713	42139.43
644.066	42217.84
644.419	41966.33
644.771	41851.07
645.124	41459.45
645.477	41229.62
645.83	41136.52
646.182	40840.71
646.535	40874.15
646.888	40855.85
647.24	40591.67
647.593	40912.34
647.945	40816.07
648.298	40708.51
648.65	40805
649.002	40514.84
649.355	40720.03
649.707	40576.76
650.059	41031.89
650.411	41374.25
650.763	41454.93
651.115	41709.16
651.467	41694.02
651.819	41634.81
652.171	41533.12
652.523	41475.72
652.875	41574.25
653.227	41249.28
653.578	41468.94
653.93	41418.32
654.282	41415.38
654.633	41214.03
654.985	41383.06
655.337	41403.63
655.688	41367.7
656.039	41388.71
656.391	41178.1
656.742	41214.26
657.094	41371.54
657.445	41512.78
657.796	41311.65
658.147	41278.43
658.498	41302.61
658.849	41291.09
659.2	41298.32
659.551	41228.94
659.902	41220.13
660.253	41016.07
660.604	41280.47
660.955	41025.56
661.306	41270.98
661.656	41120.92
662.007	41167.7
662.358	41096.07
662.708	41060.81
663.059	41092.9
663.409	40832.57
663.76	41196.63
664.11	41094.26
664.461	41071.89
664.811	41200.47
665.161	41033.47
665.511	40960.25
665.862	40981.72
666.212	41069.4
666.562	41051.55
666.912	41043.64
667.262	40961.83
667.612	41023.3
667.962	41084.09
668.312	41124.09
668.662	41218.32
669.011	41086.12
669.361	41061.26
669.711	40947.14
670.06	40906.69
670.41	40872.34
670.76	40827.37
671.109	41035.5
671.459	40888.84
671.808	40821.27
672.157	40964.32
672.507	40737.43
672.856	40666.02
673.205	40808.16
673.554	40963.64
673.904	40663.31
674.253	40828.95
674.602	40842.06
674.951	40289.31
675.3	39982.65
675.649	40765
675.998	40715.06
676.346	40762.29
676.695	40757.77
677.044	40537.44
677.393	40686.59
677.741	40546.48
678.09	40473.26
678.438	40538.34
678.787	40532.47
679.135	40476.2
679.484	40166.15
679.832	40313.94
680.181	40120.27
680.529	40222.19
680.877	40090.67
681.225	40155.3
681.573	40306.03
681.922	39962.99
682.27	39888.41
682.618	39997.11
682.966	39824.91
683.314	39798.7
683.661	39632.6
684.009	39625.82
684.357	39610
684.705	39608.2
685.053	39607.52
685.4	39535.2
685.748	39304.93
686.095	39342.44
686.443	39186.51
686.79	39074.65
687.138	39297.47
687.485	39278.49
687.832	39012.73
688.18	39152.61
688.527	38860.64
688.874	38907.42
689.221	38831.95
689.568	38672.4
689.915	38645.28
690.262	38591.95
690.609	38464.95
690.956	38496.59
691.303	38362.35
691.65	38145.41
691.997	38182.92
692.344	37958.07
692.69	38006.66
693.037	37964.62
693.383	37666.55
693.73	37794.23
694.077	37527.57
694.423	37636.04
694.769	37360.8
695.116	37414.58
695.462	37376.84
695.808	37162.84
696.155	37402.38
696.501	37103.85
696.847	37009.62
697.193	36764.2
697.539	36944.76
697.885	36576.86
698.231	36476.53
698.577	36618.9
698.923	36479.69
699.269	36315.63
699.614	36130.32
699.96	36149.53
700.306	36080.15
700.651	35866.37
700.997	35844.68
701.342	35789.54
701.688	35634.52
702.033	35602.65
702.379	35637.68
702.724	35594.74
703.069	35441.75
703.415	35173.06
703.76	35211.02
704.105	35215.99
704.45	35037.92
704.795	34927.64
705.14	34855.78
705.485	34682
705.83	34657.59
706.175	34639.74
706.52	34428.67
706.865	34505.96
707.209	34460.76
707.554	34277.49
707.899	34396.58
708.243	34188.68
708.588	34207.89
708.932	33841.57
709.277	33898.97
709.621	33893.32
709.966	33761.12
710.31	33850.16
710.654	33551.86
710.998	33459.2
711.342	33737.62
711.687	33394.35
712.031	33293.79
712.375	33295.14
712.719	33294.69
713.063	33236.61
713.407	33230.28
713.75	33152.32
714.094	33082.94
714.438	32906.68
714.782	33065.09
715.125	32631.88
715.469	32880.69
715.812	32636.18
716.156	32493.35
716.499	32531.77
716.843	32525.44
717.186	32365.45
717.53	32531.32
717.873	32400.25
718.216	32327.71
718.559	32306.24
718.902	32030.54
719.246	32047.94
719.589	32082.52
719.932	31838.46
720.275	31908.74
720.617	31889.75
720.96	31842.75
721.303	31868.74
721.646	31805.01
721.989	31509.88
722.331	31696.09
722.674	31664.9
723.016	31704.9
723.359	31612.93
723.701	31640.27
724.044	31372.03
724.386	31309.21
724.729	31377.9
725.071	31341.29
725.413	31325.48
725.755	31207.74
726.097	31046.16
726.439	30953.06
726.782	31016.78
727.124	31116.67
727.465	30956.22
727.807	30880.74
728.149	30888.2
728.491	30762.1
728.833	30867.86
729.175	30644.14
729.516	30652.27
729.858	30614.08
730.199	30647.53
730.541	30496.35
730.882	30531.37
731.224	30509.9
731.565	30263.58
731.906	30478.94
732.248	30253.64
732.589	30173.42
732.93	30065.85
733.271	30176.35
733.612	30161.21
733.953	30157.14
734.294	29964.83
734.635	29876.47
734.976	29951.95
735.317	29778.85
735.658	29816.59
735.999	29709.47
736.339	29730.72
736.68	29777.04
737.021	29841.67
737.361	29491.63
737.702	29745.63
738.042	29634.67
738.383	29562.81
738.723	29550.83
739.063	29505.86
739.404	29508.12
739.744	29350.39
740.084	29336.6
740.424	29376.15
740.764	29368.92
741.104	29337.73
741.444	29259.09
741.784	29063.84
742.124	29206.66
742.464	29048.93
742.804	29055.03
743.143	28982.26
743.483	28990.85
743.823	28873.79
744.162	28905.88
744.502	28896.84
744.841	28639.44
745.181	28812.77
745.52	28765.09
745.86	28737.75
746.199	28656.17
746.538	28638.99
746.877	28556.74
747.216	28670.86
747.556	28435.38
747.895	28467.25
748.234	28380.47
748.573	28333.24
748.911	28251.66
749.25	28215.5
749.589	28169.85
749.928	28282.39
750.267	28214.82
750.605	28185.9
750.944	28090.98
751.283	27968.28
751.621	28060.93
751.96	27858.45
752.298	27756.53
752.636	27900.93
752.975	27737.1
753.313	27652.13
753.651	27702.29
753.989	27564.22
754.327	27401.74
754.666	27404.9
755.004	27427.05
755.342	27448.52
755.679	27379.59
756.017	27237.45
756.355	27274.51
756.693	27155.19
757.031	27166.72
757.368	26985.25
757.706	27031.13
758.044	26840.4
758.381	26952.94
758.719	26841.75
759.056	26914.52
759.394	26746.84
759.731	26531.7
760.068	26509.78
760.405	26510.46
760.743	26398.6
761.08	26492.83
761.417	26354.08
761.754	26220.53
762.091	26067.76
762.428	26093.3
762.765	25955
763.102	25968.33
763.438	25855.11
763.775	25764.04
764.112	25790.48
764.449	25813.53
764.785	25630.26
765.122	25492.63
765.458	25444.95
765.795	25337.16
766.131	25266.88
766.467	25141.23
766.804	24979.43
767.14	25047.67
767.476	24897.4
767.812	24902.14
768.148	24817.4
768.485	24761.35
768.821	24546.44
769.157	24479.1
769.492	24392.1
769.828	24440.69
770.164	24262.84
770.5	24191.65
770.836	24199.34
771.171	23950.98
771.507	23933.35
771.842	23753.25
772.178	23852.23
772.513	23589.18
772.849	23733.58
773.184	23529.75
773.519	23487.72
773.855	23498.34
774.19	23284.33
774.525	23236.65
774.86	23259.47
775.195	23181.06
775.53	23029.87
775.865	22955.98
776.2	22877.79
776.535	22694.97
776.87	22687.06
777.205	22516.22
777.539	22496.1
777.874	22554.86
778.209	22310.57
778.543	22330.46
778.878	22210.01
779.212	22080.07
779.547	22038.26
779.881	22021.99
780.215	21907.19
780.55	21862.9
780.884	21596.24
781.218	21764.82
781.552	21608.67
781.886	21430.82
782.22	21479.18
782.554	21355.79
782.888	21138.85
783.222	21151.51
783.556	20973.66
783.889	20984.05
784.223	20826.77
784.557	20784.28
784.89	20808.69
785.224	20718.97
785.557	20613.44
785.891	20491.64
786.224	20489.15
786.558	20461.58
786.891	20221.81
787.224	20243.28
787.557	20189.27
787.891	20195.37
788.224	20021.82
788.557	20057.98
788.89	19923.06
789.223	19940.46
789.556	19751.09
789.888	19774.37
790.221	19613.24
790.554	19496.18
790.887	19500.93
791.219	19449.4
791.552	19399.69
791.884	19358.78
792.217	19262.97
792.549	19265.45
792.882	19162.18
793.214	18988.85
793.546	19008.29
793.879	18807.84
794.211	18777.11
794.543	18774.85
794.875	18762.87
795.207	18826.6
795.539	18599.03
795.871	18605.13
796.203	18471.35
796.535	18374.4
796.867	18362.2
797.198	18351.35
797.53	18230.68
797.862	18218.02
798.193	18168.76
798.525	18100.74
798.856	18106.16
799.188	17965.15
799.519	17920.86
799.85	17714.08
800.182	17813.51
800.513	17767.64
800.844	17606.97
801.175	17729.9
801.506	17696.68
801.837	17553.41
802.168	17559.74
802.499	17473.41
802.83	17330.36
803.161	17291.04
803.491	17259.4
803.822	17242.23
804.153	17199.97
804.483	17068.9
804.814	17083.59
805.145	17010.82
805.475	16991.39
805.805	16930.6
806.136	16860.09
806.466	16842.47
806.796	16838.63
807.126	16665.3
807.457	16759.76
807.787	16687.22
808.117	16574.23
808.447	16520.89
808.777	16560.21
809.107	16456.94
809.436	16438.41
809.766	16421.91
810.096	16337.62
810.426	16255.36
810.755	16298.3
811.085	16175.59
811.414	16108.47
811.744	16129.27
812.073	16063.5
812.403	16041.13
812.732	15961.59
813.061	16008.59
813.39	15793.91
813.719	15765.43
814.049	15855.83
814.378	15870.51
814.707	15735.83
815.036	15621.93
815.365	15671.88
815.693	15508.72
816.022	15485.44
816.351	15480.69
816.68	15421.04
817.008	15511.2
817.337	15348.04
817.665	15307.37
817.994	15342.39
818.322	15205.45
818.651	15236.86
818.979	15147.37
819.307	15248.61
819.636	15133.36
819.964	15121.16
820.292	15140.82
820.62	15032.57
820.948	14961.61
821.276	15075.06
821.604	15032.8
821.932	15100.14
822.259	15108.73
822.587	14938.34
822.915	14945.12
823.243	15027.6
823.57	14919.13
823.898	14997.32
824.225	14913.25
824.553	14908.96
824.88	14840.71
825.207	14967.71
825.535	14857.89
825.862	14959.35
826.189	14849.3
826.516	14907.6
826.843	14950.77
827.17	14938.56
827.497	14938.34
827.824	14891.56
828.151	14954.83
828.478	14852.46
828.805	15022.85
829.131	14853.82
829.458	14926.13
829.785	14845.46
830.111	14805.23
830.438	14898.56
830.764	14894.04
831.09	14877.32
831.417	14831.9
831.743	14862.86
832.069	14822.63
832.395	14753.48
832.722	14807.49
833.048	14743.99
833.374	14788.96
833.7	14646.59
834.026	14750.09
834.351	14696.53
834.677	14726.14
835.003	14781.28
835.329	14727.49
835.654	14730.21
835.98	14644.11
836.306	14624.67
836.631	14608.63
836.956	14702.86
837.282	14601.17
837.607	14485.24
837.932	14460.16
838.258	14469.2
838.583	14423.55
838.908	14391.68
839.233	14421.06
839.558	14378.8
839.883	14324.57
840.208	14316.66
840.533	14237.34
840.858	14309.43
841.182	14256.77
841.507	14245.02
841.832	14197.34
842.156	14166.6
842.481	14212.48
842.805	14048.19
843.13	14068.75
843.454	14126.15
843.778	13905.82
844.103	14019.26
844.427	13931.13
844.751	13854.3
845.075	13951.92
845.399	13806.39
845.723	13775.88
846.047	13831.92
846.371	13673.74
846.695	13677.13
847.019	13553.97
847.343	13395.55
847.666	13437.58
847.99	13399.39
848.313	13413.4
848.637	13314.65
848.96	13235.56
849.284	13196.01
849.607	13218.38
849.931	13182.22
850.254	13080.76
850.577	12917.82
850.9	12925.06
851.223	12899.07
851.546	12758.05
851.869	12707.21
852.192	12829.24
852.515	12636.25
852.838	12608
853.161	12590.38
853.483	12496.37
853.806	12462.02
854.129	12492.98
854.451	12454.79
854.774	12391.28
855.096	12343.83
855.419	12303.83
855.741	12226.32
856.063	12211.63
856.385	12148.58
856.708	12143.61
857.03	12094.79
857.352	12042.37
857.674	11987.68
857.996	12001.24
858.318	11942.48
858.64	11860.9
858.961	11933.44
859.283	11841.02
859.605	11816.16
859.926	11827.46
860.248	11761.92
860.57	11710.4
860.891	11770.74
861.212	11686.9
861.534	11663.17
861.855	11624.52
862.176	11639.67
862.498	11567.35
862.819	11535.26
863.14	11544.98
863.461	11502.49
863.782	11534.36
864.103	11476.28
864.424	11441.25
864.745	11406.9
865.065	11389.73
865.386	11363.97
865.707	11312.67
866.027	11338.2
866.348	11298.21
866.668	11240.13
866.989	11251.65
867.309	11121.71
867.63	11203.97
867.95	11188.83
868.27	11088.27
868.59	11127.36
868.91	11130.07
869.23	11117.87
869.55	11059.79
869.87	11124.65
870.19	11127.81
870.51	11034.26
870.83	11077.87
871.15	10963.98
871.469	10977.31
871.789	10964.43
872.109	10944.32
872.428	10874.49
872.748	10965.11
873.067	10930.53
873.386	10912.68
873.706	10883.75
874.025	10797.43
874.344	10815.51
874.663	10850.53
874.982	10821.61
875.301	10795.39
875.62	10723.31
875.939	10778.22
876.258	10729.63
876.577	10668.62
876.896	10766.92
877.214	10630.43
877.533	10566.47
877.852	10655.51
878.17	10657.32
878.489	10685.57
878.807	10666.13
879.125	10567.83
879.444	10596.76
879.762	10489.64
880.08	10473.82
880.398	10421.39
880.716	10498.9
881.034	10461.17
881.352	10447.38
881.67	10423.2
881.988	10389.3
882.306	10355.41
882.624	10431.79
882.941	10358.8
883.259	10275.41
883.577	10268.85
883.894	10284.22
884.212	10226.14
884.529	10181.62
884.846	10190.44
885.164	10170.55
885.481	10084.23
885.798	10090.55
886.115	10056.88
886.432	10039.48
886.75	10029.99
887.067	10030.67
887.383	10021.63
887.7	9964.46
888.017	9975.08
888.334	9945.92
888.651	9912.48
888.967	9881.07
889.284	9898.02
889.6	9834.52
889.917	9736.21
890.233	9722.88
890.55	9655.76
890.866	9738.7
891.182	9653.28
891.498	9654.63
891.815	9580.74
892.131	9582.77
892.447	9503.45
892.763	9512.26
893.079	9472.27
893.395	9442.21
893.71	9459.38
894.026	9481.08
894.342	9383.68
894.657	9293.06
894.973	9338.26
895.289	9334.42
895.604	9384.81
895.92	9198.15
896.235	9118.6
896.55	9125.61
896.865	9146.85
897.181	9128.32
897.496	9099.39
897.811	9046.97
898.126	9001.09
898.441	8964.71
898.756	8969.68
899.071	8893.07
899.386	8983.24
899.7	8802
900.015	8843.58
900.33	8807.88
900.644	8725.84
900.959	8706.18
901.273	8700.31
901.588	8675.68
901.902	8603.81
902.216	8587.09
902.531	8565.4
902.845	8557.71
903.159	8522.69
903.473	8434.1
903.787	8418.73
904.101	8328.34
904.415	8436.59
904.729	8433.42
905.042	8339.19
905.356	8264.84
905.67	8289.25
905.984	8253.54
906.297	8249.02
906.611	8178.97
906.924	8142.13
907.237	8124.73
907.551	8136.25
907.864	8065.52
908.177	8058.29
908.491	8004.06
908.804	7936.94
909.117	7999.31
909.43	7883.38
909.743	7824.17
910.056	7854.23
910.368	7847.45
910.681	7779.65
910.994	7725.19
911.307	7759.77
911.619	7654.46
911.932	7619.43
912.244	7616.72
912.557	7565.65
912.869	7573.11
913.181	7498.76
913.494	7542.15
913.806	7481.81
914.118	7444.07
914.43	7408.14
914.742	7362.04
915.054	7354.58
915.366	7332.21
915.678	7243.17
915.99	7237.75
916.302	7176.05
916.613	7155.49
916.925	7091.99
917.236	7156.85
917.548	7118.43
917.859	7082.27
918.171	6992.1
918.482	7016.51
918.794	6965.44
919.105	6965.66
919.416	6918.66
919.727	6896.97
920.038	6856.51
920.349	6810.87
920.66	6762.96
920.971	6724.54
921.282	6684.54
921.593	6721.38
921.903	6666.24
922.214	6646.35
922.525	6667.14
922.835	6661.94
923.146	6593.7
923.456	6537.43
923.767	6485.68
924.077	6506.02
924.387	6502.63
924.697	6416.07
925.008	6394.38
925.318	6403.87
925.628	6320.26
925.938	6335.17
926.248	6242.97
926.558	6270.54
926.867	6254.72
927.177	6287.72
927.487	6195.52
927.796	6141.96
928.106	6104.67
928.416	6085.91
928.725	6089.53
929.034	6027.84
929.344	6049.76
929.653	6030.1
929.962	5972.24
930.271	5939.93
930.581	5923.66
930.89	5878.91
931.199	5865.35
931.508	5851.34
931.817	5804.79
932.125	5818.12
932.434	5761.4
932.743	5787.62
933.051	5675.08
933.36	5673.72
933.669	5691.8
933.977	5646.15
934.286	5618.58
934.594	5631.46
934.902	5609.99
935.21	5546.94
935.519	5550.79
935.827	5515.08
936.135	5465.36
936.443	5440.28
936.751	5420.17
937.059	5400.73
937.367	5395.54
937.674	5400.06
937.982	5357.35
938.29	5301.3
938.597	5360.96
938.905	5236.9
939.213	5231.25
939.52	5229.44
939.827	5225.6
940.135	5172.94
940.442	5184.69
940.749	5140.85
941.056	5134.98
941.363	5052.04
941.67	5082.55
941.977	5047.52
942.284	5037.58
942.591	4993.51
942.898	5034.42
943.205	5011.37
943.511	4941.08
943.818	4942.89
944.125	4865.15
944.431	4892.5
944.738	4844.36
945.044	4830.13
945.35	4828.77
945.657	4833.74
945.963	4815.89
946.269	4731.37
946.575	4753.07
946.881	4710.58
947.187	4691.6
947.493	4684.14
947.799	4638.72
948.105	4640.3
948.41	4596.24
948.716	4582
949.022	4575.9
949.327	4537.93
949.633	4523.02
949.938	4517.59
950.244	4517.14
950.549	4464.04
950.854	4400.76
951.16	4455
951.465	4464.26
951.77	4414.77
952.075	4419.97
952.38	4347.43
952.685	4354.21
952.99	4336.13
953.294	4292.29
953.599	4317.82
953.904	4277.15
954.209	4215
954.513	4225.17
954.818	4237.15
955.122	4196.92
955.426	4139.52
955.731	4180.65
956.035	4166.42
956.339	4130.03
956.643	4137.94
956.948	4073.31
957.252	4074.89
957.556	4055.91
957.86	4041.45
958.163	4066.31
958.467	4009.13
958.771	3988.12
959.075	3990.83
959.378	3954.44
959.682	3992.18
959.985	3926.87
960.289	3907.67
960.592	3936.59
960.896	3878.97
961.199	3817.95
961.502	3840.32
961.805	3798.06
962.108	3815.01
962.411	3797.16
962.714	3787.44
963.017	3760.1
963.32	3761.68
963.623	3789.93
963.926	3721.68
964.228	3696.6
964.531	3657.73
964.833	3642.14
965.136	3613.44
965.438	3641.68
965.741	3525.08
966.043	3596.04
966.345	3592.87
966.648	3533.44
966.95	3551.52
967.252	3497.05
967.554	3524.17
967.856	3492.31
968.158	3438.75
968.46	3496.6
968.761	3424.51
969.063	3434.91
969.365	3448.47
969.666	3403.27
969.968	3405.08
970.269	3364.4
970.571	3342.93
970.872	3350.62
971.174	3308.36
971.475	3330.73
971.776	3298.64
972.077	3250.51
972.378	3288.25
972.679	3245.99
972.98	3245.76
973.281	3255.93
973.582	3232.88
973.883	3241.24
974.183	3206.22
974.484	3183.39
974.785	3135.93
975.085	3171.64
975.386	3109.72
975.686	3170.06
975.986	3115.82
976.287	3113.79
976.587	3102.04
976.887	3031.08
977.187	3053.45
977.487	3037.63
977.787	3013.45
978.087	3009.38
978.387	3042.83
978.687	2999.89
978.987	2970.52
979.286	2968.48
979.586	2940.91
979.885	2949.95
980.185	2934.81
980.484	2901.82
980.784	2909.95
981.083	2888.94
981.382	2854.81
981.682	2840.12
981.981	2818.2
982.28	2809.84
982.579	2794.02
982.878	2818.65
983.177	2813.46
983.475	2796.28
983.774	2760.58
984.073	2751.99
984.372	2721.48
984.67	2714.48
984.969	2715.83
985.267	2735.04
985.566	2720.13
985.864	2671.54
986.162	2674.25
986.461	2666.12
986.759	2629.06
987.057	2615.04
987.355	2587.02
987.653	2661.6
987.951	2585.89
988.249	2563.97
988.547	2583.86
988.844	2553.58
989.142	2543.86
989.44	2544.76
989.737	2530.3
990.035	2528.49
990.332	2499.79
990.63	2514.48
990.927	2487.59
991.224	2475.61
991.521	2509.51
991.819	2490.98
992.116	2450.98
992.413	2429.51
992.71	2409.4
993.006	2394.94
993.303	2410.53
993.6	2395.16
993.897	2377.54
994.193	2379.8
994.49	2391.32
994.787	2343.19
995.083	2362.62
995.379	2333.47
995.676	2315.39
995.972	2297.76
996.268	2314.94
996.565	2222.51
996.861	2233.13
997.157	2255.05
997.453	2257.54
997.749	2203.3
998.044	2220.7
998.34	2195.62
998.636	2177.09
998.932	2150.65
999.227	2169.86
999.523	2175.06
999.818	2137.99
1000.114	2140.48
1000.409	2121.95
1000.704	2081.5
1001	2080.82
1001.295	2088.73
1001.59	2093.7
1001.885	2106.81
1002.18	2066.81
1002.475	2062.29
1002.77	2020.48
1003.065	2006.7
1003.359	2001.95
1003.654	2013.48
1003.949	2023.87
1004.243	1966.7
1004.538	1958.56
1004.832	1977.55
1005.127	1952.24
1005.421	1929.64
1005.715	1923.31
1006.009	1918.11
1006.304	1909.75
1006.598	1898
1006.892	1912.24
1007.186	1859.58
1007.48	1856.42
1007.773	1848.06
1008.067	1840.6
1008.361	1843.54
1008.655	1830.88
1008.948	1814.16
1009.242	1828.85
1009.535	1775.52
1009.829	1807.38
1010.122	1778.46
1010.415	1773.71
1010.708	1775.07
1011.001	1764.9
1011.295	1736.88
1011.588	1740.26
1011.881	1697.78
1012.173	1728.06
1012.466	1708.85
1012.759	1701.4
1013.052	1680.15
1013.344	1653.94
1013.637	1653.49
1013.93	1640.83
1014.222	1623.66
1014.514	1597.44
1014.807	1595.86
1015.099	1598.35
1015.391	1600.38
1015.683	1611.23
1015.976	1578.69
1016.268	1578.91
1016.56	1572.36
1016.851	1533.72
1017.143	1546.15
1017.435	1525.13
1017.727	1500.5
1018.018	1541.85
1018.31	1490.1
1018.602	1519.93
1018.893	1459.37
1019.185	1471.8
1019.476	1444.23
1019.767	1471.12
1020.058	1453.72
1020.35	1432.48
1020.641	1449.65
1020.932	1410.78
1021.223	1432.7
1021.514	1371.91
1021.804	1404.23
1022.095	1376.88
1022.386	1357.68
1022.677	1402.87
1022.967	1372.82
1023.258	1325.13
1023.548	1373.49
1023.839	1361.29
1024.129	1320.16
1024.419	1320.16
1024.709	1301.63
1025	1263.89
1025.29	1282.2
1025.58	1303.89
1025.87	1227.06
1026.16	1240.39
1026.449	1236.32
1026.739	1248.98
1027.029	1236.55
1027.319	1248.53
1027.608	1243.78
1027.898	1229.54
1028.187	1235.65
1028.477	1189.09
1028.766	1178.7
1029.055	1213.27
1029.344	1165.36
1029.634	1184.8
1029.923	1168.98
1030.212	1147.96
1030.501	1158.59
1030.79	1111.13
1031.078	1130.11
1031.367	1128.53
1031.656	1127.4
1031.945	1097.57
1032.233	1111.35
1032.522	1098.25
1032.81	1085.14
1033.099	1088.76
1033.387	1067.06
1033.675	1060.96
1033.963	1037.68
1034.251	1042.66
1034.54	1036.78
1034.828	1024.8
1035.116	1058.02
1035.403	1027.74
1035.691	1032.26
1035.979	1010.11
1036.267	1029.32
1036.554	1009.66
1036.842	1006.72
1037.129	990.45
1037.417	956.78
1037.704	968.99
1037.992	969.21
1038.279	966.5
1038.566	945.71
1038.853	945.71
1039.14	945.71
