Data from hue_40_FLMS001491_9.txt Node
Date: Mon Feb 06 15:07:22 GMT 2017
User: dcchb
Spectrometer: FLMS00149
Trigger mode: 0
Integration Time (sec): 2.000000E-2
Scans to average: 10
Electric dark correction enabled: true
Nonlinearity correction enabled: false
Boxcar width: 0
XAxis mode: Wavelengths
Number of Pixels in Spectrum: 2048
>>>>>Begin Spectral Data<<<<<
341.393	-23.23
341.776	-23.23
342.16	-23.23
342.543	-51.03
342.927	-69.56
343.31	-86.28
343.693	-63.68
344.077	-65.04
344.46	-58.04
344.843	-36.79
345.226	-46.74
345.61	-10.8
345.993	-31.14
346.376	5.01
346.759	0.72
347.142	14.96
347.525	42.75
347.908	45.24
348.291	75.52
348.674	97.89
349.057	116.42
349.44	134.05
349.823	156.65
350.206	162.52
350.588	204.33
350.971	201.62
351.354	242.3
351.737	223.54
352.119	242.52
352.502	259.24
352.884	268.51
353.267	267.61
353.65	285.23
354.032	305.12
354.414	311.45
354.797	320.94
355.179	327.72
355.562	308.51
355.944	330.88
356.326	333.14
356.709	344.67
357.091	342.86
357.473	325.01
357.855	343.99
358.238	363.65
358.62	333.82
359.002	346.7
359.384	342.18
359.766	343.99
360.148	330.88
360.53	358.9
360.912	336.3
361.294	339.47
361.676	332.24
362.057	329.53
362.439	348.73
362.821	323.42
363.203	331.11
363.584	320.26
363.966	322.29
364.348	316.19
364.729	335.63
365.111	329.3
365.493	317.77
365.874	307.6
366.256	305.57
366.637	332.46
367.019	322.75
367.4	319.36
367.781	327.72
368.163	334.95
368.544	322.97
368.925	303.99
369.306	320.26
369.688	294.95
370.069	307.15
370.45	299.02
370.831	327.72
371.212	315.97
371.593	325.01
371.974	313.93
372.355	343.99
372.736	318
373.117	323.42
373.498	319.58
373.879	306.47
374.26	326.59
374.641	310.09
375.021	327.27
375.402	318.68
375.783	332.69
376.163	319.58
376.544	309.41
376.925	321.62
377.305	315.51
377.686	334.5
378.066	313.48
378.447	320.26
378.827	334.27
379.208	329.98
379.588	326.36
379.968	341.28
380.349	341.73
380.729	330.66
381.109	347.6
381.489	337.89
381.87	346.02
382.25	323.65
382.63	336.08
383.01	365
383.39	319.81
383.77	351.22
384.15	339.24
384.53	338.79
384.91	347.15
385.29	354.38
385.67	343.31
386.049	343.99
386.429	348.28
386.809	354.84
387.189	362.07
387.568	358
387.948	355.74
388.328	354.84
388.707	364.1
389.087	358.9
389.466	356.87
389.846	361.61
390.225	383.08
390.605	389.86
390.984	347.83
391.363	381.73
391.743	381.95
392.122	363.87
392.501	367.72
392.881	388.96
393.26	366.36
393.639	389.64
394.018	392.12
394.397	379.92
394.776	356.64
395.155	386.92
395.534	380.37
395.913	371.56
396.292	393.48
396.671	391.67
397.05	381.95
397.429	411.56
397.808	394.16
398.186	377.89
398.565	392.35
398.944	407.94
399.323	380.15
399.701	405.68
400.08	382.41
400.458	390.54
400.837	393.48
401.215	406.36
401.594	396.42
401.972	421.27
402.351	401.61
402.729	417.43
403.107	402.07
403.486	407.72
403.864	421.05
404.242	409.75
404.62	410.88
404.999	410.2
405.377	416.53
405.755	417.88
406.133	412.23
406.511	419.69
406.889	429.41
407.267	437.09
407.645	454.49
408.023	446.58
408.401	445.23
408.779	442.29
409.156	453.59
409.534	438.67
409.912	446.36
410.29	467.37
410.667	460.6
411.045	447.04
411.422	463.76
411.8	473.7
412.178	461.73
412.555	473.93
412.933	480.71
413.31	457.21
413.687	458.11
414.065	464.21
414.442	489.52
414.819	481.61
415.197	467.37
415.574	502.85
415.951	482.06
416.328	498.33
416.705	512.35
417.082	514.61
417.46	494.04
417.837	505.79
418.214	500.14
418.591	493.14
418.967	518.45
419.344	513.02
419.721	516.86
420.098	516.86
420.475	528.84
420.852	539.69
421.228	559.58
421.605	557.09
421.982	531.78
422.358	548.73
422.735	554.15
423.111	561.61
423.488	548.5
423.864	557.32
424.241	568.84
424.617	567.26
424.994	542.63
425.37	567.03
425.746	550.99
426.123	588.05
426.499	568.39
426.875	564.32
427.251	583.3
427.627	606.13
428.003	596.64
428.379	605.22
428.756	600.93
429.132	595.28
429.507	612.91
429.883	606.13
430.259	641.38
430.635	641.16
431.011	616.52
431.387	631.66
431.763	627.37
432.138	660.59
432.514	667.82
432.89	644.09
433.265	669.86
433.641	655.17
434.016	669.63
434.392	664.43
434.767	673.25
435.143	686.13
435.518	698.78
435.894	715.05
436.269	689.29
436.644	700.14
437.02	737.2
437.395	748.72
437.77	727.48
438.145	709.18
438.52	722.06
438.895	757.99
439.271	734.71
439.646	737.65
440.021	739.91
440.395	754.37
440.77	753.24
441.145	762.28
441.52	780.59
441.895	765.9
442.27	773.36
442.645	766.8
443.019	786.69
443.394	804.54
443.769	816.07
444.143	802.73
444.518	795.73
444.892	813.81
445.267	816.97
445.641	798.21
446.016	838.44
446.39	820.59
446.764	811.55
447.139	858.78
447.513	834.37
447.887	853.35
448.262	866.23
448.636	867.82
449.01	854.71
449.384	864.2
449.758	866.23
450.132	890.64
450.506	876.86
450.88	921.6
451.254	897.87
451.628	886.12
452.002	901.49
452.376	925.22
452.75	881.38
453.123	915.05
453.497	939.23
453.871	945.55
454.244	951.88
454.618	980.13
454.992	968.6
455.365	986.01
455.739	995.27
456.112	1005.21
456.486	1003.41
456.859	1030.75
457.232	1047.47
457.606	1042.73
457.979	1079.34
458.352	1060.81
458.725	1078.66
459.099	1110.52
459.472	1110.3
459.845	1128.6
460.218	1129.05
460.591	1124.53
460.964	1132.22
461.337	1156.4
461.71	1208.37
462.083	1199.33
462.456	1182.84
462.829	1200.01
463.201	1202.04
463.574	1227.58
463.947	1261.93
464.32	1302.83
464.692	1261.93
465.065	1308.48
465.438	1313
465.81	1340.8
466.183	1356.39
466.555	1379.89
466.928	1367.69
467.3	1399.55
467.672	1400.68
468.045	1442.26
468.417	1449.27
468.789	1468.93
469.161	1477.29
469.534	1487.46
469.906	1534.92
470.278	1546.67
470.65	1576.95
471.022	1625.76
471.394	1671.18
471.766	1682.94
472.138	1676.16
472.51	1727.23
472.882	1775.59
473.253	1791.86
473.625	1815.14
473.997	1852.65
474.369	1896.26
474.74	1936.49
475.112	1959.76
475.484	2000.89
475.855	2022.36
476.227	2082.47
476.598	2159.76
476.97	2171.06
477.341	2200.21
477.713	2242.7
478.084	2289.93
478.455	2376.93
478.827	2396.14
479.198	2476.14
479.569	2501.22
479.94	2603.82
480.311	2673.42
480.682	2716.13
481.053	2851.72
481.424	2882.9
481.795	2917.93
482.166	3008.32
482.537	3060.98
482.908	3182.78
483.279	3243.57
483.65	3303.91
484.021	3416.22
484.391	3482.44
484.762	3525.37
485.133	3633.17
485.503	3683.11
485.874	3801.52
486.244	3863.22
486.615	3972.59
486.985	4061.4
487.356	4174.17
487.726	4269.99
488.097	4391.79
488.467	4436.08
488.837	4543.2
489.207	4641.73
489.578	4721.73
489.948	4905.68
490.318	4930.08
490.688	5007.59
491.058	5108.83
491.428	5269.96
491.798	5363.52
492.168	5538.88
492.538	5572.78
492.908	5665.66
493.278	5747.91
493.648	5804.41
494.017	5949.04
494.387	6065.19
494.757	6217.73
495.126	6271.74
495.496	6330.95
495.866	6472.87
496.235	6545.63
496.605	6613.2
496.974	6731.62
497.344	6855.68
497.713	6942.91
498.082	7001.21
498.452	7066.75
498.821	7258.16
499.19	7228.33
499.559	7399.4
499.928	7415.44
500.298	7562.78
500.667	7704.92
501.036	7703.79
501.405	7823.57
501.774	7860.17
502.143	8010.45
502.512	8036.67
502.88	8159.83
503.249	8197.11
503.618	8297.45
503.987	8406.6
504.356	8455.64
504.724	8490.67
505.093	8570.21
505.462	8624.22
505.83	8772.69
506.199	8866.7
506.567	9017.88
506.936	9094.04
507.304	9158.67
507.672	9183.3
508.041	9290.87
508.409	9359.57
508.777	9395.73
509.145	9546.23
509.514	9540.81
509.882	9674.36
510.25	9677.98
510.618	9753.91
510.986	9835.94
511.354	9980.12
511.722	10071.42
512.09	10116.61
512.458	10120.68
512.826	10261.47
513.193	10315.93
513.561	10309.15
513.929	10413.1
514.297	10552.31
514.664	10654
515.032	10595.7
515.4	10760.21
515.767	10818.97
516.135	10904.61
516.502	10874.78
516.869	11076.59
517.237	11129.47
517.604	11086.98
517.972	11247.2
518.339	11310.93
518.706	11327.65
519.073	11386.86
519.44	11490.81
519.808	11575.33
520.175	11627.08
520.542	11834.53
520.909	11824.82
521.276	11888.32
521.643	11928.54
522.009	11983.46
522.376	12102.55
522.743	12209.21
523.11	12266.16
523.477	12425.7
523.843	12418.92
524.21	12593.61
524.577	12594.06
524.943	12744.34
525.31	12791.57
525.676	12887.84
526.043	12969.64
526.409	13114.27
526.776	13284.66
527.142	13231.11
527.508	13308.39
527.874	13357.66
528.241	13476.75
528.607	13566.69
528.973	13688.04
529.339	13646.92
529.705	13766.69
530.071	13905.89
530.437	13901.82
530.803	13971.43
531.169	14138.43
531.535	14096.62
531.901	14115.6
532.267	14249.16
532.632	14294.81
532.998	14351.98
533.364	14388.59
533.73	14431.98
534.095	14627.91
534.461	14695.48
534.826	14695.02
535.192	14890.5
535.557	14902.25
535.923	14951.97
536.288	14946.99
536.653	15045.97
537.019	14993.32
537.384	15129.14
537.749	15263.82
538.114	15195.8
538.479	15283.93
538.845	15389.69
539.21	15396.7
539.575	15486.87
539.94	15517.15
540.305	15680.31
540.67	15558.5
541.034	15740.42
541.399	15824.26
541.764	15769.12
542.129	15884.37
542.494	15971.83
542.858	15956.91
543.223	16041.43
543.587	16170.92
543.952	16153.29
544.316	16236.23
544.681	16317.13
545.045	16340.4
545.41	16336.56
545.774	16497.91
546.138	16463.11
546.503	16551.92
546.867	16484.58
547.231	16748.08
547.595	16737.91
547.959	16811.58
548.324	16859.71
548.688	16905.36
549.052	16934.51
549.416	16913.95
549.779	16986.94
550.143	17017
550.507	17212.25
550.871	17233.94
551.235	17284.56
551.599	17363.65
551.962	17424.22
552.326	17482.75
552.689	17576.98
553.053	17544.21
553.417	17693.36
553.78	17791.89
554.143	17792.57
554.507	17926.8
554.87	17885.67
555.234	18070.98
555.597	17999.57
555.96	18075.5
556.323	18127.7
556.686	18234.14
557.05	18282.73
557.413	18328.37
557.776	18388.71
558.139	18406.79
558.502	18556.16
558.865	18700.12
559.228	18727.46
559.59	18796.61
559.953	18743.28
560.316	19109.14
560.679	19008.13
561.041	19097.85
561.404	19237.28
561.767	19256.03
562.129	19247.45
562.492	19449.47
562.854	19496.03
563.217	19486.31
563.579	19513.88
563.941	19699.64
564.304	19800.2
564.666	19768.79
565.028	19858.96
565.39	19920.65
565.753	19945.96
566.115	20015.79
566.477	20109.57
566.839	20216.23
567.201	20268.89
567.563	20350.02
567.925	20427.53
568.287	20512.5
568.648	20434.53
569.01	20567.19
569.372	20751.59
569.734	20654.41
570.095	20872.94
570.457	21029.09
570.819	21083.1
571.18	21175.08
571.542	21283.1
571.903	21355.87
572.265	21415.98
572.626	21428.86
572.987	21521.74
573.349	21562.87
573.71	21763.76
574.071	21857.32
574.432	21909.75
574.794	22071.1
575.155	22090.99
575.516	22067.03
575.877	22330.75
576.238	22300.7
576.599	22494.59
576.96	22547.92
577.32	22624.76
577.681	22876.73
578.042	22891.19
578.403	22938.87
578.763	23072.43
579.124	23231.52
579.485	23352.87
579.845	23601.23
580.206	23680.1
580.566	23697.95
580.927	23911.5
581.287	24096.36
581.648	24092.74
582.008	24432.39
582.368	24531.37
582.728	24655.44
583.089	24769.33
583.449	24890.46
583.809	25145.6
584.169	25206.84
584.529	25348.75
584.889	25623.78
585.249	25732.47
585.609	25809.99
585.969	26154.83
586.329	26270.76
586.688	26475.5
587.048	26587.59
587.408	26812.67
587.768	26868.71
588.127	27180.8
588.487	27263.51
588.846	27671.63
589.206	27593.67
589.565	27795.92
589.925	28200.88
590.284	28183.71
590.643	28468.67
591.003	28648.78
591.362	28961.99
591.721	29063.68
592.08	29210.35
592.44	29539.38
592.799	29674.52
593.158	29823.66
593.517	29885.36
593.876	30200.6
594.235	30345.69
594.593	30573.7
594.952	30655.51
595.311	30807.59
595.67	31011.43
596.029	31299.11
596.387	31444.19
596.746	31752.43
597.104	31696.84
597.463	31912.2
597.822	32159.42
598.18	32193.09
598.538	32387.89
598.897	32873.98
599.255	32552.63
599.613	33218.6
599.972	33028.78
600.33	33323.46
600.688	33301.31
601.046	33589.44
601.404	34022.2
601.762	33941.07
602.12	34233.49
602.478	34297.22
602.836	34415.86
603.194	34458.57
603.552	34607.49
603.91	34655.63
604.268	34959.58
604.625	34982.17
604.983	35249.06
605.341	35159.8
605.698	35460.35
606.056	35603.85
606.413	35783.96
606.771	35982.15
607.128	35929.04
607.485	36096.95
607.843	35998.19
608.2	36527.44
608.557	36582.36
608.914	36556.82
609.272	36990.93
609.629	36959.97
609.986	37166.3
610.343	37140.31
610.7	37477.48
611.057	37362.45
611.414	37567.87
611.771	37673.18
612.127	37852.61
612.484	37912.49
612.841	37963.56
613.198	38162.43
613.554	38316.1
613.911	38363.55
614.267	38506.37
614.624	38392.71
614.98	38525.13
615.337	38743.43
615.693	38854.61
616.05	38787.5
616.406	39134.15
616.762	38929.87
617.118	39031.78
617.475	39030.43
617.831	39302.06
618.187	39544.31
618.543	39394.94
618.899	39817.98
619.255	39686.91
619.611	39608.27
619.967	39868.82
620.323	40021.14
620.678	40004.87
621.034	39871.54
621.39	39972.1
621.746	39945.43
622.101	40508.13
622.457	40179.78
622.812	40315.37
623.168	40413.89
623.523	40437.62
623.879	40551.74
624.234	40312.2
624.589	40503.84
624.945	40549.94
625.3	40626.32
625.655	40544.96
626.01	40780.67
626.365	40829.25
626.72	40787.22
627.075	40878.06
627.43	40858.86
627.785	40773.21
628.14	40835.13
628.495	40939.98
628.85	40901.79
629.205	40862.24
629.559	41052.52
629.914	40792.64
630.269	40936.82
630.623	40863.6
630.978	40830.16
631.332	41015.46
631.687	41127.32
632.041	40801
632.396	40869.02
632.75	40740.89
633.104	40983.15
633.459	40804.17
633.813	40830.61
634.167	40765.75
634.521	40867.44
634.875	40840.1
635.229	40823.83
635.583	40601.69
635.937	40898.63
636.291	40738.86
636.645	40760.1
636.999	40592.65
637.352	40856.14
637.706	40601.01
638.06	40689.37
638.413	40634.23
638.767	40431.3
639.121	40526.66
639.474	40448.24
639.828	40441.92
640.181	40472.42
640.534	40555.13
640.888	40351.3
641.241	40179.78
641.594	40249.38
641.947	40424.97
642.301	40360.34
642.654	40477.85
643.007	40391.75
643.36	40375.25
643.713	40207.8
644.066	40356.72
644.419	40101.59
644.771	39878.54
645.124	39561.49
645.477	39607.36
645.83	39212.8
646.182	39073.14
646.535	39038.56
646.888	39224.55
647.24	38949.53
647.593	39029.98
647.945	39069.52
648.298	38884.44
648.65	38823.88
649.002	38734.39
649.355	38965.35
649.707	38929.41
650.059	39017.32
650.411	39460.7
650.763	39422.28
651.115	39863.63
651.467	39810.07
651.819	39646.91
652.171	39583.63
652.523	39578.21
652.875	39562.84
653.227	39377.54
653.578	39646.23
653.93	39539.34
654.282	39406.46
654.633	39460.93
654.985	39465.67
655.337	39404.88
655.688	39453.24
656.039	39461.83
656.391	39185.68
656.742	39278.11
657.094	39234.04
657.445	39395.62
657.796	39281.04
658.147	39149.52
658.498	39269.52
658.849	39362.17
659.2	39284.66
659.551	39137.77
659.902	39326.47
660.253	39378.22
660.604	39317.65
660.955	39117.43
661.306	39231.55
661.656	39106.13
662.007	39119.24
662.358	39225
662.708	39178.9
663.059	39142.52
663.409	38963.76
663.76	39245.11
664.11	39242.63
664.461	39271.33
664.811	39212.8
665.161	39139.35
665.511	39042.18
665.862	39160.82
666.212	39341.15
666.562	39152.91
666.912	39071.78
667.262	39105.91
667.612	39110.65
667.962	39135.96
668.312	38963.76
668.662	39235.17
669.011	39068.85
669.361	39057.77
669.711	39053.7
670.06	39022.29
670.41	38854.84
670.76	38872.24
671.109	38953.82
671.459	38946.81
671.808	38856.42
672.157	38908.85
672.507	38758.8
672.856	38768.74
673.205	38792.92
673.554	38910.43
673.904	38800.38
674.253	38975.97
674.602	38690.32
674.951	38211.47
675.3	38164.01
675.649	38716.09
675.998	38434.74
676.346	38608.29
676.695	38769.19
677.044	38573.72
677.393	38481.29
677.741	38563.32
678.09	38523.55
678.438	38375.08
678.787	38385.02
679.135	38455.98
679.484	38156.1
679.832	38305.02
680.181	38138.47
680.529	38340.05
680.877	38105.71
681.225	38053.28
681.573	38339.6
681.922	38065.26
682.27	37939.16
682.618	37845.6
682.966	37817.81
683.314	37969.44
683.661	37779.16
684.009	37708.2
684.357	37633.86
684.705	37616.23
685.053	37531.03
685.4	37476.12
685.748	37360.64
686.095	37419.85
686.443	37303.02
686.79	37209.91
687.138	37309.34
687.485	37241.78
687.832	37143.47
688.18	37173.08
688.527	36911.39
688.874	36884.04
689.221	36751.84
689.568	36734.9
689.915	36741.22
690.262	36542.13
690.609	36510.72
690.956	36425.07
691.303	36518.63
691.65	36182.59
691.997	36312.31
692.344	36110.28
692.69	35982.6
693.037	35927.46
693.383	35742.83
693.73	35884.97
694.077	35626
694.423	35726.11
694.769	35492.89
695.116	35391.65
695.462	35371.54
695.808	35364.54
696.155	35427.59
696.501	35180.36
696.847	35114.37
697.193	34910.31
697.539	34978.78
697.885	34687.72
698.231	34581.05
698.577	34627.38
698.923	34529.08
699.269	34369.99
699.614	34311
699.96	34271.68
700.306	34207.05
700.651	34083.21
700.997	34053.61
701.342	33938.81
701.688	33833.5
702.033	33775.2
702.379	33710.34
702.724	33588.31
703.069	33574.75
703.415	33322.78
703.76	33363.68
704.105	33350.8
704.45	33149
704.795	33125.5
705.14	32986.07
705.485	32969.8
705.83	32883.25
706.175	32865.62
706.52	32751.05
706.865	32703.14
707.209	32536.36
707.554	32573.2
707.899	32495.01
708.243	32365.97
708.588	32393.31
708.932	32114.9
709.277	32101.8
709.621	32051.4
709.966	31844.63
710.31	32090.05
710.654	31802.14
710.998	31791.75
711.342	31827.23
711.687	31758.76
712.031	31636.27
712.375	31399.22
712.719	31542.04
713.063	31447.8
713.407	31509.95
713.75	31401.25
714.094	31358.99
714.438	31250.29
714.782	31197.41
715.125	31242.16
715.469	31172.56
715.812	30895.28
716.156	30820.7
716.499	30846.46
716.843	30779.35
717.186	30702.06
717.53	30804.88
717.873	30774.15
718.216	30578.22
718.559	30496.64
718.902	30303.43
719.246	30332.58
719.589	30235.41
719.932	30175.75
720.275	30154.73
720.617	30064.56
720.96	30070.89
721.303	30116.76
721.646	30026.82
721.989	29828.86
722.331	30049.65
722.674	29790.45
723.016	29862.53
723.359	29837.45
723.701	29808.07
724.044	29665.25
724.386	29489.89
724.729	29722.2
725.071	29524.46
725.413	29451.47
725.755	29489.66
726.097	29318.37
726.439	29311.81
726.782	29132.38
727.124	29357.69
727.465	29216
727.807	29145.94
728.149	29161.99
728.491	29079.73
728.833	29096
729.175	28991.82
729.516	29015.78
729.858	28985.04
730.199	28954.08
730.541	28834.09
730.882	28672.73
731.224	28795.44
731.565	28618.05
731.906	28690.14
732.248	28703.69
732.589	28394.32
732.93	28406.75
733.271	28436.81
733.612	28466.86
733.953	28489.46
734.294	28228.9
734.635	28155.91
734.976	28326.76
735.317	28197.95
735.658	28155.01
735.999	28253.31
736.339	28064.84
736.68	28018.29
737.021	28030.49
737.361	27887.22
737.702	28009.7
738.042	27885.64
738.383	27883.83
738.723	27953.43
739.063	27763.15
739.404	27829.37
739.744	27773.1
740.084	27532.65
740.424	27617.62
740.764	27654.91
741.104	27541.47
741.444	27470.28
741.784	27412.88
742.124	27474.8
742.464	27525.42
742.804	27357.52
743.143	27353.22
743.483	27333.56
743.823	27122.04
744.162	27201.59
744.502	27197.75
744.841	27160.68
745.181	27215.82
745.52	26966.11
745.86	27043.4
746.199	27010.41
746.538	26969.95
746.877	26979.67
747.216	26916.17
747.556	26806.34
747.895	26860.81
748.234	26698.55
748.573	26731.99
748.911	26567.25
749.25	26720.24
749.589	26467.6
749.928	26556.86
750.267	26550.76
750.605	26360.71
750.944	26428.73
751.283	26293.36
751.621	26487.48
751.96	26295.4
752.298	26176.53
752.636	26099.24
752.975	25897.67
753.313	25943.77
753.651	26083.42
753.989	25934.28
754.327	25783.55
754.666	25712.36
755.004	25802.98
755.342	25730.67
755.679	25784.22
756.017	25508.07
756.355	25673.04
756.693	25551.69
757.031	25428.75
757.368	25418.36
757.706	25428.75
758.044	25209.77
758.381	25211.13
758.719	25151.92
759.056	25115.31
759.394	25051.36
759.731	24878.48
760.068	24854.3
760.405	24754.42
760.743	24756.68
761.08	24800.07
761.417	24551.94
761.754	24571.15
762.091	24464.26
762.428	24344.71
762.765	24308.33
763.102	24316.01
763.438	24252.51
763.775	24127.32
764.112	23993.54
764.449	24124.15
764.785	24035.57
765.122	23795.8
765.458	23771.17
765.795	23741.34
766.131	23725.52
766.467	23545.86
766.804	23502.7
767.14	23263.84
767.476	23341.35
767.812	23142.26
768.148	23300.22
768.485	23024.3
768.821	22975.94
769.157	22925.09
769.492	22928.48
769.828	22870.4
770.164	22681.03
770.5	22604.42
770.836	22673.12
771.171	22468.15
771.507	22500.69
771.842	22366.69
772.178	22318.33
772.513	22276.07
772.849	22218.89
773.184	22034.49
773.519	22005.34
773.855	21968.28
774.19	21747.49
774.525	21815.06
774.86	21775.29
775.195	21732.8
775.53	21542.07
775.865	21406.03
776.2	21342.08
776.535	21238.58
776.87	21230.9
777.205	21124.01
777.539	20947.51
777.874	21073.61
778.209	20865.03
778.543	20808.31
778.878	20713.62
779.212	20700.74
779.547	20570.8
779.881	20681.31
780.215	20412.39
780.55	20431.37
780.884	20304.37
781.218	20314.54
781.552	20275.44
781.886	20060.76
782.22	20073.86
782.554	19980.53
782.888	19776.47
783.222	19823.48
783.556	19606.31
783.889	19719.3
784.223	19523.14
784.557	19455.8
784.89	19474.56
785.224	19337.16
785.557	19255.36
785.891	19192.08
786.224	19181.46
786.558	19217.16
786.891	18965.87
787.224	18926.1
787.557	18857.63
787.891	18847.46
788.224	18733.79
788.557	18790.06
788.89	18695.37
789.223	18650.63
789.556	18557.75
789.888	18420.8
790.221	18482.04
790.554	18244.76
790.887	18201.82
791.219	18082.73
791.552	18186.23
791.884	18082.96
792.217	17933.58
792.549	17930.87
792.882	17848.16
793.214	17818.1
793.546	17823.3
793.879	17664.66
794.211	17533.14
794.543	17651.33
794.875	17565.23
795.207	17588.51
795.539	17474.39
795.871	17428.28
796.203	17311.68
796.535	17209.31
796.867	17155.07
797.198	17093.38
797.53	17111.68
797.862	16978.13
798.193	17015.19
798.525	16979.48
798.856	16929.31
799.188	16720.28
799.519	16741.52
799.85	16596.89
800.182	16587.63
800.513	16606.16
800.844	16405.26
801.175	16555.31
801.506	16429.89
801.837	16356.67
802.168	16358.71
802.499	16270.8
802.83	16183.57
803.161	16104.7
803.491	16180.41
803.822	16150.58
804.153	15946.74
804.483	15884.6
804.814	15904.03
805.145	15866.74
805.475	15824.94
805.805	15691.38
806.136	15815.45
806.466	15670.14
806.796	15691.83
807.126	15605.96
807.457	15556.7
807.787	15486.19
808.117	15395.57
808.447	15380.43
808.777	15452.97
809.107	15339.75
809.436	15301.11
809.766	15302.01
810.096	15280.77
810.426	15156.48
810.755	15123.49
811.085	15129.81
811.414	15152.64
811.744	15008.91
812.073	14875.13
812.403	15056.14
812.732	14848.69
813.061	14879.65
813.39	14709.26
813.719	14762.14
814.049	14771.86
814.378	14684.85
814.707	14537.29
815.036	14614.12
815.365	14644.18
815.693	14433.79
816.022	14528.93
816.351	14507.68
816.68	14354.92
817.008	14446.89
817.337	14285.32
817.665	14207.8
817.994	14274.24
818.322	14222.27
818.651	14176.84
818.979	14094.59
819.307	14134.36
819.636	14117.64
819.964	14023.18
820.292	14134.59
820.62	14062.5
820.948	14043.06
821.276	14070.18
821.604	14006.23
821.932	14011.43
822.259	13981.37
822.587	14029.73
822.915	13891.88
823.243	13989.28
823.57	13935.72
823.898	13908.38
824.225	13875.84
824.553	13895.5
824.88	13873.58
825.207	14013.46
825.535	13860.47
825.862	13929.62
826.189	13921.48
826.516	13928.26
826.843	13951.99
827.17	13880.13
827.497	13940.01
827.824	13908.15
828.151	14026.57
828.478	13924.2
828.805	13973.91
829.131	13899.56
829.458	13925.55
829.785	13826.35
830.111	13819.34
830.438	13882.62
830.764	13941.6
831.09	13896.17
831.417	13777.99
831.743	13878.77
832.069	13898.21
832.395	13790.41
832.722	13897.53
833.048	13792
833.374	13810.3
833.7	13699.8
834.026	13728.04
834.351	13763.75
834.677	13772.11
835.003	13735.05
835.329	13716.52
835.654	13714.26
835.98	13572.11
836.306	13644.66
836.631	13565.56
836.956	13640.81
837.282	13672.9
837.607	13548.84
837.932	13517.2
838.258	13484.21
838.583	13470.42
838.908	13416.86
839.233	13387.26
839.558	13430.2
839.883	13393.59
840.208	13395.17
840.533	13349.52
840.858	13322.18
841.182	13299.13
841.507	13295.74
841.832	13300.71
842.156	13206.93
842.481	13258
842.805	13154.27
843.13	13117.89
843.454	13029.98
843.778	12987.5
844.103	13022.3
844.427	12992.24
844.751	13031.34
845.075	12935.3
845.399	12953.83
845.723	12796.54
846.047	12839.7
846.371	12772.59
846.695	12843.32
847.019	12629.77
847.343	12566.94
847.666	12467.96
847.99	12455.08
848.313	12450.79
848.637	12346.16
848.96	12347.29
849.284	12269.78
849.607	12100.52
849.931	12191.59
850.254	12078.14
850.577	12020.97
850.9	12036.56
851.223	11986.17
851.546	11953.63
851.869	11797.02
852.192	11902.1
852.515	11782.56
852.838	11708.66
853.161	11721.77
853.483	11663.24
853.806	11571.72
854.129	11599.74
854.451	11601.77
854.774	11546.86
855.096	11523.81
855.419	11451.72
855.741	11436.13
856.063	11412.17
856.385	11347.99
856.708	11330.37
857.03	11260.76
857.352	11204.49
857.674	11229.35
857.996	11215.79
858.318	11089.47
858.64	11163.36
858.961	11045.85
859.283	11068.9
859.605	10960.66
859.926	11044.72
860.248	11009.24
860.57	10927.89
860.891	10822.58
861.212	10848.34
861.534	10786.43
861.855	10916.14
862.176	10777.39
862.498	10811.28
862.819	10834.79
863.14	10743.49
863.461	10656.94
863.782	10715.92
864.103	10694.68
864.424	10651.97
864.745	10573.78
865.065	10622.59
865.386	10593.21
865.707	10559.54
866.027	10606.09
866.348	10522.7
866.668	10522.7
866.989	10405.64
867.309	10387.79
867.63	10392.09
867.95	10412.42
868.27	10389.15
868.59	10423.5
868.91	10319.55
869.23	10348.02
869.55	10290.62
869.87	10400.45
870.19	10300.11
870.51	10363.61
870.83	10267.12
871.15	10205.65
871.469	10246.78
871.789	10291.3
872.109	10207.23
872.428	10171.75
872.748	10196.38
873.067	10228.93
873.386	10141.92
873.706	10182.37
874.025	10116.84
874.344	10074.35
874.663	10087.69
874.982	10023.96
875.301	9990.97
875.62	10031.42
875.939	10007.91
876.258	9949.39
876.577	9950.74
876.896	10018.08
877.214	9910.06
877.533	9992.55
877.852	9936.73
878.17	9920.46
878.489	9894.92
878.807	9906.67
879.125	9880.91
879.444	9840.46
879.762	9836.85
880.08	9835.49
880.398	9745.1
880.716	9749.16
881.034	9789.84
881.352	9760.69
881.67	9670.75
881.988	9720.01
882.306	9677.08
882.624	9633.69
882.941	9669.39
883.259	9586.91
883.577	9552.33
883.894	9532.9
884.212	9539.9
884.529	9450.64
884.846	9471.21
885.164	9447.25
885.481	9407.48
885.798	9419
886.115	9466.91
886.432	9338.55
886.75	9297.88
887.067	9343.53
887.383	9353.24
887.7	9281.38
888.017	9302.17
888.334	9243.19
888.651	9192.12
888.967	9132.01
889.284	9057.66
889.6	9078.9
889.917	9049.52
890.233	9077.32
890.55	9039.58
890.866	9035.96
891.182	9042.74
891.498	9023.31
891.815	8985.12
892.131	8916.19
892.447	8935.4
892.763	8832.35
893.079	8891.11
893.395	8800.71
893.71	8812.69
894.026	8802.3
894.342	8739.7
894.657	8697.67
894.973	8692.7
895.289	8754.16
895.604	8656.09
895.92	8659.25
896.235	8598.69
896.55	8603.66
896.865	8507.84
897.181	8549.87
897.496	8478.69
897.811	8497.67
898.126	8423.78
898.441	8309.65
898.756	8358.69
899.071	8331.8
899.386	8307.62
899.7	8274.4
900.015	8178.81
900.33	8155.08
900.644	8205.93
900.959	8172.48
901.273	8106.27
901.588	8084.8
901.902	7982.21
902.216	8101.3
902.531	8036.22
902.845	7959.38
903.159	7946.73
903.473	7929.55
903.787	7928.65
904.101	7856.33
904.415	7810.46
904.729	7817.24
905.042	7770.91
905.356	7691.37
905.67	7671.71
905.984	7675.77
906.297	7650.46
906.611	7611.14
906.924	7579.5
907.237	7602.1
907.551	7574.98
907.864	7578.37
908.177	7554.42
908.491	7477.59
908.804	7447.3
909.117	7388.1
909.43	7366.63
909.743	7311.04
910.056	7357.82
910.368	7323.47
910.681	7228.55
910.994	7214.09
911.307	7211.6
911.619	7134.32
911.932	7171.15
912.244	7077.37
912.557	7108.78
912.869	7045.73
913.181	7024.04
913.494	6994.89
913.806	6958.28
914.118	6988.56
914.43	6892.29
914.742	6916.92
915.054	6835.57
915.366	6783.14
915.678	6804.61
915.99	6758.96
916.302	6695.91
916.613	6658.85
916.925	6631.51
917.236	6696.82
917.548	6582.02
917.859	6594.9
918.171	6616.82
918.482	6515.13
918.794	6528.01
919.105	6511.74
919.416	6435.58
919.727	6407.11
920.038	6396.03
920.349	6419.99
920.66	6328.92
920.971	6324.4
921.282	6307.45
921.593	6253.44
921.903	6204.17
922.214	6191.07
922.525	6190.61
922.835	6156.72
923.146	6134.8
923.456	6135.02
923.767	6074.68
924.077	6066.55
924.387	6038.98
924.697	5973.9
925.008	5957.63
925.318	5919.21
925.628	5944.07
925.938	5890.96
926.248	5891.64
926.558	5775.71
926.867	5834.69
927.177	5809.61
927.487	5742.94
927.796	5720.57
928.106	5744.75
928.416	5722.15
928.725	5769.16
929.034	5646.9
929.344	5673.79
929.653	5646.67
929.962	5600.35
930.271	5582.49
930.581	5540.24
930.89	5493.46
931.199	5452.55
931.508	5525.09
931.817	5467.7
932.125	5476.73
932.434	5381.82
932.743	5387.02
933.051	5332.11
933.36	5323.29
933.669	5327.36
933.977	5300.69
934.286	5293.01
934.594	5262.28
934.902	5228.83
935.21	5229.96
935.519	5177.76
935.827	5228.83
936.135	5112.9
936.443	5116.97
936.751	5055.05
937.059	5102.96
937.367	5069.74
937.674	5028.16
937.982	5010.53
938.29	5015.5
938.597	4953.81
938.905	4935.05
939.213	4914.04
939.52	4922.85
939.827	4883.3
940.135	4850.08
940.442	4821.84
940.749	4864.55
941.056	4826.81
941.363	4784.32
941.67	4716.08
941.977	4749.75
942.284	4626.59
942.591	4669.98
942.898	4692.57
943.205	4674.27
943.511	4644.44
943.818	4644.21
944.125	4588.4
944.431	4532.8
944.738	4526.03
945.044	4550.66
945.35	4510.21
945.657	4480.6
945.963	4479.02
946.269	4478.57
946.575	4492.58
946.881	4381.4
947.187	4407.16
947.493	4401.28
947.799	4347.05
948.105	4349.98
948.41	4338.91
948.716	4313.6
949.022	4309.76
949.327	4320.15
949.633	4235.86
949.938	4229.99
950.244	4237.67
950.549	4175.98
950.854	4125.36
951.16	4136.2
951.465	4135.07
951.77	4131.91
952.075	4068.86
952.38	4096.21
952.685	4064.57
952.99	4093.72
953.294	4049.65
953.599	4016.43
953.904	4007.39
954.209	3977.56
954.513	3948.64
954.818	3945.7
955.122	3891.69
955.426	3925.59
955.731	3877.68
956.035	3864.35
956.339	3893.05
956.643	3896.89
956.948	3841.3
957.252	3839.94
957.556	3819.6
957.86	3777.12
958.163	3818.25
958.467	3735.99
958.771	3728.98
959.075	3714.52
959.378	3728.08
959.682	3671.58
959.985	3685.14
960.289	3630.23
960.592	3650.34
960.896	3670
961.199	3619.16
961.502	3603.11
961.805	3613.28
962.108	3590.68
962.411	3590.91
962.714	3534.86
963.017	3535.09
963.32	3527.18
963.623	3516.56
963.926	3501.42
964.228	3457.35
964.531	3451.48
964.833	3414.42
965.136	3432.04
965.438	3400.63
965.741	3385.72
966.043	3379.84
966.345	3338.94
966.648	3338.94
966.95	3336
967.252	3277.02
967.554	3316.57
967.856	3286.28
968.158	3283.12
968.46	3221.2
968.761	3253.06
969.063	3239.05
969.365	3208.09
969.666	3179.39
969.968	3170.81
970.269	3169.68
970.571	3188.21
970.872	3185.04
971.174	3144.14
971.475	3118.6
971.776	3059.17
972.077	3066.18
972.378	3044.93
972.679	3052.62
972.98	3057.59
973.281	3047.19
973.582	2988.66
973.883	2990.92
974.183	2979.85
974.484	2998.61
974.785	2990.25
975.085	2979.63
975.386	2929.68
975.686	2918.84
975.986	2941.21
976.287	2896.01
976.587	2886.07
976.887	2923.13
977.187	2851.49
977.487	2850.14
977.787	2855.11
978.087	2840.42
978.387	2816.24
978.687	2805.39
978.987	2778.95
979.286	2798.16
979.586	2768.11
979.885	2764.94
980.185	2729.91
980.484	2754.32
980.784	2704.83
981.083	2726.52
981.382	2665.73
981.682	2714.1
981.981	2644.49
982.28	2659.18
982.579	2623.48
982.878	2645.4
983.177	2616.02
983.475	2603.59
983.774	2559.07
984.073	2581.67
984.372	2554.55
984.67	2566.75
984.969	2571.5
985.267	2560.65
985.566	2544.38
985.864	2531.73
986.162	2497.6
986.461	2507.77
986.759	2473.88
987.057	2480.43
987.355	2474.33
987.653	2447.44
987.951	2437.27
988.249	2480.88
988.547	2437.49
988.844	2403.14
989.142	2430.26
989.44	2360.88
989.737	2363.37
990.035	2380.77
990.332	2364.5
990.63	2352.75
990.927	2352.07
991.224	2329.7
991.521	2325.86
991.819	2314.56
992.116	2314.56
992.413	2280.43
992.71	2292.41
993.006	2285.86
993.303	2246.99
993.6	2261.9
993.897	2194.11
994.193	2218.74
994.49	2171.74
994.787	2174.9
995.083	2158.4
995.379	2149.59
995.676	2186.88
995.972	2122.02
996.268	2121.79
996.565	2126.09
996.861	2139.42
997.157	2122.02
997.453	2092.64
997.749	2068.91
998.044	2121.57
998.34	2098.29
998.636	2070.04
998.932	2043.38
999.227	2067.11
999.523	2031.18
999.818	2050.38
1000.114	2024.85
1000.409	1983.04
1000.704	2017.62
1001	2009.48
1001.295	1963.83
1001.59	1962.48
1001.885	1987.56
1002.18	1914.57
1002.475	1945.75
1002.77	1932.65
1003.065	1916.38
1003.359	1913.66
1003.654	1878.41
1003.949	1881.35
1004.243	1877.73
1004.538	1849.26
1004.832	1851.29
1005.127	1845.42
1005.421	1840.22
1005.715	1814.91
1006.009	1810.39
1006.304	1821.46
1006.598	1786.66
1006.892	1778.98
1007.186	1773.1
1007.48	1735.36
1007.773	1686.78
1008.067	1757.06
1008.361	1722.48
1008.655	1742.14
1008.948	1714.57
1009.242	1725.65
1009.535	1674.8
1009.829	1698.3
1010.122	1695.14
1010.415	1651.98
1010.708	1660.56
1011.001	1658.3
1011.295	1653.78
1011.588	1642.03
1011.881	1601.13
1012.173	1598.64
1012.466	1595.48
1012.759	1589.15
1013.052	1582.37
1013.344	1595.03
1013.637	1557.29
1013.93	1547.12
1014.222	1569.04
1014.514	1540.79
1014.807	1519.1
1015.099	1497.86
1015.391	1499.44
1015.683	1504.41
1015.976	1503.96
1016.268	1495.82
1016.56	1472.09
1016.851	1471.64
1017.143	1476.16
1017.435	1443.62
1017.727	1455.15
1018.018	1429.38
1018.31	1441.81
1018.602	1437.52
1018.893	1409.5
1019.185	1402.04
1019.476	1395.49
1019.767	1381.93
1020.058	1356.84
1020.35	1399.55
1020.641	1381.7
1020.932	1371.31
1021.223	1322.72
1021.514	1318.88
1021.804	1330.18
1022.095	1301.25
1022.386	1286.79
1022.677	1292.89
1022.967	1307.58
1023.258	1263.29
1023.548	1253.34
1023.839	1269.39
1024.129	1253.79
1024.419	1259.67
1024.709	1223.29
1025	1223.74
1025.29	1217.41
1025.58	1214.25
1025.87	1209.73
1026.16	1215.6
1026.449	1209.28
1026.739	1197.07
1027.029	1176.51
1027.319	1195.27
1027.608	1176.28
1027.898	1159.11
1028.187	1149.16
1028.477	1146.23
1028.766	1141.93
1029.055	1158.43
1029.344	1115.27
1029.634	1103.52
1029.923	1115.04
1030.212	1116.85
1030.501	1083.63
1030.79	1092.22
1031.078	1092.67
1031.367	1086.57
1031.656	1068.04
1031.945	1062.84
1032.233	1035.27
1032.522	1035.72
1032.81	1046.57
1033.099	1028.04
1033.387	1014.25
1033.675	1027.13
1033.963	1013.58
1034.251	1006.12
1034.54	1013.12
1034.828	988.94
1035.116	993.24
1035.403	982.16
1035.691	970.41
1035.979	981.03
1036.267	962.95
1036.554	944.65
1036.842	964.76
1037.129	924.76
1037.417	913.01
1037.704	934.26
1037.992	929.28
1038.279	923.63
1038.566	922.5
1038.853	922.5
1039.14	922.5
