Data from hue_310_FLMS001491_2.txt Node
Date: Mon Feb 06 15:48:22 GMT 2017
User: dcchb
Spectrometer: FLMS00149
Trigger mode: 0
Integration Time (sec): 2.000000E-2
Scans to average: 10
Electric dark correction enabled: true
Nonlinearity correction enabled: false
Boxcar width: 0
XAxis mode: Wavelengths
Number of Pixels in Spectrum: 2048
>>>>>Begin Spectral Data<<<<<
341.393	-3.91
341.776	-3.91
342.16	-3.91
342.543	-73.97
342.927	-61.99
343.31	-91.82
343.693	-74.87
344.077	-68.77
344.46	-61.76
344.843	-52.27
345.226	-60.41
345.61	-23.8
345.993	-25.83
346.376	-5.04
346.759	10.55
347.142	35.63
347.525	51
347.908	70.89
348.291	81.06
348.674	106.37
349.057	109.08
349.44	126.93
349.823	145.01
350.206	139.59
350.588	208.29
350.971	201.28
351.354	227.95
351.737	238.34
352.119	278.57
352.502	263.2
352.884	284.22
353.267	280.37
353.65	290.09
354.032	282.18
354.414	323.08
354.797	313.14
355.179	308.85
355.562	305.68
355.944	327.83
356.326	318.11
356.709	318.11
357.091	336.19
357.473	334.84
357.855	346.13
358.238	341.62
358.62	334.84
359.002	325.57
359.384	337.55
359.766	347.04
360.148	349.75
360.53	353.59
360.912	345.46
361.294	335.74
361.676	338.68
362.057	325.8
362.439	329.86
362.821	293.26
363.203	344.55
363.584	329.19
363.966	322.18
364.348	323.54
364.729	321.73
365.111	318.11
365.493	305.91
365.874	318.34
366.256	317.44
366.637	345.46
367.019	312.01
367.4	294.61
367.781	307.04
368.163	319.24
368.544	312.69
368.925	311.79
369.306	309.53
369.688	310.2
370.069	314.27
370.45	333.48
370.831	297.55
371.212	304.55
371.593	298.23
371.974	306.36
372.355	299.36
372.736	325.8
373.117	311.33
373.498	311.11
373.879	311.11
374.26	319.92
374.641	319.47
375.021	325.34
375.402	336.42
375.783	296.42
376.163	335.51
376.544	305.23
376.925	315.18
377.305	323.08
377.686	334.84
378.066	310.43
378.447	326.25
378.827	319.69
379.208	335.97
379.588	315.4
379.968	334.16
380.349	331.22
380.729	347.49
381.109	346.81
381.489	333.25
381.87	308.4
382.25	342.97
382.63	316.08
383.01	343.42
383.39	341.16
383.77	354.72
384.15	346.36
384.53	329.86
384.91	346.81
385.29	365.57
385.67	348.39
386.049	369.19
386.429	349.3
386.809	345.91
387.189	340.71
387.568	352.91
387.948	361.28
388.328	361.73
388.707	347.94
389.087	377.09
389.466	352.24
389.846	353.82
390.225	379.58
390.605	358.34
390.984	378.9
391.363	399.01
391.743	400.6
392.122	366.47
392.501	370.54
392.881	369.86
393.26	355.63
393.639	374.16
394.018	357.66
394.397	382.29
394.776	371.67
395.155	399.47
395.534	378.45
395.913	376.19
396.292	390.2
396.671	389.07
397.05	390.2
397.429	391.11
397.808	402.4
398.186	395.63
398.565	386.81
398.944	399.47
399.323	390.43
399.701	408.28
400.08	406.7
400.458	413.03
400.837	395.17
401.215	416.87
401.594	401.05
401.972	429.52
402.351	402.4
402.729	417.32
403.107	415.74
403.486	430.65
403.864	390.43
404.242	401.95
404.62	439.24
404.999	448.73
405.377	432.69
405.755	440.82
406.133	448.28
406.511	447.6
406.889	464.55
407.267	468.17
407.645	483.98
408.023	449.64
408.401	491.44
408.779	486.02
409.156	468.84
409.534	491.22
409.912	481.27
410.29	509.52
410.667	504.1
411.045	525.79
411.422	527.83
411.8	510.65
412.178	531.89
412.555	545
412.933	540.71
413.31	545.68
413.687	542.06
414.065	597.43
414.442	570.99
414.819	576.86
415.197	579.8
415.574	584.09
415.951	602.4
416.328	622.51
416.705	612.79
417.082	619.12
417.46	621.38
417.837	635.39
418.214	627.26
418.591	656.41
418.967	679.69
419.344	666.58
419.721	672.45
420.098	683.75
420.475	695.96
420.852	713.36
421.228	706.35
421.605	708.16
421.982	728.05
422.358	725.33
422.735	752.68
423.111	775.73
423.488	738.67
423.864	759.91
424.241	803.07
424.617	798.55
424.994	763.75
425.37	789.29
425.746	786.8
426.123	822.28
426.499	832.68
426.875	801.26
427.251	831.77
427.627	843.97
428.003	858.21
428.379	862.05
428.756	857.99
429.132	907.93
429.507	884.2
429.883	887.36
430.259	926.91
430.635	917.65
431.011	935.05
431.387	936.4
431.763	946.8
432.138	966.46
432.514	958.55
432.89	989.28
433.265	996.06
433.641	1039.45
434.016	1015.27
434.392	1033.57
434.767	1076.29
435.143	1049.17
435.518	1064.53
435.894	1087.13
436.269	1099.34
436.644	1095.72
437.02	1104.76
437.395	1122.39
437.77	1114.7
438.145	1147.24
438.52	1140.92
438.895	1161.25
439.271	1175.49
439.646	1167.13
440.021	1173.68
440.395	1200.35
440.77	1196.06
441.145	1203.29
441.52	1207.58
441.895	1231.76
442.27	1216.17
442.645	1187.47
443.019	1237.86
443.394	1246.22
443.769	1274.92
444.143	1246.68
444.518	1264.3
444.892	1249.39
445.267	1228.15
445.641	1296.39
446.016	1273.34
446.39	1291.42
446.764	1270.63
447.139	1297.3
447.513	1309.73
447.887	1300.01
448.262	1327.8
448.636	1314.47
449.01	1306.79
449.384	1354.02
449.758	1333.91
450.132	1366
450.506	1340.01
450.88	1374.81
451.254	1326.9
451.628	1383.85
452.002	1356.28
452.376	1373.9
452.75	1393.57
453.123	1416.39
453.497	1418.88
453.871	1391.76
454.244	1442.83
454.618	1449.61
454.992	1455.94
455.365	1450.06
455.739	1470.17
456.112	1492.09
456.486	1507.69
456.859	1497.29
457.232	1506.56
457.606	1527.8
457.979	1547.23
458.352	1568.02
458.725	1562.15
459.099	1584.52
459.472	1581.81
459.845	1590.17
460.218	1591.07
460.591	1605.08
460.964	1608.47
461.337	1637.17
461.71	1627.46
462.083	1661.58
462.456	1659.55
462.829	1690.51
463.201	1672.43
463.574	1669.72
463.947	1718.3
464.32	1723.05
464.692	1753.56
465.065	1725.76
465.438	1771.86
465.81	1777.06
466.183	1784.29
466.555	1811.63
466.928	1831.52
467.3	1824.51
467.672	1834.91
468.045	1906.09
468.417	1876.94
468.789	1872.87
469.161	1921.23
469.534	1924.17
469.906	1961.46
470.278	1961.91
470.65	1965.08
471.022	2006.2
471.394	2033.55
471.766	2057.73
472.138	2045.07
472.51	2078.29
472.882	2107.9
473.253	2099.76
473.625	2143.83
473.997	2171.85
474.369	2178.86
474.74	2201.23
475.112	2232.19
475.484	2228.35
475.855	2272.41
476.227	2286.65
476.598	2302.47
476.97	2338.62
477.341	2368.23
477.713	2353.77
478.084	2381.11
478.455	2411.84
478.827	2456.36
479.198	2511.73
479.569	2492.52
479.94	2577.71
480.311	2598.51
480.682	2592.63
481.053	2631.05
481.424	2674.44
481.795	2656.81
482.166	2711.27
482.537	2733.64
482.908	2769.35
483.279	2760.99
483.65	2832.4
484.021	2885.28
484.391	2907.42
484.762	2921.21
485.133	2899.74
485.503	2962.56
485.874	3005.5
486.244	2984.94
486.615	3058.83
486.985	3077.14
487.356	3112.39
487.726	3142.9
488.097	3176.34
488.467	3177.47
488.837	3219.73
489.207	3271.48
489.578	3294.98
489.948	3294.98
490.318	3317.81
490.688	3362.78
491.058	3414.3
491.428	3435.09
491.798	3440.29
492.168	3498.59
492.538	3522.77
492.908	3507.63
493.278	3567.07
493.648	3581.08
494.017	3613.39
494.387	3633.28
494.757	3635.77
495.126	3641.87
495.496	3678.25
495.866	3703.56
496.235	3767.51
496.605	3710.34
496.974	3750.57
497.344	3764.35
497.713	3790.34
498.082	3791.02
498.452	3808.64
498.821	3829.21
499.19	3845.48
499.559	3872.37
499.928	3892.71
500.298	3897.23
500.667	3944.01
501.036	3921.41
501.405	3934.29
501.774	3938.13
502.143	4021.74
502.512	3981.29
502.88	4019.03
503.249	4032.14
503.618	4074.4
503.987	4078.69
504.356	4094.06
504.724	4082.31
505.093	4098.58
505.462	4081.4
505.83	4111.23
506.199	4123.21
506.567	4155.07
506.936	4149.65
507.304	4203.66
507.672	4222.87
508.041	4242.08
508.409	4244.79
508.777	4304.9
509.145	4258.8
509.514	4291.12
509.882	4334.05
510.25	4319.59
510.618	4305.58
510.986	4320.04
511.354	4321.4
511.722	4431.68
512.09	4467.38
512.458	4400.04
512.826	4407.05
513.193	4471.45
513.561	4427.16
513.929	4429.42
514.297	4520.04
514.664	4513.48
515.032	4487.72
515.4	4508.51
515.767	4517.55
516.135	4562.52
516.502	4533.37
516.869	4594.61
517.237	4581.73
517.604	4571.56
517.972	4591.45
518.339	4631.67
518.706	4619.24
519.073	4640.94
519.44	4667.15
519.808	4644.55
520.175	4674.83
520.542	4719.58
520.909	4718.9
521.276	4754.38
521.643	4747.6
522.009	4757.32
522.376	4803.87
522.743	4778.79
523.11	4814.04
523.477	4882.96
523.843	4924.32
524.21	4948.05
524.577	4974.94
524.943	4951.21
525.31	4913.25
525.676	5041.15
526.043	4997.54
526.409	5046.58
526.776	5095.39
527.142	5133.35
527.508	5103.07
527.874	5138.1
528.241	5121.83
528.607	5138.55
528.973	5209.28
529.339	5224.42
529.705	5267.36
530.071	5278.21
530.437	5226.01
530.803	5331.99
531.169	5342.16
531.535	5343.74
531.901	5322.05
532.267	5376.96
532.632	5441.14
532.998	5433.46
533.364	5430.07
533.73	5485.89
534.095	5536.51
534.461	5516.39
534.826	5532.21
535.192	5614.7
535.557	5629.39
535.923	5645.43
536.288	5625.09
536.653	5705.09
537.019	5625.09
537.384	5685.88
537.749	5736.5
538.114	5748.93
538.479	5772.88
538.845	5737.41
539.21	5774.69
539.575	5812.21
539.94	5826.89
540.305	5897.4
540.67	5942.37
541.034	5926.1
541.399	5959.09
541.764	5963.39
542.129	5981.47
542.494	5971.07
542.858	6011.07
543.223	6021.24
543.587	6054.69
543.952	6066.21
544.316	6119.32
544.681	6174.23
545.045	6153.21
545.41	6245.64
545.774	6242.48
546.138	6239.54
546.503	6274.11
546.867	6265.3
547.231	6302.81
547.595	6376.03
547.959	6302.81
548.324	6384.85
548.688	6377.84
549.052	6415.13
549.416	6472.98
549.779	6433.21
550.143	6460.32
550.507	6558.4
550.871	6537.16
551.235	6516.59
551.599	6576.25
551.962	6533.32
552.326	6625.52
552.689	6664.61
553.053	6642.92
553.417	6628
553.78	6676.59
554.143	6723.59
554.507	6682.01
554.87	6761.33
555.234	6789.13
555.597	6764.5
555.96	6808.56
556.323	6832.74
556.686	6817.6
557.05	6859.41
557.413	6895.34
557.776	6902.35
558.139	6919.75
558.502	6954.55
558.865	6979.41
559.228	6995.9
559.59	6988.67
559.953	7019.86
560.316	7060.76
560.679	7110.7
561.041	7065.51
561.404	7129.69
561.767	7147.76
562.129	7156.35
562.492	7253.52
562.854	7207.42
563.217	7266.86
563.579	7282.45
563.941	7324.03
564.304	7364.71
564.666	7376.91
565.028	7359.74
565.39	7398.6
565.753	7441.54
566.115	7457.81
566.477	7430.92
566.839	7472.73
567.201	7548.21
567.563	7532.39
567.925	7597.02
568.287	7647.19
568.648	7627.53
569.01	7665.94
569.372	7713.17
569.734	7689.44
570.095	7810.12
570.457	7808.31
570.819	7813.28
571.18	7835.2
571.542	7891.93
571.903	7927.63
572.265	7941.87
572.626	8010.79
572.987	8008.08
573.349	8117
573.71	8157.23
574.071	8165.82
574.432	8231.58
574.794	8316.32
575.155	8371.91
575.516	8372.59
575.877	8407.17
576.238	8510.67
576.599	8612.13
576.96	8616.2
577.32	8738.91
577.681	8738
578.042	8856.87
578.403	8916.31
578.763	9005.57
579.124	9090.31
579.485	9351.32
579.845	9382.96
580.206	9415.95
580.566	9576.85
580.927	9776.62
581.287	9903.85
581.648	9906.79
582.008	10052.77
582.368	10157.4
582.728	10360.11
583.089	10565.3
583.449	10682.81
583.809	10794.9
584.169	11040.32
584.529	11208.45
584.889	11419.74
585.249	11649.11
585.609	11665.61
585.969	11986.96
586.329	12217.46
586.688	12468.53
587.048	12698.35
587.408	12848.41
587.768	13136.53
588.127	13342.86
588.487	13593.92
588.846	13946.46
589.206	14121.14
589.565	14361.36
589.925	14752.76
590.284	14921.8
590.643	15236.82
591.003	15533.76
591.362	15818.72
591.721	16136.23
592.08	16457.12
592.44	16781.18
592.799	17055.3
593.158	17302.75
593.517	17535.74
593.876	17952.23
594.235	18183.41
594.593	18567.58
594.952	18853.44
595.311	19126.88
595.67	19534.56
596.029	19858.62
596.387	20120.98
596.746	20403.69
597.104	20700.18
597.463	21034.63
597.822	21399.82
598.18	21684.33
598.538	22012.68
598.897	22388.27
599.255	22517.76
599.613	23150.73
599.972	23289.03
600.33	23649.93
600.688	23928.79
601.046	24218.73
601.404	24568.32
601.762	24885.6
602.12	25247.63
602.478	25480.16
602.836	25759.03
603.194	25855.52
603.552	26293.02
603.91	26526.46
604.268	26959.67
604.625	27143.85
604.983	27486.44
605.341	27529.15
605.698	27993.54
606.056	28273.08
606.413	28556.69
606.771	28859.96
607.128	29096.34
607.485	29178.6
607.843	29444.8
608.2	29838.92
608.557	30220.6
608.914	30213.15
609.272	30721.16
609.629	30847.25
609.986	31205.44
610.343	31151.2
610.7	31679.55
611.057	31686.55
611.414	31999.09
611.771	32174.68
612.127	32472.97
612.484	32686.53
612.841	32871.61
613.198	32949.35
613.554	33116.12
613.911	33514.08
614.267	33673.17
614.624	33721.75
614.98	34050.11
615.337	34241.97
615.693	34399.25
616.05	34587.72
616.406	34839.24
616.762	34904.55
617.118	35005.34
617.475	35212.11
617.831	35429.51
618.187	35690.74
618.543	35791.98
618.899	36084.86
619.255	35993.33
619.611	36230.84
619.967	36363.49
620.323	36560.55
620.678	36581.79
621.034	36652.3
621.39	36798.06
621.746	36896.59
622.101	37260.42
622.457	37113.3
622.812	37241.21
623.168	37495.89
623.523	37465.38
623.879	37819.5
624.234	37545.61
624.589	37879.39
624.945	37944.47
625.3	38142.88
625.655	38094.75
626.01	38161.19
626.365	38314.18
626.72	38322.76
627.075	38470.33
627.43	38577.22
627.785	38481.63
628.14	38561.4
628.495	38585.58
628.85	38744.9
629.205	38616.32
629.559	38924.56
629.914	38856.76
630.269	38904.22
630.623	38911
630.978	38965.01
631.332	38989.41
631.687	39268.5
632.041	38977.21
632.396	39129.97
632.75	39036.19
633.104	39164.1
633.459	38988.28
633.813	39092.23
634.167	39073.03
634.521	39104.89
634.875	39245.68
635.229	39258.78
635.583	39088.62
635.937	39061.95
636.291	39249.52
636.645	39247.26
636.999	39127.04
637.352	39201.84
637.706	39110.31
638.06	39200.93
638.413	39112.35
638.767	39077.32
639.121	39243.19
639.474	39062.63
639.828	39138.56
640.181	39363.19
640.534	39200.03
640.888	39205.23
641.241	38991.9
641.594	39075.29
641.947	39289.29
642.301	39090.2
642.654	39205.68
643.007	39188.28
643.36	39181.95
643.713	39070.99
644.066	39173.14
644.419	38900.38
644.771	38730.89
645.124	38462.65
645.477	38479.14
645.83	38276.89
646.182	38107.63
646.535	38005.48
646.888	38072.15
647.24	37759.61
647.593	38054.07
647.945	37927.97
648.298	37809.33
648.65	37798.26
649.002	37618.38
649.355	37848.65
649.707	37894.75
650.059	37934.3
650.411	38482.08
650.763	38466.71
651.115	38788.74
651.467	38600.72
651.819	38703.09
652.171	38653.15
652.523	38614.06
652.875	38493.61
653.227	38440.73
653.578	38725.69
653.93	38652.92
654.282	38486.83
654.633	38389.2
654.985	38518.01
655.337	38491.12
655.688	38408.19
656.039	38641.4
656.391	38302.88
656.742	38318.7
657.094	38298.36
657.445	38509.65
657.796	38425.81
658.147	38434.17
658.498	38333.38
658.849	38440.5
659.2	38503.78
659.551	38235.99
659.902	38283.89
660.253	38306.72
660.604	38480.73
660.955	38190.34
661.306	38389.2
661.656	38349.66
662.007	38308.3
662.358	38187.4
662.708	38202.31
663.059	38378.13
663.409	38167.29
663.76	38317.79
664.11	38303.1
664.461	38307.4
664.811	38345.36
665.161	38371.8
665.511	38171.36
665.862	38300.39
666.212	38257.23
666.562	38318.02
666.912	38295.65
667.262	38155.76
667.612	38150.34
667.962	38399.15
668.312	38307.17
668.662	38409.99
669.011	38201.86
669.361	38123.9
669.711	38205.25
670.06	38007.97
670.41	38009.1
670.76	38074.86
671.109	38171.13
671.459	38053.17
671.808	37976.11
672.157	38227.85
672.507	37878.48
672.856	37818.37
673.205	38056.1
673.554	38175.65
673.904	37886.39
674.253	38083.45
674.602	38079.38
674.951	37538.38
675.3	37332.51
675.649	37931.36
675.998	37841.42
676.346	37884.58
676.695	38057.69
677.044	37734.53
677.393	37799.84
677.741	37830.12
678.09	37723.46
678.438	37690.69
678.787	37761.87
679.135	37784.25
679.484	37477.36
679.832	37565.95
680.181	37263.13
680.529	37582.9
680.877	37520.98
681.225	37429.91
681.573	37650.01
681.922	37334.09
682.27	37167.09
682.618	37177.48
682.966	37103.59
683.314	37303.36
683.661	37089.12
684.009	36947.21
684.357	36950.82
684.705	36791.28
685.053	37016.36
685.4	36923.25
685.748	36652.07
686.095	36713.99
686.443	36737.27
686.79	36550.83
687.138	36494.56
687.485	36631.73
687.832	36490.04
688.18	36502.47
688.527	36161.24
688.874	36285.3
689.221	36227.68
689.568	36092.09
689.915	35881.92
690.262	35961.02
690.609	35810.74
690.956	35779.33
691.303	35760.8
691.65	35657.97
691.997	35517.87
692.344	35529.62
692.69	35369.17
693.037	35361.94
693.383	35104.32
693.73	35305.44
694.077	35010.99
694.423	34921.72
694.769	34789.52
695.116	34843.76
695.462	34786.81
695.808	34574.39
696.155	34703.42
696.501	34517.67
696.847	34450.32
697.193	34213.95
697.539	34346.6
697.885	34068.41
698.231	34118.81
698.577	34146.15
698.923	33972.14
699.269	33898.93
699.614	33726.5
699.96	33584.13
700.306	33687.41
700.651	33512.04
700.997	33452.84
701.342	33229.11
701.688	33253.74
702.033	33170.81
702.379	33188.21
702.724	32989.12
703.069	33135.33
703.415	32812.4
703.76	32820.76
704.105	32854.21
704.45	32806.3
704.795	32575.57
705.14	32341.23
705.485	32376.71
705.83	32364.73
706.175	32297.84
706.52	32378.06
706.865	32218.74
707.209	32045.19
707.554	32091.29
707.899	32108.69
708.243	32020.33
708.588	31920.45
708.932	31715.93
709.277	31673.22
709.621	31710.06
709.966	31475.71
710.31	31433.68
710.654	31388.03
710.998	31362.27
711.342	31340.57
711.687	31233.68
712.031	31087.93
712.375	30966.8
712.719	30954.82
713.063	31008.38
713.407	31026.01
713.75	30774.04
714.094	30821.04
714.438	30700.82
714.782	30676.86
715.125	30508.05
715.469	30546.47
715.812	30355.52
716.156	30331.56
716.499	30300.38
716.843	30274.16
717.186	30242.3
717.53	30250.43
717.873	30334.27
718.216	30170.89
718.559	30071.68
718.902	29879.6
719.246	29851.35
719.589	29920.72
719.932	29669.88
720.275	29719.6
720.617	29741.29
720.96	29545.59
721.303	29637.79
721.646	29696.32
721.989	29377.69
722.331	29572.26
722.674	29396.67
723.016	29320.74
723.359	29236.9
723.701	29356.45
724.044	29224.02
724.386	29079.62
724.729	29192.83
725.071	29055.44
725.413	29097.24
725.755	29028.54
726.097	28874.2
726.439	28741.09
726.782	28733.41
727.124	28956.23
727.465	28840.08
727.807	28633.3
728.149	28538.61
728.491	28615.45
728.833	28593.3
729.175	28593.08
729.516	28414.1
729.858	28376.81
730.199	28437.83
730.541	28309.02
730.882	28412.97
731.224	28354.21
731.565	28191.05
731.906	28229.92
732.248	28233.99
732.589	28051.85
732.93	27938.86
733.271	27917.84
733.612	28008.91
733.953	27989.93
734.294	27864.28
734.635	27823.83
734.976	27937.05
735.317	27757.84
735.658	27778.41
735.999	27683.04
736.339	27636.72
736.68	27858.63
737.021	27705.42
737.361	27506.32
737.702	27769.14
738.042	27554.46
738.383	27504.52
738.723	27560.56
739.063	27335.48
739.404	27275.37
739.744	27143.4
740.084	27163.73
740.424	27294.35
740.764	27181.14
741.104	27300.68
741.444	27162.83
741.784	26971.88
742.124	27099.78
742.464	27045.77
742.804	26913.12
743.143	26946.57
743.483	26871.31
743.823	26667.48
744.162	26735.95
744.502	26788.38
744.841	26510.42
745.181	26774.59
745.52	26617.31
745.86	26622.73
746.199	26638.33
746.538	26502.28
746.877	26576.18
747.216	26413.92
747.556	26427.03
747.895	26460.93
748.234	26262.29
748.573	26247.15
748.911	26215.06
749.25	26322.18
749.589	26008.29
749.928	26163.54
750.267	26166.25
750.605	26072.24
750.944	26028.85
751.283	25893.49
751.621	25940.26
751.96	25847.39
752.298	25717.22
752.636	25837.44
752.975	25549.54
753.313	25433.84
753.651	25561.29
753.989	25447.4
754.327	25493.72
754.666	25428.41
755.004	25368.3
755.342	25439.03
755.679	25278.81
756.017	25181.41
756.355	25138.93
756.693	25122.88
757.031	25079.95
757.368	24877.69
757.706	24843.8
758.044	24880.63
758.381	24858.71
758.719	24705.72
759.056	24771.03
759.394	24701.65
759.731	24438.38
760.068	24440.87
760.405	24423.02
760.743	24370.14
761.08	24315.9
761.417	24258.5
761.754	24195
762.091	24092.18
762.428	24023.48
762.765	23829.59
763.102	24015.34
763.438	23767.44
763.775	23716.14
764.112	23812.86
764.449	23750.27
764.785	23544.4
765.122	23478.63
765.458	23399.77
765.795	23263.27
766.131	23310.05
766.467	23232.31
766.804	23123.84
767.14	22956.61
767.476	22934.92
767.812	22979.66
768.148	22996.61
768.485	22790.74
768.821	22697.41
769.157	22572.9
769.492	22588.94
769.828	22426.23
770.164	22287.25
770.5	22192.57
770.836	22187.37
771.171	22207.03
771.507	21989.63
771.842	21957.54
772.178	21937.21
772.513	21969.97
772.849	21836.64
773.184	21729.75
773.519	21728.85
773.855	21559.59
774.19	21456.54
774.525	21360.05
774.86	21440.95
775.195	21310.78
775.53	21215.19
775.865	21073.5
776.2	21010
776.535	20892.49
776.87	20859.49
777.205	20850.68
777.539	20696.11
777.874	20668.09
778.209	20506.06
778.543	20544.47
778.878	20306.06
779.212	20392.16
779.547	20242.33
779.881	20303.12
780.215	20088.44
780.55	20126.63
780.884	19858.39
781.218	20041.66
781.552	19981.78
781.886	19857.71
782.22	19742.24
782.554	19669.92
782.888	19518.06
783.222	19497.5
783.556	19358.06
783.889	19300.89
784.223	19200.78
784.557	19128.47
784.89	19125.75
785.224	19103.16
785.557	18981.13
785.891	18988.81
786.224	18878.3
786.558	18848.47
786.891	18681.47
787.224	18675.6
787.557	18547.01
787.891	18564.19
788.224	18396.96
788.557	18537.3
788.89	18481.7
789.223	18387.69
789.556	18271.99
789.888	18172.78
790.221	18160.36
790.554	18019.79
790.887	18031.77
791.219	17874.71
791.552	17860.7
791.884	17872.23
792.217	17738.22
792.549	17723.98
792.882	17540.94
793.214	17446.02
793.546	17519.92
793.879	17354.5
794.211	17355.18
794.543	17384.78
794.875	17244
795.207	17254.62
795.539	17198.12
795.871	17092.81
796.203	17018.24
796.535	16917.9
796.867	16954.74
797.198	16826.61
797.53	16879.26
797.862	16700.28
798.193	16773.05
798.525	16691.24
798.856	16534.86
799.188	16536.22
799.519	16395.66
799.85	16428.42
800.182	16287.64
800.513	16378.26
800.844	16227.3
801.175	16287.41
801.506	16219.84
801.837	16145.72
802.168	16109.34
802.499	16054.65
802.83	15922.9
803.161	15903.69
803.491	15923.8
803.822	15795.9
804.153	15848.55
804.483	15684.26
804.814	15602.68
805.145	15575.34
805.475	15595.9
805.805	15549.58
806.136	15488.11
806.466	15521.1
806.796	15582.12
807.126	15343.25
807.457	15335.8
807.787	15331.5
808.117	15214.22
808.447	15232.07
808.777	15286.76
809.107	15169.25
809.436	15025.3
809.766	15091.06
810.096	14982.36
810.426	14939.88
810.755	14922.47
811.085	14932.19
811.414	14877.5
811.744	14840.9
812.073	14755.7
812.403	14802.7
812.732	14611.52
813.061	14629.6
813.39	14586.89
813.719	14517.51
814.049	14566.1
814.378	14491.3
814.707	14432.32
815.036	14410.85
815.365	14391.42
815.693	14159.56
816.022	14269.61
816.351	14281.14
816.68	14164.08
817.008	14181.48
817.337	13996.4
817.665	14039.56
817.994	14112.78
818.322	14032.78
818.651	13988.49
818.979	13973.35
819.307	13977.41
819.636	13925.44
819.964	13844.99
820.292	13899.9
820.62	13841.37
820.948	13854.25
821.276	13834.14
821.604	13830.07
821.932	13869.4
822.259	13814.71
822.587	13723.64
822.915	13760.92
823.243	13801.15
823.57	13678.44
823.898	13662.17
824.225	13761.15
824.553	13682.96
824.88	13699.91
825.207	13706.91
825.535	13729.74
825.862	13657.65
826.189	13678.67
826.516	13670.08
826.843	13768.15
827.17	13749.4
827.497	13775.84
827.824	13765.67
828.151	13720.7
828.478	13694.94
828.805	13644.99
829.131	13653.36
829.458	13595.28
829.785	13649.29
830.111	13575.84
830.438	13602.51
830.764	13643.19
831.09	13692.68
831.417	13616.29
831.743	13647.25
832.069	13695.84
832.395	13510.31
832.722	13590.98
833.048	13616.75
833.374	13542.17
833.7	13475.96
834.026	13602.28
834.351	13622.17
834.677	13531.1
835.003	13628.05
835.329	13569.29
835.654	13543.75
835.98	13433.93
836.306	13475.06
836.631	13427.37
836.956	13512.34
837.282	13460.37
837.607	13420.37
837.932	13374.94
838.258	13295.4
838.583	13266.02
838.908	13234.16
839.233	13323.19
839.558	13282.74
839.883	13209.98
840.208	13103.54
840.533	13151.67
840.858	13164.78
841.182	13139.24
841.507	13080.04
841.832	13085.46
842.156	13075.52
842.481	13059.25
842.805	12981.51
843.13	12957.33
843.454	12940.61
843.778	12842.08
844.103	12761.63
844.427	12797.78
844.751	12797.33
845.075	12806.15
845.399	12731.12
845.723	12708.75
846.047	12697.45
846.371	12559.6
846.695	12483.44
847.019	12441.18
847.343	12450
847.666	12244.81
847.99	12284.58
848.313	12334.29
848.637	12251.81
848.96	12182.21
849.284	12235.77
849.607	12078.48
849.931	12095.2
850.254	11946.28
850.577	11942.67
850.9	11875.32
851.223	11869.67
851.546	11747.19
851.869	11681.2
852.192	11684.59
852.515	11643.47
852.838	11576.8
853.161	11618.15
853.483	11442.79
853.806	11401.66
854.129	11488.67
854.451	11382.68
854.774	11304.72
855.096	11338.84
855.419	11285.73
855.741	11283.25
856.063	11191.05
856.385	11205.74
856.708	11129.58
857.03	11056.36
857.352	11120.54
857.674	11048.68
857.996	11029.7
858.318	10932.07
858.64	10984.5
858.961	10910.38
859.283	10841.23
859.605	10859.3
859.926	10894.33
860.248	10781.34
860.57	10748.8
860.891	10795.13
861.212	10627.45
861.534	10621.8
861.855	10671.29
862.176	10722.36
862.498	10630.16
862.819	10630.16
863.14	10538.18
863.461	10559.88
863.782	10538.18
864.103	10525.53
864.424	10477.39
864.745	10558.52
865.065	10445.53
865.386	10411.63
865.707	10398.98
866.027	10432.88
866.348	10359.66
866.668	10383.61
866.989	10302.03
867.309	10343.16
867.63	10346.78
867.95	10289.83
868.27	10199.44
868.59	10246.67
868.91	10228.59
869.23	10216.84
869.55	10148.36
869.87	10246.67
870.19	10158.76
870.51	10199.44
870.83	10194.46
871.15	10131.41
871.469	10089.16
871.789	10120.12
872.109	10050.06
872.428	10015.94
872.748	10085.31
873.067	10070.4
873.386	10056.39
873.706	10054.58
874.025	9986.56
874.344	9939.1
874.663	9998.31
874.982	9929.39
875.301	9925.77
875.62	9869.5
875.939	9793.57
876.258	9928.26
876.577	9796.28
876.896	9866.56
877.214	9768.71
877.533	9753.57
877.852	9784.98
878.17	9826.11
878.489	9746.79
878.807	9721.26
879.125	9685.32
879.444	9733.23
879.762	9642.39
880.08	9633.8
880.398	9614.14
880.716	9631.99
881.034	9557.19
881.352	9581.6
881.67	9592.9
881.988	9555.38
882.306	9469.51
882.624	9484.65
882.941	9422.51
883.259	9391.32
883.577	9423.18
883.894	9403.98
884.212	9375.28
884.529	9316.29
884.846	9389.96
885.164	9323.75
885.481	9270.87
885.798	9355.39
886.115	9289.18
886.432	9196.75
886.75	9165.34
887.067	9236.97
887.383	9167.6
887.7	9107.26
888.017	9082.63
888.334	9085.57
888.651	9072.69
888.967	9047.15
889.284	9033.59
889.6	9028.39
889.917	8912.92
890.233	8945
890.55	8919.69
890.866	8921.95
891.182	8839.92
891.498	8920.37
891.815	8855.52
892.131	8822.07
892.447	8732.81
892.763	8742.3
893.079	8724.67
893.395	8701.85
893.71	8627.5
894.026	8692.58
894.342	8672.24
894.657	8592.7
894.973	8575.98
895.289	8602.64
895.604	8513.15
895.92	8436.77
896.235	8410.33
896.55	8442.42
896.865	8408.97
897.181	8386.83
897.496	8381.63
897.811	8334.85
898.126	8335.53
898.441	8222.54
898.756	8251.69
899.071	8165.59
899.386	8195.65
899.7	8091.92
900.015	8095.99
900.33	8014.18
900.644	8084.46
900.959	8084.01
901.273	8015.09
901.588	7919.95
901.902	7935.31
902.216	7921.75
902.531	7879.72
902.845	7808.31
903.159	7749.33
903.473	7846.5
903.787	7739.39
904.101	7742.32
904.415	7664.81
904.729	7684.02
905.042	7650.8
905.356	7624.81
905.67	7661.87
905.984	7615.77
906.297	7571.26
906.611	7535.1
906.924	7408.77
907.237	7474.99
907.551	7454.2
907.864	7396.8
908.177	7449.45
908.491	7391.6
908.804	7339.17
909.117	7279.74
909.43	7263.24
909.743	7189.12
910.056	7189.8
910.368	7236.8
910.681	7150.48
910.994	7092.17
911.307	7077.03
911.619	6972.4
911.932	7025.73
912.244	6966.53
912.557	6974.89
912.869	6923.59
913.181	6889.69
913.494	6921.33
913.806	6805.85
914.118	6829.35
914.43	6769.24
914.742	6779.86
915.054	6788.45
915.366	6748.68
915.678	6751.84
915.99	6657.83
916.302	6637.72
916.613	6578.97
916.925	6597.5
917.236	6562.47
917.548	6567.89
917.859	6517.5
918.171	6477.5
918.482	6402.7
918.794	6424.39
919.105	6413.77
919.416	6361.8
919.727	6367.9
920.038	6323.15
920.349	6308.01
920.66	6271.85
920.971	6248.35
921.282	6190.95
921.593	6111.41
921.903	6158.86
922.214	6087
922.525	6152.76
922.835	6117.96
923.146	6082.48
923.456	6021.47
923.767	5990.28
924.077	5997.96
924.387	5910.73
924.697	5897.4
925.008	5946.21
925.318	5840.68
925.628	5898.76
925.938	5868.48
926.248	5771.53
926.558	5764.52
926.867	5774.69
927.177	5680.91
927.487	5690.63
927.796	5654.02
928.106	5644.75
928.416	5624.87
928.725	5661.02
929.034	5598.2
929.344	5552.78
929.653	5588.03
929.962	5537.18
930.271	5508.94
930.581	5484.53
930.89	5446.79
931.199	5374.48
931.508	5387.36
931.817	5393.69
932.125	5348.26
932.434	5373.12
932.743	5266.01
933.051	5275.5
933.36	5293.12
933.669	5208.38
933.977	5199.34
934.286	5170.87
934.594	5174.26
934.902	5135.84
935.21	5106.24
935.519	5088.61
935.827	5084.32
936.135	5057.88
936.443	5023.53
936.751	5003.41
937.059	5058.1
937.367	4913.92
937.674	4957.77
937.982	4970.65
938.29	4871.89
938.597	4925.9
938.905	4889.07
939.213	4811.1
939.52	4815.17
939.827	4811.78
940.135	4765.23
940.442	4731.1
940.749	4773.14
941.056	4738.79
941.363	4720.26
941.67	4647.49
941.977	4657.66
942.284	4616.31
942.591	4638.68
942.898	4596.19
943.205	4589.87
943.511	4564.56
943.818	4562.97
944.125	4540.83
944.431	4492.69
944.738	4491.11
945.044	4459.7
945.35	4409.76
945.657	4445.01
945.963	4401.17
946.269	4404.56
946.575	4392.36
946.881	4327.05
947.187	4306.93
947.493	4355.97
947.799	4308.52
948.105	4275.3
948.41	4296.09
948.716	4250.21
949.022	4220.16
949.327	4218.58
949.633	4210.67
949.938	4147.16
950.244	4133.83
950.549	4144.45
950.854	4103.32
951.16	4104.45
951.465	4101.29
951.77	4076.21
952.075	4042.76
952.38	4014.97
952.685	3981.29
952.99	4009.77
953.294	3966.38
953.599	4003.21
953.904	3957.57
954.209	3950.56
954.513	3912.82
954.818	3919.6
955.122	3923.44
955.426	3880.73
955.731	3847.74
956.035	3790.11
956.339	3830.79
956.643	3787.85
956.948	3769.32
957.252	3742.2
957.556	3736.55
957.86	3753.73
958.163	3723.22
958.467	3704.01
958.771	3657.23
959.075	3698.59
959.378	3681.87
959.682	3627.18
959.985	3598.93
960.289	3617.01
960.592	3601.19
960.896	3586.95
961.199	3565.26
961.502	3547.63
961.805	3527.75
962.108	3474.87
962.411	3500.18
962.714	3464.47
963.017	3468.76
963.32	3487.75
963.623	3442.78
963.926	3441.87
964.228	3381.99
964.531	3395.09
964.833	3403.46
965.136	3366.85
965.438	3323.68
965.741	3350.8
966.043	3300.41
966.345	3325.94
966.648	3270.8
966.95	3257.24
967.252	3240.52
967.554	3276.23
967.856	3223.35
968.158	3217.47
968.46	3191.94
968.761	3209.11
969.063	3163.91
969.365	3167.98
969.666	3151.03
969.968	3133.41
970.269	3115.55
970.571	3115.78
970.872	3114.2
971.174	3070.13
971.475	3082.56
971.776	3083.24
972.077	3029.68
972.378	3041.21
972.679	2984.94
972.98	3015.67
973.281	3032.39
973.582	2985.16
973.883	2993.52
974.183	2938.84
974.484	2946.52
974.785	2911.72
975.085	2908.33
975.386	2903.36
975.686	2884.37
975.986	2878.27
976.287	2883.92
976.587	2857.71
976.887	2830.82
977.187	2852.06
977.487	2831.95
977.787	2793.98
978.087	2817.03
978.387	2752.85
978.687	2778.16
978.987	2731.16
979.286	2717.6
979.586	2753.08
979.885	2702.68
980.185	2684.6
980.484	2707.88
980.784	2681.21
981.083	2648
981.382	2641.44
981.682	2626.3
981.981	2617.71
982.28	2627.66
982.579	2590.6
982.878	2627.43
983.177	2596.7
983.475	2586.75
983.774	2544.5
984.073	2549.24
984.372	2511.95
984.67	2527.77
984.969	2543.82
985.267	2533.42
985.566	2509.02
985.864	2465.63
986.162	2487.55
986.461	2478.28
986.759	2433.54
987.057	2415.91
987.355	2456.81
987.653	2445.74
987.951	2420.88
988.249	2412.07
988.547	2394.67
988.844	2362.81
989.142	2339.98
989.44	2342.92
989.737	2347.89
990.035	2330.72
990.332	2348.79
990.63	2330.49
990.927	2299.98
991.224	2297.5
991.521	2272.64
991.819	2283.71
992.116	2247.1
992.413	2269.93
992.71	2237.61
993.006	2200.32
993.303	2208.46
993.6	2222.24
993.897	2203.26
994.193	2203.04
994.49	2170.04
994.787	2153.32
995.083	2180.44
995.379	2166.2
995.676	2178.86
995.972	2101.57
996.268	2121.23
996.565	2102.92
996.861	2064.28
997.157	2082.13
997.453	2073.77
997.749	2064.06
998.044	2036.71
998.34	2056.6
998.636	2024.73
998.932	2037.62
999.227	2034.45
999.523	2016.6
999.818	1976.15
1000.114	1975.24
1000.409	1967.34
1000.704	1983.38
1001	1985.87
1001.295	1976.83
1001.59	1914.68
1001.885	1917.62
1002.18	1895.02
1002.475	1927.56
1002.77	1906.77
1003.065	1894.34
1003.359	1885.53
1003.654	1872.42
1003.949	1898.64
1004.243	1852.08
1004.538	1838.98
1004.832	1819.77
1005.127	1812.54
1005.421	1820.67
1005.715	1817.96
1006.009	1803.05
1006.304	1760.11
1006.598	1751.97
1006.892	1775.93
1007.186	1743.84
1007.48	1748.58
1007.773	1728.92
1008.067	1708.59
1008.361	1707.68
1008.655	1712.65
1008.948	1699.32
1009.242	1687.79
1009.535	1687.57
1009.829	1629.94
1010.122	1647.57
1010.415	1645.54
1010.708	1617.74
1011.001	1643.5
1011.295	1603.5
1011.588	1631.07
1011.881	1606.67
1012.173	1630.85
1012.466	1588.81
1012.759	1605.54
1013.052	1573.45
1013.344	1535.93
1013.637	1557.63
1013.93	1545.2
1014.222	1528.25
1014.514	1509.72
1014.807	1540.23
1015.099	1483.96
1015.391	1512.21
1015.683	1503.84
1015.976	1485.99
1016.268	1493.22
1016.56	1458.2
1016.851	1463.62
1017.143	1429.27
1017.435	1437.41
1017.727	1421.13
1018.018	1417.29
1018.31	1415.94
1018.602	1396.05
1018.893	1383.4
1019.185	1389.72
1019.476	1375.03
1019.767	1374.58
1020.058	1361.02
1020.35	1355.37
1020.641	1320.35
1020.932	1328.93
1021.223	1299.56
1021.514	1321.7
1021.804	1297.07
1022.095	1281.7
1022.386	1311.08
1022.677	1286
1022.967	1268.37
1023.258	1257.3
1023.548	1244.64
1023.839	1249.39
1024.129	1254.36
1024.419	1227.02
1024.709	1239.67
1025	1216.62
1025.29	1221.82
1025.58	1223.63
1025.87	1186.79
1026.16	1173.68
1026.449	1200.35
1026.739	1186.79
1027.029	1169.39
1027.319	1156.74
1027.608	1136.17
1027.898	1130.97
1028.187	1136.62
1028.477	1142.95
1028.766	1120.35
1029.055	1108.6
1029.344	1106.34
1029.634	1087.13
1029.923	1084.65
1030.212	1088.04
1030.501	1088.26
1030.79	1066.34
1031.078	1055.72
1031.367	1061.6
1031.656	1052.56
1031.945	1033.57
1032.233	1048.72
1032.522	1047.13
1032.81	1017.76
1033.099	1030.18
1033.387	1011.43
1033.675	1024.54
1033.963	1001.26
1034.251	981.37
1034.54	1002.84
1034.828	970.98
1035.116	978.89
1035.403	981.82
1035.691	943.41
1035.979	963.52
1036.267	972.33
1036.554	949.51
1036.842	953.58
1037.129	932.33
1037.417	918.32
1037.704	907.7
1037.992	922.39
1038.279	910.41
1038.566	893.01
1038.853	893.01
1039.14	893.01
