Data from hue_120_FLMS001491_00054.txt Node
Date: Tue Feb 07 16:59:40 GMT 2017
User: dcchb
Spectrometer: FLMS00149
Trigger mode: 0
Integration Time (sec): 2.000000E-2
Scans to average: 10
Electric dark correction enabled: true
Nonlinearity correction enabled: false
Boxcar width: 0
XAxis mode: Wavelengths
Number of Pixels in Spectrum: 2048
>>>>>Begin Spectral Data<<<<<
341.393	-25.59
341.776	-25.59
342.16	-25.59
342.543	-66.04
342.927	-48.42
343.31	-64.24
343.693	-65.37
344.077	-47.74
344.46	-45.93
344.843	-46.16
345.226	-42.99
345.61	-23.56
345.993	-21.98
346.376	4.69
346.759	4.01
347.142	17.12
347.525	34.07
347.908	54.18
348.291	54.18
348.674	94.86
349.057	94.86
349.44	123.78
349.823	139.6
350.206	150
350.588	192.03
350.971	197
351.354	240.39
351.737	239.49
352.119	250.78
352.502	259.82
352.884	258.92
353.267	266.6
353.65	283.33
354.032	293.27
354.414	305.47
354.797	318.13
355.179	312.48
355.562	323.1
355.944	321.97
356.326	323.32
356.709	316.55
357.091	320.84
357.473	346.38
357.855	316.55
358.238	359.93
358.62	350.89
359.002	354.96
359.384	349.54
359.766	356.32
360.148	340.05
360.53	337.34
360.912	343.21
361.294	339.6
361.676	316.09
362.057	314.74
362.439	332.36
362.821	337.34
363.203	343.21
363.584	308.18
363.966	324.23
364.348	314.06
364.729	325.13
365.111	330.78
365.493	327.62
365.874	317.45
366.256	339.14
366.637	317.68
367.019	326.49
367.4	303.89
367.781	308.41
368.163	316.09
368.544	324.68
368.925	318.35
369.306	316.09
369.688	316.55
370.069	304.79
370.45	301.63
370.831	295.3
371.212	317
371.593	313.38
371.974	313.16
372.355	324.68
372.736	304.57
373.117	324
373.498	323.1
373.879	311.12
374.26	331.91
374.641	326.71
375.021	312.48
375.402	331.91
375.783	318.81
376.163	331.69
376.544	302.99
376.925	329.65
377.305	315.64
377.686	325.58
378.066	324.23
378.447	322.87
378.827	336.43
379.208	326.94
379.588	349.99
379.968	337.34
380.349	331.23
380.729	328.3
381.109	330.33
381.489	336.88
381.87	315.42
382.25	327.62
382.63	347.05
383.01	324.68
383.39	358.13
383.77	339.6
384.15	345.25
384.53	333.95
384.91	337.34
385.29	367.62
385.67	351.57
386.049	359.03
386.429	372.59
386.809	361.29
387.189	349.99
387.568	374.4
387.948	327.84
388.328	365.81
388.707	349.76
389.087	352.25
389.466	375.53
389.846	358.8
390.225	365.58
390.605	364.91
390.984	370.56
391.363	360.16
391.743	361.97
392.122	388.63
392.501	352.93
392.881	370.56
393.26	382.08
393.639	392.7
394.018	362.65
394.397	367.17
394.776	399.71
395.155	409.42
395.534	371.69
395.913	373.94
396.292	368.07
396.671	380.27
397.05	391.35
397.429	389.31
397.808	379.59
398.186	390.67
398.565	387.28
398.944	420.27
399.323	395.64
399.701	405.58
400.08	408.07
400.458	410.1
400.837	397.9
401.215	399.26
401.594	412.14
401.972	423.21
402.351	423.89
402.729	391.57
403.107	394.51
403.486	395.87
403.864	416.88
404.242	435.41
404.62	407.62
404.999	426.37
405.377	421.18
405.755	432.25
406.133	432.02
406.511	430.67
406.889	436.09
407.267	439.03
407.645	406.49
408.023	422.53
408.401	424.57
408.779	419.14
409.156	446.26
409.534	467.73
409.912	444.23
410.29	468.86
410.667	459.14
411.045	456.43
411.422	456.88
411.8	468.86
412.178	491.91
412.555	501.17
412.933	477.45
413.31	476.54
413.687	468.18
414.065	483.09
414.442	481.29
414.819	501.4
415.197	497.11
415.574	498.46
415.951	498.46
416.328	495.07
416.705	517.67
417.082	474.73
417.46	499.82
417.837	488.97
418.214	505.24
418.591	505.92
418.967	515.86
419.344	527.61
419.721	525.58
420.098	536.43
420.475	516.54
420.852	533.04
421.228	522.64
421.605	555.64
421.982	545.69
422.358	558.57
422.735	547.27
423.111	539.14
423.488	554.28
423.864	566.93
424.241	577.1
424.617	554.05
424.994	580.27
425.37	609.64
425.746	582.08
426.123	581.17
426.499	571.23
426.875	580.72
427.251	615.07
427.627	602.41
428.003	617.33
428.379	597.89
428.756	602.87
429.132	611.45
429.507	598.35
429.883	642.64
430.259	622.98
430.635	642.64
431.011	640.38
431.387	636.31
431.763	633.15
432.138	632.24
432.514	658.68
432.89	665.24
433.265	666.59
433.641	669.98
434.016	674.5
434.392	701.17
434.767	685.35
435.143	687.16
435.518	684.45
435.894	727.38
436.269	705.69
436.644	724.67
437.02	732.35
437.395	728.74
437.77	761.73
438.145	745.91
438.52	722.18
438.895	746.36
439.271	749.98
439.646	766.93
440.021	753.14
440.395	797.89
440.77	769.19
441.145	762.18
441.52	785.23
441.895	779.81
442.27	815.74
442.645	809.87
443.019	807.83
443.394	810.09
443.769	803.76
444.143	804.67
444.518	811.9
444.892	831.33
445.267	831.79
445.641	845.8
446.016	810.54
446.39	855.29
446.764	856.87
447.139	839.47
447.513	833.14
447.887	857.1
448.262	855.74
448.636	875.63
449.01	885.12
449.384	886.47
449.758	875.63
450.132	902.07
450.506	926.47
450.88	929.64
451.254	930.31
451.628	916.53
452.002	936.42
452.376	935.29
452.75	941.61
453.123	952.46
453.497	965.57
453.871	959.69
454.244	981.84
454.618	989.07
454.992	998.34
455.365	996.3
455.739	1003.08
456.112	1017.77
456.486	1054.15
456.859	1050.09
457.232	1045.11
457.606	1057.32
457.979	1081.27
458.352	1106.36
458.725	1125.79
459.099	1116.75
459.472	1143.42
459.845	1114.26
460.218	1157.2
460.591	1196.07
460.964	1175.05
461.337	1200.36
461.71	1190.65
462.083	1245.79
462.456	1211.89
462.829	1228.61
463.201	1260.02
463.574	1255.73
463.947	1298.67
464.32	1334.37
464.692	1306.8
465.065	1341.6
465.438	1336.86
465.81	1389.96
466.183	1399.45
466.555	1410.08
466.928	1404.65
467.3	1429.96
467.672	1482.62
468.045	1504.54
468.417	1487.81
468.789	1496.4
469.161	1550.19
469.534	1582.27
469.906	1599.22
470.278	1624.76
470.65	1643.29
471.022	1713.12
471.394	1728.71
471.766	1742.04
472.138	1776.85
472.51	1815.04
472.882	1833.34
473.253	1858.65
473.625	1933
473.997	1960.34
474.369	1977.97
474.74	2025.88
475.112	2091.64
475.484	2122.37
475.855	2196.95
476.227	2199.43
476.598	2288.02
476.97	2326.66
477.341	2396.49
477.713	2448.92
478.084	2473.1
478.455	2592.64
478.827	2612.08
479.198	2747.22
479.569	2741.34
479.94	2870.38
480.311	2878.29
480.682	2995.34
481.053	3079.41
481.424	3150.37
481.795	3245.28
482.166	3332.06
482.537	3413.41
482.908	3528.89
483.279	3595.78
483.65	3695.67
484.021	3843.91
484.391	3882.78
484.762	3948.31
485.133	4087.75
485.503	4182.66
485.874	4317.34
486.244	4418.58
486.615	4530.67
486.985	4675.75
487.356	4769.54
487.726	4829.42
488.097	4999.13
488.467	5106.93
488.837	5248.39
489.207	5345.79
489.578	5527.26
489.948	5598.67
490.318	5788.04
490.688	5865.33
491.058	5988.03
491.428	6146.67
491.798	6254.24
492.168	6462.82
492.538	6544.63
492.908	6664.85
493.278	6818.3
493.648	6883.83
494.017	7069.14
494.387	7204.95
494.757	7258.28
495.126	7389.35
495.496	7531.5
495.866	7591.38
496.235	7755.22
496.605	7893.07
496.974	8031.14
497.344	8121.09
497.713	8231.37
498.082	8314.08
498.452	8518.59
498.821	8571.7
499.19	8634.29
499.559	8801.07
499.928	8877
500.298	8984.11
500.667	9112.92
501.036	9077.67
501.405	9255.29
501.774	9292.81
502.143	9465.01
502.512	9516.08
502.88	9615.06
503.249	9641.27
503.618	9813.92
503.987	9869.74
504.356	9915.16
504.724	10087.14
505.093	10072.67
505.462	10149.28
505.83	10239.22
506.199	10301.82
506.567	10477.86
506.936	10513.34
507.304	10502.72
507.672	10700
508.041	10699.32
508.409	10794.46
508.777	10906.55
509.145	10891.63
509.514	10981.58
509.882	11055.25
510.25	11004.63
510.618	11180.89
510.986	11183.15
511.354	11382.92
511.722	11351.28
512.09	11381.79
512.458	11353.54
512.826	11507.44
513.193	11538.4
513.561	11615.23
513.929	11656.59
514.297	11716.92
514.664	11878.73
515.032	11785.85
515.4	11811.16
515.767	11864.04
516.135	11972.06
516.502	11821.1
516.869	12085.73
517.237	12117.14
517.604	11995.33
517.972	12134.09
518.339	12184.71
518.706	12168.89
519.073	12214.54
519.44	12264.71
519.808	12305.83
520.175	12329.11
520.542	12352.84
520.909	12465.15
521.276	12410.92
521.643	12506.06
522.009	12518.71
522.376	12628.09
522.743	12623.57
523.11	12674.64
523.477	12709.21
523.843	12649.1
524.21	12825.59
524.577	12871.24
524.943	12841.64
525.31	12793.96
525.676	12977.68
526.043	12968.42
526.409	13008.42
526.776	13109.88
527.142	12968.42
527.508	13006.38
527.874	13071.92
528.241	13108.3
528.607	13057
528.973	13177.9
529.339	13085.93
529.705	13115.3
530.071	13203.66
530.437	13176.09
530.803	13155.53
531.169	13248.18
531.535	13111.01
531.901	13162.08
532.267	13110.79
532.632	13172.48
532.998	13169.99
533.364	13113.05
533.73	13124.12
534.095	13113.27
534.461	13184.23
534.826	13135.42
535.192	13155.53
535.557	13133.61
535.923	13114.4
536.288	13139.03
536.653	13092.71
537.019	13005.7
537.384	12992.14
537.749	13025.36
538.114	12939.04
538.479	12898.59
538.845	12938.59
539.21	12816.78
539.575	12881.19
539.94	12791.47
540.305	12931.81
540.67	12777.69
541.034	12754.86
541.399	12759.61
541.764	12702.66
542.129	12738.14
542.494	12673.06
542.858	12660.63
543.223	12637.35
543.587	12698.59
543.952	12598.03
544.316	12587.18
544.681	12489.11
545.045	12478.26
545.41	12497.02
545.774	12473.97
546.138	12443.46
546.503	12463.57
546.867	12375.89
547.231	12373.4
547.595	12339.96
547.959	12361.65
548.324	12250.02
548.688	12199.17
549.052	12279.17
549.416	12155.33
549.779	12097.03
550.143	12152.17
550.507	12125.27
550.871	12103.35
551.235	12053.64
551.599	12062
551.962	12009.12
552.326	12010.25
552.689	12050.25
553.053	11852.06
553.417	11918.73
553.78	12029.46
554.143	11890.93
554.507	11880.08
554.87	11819.07
555.234	11928.9
555.597	11786.75
555.96	11863.59
556.323	11860.65
556.686	11829.24
557.05	11807.09
557.413	11907.43
557.776	11802.35
558.139	11835.79
558.502	11784.04
558.865	11838.95
559.228	11791.95
559.59	11751.72
559.953	11770.48
560.316	11864.72
560.679	11854.77
561.041	11823.81
561.404	11876.69
561.767	11789.24
562.129	11777.49
562.492	11892.06
562.854	11883.02
563.217	11782.46
563.579	11789.46
563.941	11839.18
564.304	11909.46
564.666	11860.65
565.028	11930.7
565.39	11944.49
565.753	11895.68
566.115	11954.88
566.477	11953.75
566.839	11977.26
567.201	12002.11
567.563	12036.24
567.925	12003.24
568.287	11933.87
568.648	11946.52
569.01	12061.77
569.372	12085.05
569.734	11960.53
570.095	12040.76
570.457	12073.98
570.819	12109.46
571.18	12092.96
571.542	12175.22
571.903	12160.3
572.265	12224.03
572.626	12153.75
572.987	12203.01
573.349	12122.11
573.71	12152.84
574.071	12225.16
574.432	12221.54
574.794	12334.99
575.155	12270.36
575.516	12135.22
575.877	12215.67
576.238	12241.66
576.599	12271.71
576.96	12243.24
577.32	12272.16
577.681	12279.62
578.042	12266.29
578.403	12272.16
578.763	12327.75
579.124	12241.88
579.485	12342.9
579.845	12313.74
580.206	12352.39
580.566	12275.78
580.927	12158.27
581.287	12351.71
581.648	12280.07
582.008	12345.61
582.368	12290.92
582.728	12369.56
583.089	12302.22
583.449	12188.32
583.809	12287.76
584.169	12234.65
584.529	12252.05
584.889	12330.24
585.249	12180.87
585.609	12106.74
585.969	12301.31
586.329	12266.51
586.688	12198.04
587.048	12217.7
587.408	12217.02
587.768	12172.96
588.127	12204.82
588.487	12192.62
588.846	12224.93
589.206	12133.41
589.565	12073.3
589.925	12188.1
590.284	12095.44
590.643	12116.91
591.003	12178.83
591.362	12202.79
591.721	12116.91
592.08	12089.12
592.44	12134.99
592.799	12106.97
593.158	12132.28
593.517	12111.72
593.876	12097.93
594.235	12049.34
594.593	12074.43
594.952	12064.94
595.311	12085.95
595.67	12087.76
596.029	12125.73
596.387	11999.85
596.746	12141.32
597.104	12004.83
597.463	12068.55
597.822	12085.95
598.18	12065.39
598.538	12033.53
598.897	12068.33
599.255	11950.82
599.613	12145.84
599.972	12125.27
600.33	12004.83
600.688	12016.58
601.046	12032.17
601.404	12115.78
601.762	12002.11
602.12	12090.47
602.478	12057.93
602.836	12015.67
603.194	11945.62
603.552	12006.86
603.91	11986.52
604.268	12011.38
604.625	11952.62
604.983	12006.41
605.341	11951.04
605.698	12005.5
606.056	12057.25
606.413	11979.29
606.771	12063.58
607.128	12064.71
607.485	12123.01
607.843	12041.89
608.2	12090.02
608.557	12087.99
608.914	12051.83
609.272	12127.53
609.629	12169.79
609.986	12155.78
610.343	12115.56
610.7	12212.28
611.057	12208.44
611.414	12208.66
611.771	12154.65
612.127	12181.77
612.484	12087.54
612.841	12236.23
613.198	12161.43
613.554	12138.61
613.911	12249.56
614.267	12199.85
614.624	12235.55
614.98	12243.69
615.337	12371.37
615.693	12247.98
616.05	12243.46
616.406	12335.89
616.762	12366.4
617.118	12307.64
617.475	12291.82
617.831	12352.84
618.187	12338.15
618.543	12311.26
618.899	12361.2
619.255	12327.98
619.611	12413.18
619.967	12423.35
620.323	12387.19
620.678	12345.83
621.034	12318.94
621.39	12354.65
621.746	12333.18
622.101	12464.47
622.457	12357.58
622.812	12470.8
623.168	12433.97
623.523	12347.19
623.879	12395.55
624.234	12393.74
624.589	12383.57
624.945	12382.67
625.3	12377.47
625.655	12528.65
626.01	12417.7
626.365	12384.02
626.72	12432.16
627.075	12347.64
627.43	12380.63
627.785	12315.1
628.14	12331.6
628.495	12377.7
628.85	12327.08
629.205	12316.68
629.559	12355.1
629.914	12321.65
630.269	12369.34
630.623	12266.29
630.978	12348.09
631.332	12311.71
631.687	12339.96
632.041	12255.21
632.396	12257.25
632.75	12184.48
633.104	12278.72
633.459	12198.27
633.813	12205.72
634.167	12200.3
634.521	12224.71
634.875	12186.06
635.229	12212.05
635.583	12133.64
635.937	12164.6
636.291	12105.39
636.645	12035.33
636.999	12031.04
637.352	12072.17
637.706	12005.28
638.06	12078.72
638.413	11984.71
638.767	12008.22
639.121	12051.6
639.474	11996.24
639.828	11972.51
640.181	12030.36
640.534	11956.47
640.888	11897.26
641.241	11849.58
641.594	11910.36
641.947	11921.89
642.301	11958.05
642.654	11935.45
643.007	11853.42
643.36	11860.87
643.713	11806.19
644.066	11873.3
644.419	11824.27
644.771	11722.12
645.124	11571.16
645.477	11661.56
645.83	11595.57
646.182	11462.69
646.535	11459.08
646.888	11473.77
647.24	11438.74
647.593	11481
647.945	11504.5
648.298	11408.68
648.65	11389.02
649.002	11356.26
649.355	11485.97
649.707	11425.63
650.059	11450.72
650.411	11650.71
650.763	11621.78
651.115	11733.65
651.467	11722.35
651.819	11720.09
652.171	11644.16
652.523	11593.99
652.875	11681.9
653.227	11599.41
653.578	11713.31
653.93	11646.42
654.282	11652.74
654.633	11636.7
654.985	11654.55
655.337	11668.34
655.688	11650.03
656.039	11765.51
656.391	11633.08
656.742	11653.2
657.094	11678.96
657.445	11800.99
657.796	11702.46
658.147	11666.98
658.498	11706.98
658.849	11770.26
659.2	11702.69
659.551	11692.74
659.902	11709.24
660.253	11671.73
660.604	11713.99
660.955	11684.83
661.306	11721.44
661.656	11759.18
662.007	11775.68
662.358	11711.27
662.708	11736.36
663.059	11749.24
663.409	11715.79
663.76	11872.17
664.11	11831.72
664.461	11794.66
664.811	11757.83
665.161	11812.06
665.511	11683.03
665.862	11689.58
666.212	11717.83
666.562	11727.32
666.912	11752.63
667.262	11756.47
667.612	11711.95
667.962	11674.21
668.312	11634.21
668.662	11730.93
669.011	11650.48
669.361	11707.43
669.711	11731.84
670.06	11657.49
670.41	11676.02
670.76	11677.83
671.109	11681.67
671.459	11712.18
671.808	11709.01
672.157	11751.5
672.507	11618.4
672.856	11625.4
673.205	11625.17
673.554	11669.02
673.904	11709.47
674.253	11764.38
674.602	11627.66
674.951	11521
675.3	11393.77
675.649	11586.98
675.998	11518.74
676.346	11588.57
676.695	11627.66
677.044	11463.37
677.393	11457.04
677.741	11517.83
678.09	11469.02
678.438	11460.89
678.787	11475.8
679.135	11514.89
679.484	11363.49
679.832	11382.7
680.181	11444.16
680.529	11410.04
680.877	11368.68
681.225	11353.54
681.573	11336.37
681.922	11366.65
682.27	11302.25
682.618	11279.87
682.966	11176.37
683.314	11178.18
683.661	11167.33
684.009	11165.07
684.357	11107.22
684.705	11099.76
685.053	11045.75
685.4	11072.87
685.748	11088.92
686.095	11036.49
686.443	11019.99
686.79	11083.95
687.138	10996.26
687.485	10989.71
687.832	10941.12
688.18	10962.59
688.527	10870.84
688.874	10893.67
689.221	10809.83
689.568	10840.34
689.915	10759.89
690.262	10797.63
690.609	10797.17
690.956	10695.26
691.303	10709.04
691.65	10618.65
691.997	10615.94
692.344	10469.72
692.69	10532.32
693.037	10552.21
693.383	10364.19
693.73	10495.49
694.077	10365.55
694.423	10402.16
694.769	10361.48
695.116	10301.37
695.462	10259.33
695.808	10232.89
696.155	10290.07
696.501	10163.97
696.847	10089.85
697.193	10089.17
697.539	10072.67
697.885	10011.21
698.231	10024.54
698.577	10014.82
698.923	9984.09
699.269	9904.99
699.614	9854.6
699.96	9797.2
700.306	9815.96
700.651	9782.51
700.997	9733.47
701.342	9722.17
701.688	9712.46
702.033	9692.57
702.379	9605.11
702.724	9545.68
703.069	9553.82
703.415	9470.88
703.76	9435.85
704.105	9429.53
704.45	9441.5
704.795	9390.88
705.14	9387.04
705.485	9302.98
705.83	9273.15
706.175	9322.86
706.52	9256.88
706.865	9215.97
707.209	9196.99
707.554	9166.26
707.899	9147.5
708.243	9135.07
708.588	9095.07
708.932	9062.3
709.277	8969.88
709.621	9048.29
709.966	8998.8
710.31	8946.83
710.654	8909.31
710.998	8907.96
711.342	8879.03
711.687	8923.78
712.031	8862.76
712.375	8808.3
712.719	8881.74
713.063	8758.13
713.407	8878.35
713.75	8776.89
714.094	8789.09
714.438	8749.54
714.782	8670
715.125	8687.17
715.469	8717
715.812	8676.1
716.156	8629.77
716.499	8602.2
716.843	8666.83
717.186	8539.38
717.53	8625.25
717.873	8551.36
718.216	8581.86
718.559	8547.29
718.902	8486.27
719.246	8524.24
719.589	8535.54
719.932	8495.54
720.275	8494.86
720.617	8507.74
720.96	8446.95
721.303	8435.2
721.646	8479.72
721.989	8398.59
722.331	8430.91
722.674	8385.71
723.016	8403.11
723.359	8383.45
723.701	8388.65
724.044	8396.33
724.386	8312.49
724.729	8357.46
725.071	8354.3
725.413	8336.9
725.755	8305.94
726.097	8316.11
726.439	8288.77
726.782	8296.67
727.124	8300.06
727.465	8230.24
727.807	8306.39
728.149	8226.17
728.491	8227.52
728.833	8287.41
729.175	8277.92
729.516	8235.89
729.858	8206.28
730.199	8290.57
730.541	8205.6
730.882	8220.97
731.224	8255.09
731.565	8193.85
731.906	8161.31
732.248	8239.95
732.589	8152.72
732.93	8206.51
733.271	8162.21
733.612	8247.41
733.953	8228.88
734.294	8256.9
734.635	8162.44
734.976	8186.39
735.317	8261.87
735.658	8202.21
735.999	8168.09
736.339	8256.68
736.68	8159.28
737.021	8231.14
737.361	8179.62
737.702	8267.97
738.042	8244.47
738.383	8227.07
738.723	8298.93
739.063	8299.61
739.404	8292.83
739.744	8318.37
740.084	8282.44
740.424	8261.2
740.764	8269.78
741.104	8324.24
741.444	8276.34
741.784	8336
742.124	8286.96
742.464	8351.59
742.804	8335.32
743.143	8358.37
743.483	8356.79
743.823	8449.44
744.162	8379.61
744.502	8436.33
744.841	8485.14
745.181	8559.27
745.52	8552.94
745.86	8582.54
746.199	8636.55
746.538	8671.13
746.877	8795.64
747.216	8762.88
747.556	8743.89
747.895	8837
748.234	8820.5
748.573	8904.57
748.911	8926.26
749.25	8973.72
749.589	9004.9
749.928	9101.17
750.267	9190.66
750.605	9289.42
750.944	9230.44
751.283	9271.11
751.621	9427.72
751.96	9435.4
752.298	9582.74
752.636	9662.97
752.975	9803.75
753.313	9857.76
753.651	10022.96
753.989	10025.44
754.327	10109.06
754.666	10247.81
755.004	10410.29
755.342	10500.91
755.679	10615.26
756.017	10730.51
756.355	10815.93
756.693	11001.46
757.031	11050.27
757.368	11204.85
757.706	11376.14
758.044	11488.91
758.381	11694.78
758.719	11791.5
759.056	11948.78
759.394	12109.91
759.731	12133.41
760.068	12312.39
760.405	12534.08
760.743	12568.65
761.08	12744.92
761.417	12898.59
761.754	13080.5
762.091	13228.07
762.428	13341.97
762.765	13466.93
763.102	13689.3
763.438	13846.36
763.775	13922.97
764.112	14129.29
764.449	14285.67
764.785	14446.57
765.122	14524.53
765.458	14739.89
765.795	14795.26
766.131	15003.16
766.467	15109.15
766.804	15161.13
767.14	15344.17
767.476	15440.44
767.812	15577.39
768.148	15773.31
768.485	15796.82
768.821	15891.96
769.157	16044.27
769.492	16125.85
769.828	16346.41
770.164	16309.8
770.5	16456.01
770.836	16562.45
771.171	16621.2
771.507	16627.3
771.842	16608.09
772.178	16840.63
772.513	16903
772.849	16951.59
773.184	17031.36
773.519	17151.36
773.855	17205.59
774.19	17240.17
774.525	17302.54
774.86	17447.39
775.195	17525.58
775.53	17548.41
775.865	17537.11
776.2	17502.53
776.535	17430.45
776.87	17519.71
777.205	17474.29
777.539	17572.36
777.874	17705.24
778.209	17639.03
778.543	17657.11
778.878	17643.55
779.212	17728.06
779.547	17704.79
779.881	17814.84
780.215	17769.19
780.55	17936.42
780.884	17777.56
781.218	17766.93
781.552	17883.09
781.886	17856.65
782.22	17785.46
782.554	17817.78
782.888	17688.74
783.222	17743.66
783.556	17608.75
783.889	17655.75
784.223	17575.98
784.557	17701.17
784.89	17842.86
785.224	17597.67
785.557	17606.71
785.891	17617.11
786.224	17659.59
786.558	17494.85
786.891	17567.84
787.224	17490.33
787.557	17475.87
787.891	17476.55
788.224	17470.22
788.557	17463.21
788.89	17452.82
789.223	17456.43
789.556	17282.88
789.888	17310.22
790.221	17248.3
790.554	17281.3
790.887	17222.09
791.219	17220.96
791.552	17060.51
791.884	17050.34
792.217	17109.78
792.549	17008.99
792.882	16997.69
793.214	16960.4
793.546	16935.77
793.879	16857.81
794.211	16773.97
794.543	16965.83
794.875	16711.59
795.207	16941.64
795.539	16906.62
795.871	16797.92
796.203	16635.44
796.535	16681.09
796.867	16535.33
797.198	16474.99
797.53	16492.17
797.862	16368.78
798.193	16450.81
798.525	16358.84
798.856	16402.68
799.188	16264.15
799.519	16298.95
799.85	16078.84
800.182	16162.68
800.513	16217.37
800.844	16094.66
801.175	16176.24
801.506	16149.12
801.837	15980.09
802.168	16000.88
802.499	15937.38
802.83	15858.28
803.161	15874.1
803.491	15839.53
803.822	15888.11
804.153	15670.72
804.483	15698.74
804.814	15726.31
805.145	15649.7
805.475	15652.87
805.805	15489.03
806.136	15542.36
806.466	15564.51
806.796	15502.36
807.126	15372.65
807.457	15401.12
807.787	15400.22
808.117	15319.09
808.447	15261.69
808.777	15378.3
809.107	15277.73
809.436	15188.47
809.766	15168.81
810.096	15150.28
810.426	15097.4
810.755	15122.26
811.085	15093.56
811.414	15020.79
811.744	14915.26
812.073	14872.55
812.403	14993.9
812.732	14894.92
813.061	14851.76
813.39	14745.32
813.719	14747.13
814.049	14876.39
814.378	14729.5
814.707	14709.16
815.036	14707.13
815.365	14595.72
815.693	14547.36
816.022	14514.82
816.351	14548.26
816.68	14427.36
817.008	14455.61
817.337	14367.25
817.665	14318.21
817.994	14328.38
818.322	14388.72
818.651	14247.25
818.979	14230.3
819.307	14301.71
819.636	14235.05
819.964	14243.41
820.292	14273.69
820.62	14201.38
820.948	14149.85
821.276	14212.45
821.604	14205.45
821.932	14177.88
822.259	14179.91
822.587	14162.96
822.915	14130.87
823.243	14247.25
823.57	14081.16
823.898	14194.37
824.225	14149.4
824.553	14086.8
824.88	14072.34
825.207	14204.32
825.535	14132.45
825.862	14139.46
826.189	14130.87
826.516	14185.79
826.843	14175.62
827.17	14165.67
827.497	14210.42
827.824	14180.36
828.151	14263.75
828.478	14130.19
828.805	14198.21
829.131	14145.33
829.458	14137.65
829.785	14093.81
830.111	14078.44
830.438	14147.59
830.764	14138.1
831.09	14161.38
831.417	14161.83
831.743	14134.71
832.069	14143.98
832.395	14000.48
832.722	14125.45
833.048	14018.11
833.374	14137.88
833.7	14026.47
834.026	13971.78
834.351	14051.33
834.677	14013.59
835.003	14144.66
835.329	14062.62
835.654	14001.84
835.98	13959.8
836.306	14003.87
836.631	13957.54
836.956	13975.4
837.282	13961.38
837.607	13882.74
837.932	13814.5
838.258	13874.38
838.583	13910.54
838.908	13694.5
839.233	13818.34
839.558	13847.94
839.883	13713.93
840.208	13654.73
840.533	13646.82
840.858	13775.17
841.182	13671
841.507	13784.44
841.832	13543.54
842.156	13512.36
842.481	13593.94
842.805	13531.57
843.13	13501.28
843.454	13487.27
843.778	13493.6
844.103	13366.82
844.427	13385.13
844.751	13395.3
845.075	13348.52
845.399	13275.07
845.723	13182.87
846.047	13313.49
846.371	13131.12
846.695	12996.21
847.019	13019.49
847.343	12939.94
847.666	12890.23
847.99	12846.61
848.313	12817.46
848.637	12757.12
848.96	12745.82
849.284	12753.28
849.607	12646.39
849.931	12547.41
850.254	12494.98
850.577	12390.8
850.9	12314.87
851.223	12366.17
851.546	12346.51
851.869	12246.85
852.192	12324.59
852.515	12112.17
852.838	12101.09
853.161	12123.01
853.483	12099.51
853.806	12060.42
854.129	11948.1
854.451	11909.91
854.774	11865.39
855.096	11876.69
855.419	11839.86
855.741	11709.01
856.063	11642.35
856.385	11704.27
856.708	11655.91
857.03	11602.58
857.352	11726.64
857.674	11585.63
857.996	11502.47
858.318	11496.36
858.64	11547.44
858.961	11427.89
859.283	11384.28
859.605	11297.73
859.926	11357.84
860.248	11292.53
860.57	11245.98
860.891	11299.31
861.212	11232.42
861.534	11161.23
861.855	11126.88
862.176	11194.45
862.498	11166.88
862.819	11146.09
863.14	11137.73
863.461	11045.3
863.782	11044.17
864.103	11104.96
864.424	10983.16
864.745	11027.9
865.065	10937.96
865.386	10878.3
865.707	10925.76
866.027	10865.87
866.348	10883.05
866.668	10849.83
866.989	10788.59
867.309	10797.17
867.63	10834.91
867.95	10769.38
868.27	10672.88
868.59	10786.55
868.91	10702.94
869.23	10708.59
869.55	10627.46
869.87	10752.2
870.19	10660
870.51	10694.58
870.83	10703.39
871.15	10663.17
871.469	10603.96
871.789	10627.23
872.109	10600.34
872.428	10503.4
872.748	10558.99
873.067	10477.86
873.386	10518.99
873.706	10492.55
874.025	10465.88
874.344	10404.87
874.663	10380.46
874.982	10387.02
875.301	10423.85
875.62	10328.49
875.939	10398.54
876.258	10410.29
876.577	10254.36
876.896	10346.56
877.214	10267.24
877.533	10264.08
877.852	10239.45
878.17	10231.31
878.489	10287.13
878.807	10208.04
879.125	10140.92
879.444	10223.4
879.762	10152.67
880.08	10168.04
880.398	10137.53
880.716	10094.82
881.034	10016.86
881.352	10092.79
881.67	9999
881.988	10022.28
882.306	10012.56
882.624	9949.74
882.941	9920.59
883.259	9873.36
883.577	9909.06
883.894	9950.64
884.212	9879.91
884.529	9817.09
884.846	9839.46
885.164	9826.58
885.481	9794.26
885.798	9817.54
886.115	9692.57
886.432	9721.5
886.75	9619.58
887.067	9674.49
887.383	9649.63
887.7	9638.33
888.017	9536.42
888.334	9638.79
888.651	9530.31
888.967	9514.95
889.284	9421.16
889.6	9429.98
889.917	9407.83
890.233	9413.26
890.55	9392.46
890.866	9397.21
891.182	9267.5
891.498	9329.42
891.815	9301.17
892.131	9206.71
892.447	9193.37
892.763	9204.67
893.079	9142.3
893.395	9057.56
893.71	9039.48
894.026	9134.84
894.342	9072.93
894.657	8973.72
894.973	9026.15
895.289	8961.29
895.604	8947.28
895.92	8896.43
896.235	8844.46
896.55	8867.28
896.865	8843.78
897.181	8777.57
897.496	8755.65
897.811	8800.16
898.126	8718.36
898.441	8649.21
898.756	8680.39
899.071	8564.69
899.386	8578.02
899.7	8511.36
900.015	8493.28
900.33	8448.99
900.644	8434.98
900.959	8416.9
901.273	8389.55
901.588	8331.93
901.902	8300.74
902.216	8276.56
902.531	8281.31
902.845	8269.78
903.159	8179.16
903.473	8214.64
903.787	8145.72
904.101	8092.16
904.415	8059.17
904.729	8048.09
905.042	8024.37
905.356	7950.02
905.67	8018.49
905.984	7984.59
906.297	7926.06
906.611	7940.75
906.924	7871.15
907.237	7832.96
907.551	7807.87
907.864	7734.66
908.177	7727.2
908.491	7693.53
908.804	7698.05
909.117	7603.59
909.43	7588.67
909.743	7493.53
910.056	7500.76
910.368	7489.46
910.681	7471.39
910.994	7401.33
911.307	7375.79
911.619	7313.88
911.932	7318.4
912.244	7263.48
912.557	7247.21
912.869	7204.05
913.181	7155.69
913.494	7189.58
913.806	7105.07
914.118	7203.14
914.43	7053.54
914.742	7117.72
915.054	7010.15
915.366	7067.1
915.678	7009.7
915.99	6931.74
916.302	6934.22
916.613	6867.11
916.925	6898.75
917.236	6827.79
917.548	6859.2
917.859	6808.58
918.171	6764.51
918.482	6774.45
918.794	6664.63
919.105	6701.24
919.416	6576.04
919.727	6587.11
920.038	6640.22
920.349	6516.38
920.66	6532.88
920.971	6547.34
921.282	6521.58
921.593	6424.86
921.903	6409.04
922.214	6428.02
922.525	6390.06
922.835	6352.77
923.146	6291.08
923.456	6310.74
923.767	6259.89
924.077	6228.48
924.387	6219.89
924.697	6229.84
925.008	6128.37
925.318	6163.4
925.628	6168.82
925.938	6095.38
926.248	6111.65
926.558	6067.58
926.867	5976.06
927.177	6014.02
927.487	5983.29
927.796	5917.53
928.106	5944.65
928.416	5926.34
928.725	5917.75
929.034	5824.65
929.344	5848.6
929.653	5824.42
929.962	5776.29
930.271	5764.76
930.581	5717.76
930.89	5685.22
931.199	5673.69
931.508	5666.24
931.817	5691.09
932.125	5669.17
932.434	5600.02
932.743	5563.87
933.051	5542.4
933.36	5548.5
933.669	5479.8
933.977	5480.25
934.286	5483.64
934.594	5487.26
934.902	5410.42
935.21	5371.78
935.519	5393.25
935.827	5367.49
936.135	5324.78
936.443	5227.83
936.751	5280.03
937.059	5251.33
937.367	5261.5
937.674	5218.34
937.982	5247.26
938.29	5136.76
938.597	5148.51
938.905	5090.21
939.213	5104.89
939.52	5058.79
939.827	5098.11
940.135	5057.21
940.442	5014.73
940.749	5044.78
941.056	4985.12
941.363	4953.03
941.67	4940.38
941.977	4917.78
942.284	4875.52
942.591	4852.47
942.898	4844.79
943.205	4824.9
943.511	4783.55
943.818	4825.58
944.125	4758.24
944.431	4742.87
944.738	4715.07
945.044	4672.14
945.35	4676.43
945.657	4661.52
945.963	4662.42
946.269	4621.74
946.575	4614.06
946.881	4625.36
947.187	4606.83
947.493	4532.03
947.799	4542.65
948.105	4520.05
948.41	4448.87
948.716	4465.14
949.022	4483.89
949.327	4444.57
949.633	4407.96
949.938	4403.67
950.244	4380.39
950.549	4376.33
950.854	4369.55
951.16	4314.63
951.465	4284.58
951.77	4306.27
952.075	4278.02
952.38	4235.76
952.685	4239.38
952.99	4207.97
953.294	4195.31
953.599	4190.34
953.904	4117.58
954.209	4106.05
954.513	4152.83
954.818	4142.89
955.122	4085.94
955.426	4055.88
955.731	4056.11
956.035	4011.14
956.339	4044.58
956.643	3999.84
956.948	3949.44
957.252	3951.25
957.556	3951.03
957.86	3949.22
958.163	3900.63
958.467	3937.24
958.771	3942.21
959.075	3912.38
959.378	3870.8
959.682	3859.05
959.985	3815.89
960.289	3815.44
960.592	3770.01
960.896	3800.97
961.199	3735.66
961.502	3755.55
961.805	3735.44
962.108	3690.24
962.411	3699.51
962.714	3644.14
963.017	3658.83
963.32	3664.03
963.623	3617.02
963.926	3589.91
964.228	3538.16
964.531	3589.91
964.833	3565.27
965.136	3558.72
965.438	3554.65
965.741	3502.45
966.043	3493.86
966.345	3472.62
966.648	3450.25
966.95	3459.74
967.252	3414.32
967.554	3430.14
967.856	3421.77
968.158	3430.14
968.46	3379.52
968.761	3326.41
969.063	3343.81
969.365	3338.84
969.666	3320.08
969.968	3306.07
970.269	3332.51
970.571	3258.16
970.872	3289.8
971.174	3206.41
971.475	3260.87
971.776	3232.4
972.077	3220.88
972.378	3213.19
972.679	3165.96
972.98	3188.56
973.281	3131.16
973.582	3180.88
973.883	3137.26
974.183	3109.92
974.484	3087.55
974.785	3096.59
975.085	3132.74
975.386	3084.38
975.686	3023.37
975.986	3035.12
976.287	3025.17
976.587	2991.5
976.887	3006.19
977.187	2998.96
977.487	2963.26
977.787	2960.09
978.087	2940.66
978.387	2941.56
978.687	2939.75
978.987	2900.66
979.286	2925.29
979.586	2913.77
979.885	2854.11
980.185	2847.55
980.484	2829.7
980.784	2810.94
981.083	2801.68
981.382	2786.54
981.682	2786.31
981.981	2767.1
982.28	2813.2
982.579	2751.74
982.878	2747.67
983.177	2720.78
983.475	2719.65
983.774	2714.22
984.073	2673.77
984.372	2642.36
984.67	2644.62
984.969	2645.52
985.267	2653.21
985.566	2650.27
985.864	2647.33
986.162	2601.91
986.461	2592.64
986.759	2596.26
987.057	2554.23
987.355	2583.38
987.653	2532.31
987.951	2541.8
988.249	2538.63
988.547	2532.31
988.844	2537.5
989.142	2519.65
989.44	2459.77
989.737	2467.68
990.035	2451.18
990.332	2475.13
990.63	2432.2
990.927	2442.59
991.224	2448.01
991.521	2422.93
991.819	2403.27
992.116	2395.36
992.413	2372.08
992.71	2347.45
993.006	2306.32
993.303	2328.24
993.6	2321.69
993.897	2348.36
994.193	2287.34
994.49	2281.47
994.787	2293.44
995.083	2269.04
995.379	2247.57
995.676	2246.89
995.972	2252.09
996.268	2206.44
996.565	2214.57
996.861	2217.51
997.157	2201.02
997.453	2179.55
997.749	2184.97
998.044	2135.03
998.34	2162.37
998.636	2155.82
998.932	2142.71
999.227	2112.43
999.523	2127.12
999.818	2100.45
1000.114	2104.97
1000.409	2087.35
1000.704	2040.12
1001	2039.89
1001.295	2034.24
1001.59	2047.35
1001.885	2042.15
1002.18	2040.34
1002.475	2002.15
1002.77	2023.62
1003.065	1980
1003.359	1976.39
1003.654	1960.8
1003.949	1970.51
1004.243	1934.13
1004.538	1894.81
1004.832	1898.88
1005.127	1918.09
1005.421	1908.82
1005.715	1890.52
1006.009	1866.11
1006.304	1817.75
1006.598	1866.56
1006.892	1848.71
1007.186	1815.94
1007.48	1836.51
1007.773	1818.65
1008.067	1821.14
1008.361	1783.17
1008.655	1795.15
1008.948	1763.74
1009.242	1751.54
1009.535	1749.95
1009.829	1751.54
1010.122	1720.8
1010.415	1712.67
1010.708	1714.7
1011.001	1716.28
1011.295	1680.8
1011.588	1673.57
1011.881	1673.8
1012.173	1669.05
1012.466	1681.03
1012.759	1629.28
1013.052	1648.94
1013.344	1592.22
1013.637	1631.77
1013.93	1596.29
1014.222	1573.69
1014.514	1594.93
1014.807	1551.32
1015.099	1587.92
1015.391	1563.07
1015.683	1543.63
1015.976	1540.92
1016.268	1506.57
1016.56	1521.49
1016.851	1507.25
1017.143	1501.82
1017.435	1493.01
1017.727	1459.79
1018.018	1478.1
1018.31	1478.1
1018.602	1464.09
1018.893	1453.01
1019.185	1448.04
1019.476	1468.38
1019.767	1431.77
1020.058	1415.5
1020.35	1393.35
1020.641	1385.9
1020.932	1390.64
1021.223	1368.95
1021.514	1382.05
1021.804	1344.09
1022.095	1359.68
1022.386	1352
1022.677	1332.56
1022.967	1333.47
1023.258	1334.15
1023.548	1306.58
1023.839	1293.24
1024.129	1286.46
1024.419	1296.18
1024.709	1285.11
1025	1260.93
1025.29	1272.68
1025.58	1279.91
1025.87	1252.34
1026.16	1257.09
1026.449	1237.2
1026.739	1200.14
1027.029	1212.57
1027.319	1219.12
1027.608	1205.11
1027.898	1171.44
1028.187	1182.51
1028.477	1187.26
1028.766	1162.4
1029.055	1153.36
1029.344	1150.87
1029.634	1132.57
1029.923	1122.17
1030.212	1138.22
1030.501	1123.98
1030.79	1133.25
1031.078	1135.05
1031.367	1100.03
1031.656	1081.27
1031.945	1088.73
1032.233	1077.66
1032.522	1073.81
1032.81	1065.68
1033.099	1045.34
1033.387	1064.32
1033.675	1047.37
1033.963	1029.75
1034.251	1038.33
1034.54	1032.91
1034.828	1022.74
1035.116	1026.13
1035.403	1009.63
1035.691	996.53
1035.979	984.1
1036.267	962.4
1036.554	976.87
1036.842	977.32
1037.129	966.25
1037.417	966.47
1037.704	961.95
1037.992	937.09
1038.279	952.69
1038.566	940.94
1038.853	940.94
1039.14	940.94
