Data from hue_24_FLMS001491_00046.txt Node
Date: Tue Feb 07 17:12:19 GMT 2017
User: dcchb
Spectrometer: FLMS00149
Trigger mode: 0
Integration Time (sec): 2.000000E-2
Scans to average: 10
Electric dark correction enabled: true
Nonlinearity correction enabled: false
Boxcar width: 0
XAxis mode: Wavelengths
Number of Pixels in Spectrum: 2048
>>>>>Begin Spectral Data<<<<<
341.393	-19.83
341.776	-19.83
342.16	-19.83
342.543	-77.68
342.927	-79.94
343.31	-73.84
343.693	-61.41
344.077	-51.92
344.46	-53.73
344.843	-41.3
345.226	-55.54
345.61	-29.32
345.993	-21.86
346.376	-15.08
346.759	11.58
347.142	27.63
347.525	30.79
347.908	52.71
348.291	66.95
348.674	91.81
349.057	122.54
349.44	154.4
349.823	142.43
350.206	157.57
350.588	196.21
350.971	209.32
351.354	224.46
351.737	233.04
352.119	262.65
352.502	254.97
352.884	264.68
353.267	276.43
353.65	297.9
354.032	301.52
354.414	289.77
354.797	319.37
355.179	307.17
355.562	313.49
355.944	337.45
356.326	334.06
356.709	343.1
357.091	340.39
357.473	322.99
357.855	353.72
358.238	342.65
358.62	333.83
359.002	336.09
359.384	344.45
359.766	334.96
360.148	334.74
360.53	349.88
360.912	336.09
361.294	328.64
361.676	342.42
362.057	334.51
362.439	313.95
362.821	349.2
363.203	337.45
363.584	325.7
363.966	322.08
364.348	337.22
364.729	307.17
365.111	322.53
365.493	324.34
365.874	315.3
366.256	314.4
366.637	318.69
367.019	314.17
367.4	331.8
367.781	321.4
368.163	308.97
368.544	323.66
368.925	310.1
369.306	313.04
369.688	338.35
370.069	299.94
370.45	313.95
370.831	310.33
371.212	320.5
371.593	312.59
371.974	315.98
372.355	324.12
372.736	323.44
373.117	317.79
373.498	315.08
373.879	327.51
374.26	320.95
374.641	331.8
375.021	312.14
375.402	308.97
375.783	306.26
376.163	331.35
376.544	332.93
376.925	325.92
377.305	311.46
377.686	333.61
378.066	327.51
378.447	334.28
378.827	322.31
379.208	326.38
379.588	332.93
379.968	339.93
380.349	340.16
380.729	330.44
381.109	351.69
381.489	327.28
381.87	344.91
382.25	355.3
382.63	340.84
383.01	343.1
383.39	342.65
383.77	330.22
384.15	351.91
384.53	329.31
384.91	346.71
385.29	360.05
385.67	357.56
386.049	347.84
386.429	342.42
386.809	383.1
387.189	349.88
387.568	339.71
387.948	362.53
388.328	361.63
388.707	354.17
389.087	370.89
389.466	365.24
389.846	358.69
390.225	355.75
390.605	373.38
390.984	371.12
391.363	369.31
391.743	378.35
392.122	382.19
392.501	377.22
392.881	387.16
393.26	379.48
393.639	356.66
394.018	382.19
394.397	399.37
394.776	393.72
395.155	365.02
395.534	365.47
395.913	387.39
396.292	374.06
396.671	391.46
397.05	401.4
397.429	368.63
397.808	386.04
398.186	421.29
398.565	383.55
398.944	385.13
399.323	378.13
399.701	402.31
400.08	415.86
400.458	398.92
400.837	412.93
401.215	415.64
401.594	384.68
401.972	414.28
402.351	402.76
402.729	416.32
403.107	411.35
403.486	411.8
403.864	408.63
404.242	432.59
404.62	433.94
404.999	439.59
405.377	427.16
405.755	418.58
406.133	413.15
406.511	437.11
406.889	430.78
407.267	440.72
407.645	454.06
408.023	451.8
408.401	452.93
408.779	439.82
409.156	445.92
409.534	423.77
409.912	451.8
410.29	459.71
410.667	454.51
411.045	460.16
411.422	453.6
411.8	455.64
412.178	472.36
412.555	485.02
412.933	480.95
413.31	472.13
413.687	469.2
414.065	492.7
414.442	487.5
414.819	480.95
415.197	508.07
415.574	503.55
415.951	502.87
416.328	499.25
416.705	499.93
417.082	507.84
417.46	523.88
417.837	515.98
418.214	493.83
418.591	521.4
418.967	543.77
419.344	534.96
419.721	529.53
420.098	525.01
420.475	539.25
420.852	554.39
421.228	547.39
421.605	529.99
421.982	558.23
422.358	559.14
422.735	568.18
423.111	546.48
423.488	565.01
423.864	556.65
424.241	575.18
424.617	562.98
424.994	575.41
425.37	600.72
425.746	557.1
426.123	599.59
426.499	585.35
426.875	588.29
427.251	605.46
427.627	606.59
428.003	622.41
428.379	601.85
428.756	596.42
429.132	627.84
429.507	609.98
429.883	633.03
430.259	654.28
430.635	639.59
431.011	638.91
431.387	667.61
431.763	653.6
432.138	666.48
432.514	673.26
432.89	668.74
433.265	661.51
433.641	672.81
434.016	684.78
434.392	688.17
434.767	715.52
435.143	701.06
435.518	702.86
435.894	707.83
436.269	723.88
436.644	721.85
437.02	728.85
437.395	720.94
437.77	736.31
438.145	759.81
438.52	760.94
438.895	736.08
439.271	772.01
439.646	775.86
440.021	768.85
440.395	763.88
440.77	795.29
441.145	787.15
441.52	799.13
441.895	785.57
442.27	795.29
442.645	792.35
443.019	828.28
443.394	792.8
443.769	815.18
444.143	823.09
444.518	833.25
444.892	851.11
445.267	811.56
445.641	854.05
446.016	845.23
446.39	848.17
446.764	851.33
447.139	857.66
447.513	864.21
447.887	881.84
448.262	884.78
448.636	884.55
449.01	860.6
449.384	884.33
449.758	885.46
450.132	908.73
450.506	893.59
450.88	909.86
451.254	911.44
451.628	926.81
452.002	929.98
452.376	915.96
452.75	939.01
453.123	962.52
453.497	951.67
453.871	969.52
454.244	990.31
454.618	993.02
454.992	1005.23
455.365	985.12
455.739	1011.78
456.112	1030.76
456.486	1018.79
456.859	1054.04
457.232	1070.31
457.606	1064.89
457.979	1059.92
458.352	1060.59
458.725	1093.14
459.099	1118.67
459.472	1132.68
459.845	1122.06
460.218	1146.02
460.591	1099.24
460.964	1152.12
461.337	1140.82
461.71	1208.16
462.083	1207.48
462.456	1228.27
462.829	1210.19
463.201	1220.36
463.574	1242.28
463.947	1236.86
464.32	1268.5
464.692	1277.09
465.065	1276.18
465.438	1325.9
465.81	1354.6
466.183	1339.68
466.555	1366.57
466.928	1357.53
467.3	1383.07
467.672	1372.9
468.045	1421.94
468.417	1424.88
468.789	1423.75
469.161	1461.94
469.534	1504.88
469.906	1519.56
470.278	1499.45
470.65	1553.69
471.022	1576.29
471.394	1575.83
471.766	1598.21
472.138	1614.93
472.51	1651.31
472.882	1662.84
473.253	1728.37
473.625	1716.62
473.997	1771.54
474.369	1790.52
474.74	1764.53
475.112	1848.37
475.484	1875.26
475.855	1902.83
476.227	1950.06
476.598	1972.21
476.97	2004.75
477.341	2068.02
477.713	2089.95
478.084	2070.51
478.455	2160.9
478.827	2178.53
479.198	2244.29
479.569	2263.5
479.94	2322.93
480.311	2365.42
480.682	2390.05
481.053	2427.56
481.424	2499.88
481.795	2543.94
482.166	2585.98
482.537	2660.55
482.908	2678.86
483.279	2700.55
483.65	2760.89
484.021	2802.69
484.391	2826.2
484.762	2896.03
485.133	2939.87
485.503	2978.06
485.874	3060.54
486.244	3047.89
486.615	3182.57
486.985	3189.13
487.356	3282.46
487.726	3270.93
488.097	3380.53
488.467	3363.13
488.837	3490.13
489.207	3522
489.578	3533.3
489.948	3594.31
490.318	3664.37
490.688	3659.85
491.058	3765.16
491.428	3813.97
491.798	3877.02
492.168	3893.29
492.538	3981.87
492.908	4032.94
493.278	4067.97
493.648	4073.62
494.017	4150.46
494.387	4169.89
494.757	4242.88
495.126	4302.99
495.496	4327.17
495.866	4307.06
496.235	4425.48
496.605	4438.13
496.974	4492.14
497.344	4545.47
497.713	4524.46
498.082	4560.16
498.452	4653.49
498.821	4642.65
499.19	4655.3
499.559	4690.55
499.928	4791.57
500.298	4792.02
500.667	4862.53
501.036	4824.79
501.405	4853.49
501.774	4920.61
502.143	4947.72
502.512	4997.67
502.88	5021.62
503.249	4967.84
503.618	5053.03
503.987	5068.4
504.356	5129.87
504.724	5110.2
505.093	5141.39
505.462	5208.28
505.83	5218.9
506.199	5258.9
506.567	5312.46
506.936	5289.63
507.304	5365.11
507.672	5437.65
508.041	5427.48
508.409	5437.88
508.777	5516.07
509.145	5479.91
509.514	5514.04
509.882	5557.65
510.25	5555.16
510.618	5605.33
510.986	5631.32
511.354	5645.78
511.722	5667.93
512.09	5770.98
512.458	5719.45
512.826	5805.33
513.193	5762.84
513.561	5834.71
513.929	5895.27
514.297	5932.56
514.664	5970.75
515.032	5949.96
515.4	5980.92
515.767	6022.95
516.135	6033.34
516.502	5975.94
516.869	6121.7
517.237	6107.92
517.604	6111.31
517.972	6140.46
518.339	6162.83
518.706	6179.33
519.073	6238.99
519.44	6223.4
519.808	6225.66
520.175	6262.94
520.542	6344.3
520.909	6335.71
521.276	6356.5
521.643	6419.32
522.009	6462.26
522.376	6477.4
522.743	6519.66
523.11	6642.14
523.477	6594.69
523.843	6674.91
524.21	6725.53
524.577	6682.82
524.943	6742.7
525.31	6815.24
525.676	6837.16
526.043	6873.32
526.409	6880.1
526.776	6965.98
527.142	6991.51
527.508	7028.12
527.874	7102.47
528.241	7050.27
528.607	7064.05
528.973	7172.52
529.339	7128
529.705	7209.81
530.071	7344.95
530.437	7324.84
530.803	7390.14
531.169	7423.14
531.535	7415.23
531.901	7463.14
532.267	7474.89
532.632	7566.41
532.998	7535.23
533.364	7601.89
533.73	7570.25
534.095	7627.43
534.461	7664.71
534.826	7748.1
535.192	7832.39
535.557	7803.47
535.923	7809.12
536.288	7941.99
536.653	7916.46
537.019	7840.75
537.384	7973.63
537.749	7994.65
538.114	8001.88
538.479	7980.19
538.845	8051.82
539.21	8062.67
539.575	8035.55
539.94	8151.48
540.305	8158.26
540.67	8174.08
541.034	8236.9
541.399	8275.09
541.764	8275.77
542.129	8337.01
542.494	8362.32
542.858	8418.14
543.223	8436.67
543.587	8474.86
543.952	8504.24
544.316	8527.52
544.681	8429.67
545.045	8619.94
545.41	8595.54
545.774	8684.57
546.138	8670.34
546.503	8703.33
546.867	8698.36
547.231	8824.46
547.595	8804.12
547.959	8822.2
548.324	8810.9
548.688	8836.66
549.052	8897.9
549.416	8936.54
549.779	8914.62
550.143	8978.13
550.507	9061.97
550.871	9087.73
551.235	9027.39
551.599	9161.85
551.962	9154.84
552.326	9145.13
552.689	9220.61
553.053	9259.47
553.417	9255.18
553.78	9395.06
554.143	9294.95
554.507	9397.1
554.87	9352.8
555.234	9514.38
555.597	9458.34
555.96	9447.49
556.323	9543.31
556.686	9527.49
557.05	9603.19
557.413	9624.21
557.776	9652.91
558.139	9685
558.502	9743.3
558.865	9781.49
559.228	9887.25
559.59	9872.34
559.953	9822.4
560.316	10001.38
560.679	9940.59
561.041	9952.11
561.404	10107.59
561.767	10072.11
562.129	10021.71
562.492	10135.38
562.854	10116.63
563.217	10160.47
563.579	10146
563.941	10247.24
564.304	10272.33
564.666	10338.77
565.028	10345.32
565.39	10330.18
565.753	10474.13
566.115	10418.31
566.477	10540.57
566.839	10550.06
567.201	10663.96
567.563	10565.43
567.925	10635.94
568.287	10697.4
568.648	10672.32
569.01	10866.21
569.372	10842.26
569.734	10881.58
570.095	10905.53
570.457	10955.47
570.819	11040.44
571.18	10989.6
571.542	11108.24
571.903	11174.9
572.265	11172.42
572.626	11280.44
572.987	11309.59
573.349	11348.91
573.71	11340.1
574.071	11353.66
574.432	11472.07
574.794	11484.5
575.155	11611.73
575.516	11606.53
575.877	11734.44
576.238	11738.96
576.599	11893.76
576.96	11912.74
577.32	11992.28
577.681	12095.56
578.042	12230.24
578.403	12256.68
578.763	12363.35
579.124	12450.35
579.485	12618.03
579.845	12724.02
580.206	12765.6
580.566	12881.07
580.927	13011.69
581.287	13115.42
581.648	13299.59
582.008	13500.94
582.368	13618
582.728	13748.17
583.089	13796.76
583.449	14055.51
583.809	14239.23
584.169	14406.68
584.529	14544.53
584.889	14831.98
585.249	14859.1
585.609	15120.34
585.969	15301.12
586.329	15459.99
586.688	15805.06
587.048	15909.24
587.408	16069.01
587.768	16327.76
588.127	16581.54
588.487	16745.83
588.846	17232.37
589.206	17201.86
589.565	17604.57
589.925	17869.19
590.284	18127.04
590.643	18315.73
591.003	18671.88
591.362	19029.16
591.721	19211.53
592.08	19525.19
592.44	19846.31
592.799	20219.86
593.158	20381.89
593.517	20653.52
593.876	21048.09
594.235	21183
594.593	21547.96
594.952	21940.5
595.311	22199.92
595.67	22406.47
596.029	22942.96
596.387	23178.43
596.746	23403.06
597.104	23686.89
597.463	23970.95
597.822	24361
598.18	24518.73
598.538	24902.68
598.897	25346.28
599.255	25417.24
599.613	26077.56
599.972	26292.7
600.33	26572.47
600.688	26692.69
601.046	27045.9
601.404	27503.97
601.762	27773.56
602.12	28098.53
602.478	28447.67
602.836	28690.6
603.194	28894.21
603.552	29260.98
603.91	29299.63
604.268	29792.72
604.625	29808.54
604.983	30365.81
605.341	30334.85
605.698	30808.06
606.056	31231.55
606.413	31330.98
606.771	31700.92
607.128	31893.46
607.485	32060.46
607.843	32205.76
608.2	32706.54
608.557	32980.43
608.914	33239.18
609.272	33466.3
609.629	33768.43
609.986	34116.22
610.343	33985.15
610.7	34517.57
611.057	34751.91
611.414	34724.34
611.771	35132.01
612.127	35342.86
612.484	35410.42
612.841	35719.34
613.198	35753.92
613.554	35985.78
613.911	36331.08
614.267	36496.72
614.624	36552.09
614.98	36784.85
615.337	37218.96
615.693	37288.12
616.05	37414.21
616.406	37837.93
616.762	37854.2
617.118	37924.48
617.475	38038.15
617.831	38209
618.187	38509.33
618.543	38639.27
618.899	38915.42
619.255	39060.05
619.611	39096.66
619.967	39290.55
620.323	39544.78
620.678	39406.7
621.034	39480.83
621.39	39591.78
621.746	39700.93
622.101	40111.32
622.457	39960.14
622.812	40286
623.168	40233.12
623.523	40502.27
623.879	40645.54
624.234	40408.26
624.589	40754.01
624.945	40789.04
625.3	40879.89
625.655	41054.34
626.01	41112.2
626.365	41116.72
626.72	41175.92
627.075	41281.91
627.43	41226.54
627.785	41293.43
628.14	41422.92
628.495	41515.8
628.85	41443.94
629.205	41496.37
629.559	41733.2
629.914	41609.36
630.269	41663.14
630.623	41699.07
630.978	41672.86
631.332	41735.23
631.687	42037.6
632.041	41783.14
632.396	42036.47
632.75	41786.75
633.104	41953.98
633.459	41914.66
633.813	41935.68
634.167	41975.45
634.521	42007.99
634.875	42015
635.229	42106.97
635.583	41990.82
635.937	41980.42
636.291	41869.24
636.645	42008.9
636.999	41938.16
637.352	42094.32
637.706	41947.88
638.06	42019.29
638.413	42059.74
638.767	42029.01
639.121	41937.26
639.474	41799.64
639.828	41856.58
640.181	41892.06
640.534	41928.9
640.888	41805.51
641.241	41734.78
641.594	41952.17
641.947	41934.55
642.301	41765.51
642.654	41941.78
643.007	41930.25
643.36	41902.68
643.713	41788.56
644.066	42129.57
644.419	41711.05
644.771	41343.38
645.124	41173.66
645.477	41175.92
645.83	40966.89
646.182	40818.64
646.535	40707.46
646.888	40838.08
647.24	40614.36
647.593	40953.78
647.945	40775.93
648.298	40609.16
648.65	40444.19
649.002	40440.12
649.355	40607.12
649.707	40471.08
650.059	40768.25
650.411	41264.51
650.763	41299.08
651.115	41719.86
651.467	41473.32
651.819	41593.54
652.171	41354.45
652.523	41327.78
652.875	41401.91
653.227	41351.29
653.578	41489.59
653.93	41434.22
654.282	41222.7
654.633	41145.64
654.985	41394.67
655.337	41464.73
655.688	41439.19
656.039	41358.29
656.391	41089.37
656.742	41321.46
657.094	41174.79
657.445	41451.4
657.796	41234.23
658.147	41160.33
658.498	41338.63
658.849	41344.73
659.2	41223.38
659.551	41210.95
659.902	41405.75
660.253	41106.77
660.604	41300.67
660.955	41129.37
661.306	41313.77
661.656	41224.96
662.007	41249.37
662.358	41197.17
662.708	41170.73
663.059	41166.66
663.409	41046.43
663.76	41271.97
664.11	41209.59
664.461	41217.28
664.811	41128.01
665.161	41195.81
665.511	41039.43
665.862	41043.5
666.212	41175.25
666.562	41170.73
666.912	41158.07
667.262	41125.08
667.612	41016.83
667.962	41119.43
668.312	40935.25
668.662	41239.88
669.011	40987.91
669.361	40927.57
669.711	41012.09
670.06	40986.55
670.41	40806.22
670.76	40837.85
671.109	41001.69
671.459	40973.44
671.808	40881.69
672.157	40994.23
672.507	40741.36
672.856	40829.49
673.205	40925.31
673.554	40982.93
673.904	40819.55
674.253	41017.96
674.602	40844.41
674.951	40427.47
675.3	39987.93
675.649	40725.99
675.998	40782.71
676.346	40693
676.695	40825.2
677.044	40591.08
677.393	40616.84
677.741	40667.46
678.09	40624.75
678.438	40656.39
678.787	40510.4
679.135	40471.31
679.484	40411.2
679.832	40342.72
680.181	40289.39
680.529	40298.43
680.877	40230.64
681.225	40083.3
681.573	40408.03
681.922	40131.88
682.27	40090.98
682.618	40025.44
682.966	39905.9
683.314	39965.11
683.661	39928.05
684.009	39675.4
684.357	39776.41
684.705	39700.26
685.053	39648.51
685.4	39583.2
685.748	39519.7
686.095	39523.31
686.443	39235.41
686.79	39147.28
687.138	39340.27
687.485	39387.04
687.832	39220.04
688.18	39206.94
688.527	39058.01
688.874	38987.51
689.221	38993.61
689.568	38733.73
689.915	38858.24
690.262	38916.77
690.609	38526.5
690.956	38550.23
691.303	38467.97
691.65	38428.88
691.997	38319.27
692.344	38007.19
692.69	38089.22
693.037	38029.57
693.383	37679.74
693.73	37932.62
694.077	37748.89
694.423	37695.79
694.769	37609.46
695.116	37495.79
695.462	37541.22
695.808	37449.02
696.155	37444.5
696.501	37168.12
696.847	37112.75
697.193	37034.79
697.539	37145.29
697.885	36788.24
698.231	36860.78
698.577	36764.97
698.923	36620.56
699.269	36560.9
699.614	36290.63
699.96	36282.72
700.306	36284.53
700.651	36129.73
700.997	36106.45
701.342	36008.38
701.688	35924.54
702.033	35901.71
702.379	35793.92
702.724	35802.05
703.069	35761.83
703.415	35440.03
703.76	35413.14
704.105	35369.75
704.45	35318.9
704.795	35077.78
705.14	35053.37
705.485	34984
705.83	34986.71
706.175	34890.21
706.52	34848.41
706.865	34709.43
707.209	34568.87
707.554	34510.11
707.899	34674.62
708.243	34333.17
708.588	34358.48
708.932	34124.81
709.277	34078.71
709.621	34195.32
709.966	33937.92
710.31	34096.79
710.654	33683.01
710.998	33765.04
711.342	33869.22
711.687	33691.6
712.031	33472.17
712.375	33505.62
712.719	33526.41
713.063	33421.55
713.407	33500.42
713.75	33246.19
714.094	33323.93
714.438	33071.05
714.782	33118.73
715.125	32962.58
715.469	33106.08
715.812	32820.66
716.156	32757.84
716.499	32700.89
716.843	32809.14
717.186	32617.05
717.53	32672.42
717.873	32706.99
718.216	32578.86
718.559	32509.26
718.902	32202.37
719.246	32289.38
719.589	32264.52
719.932	32108.36
720.275	32231.75
720.617	31992.44
720.96	31973.68
721.303	32091.42
721.646	32077.41
721.989	31957.18
722.331	32099.55
722.674	31795.15
723.016	31900.01
723.359	31720.58
723.701	31791.76
724.044	31574.59
724.386	31358.1
724.729	31613.01
725.071	31417.99
725.413	31470.42
725.755	31494.14
726.097	31316.3
726.439	31177.77
726.782	31046.7
727.124	31250.08
727.465	31010.77
727.807	30976.19
728.149	31037.88
728.491	30999.47
728.833	30922.41
729.175	30796.99
729.516	30708.63
729.858	30799.7
730.199	30836.53
730.541	30630.44
730.882	30703.66
731.224	30674.73
731.565	30463.44
731.906	30612.13
732.248	30588.86
732.589	30328.52
732.93	30276.55
733.271	30297.11
733.612	30361.74
733.953	30422.53
734.294	30257.34
734.635	30070.9
734.976	30180.28
735.317	30005.6
735.658	30034.3
735.999	29984.35
736.339	29923.79
736.68	30034.52
737.021	29786.17
737.361	29739.16
737.702	29966.05
738.042	29833.4
738.383	29763.57
738.723	29843.34
739.063	29722.89
739.404	29615.32
739.744	29742.55
740.084	29550.24
740.424	29540.3
740.764	29486.96
741.104	29554.76
741.444	29395.44
741.784	29430.7
742.124	29363.58
742.464	29388.21
742.804	29282.9
743.143	29245.39
743.483	29219.85
743.823	29015.79
744.162	29157.03
744.502	29195.45
744.841	28976.7
745.181	29183.7
745.52	28898.05
745.86	29011.27
746.199	28899.86
746.538	28958.17
746.877	29016.69
747.216	28849.47
747.556	28760.43
747.895	28948
748.234	28630.94
748.573	28714.33
748.911	28625.07
749.25	28630.94
749.589	28565.18
749.928	28556.14
750.267	28662.35
750.605	28643.6
750.944	28463.26
751.283	28322.02
751.621	28469.14
751.96	28250.16
752.298	28272.99
752.636	28364.51
752.975	28111.86
753.313	27958.87
753.651	28236.15
753.989	27991.64
754.327	27829.83
754.666	27711.19
755.004	27863.5
755.342	27993.44
755.679	27766.78
756.017	27714.58
756.355	27719.33
756.693	27640.01
757.031	27721.36
757.368	27491.54
757.706	27351.43
758.044	27282.28
758.381	27360.47
758.719	27412.67
759.056	27291.99
759.394	27157.08
759.731	27034.6
760.068	27001.61
760.405	26887.49
760.743	26833.25
761.08	26800.71
761.417	26700.82
761.754	26758.45
762.091	26607.04
762.428	26476.87
762.765	26388.97
763.102	26374.5
763.438	26228.29
763.775	26219.71
764.112	26228.29
764.449	26275.98
764.785	26035.53
765.122	25900.62
765.458	25820.17
765.795	25835.76
766.131	25782.2
766.467	25725.26
766.804	25609.78
767.14	25502.89
767.476	25497.47
767.812	25279.62
768.148	25393.06
768.485	25231.71
768.821	25125.72
769.157	25028.32
769.492	24958.27
769.828	24919.4
770.164	24854.32
770.5	24690.25
770.836	24606.42
771.171	24585.4
771.507	24641.89
771.842	24247.78
772.178	24395.12
772.513	24217.27
772.849	24089.59
773.184	24000.33
773.519	24074.45
773.855	23843.05
774.19	23854.34
774.525	23729.6
774.86	23769.83
775.195	23638.08
775.53	23477.41
775.865	23422.72
776.2	23328.03
776.535	23057.53
776.87	23187.24
777.205	23050.52
777.539	22915.16
777.874	22978.89
778.209	22744.54
778.543	22803.98
778.878	22596.52
779.212	22624.32
779.547	22479.01
779.881	22461.61
780.215	22388.17
780.55	22355.4
780.884	22186.59
781.218	22085.58
781.552	22212.35
781.886	22053.26
782.22	21930.33
782.554	21922.87
782.888	21716.1
783.222	21662.31
783.556	21486.95
783.889	21445.82
784.223	21276.79
784.557	21230.23
784.89	21426.39
785.224	21004.7
785.557	21011.03
785.891	21020.52
786.224	20874.54
786.558	20903.46
786.891	20664.37
787.224	20660.53
787.557	20635.67
787.891	20685.39
788.224	20542.12
788.557	20506.86
788.89	20419.63
789.223	20372.85
789.556	20136.7
789.888	20149.81
790.221	20123.82
790.554	19962.92
790.887	19983.49
791.219	19782.59
791.552	19810.16
791.884	19697.17
792.217	19663.72
792.549	19649.26
792.882	19508.24
793.214	19328.81
793.546	19410.17
793.879	19355.03
794.211	19184.64
794.543	19222.38
794.875	19151.87
795.207	19275.71
795.539	19062.15
795.871	19130.85
796.203	18890.86
796.535	18764.53
796.867	18757.98
797.198	18701.03
797.53	18772.9
797.862	18615.39
798.193	18738.55
798.525	18452
798.856	18534.26
799.188	18145.34
799.519	18318.22
799.85	18197.54
800.182	18244.55
800.513	18177.21
800.844	17969.75
801.175	18180.37
801.506	18141.05
801.837	17899.02
802.168	17871.45
802.499	17805.46
802.83	17670.78
803.161	17759.36
803.491	17635.98
803.822	17715.07
804.153	17648.41
804.483	17479.37
804.814	17399.15
805.145	17352.14
805.475	17455.42
805.805	17233.95
806.136	17345.36
806.466	17174.52
806.796	17214.52
807.126	17182.43
807.457	17100.85
807.787	17044.58
808.117	16980.4
808.447	16914.41
808.777	16961.42
809.107	16831.93
809.436	16764.14
809.766	16755.55
810.096	16650.47
810.426	16592.61
810.755	16699.73
811.085	16609.34
811.414	16537.7
811.744	16425.16
812.073	16396.91
812.403	16370.93
812.732	16315.56
813.061	16217.26
813.39	16137.49
813.719	16135.45
814.049	16216.58
814.378	15996.7
814.707	16037.6
815.036	16078.28
815.365	15935.46
815.693	15839.41
816.022	15848.23
816.351	15791.51
816.68	15645.07
817.008	15758.96
817.337	15692.07
817.665	15587.22
817.994	15626.09
818.322	15619.53
818.651	15567.33
818.979	15476.94
819.307	15506.09
819.636	15469.03
819.964	15423.61
820.292	15418.63
820.62	15415.47
820.948	15356.71
821.276	15382.02
821.604	15358.07
821.932	15372.08
822.259	15379.99
822.587	15384.28
822.915	15290.73
823.243	15304.51
823.57	15255.47
823.898	15370.95
824.225	15231.97
824.553	15253.44
824.88	15296.83
825.207	15297.28
825.535	15232.42
825.862	15335.7
826.189	15179.32
826.516	15284.17
826.843	15267.23
827.17	15245.31
827.497	15263.16
827.824	15267.68
828.151	15337.51
828.478	15295.02
828.805	15364.17
829.131	15184.74
829.458	15185.42
829.785	15115.14
830.111	15222.26
830.438	15299.99
830.764	15203.72
831.09	15249.6
831.417	15201.24
831.743	15214.35
832.069	15140.45
832.395	15101.35
832.722	15207.11
833.048	15100.22
833.374	15187.91
833.7	15028.14
834.026	15071.98
834.351	15058.19
834.677	15043.5
835.003	15111.98
835.329	15017.06
835.654	15019.55
835.98	14893.45
836.306	14951.08
836.631	14952.21
836.956	15016.61
837.282	14963.28
837.607	14910.17
837.932	14924.41
838.258	14811.19
838.583	14838.31
838.908	14702.27
839.233	14737.07
839.558	14704.75
839.883	14656.85
840.208	14621.59
840.533	14680.12
840.858	14617.98
841.182	14551.31
841.507	14635.15
841.832	14474.7
842.156	14463.18
842.481	14433.58
842.805	14512.67
843.13	14460.47
843.454	14447.13
843.778	14391.54
844.103	14270.64
844.427	14243.75
844.751	14213.47
845.075	14232.45
845.399	14241.26
845.723	14050.76
846.047	14063.64
846.371	13957.66
846.695	13943.87
847.019	13932.12
847.343	13884.21
847.666	13735.06
847.99	13727.61
848.313	13648.29
848.637	13578.68
848.96	13601.05
849.284	13489.87
849.607	13415.75
849.931	13396.31
850.254	13287.39
850.577	13309.54
850.9	13118.36
851.223	13103.89
851.546	13112.48
851.869	12990
852.192	13031.35
852.515	13007.4
852.838	12815.09
853.161	12917
853.483	12805.37
853.806	12789.1
854.129	12809.21
854.451	12747.07
854.774	12737.8
855.096	12568.99
855.419	12613.06
855.741	12510.91
856.063	12489.22
856.385	12492.61
856.708	12414.42
857.03	12334.65
857.352	12423.68
857.674	12341.43
857.996	12302.11
858.318	12194.54
858.64	12217.59
858.961	12189.11
859.283	12136.46
859.605	12174.88
859.926	12137.14
860.248	12084.71
860.57	11984.37
860.891	11921.32
861.212	11929.01
861.534	11926.52
861.855	11896.92
862.176	11873.42
862.498	11820.99
862.819	11815.34
863.14	11803.36
863.461	11762.23
863.782	11748.67
864.103	11753.87
864.424	11647.89
864.745	11644.72
865.065	11583.48
865.386	11561.33
865.707	11574.89
866.027	11620.54
866.348	11601.79
866.668	11553.88
866.989	11523.82
867.309	11381.68
867.63	11493.31
867.95	11468.46
868.27	11367.22
868.59	11375.58
868.91	11398.63
869.23	11340.32
869.55	11324.73
869.87	11329.25
870.19	11272.08
870.51	11348.01
870.83	11317.05
871.15	11215.81
871.469	11258.97
871.789	11254
872.109	11235.02
872.428	11210.84
872.748	11222.59
873.067	11123.38
873.386	11205.86
873.706	11108.24
874.025	11067.79
874.344	10980.56
874.663	11015.81
874.982	11034.57
875.301	11049.71
875.62	11018.3
875.939	10945.53
876.258	10975.81
876.577	10976.27
876.896	10933.78
877.214	10890.62
877.533	10878.19
877.852	10842.26
878.17	10819.43
878.489	10849.49
878.807	10787.34
879.125	10857.85
879.444	10842.03
879.762	10737.18
880.08	10644.3
880.398	10672.77
880.716	10647.46
881.034	10691.3
881.352	10701.47
881.67	10700.57
881.988	10647.69
882.306	10561.59
882.624	10487.69
882.941	10533.56
883.259	10444.3
883.577	10461.7
883.894	10523.17
884.212	10473.68
884.529	10417.86
884.846	10365.66
885.164	10329.5
885.481	10346.23
885.798	10339.45
886.115	10283.18
886.432	10260.35
886.75	10198.66
887.067	10265.78
887.383	10173.12
887.7	10249.96
888.017	10194.14
888.334	10195.72
888.651	10084.54
888.967	10075.05
889.284	10046.12
889.6	9992.11
889.917	10013.13
890.233	9990.08
890.55	9950.3
890.866	9930.64
891.182	9907.59
891.498	9842.06
891.815	9826.01
892.131	9839.35
892.447	9743.3
892.763	9718.22
893.079	9681.38
893.395	9674.38
893.71	9661.5
894.026	9657.43
894.342	9561.84
894.657	9593.7
894.973	9533.14
895.289	9543.31
895.604	9517.55
895.92	9399.81
896.235	9385.57
896.55	9388.06
896.865	9385.57
897.181	9390.54
897.496	9330.66
897.811	9275.97
898.126	9209.08
898.441	9162.08
898.756	9212.24
899.071	9112.13
899.386	9115.07
899.7	9077.11
900.015	9046.37
900.33	8937.9
900.644	8967.73
900.959	8955.3
901.273	8939.48
901.588	8838.24
901.902	8797.11
902.216	8821.52
902.531	8798.24
902.845	8792.14
903.159	8732.03
903.473	8650
903.787	8666.72
904.101	8589.21
904.415	8536.33
904.729	8612.94
905.042	8499.04
905.356	8473.96
905.67	8456.33
905.984	8496.78
906.297	8418.37
906.611	8401.64
906.924	8346.28
907.237	8350.12
907.551	8309.89
907.864	8287.07
908.177	8231.03
908.491	8235.55
908.804	8250.24
909.117	8050.01
909.43	8035.33
909.743	8091.14
910.056	8035.55
910.368	7970.02
910.681	7906.97
910.994	7941.09
911.307	7948.1
911.619	7809.57
911.932	7869.45
912.244	7807.31
912.557	7814.77
912.869	7706.07
913.181	7649.12
913.494	7670.82
913.806	7601.66
914.118	7622
914.43	7540.2
914.742	7545.17
915.054	7541.33
915.366	7508.79
915.678	7441.44
915.99	7400.77
916.302	7392.4
916.613	7281.67
916.925	7321.45
917.236	7279.19
917.548	7275.12
917.859	7267.21
918.171	7232.18
918.482	7168
918.794	7104.73
919.105	7116.03
919.416	7124.16
919.727	7024.28
920.038	6997.84
920.349	6995.35
920.66	6955.81
920.971	6950.38
921.282	6923.72
921.593	6888.91
921.903	6801.01
922.214	6786.09
922.525	6787.9
922.835	6746.09
923.146	6718.75
923.456	6663.16
923.767	6670.84
924.077	6645.53
924.387	6595.82
924.697	6560.79
925.008	6563.05
925.318	6511.07
925.628	6528.02
925.938	6449.6
926.248	6406.67
926.558	6442.82
926.867	6377.52
927.177	6383.17
927.487	6336.39
927.796	6285.54
928.106	6287.12
928.416	6246.22
928.725	6271.3
929.034	6140.23
929.344	6188.14
929.653	6155.15
929.962	6127.8
930.271	6077.18
930.581	6014.59
930.89	6007.58
931.199	6042.38
931.508	6073.34
931.817	5997.41
932.125	5963.97
932.434	5924.19
932.743	5919.45
933.051	5858.89
933.36	5794.48
933.669	5803.97
933.977	5791.54
934.286	5743.86
934.594	5752.9
934.902	5713.13
935.21	5708.61
935.519	5644.43
935.827	5676.74
936.135	5617.76
936.443	5610.76
936.751	5590.64
937.059	5530.08
937.367	5554.71
937.674	5555.16
937.982	5470.65
938.29	5457.99
938.597	5445.11
938.905	5424.77
939.213	5340.93
939.52	5386.36
939.827	5368.28
940.135	5300.71
940.442	5285.12
940.749	5285.79
941.056	5268.62
941.363	5212.57
941.67	5179.81
941.977	5155.63
942.284	5145.68
942.591	5130.09
942.898	5107.27
943.205	5109.75
943.511	5041.51
943.818	5052.58
944.125	5023.65
944.431	5008.96
944.738	4983.2
945.044	4958.12
945.35	4966.48
945.657	4915.41
945.963	4888.52
946.269	4860.04
946.575	4845.13
946.881	4882.64
947.187	4824.34
947.493	4794.73
947.799	4804
948.105	4755.41
948.41	4728.29
948.716	4721.29
949.022	4710.89
949.327	4658.01
949.633	4596.55
949.938	4619.82
950.244	4598.81
950.549	4593.83
950.854	4564.23
951.16	4519.71
951.465	4548.41
951.77	4476.32
952.075	4454.18
952.38	4465.93
952.685	4439.71
952.99	4406.95
953.294	4415.99
953.599	4417.12
953.904	4333.5
954.209	4376.66
954.513	4358.36
954.818	4300.73
955.122	4303.67
955.426	4253.96
955.731	4302.99
956.035	4234.75
956.339	4199.72
956.643	4196.78
956.948	4181.19
957.252	4179.83
957.556	4142.32
957.86	4131.02
958.163	4114.98
958.467	4108.65
958.771	4084.02
959.075	4056.22
959.378	4013.06
959.682	4054.41
959.985	4007.86
960.289	4009.44
960.592	3987.97
960.896	3941.65
961.199	3955.66
961.502	3928.31
961.805	3939.61
962.108	3866.17
962.411	3875.66
962.714	3825.27
963.017	3875.21
963.32	3836.34
963.623	3805.38
963.926	3803.35
964.228	3797.24
964.531	3721.99
964.833	3749.34
965.136	3723.12
965.438	3701.2
965.741	3685.84
966.043	3689.68
966.345	3605.61
966.648	3670.02
966.95	3641.54
967.252	3625.27
967.554	3604.26
967.856	3582.34
968.158	3540.3
968.46	3560.87
968.761	3542.56
969.063	3526.97
969.365	3508.66
969.666	3511.83
969.968	3464.37
970.269	3456.24
970.571	3441.32
970.872	3436.58
971.174	3404.03
971.475	3404.49
971.776	3382.57
972.077	3377.59
972.378	3326.3
972.679	3353.64
972.98	3355.67
973.281	3334.21
973.582	3307.77
973.883	3298.73
974.183	3263.02
974.484	3246.52
974.785	3215.34
975.085	3244.26
975.386	3234.77
975.686	3192.97
975.986	3192.97
976.287	3197.71
976.587	3142.35
976.887	3118.62
977.187	3129.47
977.487	3120.2
977.787	3108.45
978.087	3088.56
978.387	3056.02
978.687	3092.18
978.987	3074.78
979.286	3033.2
979.586	3046.53
979.885	2980.09
980.185	3002.24
980.484	2954.1
980.784	2953.88
981.083	2948
981.382	2949.81
981.682	2933.99
981.981	2939.19
982.28	2881.56
982.579	2846.31
982.878	2884.5
983.177	2873.65
983.475	2844.95
983.774	2844.28
984.073	2816.25
984.372	2821.45
984.67	2776.71
984.969	2780.1
985.267	2780.55
985.566	2783.49
985.864	2738.29
986.162	2727.22
986.461	2726.99
986.759	2688.12
987.057	2666.43
987.355	2658.97
987.653	2691.06
987.951	2665.98
988.249	2630.95
988.547	2680.89
988.844	2637.28
989.142	2616.03
989.44	2567.67
989.737	2587.79
990.035	2569.93
990.332	2571.29
990.63	2578.52
990.927	2501.23
991.224	2554.34
991.521	2503.49
991.819	2481.57
992.116	2512.53
992.413	2485.19
992.71	2490.39
993.006	2467.79
993.303	2443.83
993.6	2454.46
993.897	2459.43
994.193	2449.03
994.49	2369.26
994.787	2383.27
995.083	2356.38
995.379	2348.7
995.676	2372.42
995.972	2334.23
996.268	2343.27
996.565	2314.12
996.861	2311.86
997.157	2291.3
997.453	2283.84
997.749	2266.89
998.044	2235.48
998.34	2272.31
998.636	2223.5
998.932	2214.46
999.227	2215.37
999.523	2214.69
999.818	2221.69
1000.114	2186.44
1000.409	2163.39
1000.704	2132.66
1001	2144.41
1001.295	2138.08
1001.59	2123.84
1001.885	2126.78
1002.18	2121.58
1002.475	2120.23
1002.77	2077.29
1003.065	2036.16
1003.359	2053.11
1003.654	2064.63
1003.949	2023.05
1004.243	2055.82
1004.538	2057.18
1004.832	2035.03
1005.127	1996.39
1005.421	1962.26
1005.715	1968.82
1006.009	1984.41
1006.304	1964.3
1006.598	1942.15
1006.892	1930.63
1007.186	1911.87
1007.48	1909.61
1007.773	1895.6
1008.067	1902.61
1008.361	1869.39
1008.655	1858.31
1008.948	1873.91
1009.242	1839.33
1009.535	1829.61
1009.829	1800.01
1010.122	1801.14
1010.415	1823.74
1010.708	1797.98
1011.001	1791.87
1011.295	1782.38
1011.588	1762.04
1011.881	1760.46
1012.173	1748.49
1012.466	1745.32
1012.759	1730.41
1013.052	1718.88
1013.344	1730.63
1013.637	1696.28
1013.93	1677.3
1014.222	1693.35
1014.514	1712.78
1014.807	1675.04
1015.099	1635.04
1015.391	1622.84
1015.683	1626.45
1015.976	1640.01
1016.268	1616.06
1016.56	1598.43
1016.851	1571.09
1017.143	1577.19
1017.435	1597.08
1017.727	1571.77
1018.018	1553.24
1018.31	1536.51
1018.602	1539
1018.893	1519.11
1019.185	1506.23
1019.476	1500.36
1019.767	1477.76
1020.058	1469.62
1020.35	1434.6
1020.641	1471.88
1020.932	1461.94
1021.223	1444.09
1021.514	1429.62
1021.804	1408.83
1022.095	1415.84
1022.386	1431.88
1022.677	1383.97
1022.967	1389.4
1023.258	1379.23
1023.548	1352.34
1023.839	1369.51
1024.129	1353.02
1024.419	1341.04
1024.709	1346.91
1025	1327.71
1025.29	1288.38
1025.58	1297.2
1025.87	1303.3
1026.16	1286.58
1026.449	1280.93
1026.739	1282.51
1027.029	1274.6
1027.319	1259.23
1027.608	1258.78
1027.898	1218.78
1028.187	1244.09
1028.477	1237.76
1028.766	1238.44
1029.055	1209.52
1029.344	1202.51
1029.634	1156.41
1029.923	1187.82
1030.212	1168.84
1030.501	1180.14
1030.79	1179.23
1031.078	1148.5
1031.367	1139.01
1031.656	1107.6
1031.945	1153.02
1032.233	1136.3
1032.522	1132.23
1032.81	1113.25
1033.099	1107.37
1033.387	1095.85
1033.675	1110.08
1033.963	1077.32
1034.251	1095.39
1034.54	1056.53
1034.828	1078.67
1035.116	1056.07
1035.403	1038
1035.691	1058.56
1035.979	1003.19
1036.267	1037.32
1036.554	1019.46
1036.842	1008.17
1037.129	1016.07
1037.417	993.02
1037.704	985.34
1037.992	987.83
1038.279	956.87
1038.566	997.09
1038.853	997.09
1039.14	997.09
