Data from hue_300_FLMS001491_00079.txt Node
Date: Tue Feb 07 15:51:12 GMT 2017
User: dcchb
Spectrometer: FLMS00149
Trigger mode: 0
Integration Time (sec): 2.000000E-2
Scans to average: 10
Electric dark correction enabled: true
Nonlinearity correction enabled: false
Boxcar width: 0
XAxis mode: Wavelengths
Number of Pixels in Spectrum: 2048
>>>>>Begin Spectral Data<<<<<
341.393	-6.95
341.776	-6.95
342.16	-6.95
342.543	-49.66
342.927	-63.67
343.31	-65.25
343.693	-89.88
344.077	-55.76
344.46	-67.74
344.843	-54.18
345.226	-30.9
345.61	-39.26
345.993	-17.12
346.376	-22.54
346.759	10.9
347.142	46.61
347.525	28.3
347.908	65.59
348.291	75.99
348.674	106.04
349.057	109.21
349.44	130
349.823	138.36
350.206	158.02
350.588	191.92
350.971	199.83
351.354	204.8
351.737	238.47
352.119	258.81
352.502	263.55
352.884	260.39
353.267	259.26
353.65	282.76
354.032	289.09
354.414	305.81
354.797	287.05
355.179	315.75
355.562	335.64
355.944	302.87
356.326	308.07
356.709	322.53
357.091	338.35
357.473	335.87
357.855	349.43
358.238	334.96
358.62	328.86
359.002	322.53
359.384	331.12
359.766	326.38
360.148	329.31
360.53	341.74
360.912	340.16
361.294	332.7
361.676	332.93
362.057	316.88
362.439	333.61
362.821	314.4
363.203	296.55
363.584	323.89
363.966	322.08
364.348	319.82
364.729	312.14
365.111	316.21
365.493	318.69
365.874	313.27
366.256	306.94
366.637	298.81
367.019	329.54
367.4	306.49
367.781	322.76
368.163	308.3
368.544	284.57
368.925	325.02
369.306	308.3
369.688	306.04
370.069	301.97
370.45	308.3
370.831	310.78
371.212	304
371.593	314.85
371.974	303.33
372.355	285.47
372.736	331.8
373.117	308.97
373.498	300.84
373.879	289.77
374.26	303.33
374.641	315.53
375.021	297.22
375.402	302.65
375.783	294.51
376.163	330.67
376.544	326.15
376.925	317.79
377.305	324.79
377.686	311.23
378.066	343.1
378.447	330.22
378.827	337.45
379.208	328.64
379.588	328.64
379.968	315.98
380.349	306.04
380.729	333.38
381.109	331.35
381.489	329.99
381.87	333.83
382.25	329.31
382.63	337.22
383.01	332.25
383.39	305.59
383.77	359.37
384.15	343.55
384.53	321.63
384.91	358.69
385.29	346.26
385.67	348.3
386.049	350.1
386.429	327.05
386.809	368.18
387.189	346.49
387.568	323.44
387.948	361.18
388.328	336.77
388.707	370.89
389.087	353.49
389.466	355.53
389.846	349.2
390.225	369.09
390.605	355.3
390.984	376.32
391.363	376.09
391.743	367.5
392.122	354.17
392.501	375.41
392.881	377
393.26	367.5
393.639	379.03
394.018	391.23
394.397	393.49
394.776	386.94
395.155	366.83
395.534	364.11
395.913	384
396.292	415.41
396.671	388.29
397.05	388.97
397.429	384
397.808	398.24
398.186	391.68
398.565	395.98
398.944	391.01
399.323	413.83
399.701	408.18
400.08	422.87
400.458	398.92
400.837	424.9
401.215	396.66
401.594	415.86
401.972	417.9
402.351	419.48
402.729	430.33
403.107	437.11
403.486	432.36
403.864	420.61
404.242	415.41
404.62	462.42
404.999	437.56
405.377	418.8
405.755	451.57
406.133	448.63
406.511	460.38
406.889	441.17
407.267	473.94
407.645	476.2
408.023	474.39
408.401	485.92
408.779	482.53
409.156	503.77
409.534	482.53
409.912	523.88
410.29	508.52
410.667	509.87
411.045	521.4
411.422	536.54
411.8	531.12
412.178	540.61
412.555	554.84
412.933	555.52
413.31	579.48
413.687	569.99
414.065	584.22
414.442	595.75
414.819	588.29
415.197	599.14
415.574	638.46
415.951	640.72
416.328	631.9
416.705	631.9
417.082	626.71
417.46	646.59
417.837	682.98
418.214	690.21
418.591	680.72
418.967	682.07
419.344	698.8
419.721	701.73
420.098	701.28
420.475	743.54
420.852	726.37
421.228	736.08
421.605	749.19
421.982	754.39
422.358	765.23
422.735	771.79
423.111	779.25
423.488	786.7
423.864	796.87
424.241	816.08
424.617	828.96
424.994	819.47
425.37	835.51
425.746	829.41
426.123	859.02
426.499	819.92
426.875	881.84
427.251	857.21
427.627	904.67
428.003	907.15
428.379	903.08
428.756	935.85
429.132	953.7
429.507	949.86
429.883	970.88
430.259	963.42
430.635	998
431.011	995.06
431.387	1001.39
431.763	1009.3
432.138	1030.09
432.514	1039.13
432.89	1048.62
433.265	1076.41
433.641	1099.46
434.016	1096.75
434.392	1083.42
434.767	1129.97
435.143	1137.88
435.518	1129.29
435.894	1148.95
436.269	1160.93
436.644	1192.34
437.02	1206.13
437.395	1196.64
437.77	1189.18
438.145	1230.31
438.52	1228.05
438.895	1245.22
439.271	1251.1
439.646	1255.84
440.021	1271.21
440.395	1276.86
440.77	1281.38
441.145	1277.09
441.52	1317.99
441.895	1311.21
442.27	1306.69
442.645	1309.85
443.019	1348.27
443.394	1336.29
443.769	1349.63
444.143	1346.69
444.518	1328.61
444.892	1327.03
445.267	1339.23
445.641	1352.11
446.016	1365.22
446.39	1413.35
446.764	1397.08
447.139	1352.56
447.513	1376.97
447.887	1385.33
448.262	1383.07
448.636	1389.17
449.01	1408.38
449.384	1400.92
449.758	1455.16
450.132	1450.64
450.506	1441.83
450.88	1421.26
451.254	1449.74
451.628	1468.94
452.002	1456.97
452.376	1506.46
452.75	1465.1
453.123	1520.69
453.497	1486.57
453.871	1496.29
454.244	1552.56
454.618	1529.73
454.992	1557.53
455.365	1570.86
455.739	1586
456.112	1581.71
456.486	1595.04
456.859	1602.95
457.232	1632.78
457.606	1608.6
457.979	1638.66
458.352	1665.1
458.725	1677.75
459.099	1638.21
459.472	1674.81
459.845	1717.3
460.218	1738.99
460.591	1694.48
460.964	1704.42
461.337	1778.31
461.71	1735.83
462.083	1799.11
462.456	1808.82
462.829	1828.26
463.201	1789.39
463.574	1837.75
463.947	1832.32
464.32	1840.01
464.692	1868.48
465.065	1877.52
465.438	1915.71
465.81	1933.34
466.183	1912.55
466.555	1959.78
466.928	1972.21
467.3	1966.78
467.672	1957.07
468.045	2024.86
468.417	2011.08
468.789	2033.9
469.161	2010.4
469.534	2063.51
469.906	2089.04
470.278	2123.84
470.65	2107.12
471.022	2155.48
471.394	2182.15
471.766	2186.44
472.138	2189.6
472.51	2216.72
472.882	2214.91
473.253	2284.97
473.625	2289.26
473.997	2332.65
474.369	2342.59
474.74	2343.5
475.112	2367.23
475.484	2397.51
475.855	2406.09
476.227	2445.64
476.598	2473.89
476.97	2512.76
477.341	2556.15
477.713	2572.42
478.084	2558.41
478.455	2627.11
478.827	2637.28
479.198	2660.1
479.569	2674.11
479.94	2729.02
480.311	2728.57
480.682	2839.3
481.053	2823.26
481.424	2877.49
481.795	2856.93
482.166	2889.92
482.537	2945.06
482.908	2986.87
483.279	3056.25
483.65	3010.6
484.021	3072.97
484.391	3087.43
484.762	3122.91
485.133	3131.5
485.503	3165.17
485.874	3188
486.244	3224.15
486.615	3247.65
486.985	3283.59
487.356	3346.64
487.726	3325.84
488.097	3419.85
488.467	3400.65
488.837	3462.11
489.207	3462.56
489.578	3507.31
489.948	3587.98
490.318	3605.84
490.688	3576.01
491.058	3638.83
491.428	3677.02
491.798	3676.57
492.168	3710.24
492.538	3725.38
492.908	3764.03
493.278	3801.09
493.648	3821.65
494.017	3847.41
494.387	3847.86
494.757	3859.84
495.126	3925.38
495.496	3898.49
495.866	3905.72
496.235	3964.7
496.605	3978.71
496.974	3973.29
497.344	4000.86
497.713	4040.85
498.082	4067.75
498.452	4071.59
498.821	4122.66
499.19	4104.81
499.559	4112.94
499.928	4187.97
500.298	4141.19
500.667	4183.22
501.036	4186.16
501.405	4204.01
501.774	4212.6
502.143	4225.93
502.512	4259.83
502.88	4270.68
503.249	4330.34
503.618	4310.23
503.987	4326.27
504.356	4335.99
504.724	4326.72
505.093	4400.84
505.462	4407.4
505.83	4390
506.199	4430
506.567	4425.25
506.936	4453.5
507.304	4437.68
507.672	4499.37
508.041	4533.72
508.409	4587.96
508.777	4548.19
509.145	4571.91
509.514	4578.69
509.882	4575.98
510.25	4593.16
510.618	4566.72
510.986	4594.29
511.354	4702.08
511.722	4699.14
512.09	4730.55
512.458	4726.71
512.826	4691.46
513.193	4760.84
513.561	4759.03
513.929	4732.36
514.297	4749.76
514.664	4763.32
515.032	4823.88
515.4	4834.05
515.767	4843.09
516.135	4876.31
516.502	4804.9
516.869	4868.86
517.237	4863.21
517.604	4846.03
517.972	4876.76
518.339	4892.81
518.706	4926.48
519.073	4963.09
519.44	4913.15
519.808	4971.45
520.175	4969.42
520.542	5041.73
520.909	5023.43
521.276	5017.55
521.643	5069.3
522.009	5085.57
522.376	5116.31
522.743	5152.46
523.11	5161.5
523.477	5201.28
523.843	5197.66
524.21	5233.59
524.577	5302.97
524.943	5250.77
525.31	5282.86
525.676	5355.17
526.043	5299.35
526.409	5348.62
526.776	5402.17
527.142	5430.65
527.508	5465.9
527.874	5445.79
528.241	5497.99
528.607	5480.14
528.973	5529.63
529.339	5537.99
529.705	5558.1
530.071	5573.24
530.437	5631.55
530.803	5700.92
531.169	5679.23
531.535	5716.29
531.901	5664.77
532.267	5735.95
532.632	5775.05
532.998	5784.76
533.364	5781.37
533.73	5816.4
534.095	5895.49
534.461	5903.18
534.826	5880.81
535.192	5942.5
535.557	5975.94
535.923	5970.07
536.288	5951.31
536.653	6038.32
537.019	6037.41
537.384	6052.33
537.749	6065.43
538.114	6042.38
538.479	6129.84
538.845	6087.35
539.21	6107.01
539.575	6227.69
539.94	6214.81
540.305	6210.97
540.67	6282.6
541.034	6285.54
541.399	6294.13
541.764	6289.61
542.129	6276.28
542.494	6332.55
542.858	6400.79
543.223	6441.24
543.587	6397.4
543.952	6489.38
544.316	6464.97
544.681	6520.34
545.045	6496.38
545.41	6561.69
545.774	6582.71
546.138	6577.74
546.503	6645.31
546.867	6546.33
547.231	6677.17
547.595	6724.85
547.959	6733.66
548.324	6666.32
548.688	6749.26
549.052	6831.52
549.416	6784.28
549.779	6789.03
550.143	6779.09
550.507	6826.77
550.871	6919.42
551.235	6862.02
551.599	6921.91
551.962	6972.3
552.326	7002.81
552.689	7024.73
553.053	6977.95
553.417	6997.16
553.78	7063.6
554.143	7090.72
554.507	7106.99
554.87	7084.62
555.234	7185.63
555.597	7107.44
555.96	7165.52
556.323	7196.03
556.686	7189.25
557.05	7257.27
557.413	7238.06
557.776	7299.53
558.139	7373.2
558.502	7326.64
558.865	7349.92
559.228	7401.9
559.59	7400.99
559.953	7377.72
560.316	7506.75
560.679	7435.34
561.041	7528.45
561.404	7581.78
561.767	7567.09
562.129	7499.07
562.492	7567.09
562.854	7659.97
563.217	7647.09
563.579	7611.38
563.941	7674.2
564.304	7722.11
564.666	7776.35
565.028	7764.6
565.39	7813.41
565.753	7824.71
566.115	7807.76
566.477	7812.96
566.839	7902.67
567.201	7934.76
567.563	7946.06
567.925	8017.47
568.287	8038.94
568.648	8025.38
569.01	8059.51
569.372	8140.63
569.734	8055.44
570.095	8146.96
570.457	8233.06
570.819	8220.41
571.18	8217.69
571.542	8221.54
571.903	8291.82
572.265	8359.38
572.626	8424.47
572.987	8471.47
573.349	8477.35
573.71	8501.3
574.071	8544.92
574.432	8608.87
574.794	8716.66
575.155	8741.3
575.516	8859.94
575.877	8876.43
576.238	8968.41
576.599	9047.95
576.96	9069.42
577.32	9139.03
577.681	9230.55
578.042	9329.98
578.403	9386.93
578.763	9486.59
579.124	9593.48
579.485	9704.66
579.845	9773.58
580.206	9866.01
580.566	10061.49
580.927	10222.16
581.287	10320.46
581.648	10416.73
582.008	10606.78
582.368	10768.36
582.728	10849.04
583.089	11112.08
583.449	11222.36
583.809	11333.54
584.169	11608.79
584.529	11711.16
584.889	11969.69
585.249	12098.27
585.609	12344.36
585.969	12589.1
586.329	12764.47
586.688	12983.22
587.048	13168.75
587.408	13414.17
587.768	13655.52
588.127	13944.77
588.487	14152
588.846	14483.29
589.206	14651.42
589.565	14878.99
589.925	15300.22
590.284	15341.35
590.643	15687.78
591.003	16102.46
591.362	16328.21
591.721	16620.41
592.08	16773.63
592.44	17227.63
592.799	17548.52
593.158	17712.81
593.517	18013.37
593.876	18335.85
594.235	18501.04
594.593	18875.04
594.952	19176.5
595.311	19504.63
595.67	19732.87
596.029	20193.2
596.387	20396.81
596.746	20784.59
597.104	20992.05
597.463	21254.64
597.822	21672.26
598.18	21810.1
598.538	22231.79
598.897	22633.81
599.255	22598.78
599.613	23352.21
599.972	23440.12
600.33	23703.16
600.688	23862.93
601.046	24275.8
601.404	24690.03
601.762	24844.83
602.12	25235.33
602.478	25573.62
602.836	25802.54
603.194	25946.94
603.552	26236.43
603.91	26443.2
604.268	26842.51
604.625	26880.93
604.983	27245.44
605.341	27468.03
605.698	27896.5
606.056	28086.32
606.413	28289.26
606.771	28548.01
607.128	28884.95
607.485	28953.65
607.843	29071.16
608.2	29514.31
608.557	29811.02
608.914	29882.89
609.272	30203.1
609.629	30397.45
609.986	30679.25
610.343	30830.66
610.7	31180.03
611.057	31232.23
611.414	31456.86
611.771	31809.39
612.127	31901.14
612.484	32159.44
612.841	32309.04
613.198	32377.28
613.554	32596.04
613.911	33013.43
614.267	32951.73
614.624	33141.33
614.98	33336.81
615.337	33622.9
615.693	33658.83
616.05	33837.36
616.406	34132.72
616.762	34073.06
617.118	34242.09
617.475	34420.39
617.831	34664.23
618.187	34764.79
618.543	34916.2
618.899	35127.27
619.255	35123.65
619.611	35198.23
619.967	35496.3
620.323	35684.54
620.678	35644.77
621.034	35568.84
621.39	35800.47
621.746	35877.53
622.101	36423.73
622.457	36093.12
622.812	36363.85
623.168	36505.54
623.523	36566.55
623.879	36652.65
624.234	36516.84
624.589	36838.41
624.945	36771.07
625.3	37024.62
625.655	37090.38
626.01	37131.28
626.365	37126.99
626.72	37162.92
627.075	37342.58
627.43	37231.39
627.785	37223.48
628.14	37498.96
628.495	37559.52
628.85	37459.86
629.205	37389.36
629.559	37730.82
629.914	37556.58
630.269	37728.33
630.623	37590.71
630.978	37531.95
631.332	37811.94
631.687	37883.58
632.041	37817.14
632.396	37963.8
632.75	37868.67
633.104	37861.21
633.459	37691.72
633.813	37708.22
634.167	37903.24
634.521	37904.6
634.875	37900.08
635.229	37963.58
635.583	37917.03
635.937	37926.06
636.291	37781.89
636.645	37923.81
636.999	37749.57
637.352	37825.28
637.706	37817.14
638.06	37856.91
638.413	37853.3
638.767	37743.7
639.121	37971.26
639.474	37699.63
639.828	37769.68
640.181	37839.74
640.534	37856.46
640.888	37655.56
641.241	37719.52
641.594	37665.28
641.947	37764.71
642.301	37788.22
642.654	37872.96
643.007	37872.96
643.36	37894.2
643.713	37716.13
644.066	37876.8
644.419	37592.51
644.771	37266.42
645.124	37167.21
645.477	37060.1
645.83	36892.65
646.182	36702.59
646.535	36613.33
646.888	36733.78
647.24	36516.38
647.593	36735.81
647.945	36699.43
648.298	36423.28
648.65	36466.89
649.002	36453.11
649.355	36682.26
649.707	36553.22
650.059	36779.43
650.411	37144.39
650.763	37135.35
651.115	37484.27
651.467	37446.08
651.819	37527.66
652.171	37224.39
652.523	37263.03
652.875	37369.7
653.227	37041.57
653.578	37539.63
653.93	37349.36
654.282	37265.52
654.633	37120.89
654.985	37184.84
655.337	37302.35
655.688	37261.68
656.039	37240.89
656.391	37112.53
656.742	37107.56
657.094	37112.98
657.445	37284.27
657.796	37150.94
658.147	37154.79
658.498	36991.85
658.849	37156.14
659.2	37238.4
659.551	37157.72
659.902	37230.04
660.253	37087.67
660.604	37141.23
660.955	36976.26
661.306	37123.83
661.656	37046.09
662.007	37159.31
662.358	37204.5
662.708	37173.09
663.059	37111.4
663.409	37073.43
663.76	37062.36
664.11	37028.46
664.461	37175.35
664.811	37127.89
665.161	36987.78
665.511	36882.93
665.862	37015.13
666.212	37167.21
666.562	37171.96
666.912	37095.35
667.262	36976.03
667.612	36928.8
667.962	37031.4
668.312	36918.86
668.662	37254.22
669.011	36911.4
669.361	36992.98
669.711	36943.94
670.06	36956.82
670.41	36833.66
670.76	36948.92
671.109	37058.29
671.459	36790.28
671.808	36774.68
672.157	36964.96
672.507	36618.53
672.856	36777.17
673.205	36736.94
673.554	36790.5
673.904	36686.32
674.253	36897.62
674.602	36767
674.951	36209.5
675.3	35990.75
675.649	36702.37
675.998	36536.5
676.346	36653.33
676.695	36779.65
677.044	36627.12
677.393	36595.25
677.741	36582.6
678.09	36583.05
678.438	36322.94
678.787	36538.76
679.135	36466.67
679.484	36205.66
679.832	36474.58
680.181	36114.14
680.529	36397.29
680.877	36178.09
681.225	36126.11
681.573	36389.83
681.922	36078.66
682.27	35875.05
682.618	35889.96
682.966	35910.07
683.314	36113.68
683.661	35793.01
684.009	35710.98
684.357	35673.02
684.705	35687.25
685.053	35751.43
685.4	35640.02
685.748	35479.35
686.095	35537.65
686.443	35382.85
686.79	35242.07
687.138	35381.27
687.485	35373.36
687.832	35185.35
688.18	35256.76
688.527	35091.79
688.874	35175.63
689.221	34984.9
689.568	34879.37
689.915	34704.68
690.262	34695.42
690.609	34605.02
690.956	34515.53
691.303	34543.33
691.65	34358.02
691.997	34383.56
692.344	34160.74
692.69	34177.24
693.037	34177.01
693.383	33986.73
693.73	33935.21
694.077	33802.33
694.423	33847.98
694.769	33688.44
695.116	33544.26
695.462	33610.02
695.808	33453.64
696.155	33537.93
696.501	33328.9
696.847	33267.43
697.193	33062.46
697.539	33142.01
697.885	33011.17
698.231	32884.39
698.577	32879.19
698.923	32784.73
699.269	32693.43
699.614	32530.05
699.96	32375.25
700.306	32273.78
700.651	32336.16
700.997	32125.09
701.342	32114.01
701.688	32052.77
702.033	31989.5
702.379	31945.66
702.724	31843.96
703.069	31857.75
703.415	31529.17
703.76	31519.45
704.105	31522.17
704.45	31464.31
704.795	31254.15
705.14	31126.02
705.485	31101.39
705.83	31026.81
706.175	31098.45
706.52	31098.22
706.865	30932.58
707.209	30792.92
707.554	30784.11
707.899	30835.86
708.243	30688.29
708.588	30648.29
708.932	30366.26
709.277	30349.31
709.621	30422.99
709.966	30194.06
710.31	30293.27
710.654	29961.75
710.998	30159.26
711.342	30127.85
711.687	29992.49
712.031	29970.34
712.375	29770.35
712.719	29869.1
713.063	29694.87
713.407	29877.91
713.75	29614.42
714.094	29617.58
714.438	29520.18
714.782	29640.63
715.125	29356.35
715.469	29553.4
715.812	29319.06
716.156	29175.33
716.499	29200.87
716.843	29230.25
717.186	28917.71
717.53	29160.65
717.873	29199.06
718.216	29058.73
718.559	28908
718.902	28629.13
719.246	28685.63
719.589	28751.62
719.932	28602.47
720.275	28561.34
720.617	28611.73
720.96	28541.9
721.303	28456.26
721.646	28509.82
721.989	28274.57
722.331	28362.47
722.674	28331.74
723.016	28414.68
723.359	28333.32
723.701	28387.11
724.044	28113.89
724.386	27975.37
724.729	28114.35
725.071	28039.32
725.413	28022.14
725.755	27914.12
726.097	27887.01
726.439	27747.8
726.782	27846.56
727.124	27896.95
727.465	27700.35
727.807	27671.87
728.149	27638.65
728.491	27597.75
728.833	27671.65
729.175	27541.48
729.516	27487.24
729.858	27381.94
730.199	27448.6
730.541	27534.47
730.882	27324.08
731.224	27422.61
731.565	27281.6
731.906	27346
732.248	27326.34
732.589	27222.17
732.93	27113.92
733.271	27024.66
733.612	27153.47
733.953	27152.56
734.294	26963.42
734.635	27010.65
734.976	26994.83
735.317	26897.43
735.658	26807.94
735.999	26809.52
736.339	26709.86
736.68	26881.38
737.021	26803.87
737.361	26617.44
737.702	26842.29
738.042	26611.33
738.383	26581.28
738.723	26711.67
739.063	26527.72
739.404	26570.21
739.744	26488.63
740.084	26457.67
740.424	26445.01
740.764	26465.35
741.104	26513.48
741.444	26285.02
741.784	26225.36
742.124	26324.11
742.464	26179.03
742.804	26249.99
743.143	26209.08
743.483	26201.18
743.823	26029.88
744.162	25976.32
744.502	26041.86
744.841	25932.03
745.181	26035.98
745.52	25909.66
745.86	26002.31
746.199	25856.33
746.538	25949.43
746.877	25952.82
747.216	25850.22
747.556	25723
747.895	25782.2
748.234	25823.56
748.573	25607.97
748.911	25752.37
749.25	25760.96
749.589	25496.11
749.928	25515.77
750.267	25721.41
750.605	25573.17
750.944	25483.91
751.283	25485.71
751.621	25420.18
751.96	25403.68
752.298	25333.63
752.636	25493.4
752.975	25262.22
753.313	25210.24
753.651	25457.01
753.989	25217.7
754.327	25185.38
754.666	25046.63
755.004	25165.27
755.342	25135.21
755.679	25085.72
756.017	24949.46
756.355	24980.42
756.693	24946.75
757.031	25014.09
757.368	24833.75
757.706	24871.72
758.044	24742
758.381	24824.26
758.719	24718.05
759.056	24713.53
759.394	24542.24
759.731	24485.29
760.068	24499.07
760.405	24400.54
760.743	24308.8
761.08	24410.26
761.417	24347.44
761.754	24298.4
762.091	24151.96
762.428	24187.67
762.765	24035.36
763.102	24141.79
763.438	23918.07
763.775	23889.15
764.112	23899.09
764.449	23843.27
764.785	23853.44
765.122	23681.47
765.458	23652.09
765.795	23426.11
766.131	23618.19
766.467	23570.28
766.804	23326.67
767.14	23252.1
767.476	23277.64
767.812	23250.52
768.148	23105.44
768.485	23029.06
768.821	22829.29
769.157	22958.32
769.492	22923.3
769.828	22794.03
770.164	22602.17
770.5	22606.02
770.836	22611.89
771.171	22501.16
771.507	22376.64
771.842	22337.1
772.178	22269.53
772.513	22143.66
772.849	22127.16
773.184	21965.13
773.519	21971.23
773.855	21900.27
774.19	21910.21
774.525	21794.51
774.86	21734.63
775.195	21636.1
775.53	21543.9
775.865	21440.62
776.2	21333.51
776.535	21181.87
776.87	21146.39
777.205	21126.05
777.539	20973.74
777.874	21009.9
778.209	20907.76
778.543	20864.59
778.878	20786.4
779.212	20672.28
779.547	20582.57
779.881	20686.07
780.215	20427.09
780.55	20622.79
780.884	20343.93
781.218	20371.72
781.552	20322.23
781.886	20204.95
782.22	20090.83
782.554	19942.13
782.888	19843.15
783.222	19838.63
783.556	19754.11
783.889	19672.99
784.223	19582.59
784.557	19505.31
784.89	19671.86
785.224	19452.88
785.557	19342.15
785.891	19247.91
786.224	19255.6
786.558	19293.33
786.891	19023.96
787.224	19039.33
787.557	18975.38
787.891	18950.29
788.224	18942.16
788.557	18808.6
788.89	18838.21
789.223	18749.39
789.556	18648.61
789.888	18554.37
790.221	18532.45
790.554	18294.49
790.887	18387.6
791.219	18279.35
791.552	18240.03
791.884	18236.87
792.217	18034.38
792.549	17958.68
792.882	17940.6
793.214	17830.77
793.546	17917.33
793.879	17726.82
794.211	17593.72
794.543	17694.05
794.875	17663.32
795.207	17675.75
795.539	17521.18
795.871	17527.05
796.203	17376.1
796.535	17310.79
796.867	17286.16
797.198	17186.27
797.53	17185.37
797.862	17097.46
798.193	17062.88
798.525	16961.64
798.856	16993.51
799.188	16857.92
799.519	16788.09
799.85	16690.24
800.182	16644.59
800.513	16681.65
800.844	16526.63
801.175	16684.59
801.506	16503.58
801.837	16469.45
802.168	16359.4
802.499	16365.73
802.83	16314.66
803.161	16296.13
803.491	16205.96
803.822	16283.92
804.153	16026.53
804.483	15993.99
804.814	15979.75
805.145	15972.07
805.475	15943.37
805.805	15828.57
806.136	15738.63
806.466	15809.81
806.796	15770.26
807.126	15609.36
807.457	15537.5
807.787	15602.36
808.117	15582.25
808.447	15492.98
808.777	15534.34
809.107	15478.52
809.436	15365.98
809.766	15427.22
810.096	15294.57
810.426	15276.26
810.755	15288.24
811.085	15236.49
811.414	15220
811.744	15131.18
812.073	15118.08
812.403	14993.56
812.732	14913.34
813.061	14946.1
813.39	14856.62
813.719	14771.19
814.049	14908.82
814.378	14821.59
814.707	14716.05
815.036	14771.19
815.365	14714.92
815.693	14557.41
816.022	14509.05
816.351	14477.42
816.68	14459.11
817.008	14445.55
817.337	14369.17
817.665	14288.95
817.994	14368.49
818.322	14354.93
818.651	14147.03
818.979	14219.34
819.307	14280.13
819.636	14284.2
819.964	14190.64
820.292	14154.26
820.62	14180.7
820.948	14084.21
821.276	14144.32
821.604	14148.84
821.932	14096.18
822.259	14013.7
822.587	14026.13
822.915	14000.82
823.243	14096.18
823.57	14027.71
823.898	14007.37
824.225	14019.57
824.553	13959.01
824.88	13985.68
825.207	14034.94
825.535	14035.39
825.862	14050.53
826.189	14005.79
826.516	14071.55
826.843	14025.45
827.17	14077.88
827.497	14120.82
827.824	13998.11
828.151	14073.81
828.478	13991.33
828.805	14000.59
829.131	13987.49
829.458	13946.58
829.785	13864.1
830.111	13974.15
830.438	14043.08
830.764	13974.83
831.09	13990.2
831.417	13947.26
831.743	13924.89
832.069	13917.2
832.395	13899.58
832.722	13948.39
833.048	13884.44
833.374	13874.95
833.7	13843.99
834.026	13776.87
834.351	13830.2
834.677	13812.8
835.003	13808.06
835.329	13837.21
835.654	13764.67
835.98	13726.25
836.306	13729.64
836.631	13619.36
836.956	13722.86
837.282	13718.57
837.607	13653.48
837.932	13653.71
838.258	13636.76
838.583	13652.8
838.908	13526.48
839.233	13476.31
839.558	13506.14
839.883	13439.03
840.208	13370.55
840.533	13396.31
840.858	13495.07
841.182	13456.2
841.507	13428.63
841.832	13330.55
842.156	13293.04
842.481	13291.01
842.805	13222.31
843.13	13154.74
843.454	13230.67
843.778	13064.57
844.103	13064.57
844.427	13130.11
844.751	13012.6
845.075	13027.28
845.399	13024.57
845.723	12967.85
846.047	12923.56
846.371	12909.32
846.695	12786.61
847.019	12739.16
847.343	12672.04
847.666	12585.26
847.99	12559.95
848.313	12602.66
848.637	12537.58
848.96	12395.89
849.284	12428.43
849.607	12358.6
849.931	12232.96
850.254	12190.7
850.577	12137.59
850.9	12071.38
851.223	12070.25
851.546	12066.18
851.869	11936.69
852.192	12012.4
852.515	11876.81
852.838	11867.09
853.161	11805.4
853.483	11812.85
853.806	11785.74
854.129	11695.34
854.451	11685.85
854.774	11606.08
855.096	11559.98
855.419	11618.73
855.741	11585.29
856.063	11463.48
856.385	11432.52
856.708	11380.32
857.03	11369.7
857.352	11369.93
857.674	11299.42
857.996	11223.26
858.318	11188.91
858.64	11157.5
858.961	11120.89
859.283	11093.78
859.605	11120.89
859.926	11096.94
860.248	11038.18
860.57	10985.08
860.891	11024.63
861.212	10972.88
861.534	10909.83
861.855	10892.88
862.176	10882.03
862.498	10958.86
862.819	10931.52
863.14	10863.95
863.461	10858.75
863.782	10806.55
864.103	10760.45
864.424	10778.53
864.745	10767.91
865.065	10713.22
865.386	10605.88
865.707	10727.23
866.027	10716.16
866.348	10602.26
866.668	10676.16
866.989	10557.74
867.309	10475.04
867.63	10611.3
867.95	10552.32
868.27	10418.77
868.59	10480.23
868.91	10494.7
869.23	10439.78
869.55	10443.62
869.87	10470.29
870.19	10465.09
870.51	10435.94
870.83	10452.21
871.15	10290.63
871.469	10338.77
871.789	10364.53
872.109	10254.7
872.428	10169.96
872.748	10252.22
873.067	10269.62
873.386	10265.32
873.706	10139.68
874.025	10205.89
874.344	10067.59
874.663	10141.71
874.982	10131.99
875.301	10067.14
875.62	10081.37
875.939	10030.98
876.258	10100.13
876.577	10031.21
876.896	10020.36
877.214	9980.59
877.533	10011.77
877.852	9944.43
878.17	9989.62
878.489	9978.78
878.807	9948.5
879.125	9897.65
879.444	9861.04
879.762	9849.29
880.08	9868.05
880.398	9794.38
880.716	9850.42
881.034	9863.07
881.352	9804.09
881.67	9766.13
881.988	9758.9
882.306	9727.94
882.624	9696.98
882.941	9629.18
883.259	9610.43
883.577	9593.25
883.894	9640.48
884.212	9569.97
884.529	9630.76
884.846	9536.75
885.164	9515.96
885.481	9533.14
885.798	9516.87
886.115	9453.82
886.432	9455.18
886.75	9358.91
887.067	9447.49
887.383	9342.64
887.7	9368.4
888.017	9332.47
888.334	9325.91
888.651	9301.05
888.967	9258.57
889.284	9170.44
889.6	9229.42
889.917	9167.05
890.233	9188.29
890.55	9110.33
890.866	9133.15
891.182	9069.2
891.498	9002.08
891.815	9039.37
892.131	9009.54
892.447	8999.82
892.763	8895.42
893.079	8922.31
893.395	8957.11
893.71	8877.11
894.026	8834.4
894.342	8828.52
894.657	8758.02
894.973	8756.89
895.289	8795.08
895.604	8766.15
895.92	8659.72
896.235	8598.47
896.55	8580.62
896.865	8593.28
897.181	8547.63
897.496	8562.09
897.811	8523.45
898.126	8480.74
898.441	8375.43
898.756	8397.58
899.071	8334.07
899.386	8387.41
899.7	8344.7
900.015	8252.27
900.33	8217.24
900.644	8177.02
900.959	8167.07
901.273	8117.36
901.588	8122.78
901.902	8146.73
902.216	8073.74
902.531	8089.56
902.845	8005.5
903.159	7986.51
903.473	7953.29
903.787	7900.64
904.101	7864.26
904.415	7822
904.729	7793.3
905.042	7817.48
905.356	7835.56
905.67	7758.5
905.984	7736.8
906.297	7720.53
906.611	7700.42
906.924	7626.3
907.237	7616.13
907.551	7579.29
907.864	7509.01
908.177	7590.14
908.491	7511.95
908.804	7472.18
909.117	7447.54
909.43	7386.08
909.743	7321.45
910.056	7333.42
910.368	7289.36
910.681	7289.13
910.994	7269.47
911.307	7212.07
911.619	7198.96
911.932	7206.65
912.244	7097.05
912.557	7111.06
912.869	7071.51
913.181	7037.16
913.494	7060.66
913.806	7010.04
914.118	6989.48
914.43	6933.43
914.742	6915.13
915.054	6862.7
915.366	6848.01
915.678	6818.86
915.99	6790.84
916.302	6726.66
916.613	6700.45
916.925	6734.34
917.236	6746.77
917.548	6632.65
917.859	6643.5
918.171	6578.64
918.482	6525.53
918.794	6571.41
919.105	6549.94
919.416	6463.62
919.727	6488.7
920.038	6458.19
920.349	6460
920.66	6411.87
920.971	6350.17
921.282	6355.14
921.593	6295.26
921.903	6253.45
922.214	6222.04
922.525	6193.11
922.835	6191.76
923.146	6130.97
923.456	6115.38
923.767	6090.97
924.077	6111.99
924.387	6041.25
924.697	6043.51
925.008	6048.49
925.318	5979.79
925.628	5941.14
925.938	5914.48
926.248	5834.71
926.558	5903.4
926.867	5893.01
927.177	5819.79
927.487	5827.93
927.796	5741.15
928.106	5777.76
928.416	5731.66
928.725	5755.61
929.034	5689.85
929.344	5672.9
929.653	5663.64
929.962	5587.25
930.271	5533.7
930.581	5596.07
930.89	5593.36
931.199	5520.59
931.508	5473.58
931.817	5495.05
932.125	5438.78
932.434	5450.76
932.743	5376.64
933.051	5342.97
933.36	5391.55
933.669	5273.59
933.977	5242.18
934.286	5239.92
934.594	5243.08
934.902	5206.93
935.21	5193.37
935.519	5183.42
935.827	5146.59
936.135	5141.39
936.443	5077.44
936.751	5107.04
937.059	5133.71
937.367	5044.9
937.674	5072.92
937.982	5050.09
938.29	4979.59
938.597	5042.18
938.905	4961.06
939.213	4920.15
939.52	4886.93
939.827	4911.34
940.135	4860.72
940.442	4841.29
940.749	4839.93
941.056	4802.64
941.363	4787.28
941.67	4764.9
941.977	4707.05
942.284	4671.35
942.591	4711.8
942.898	4725.13
943.205	4656.66
943.511	4626.83
943.818	4610.33
944.125	4591.35
944.431	4572.59
944.738	4636.09
945.044	4542.76
945.35	4461.63
945.657	4509.99
945.963	4527.4
946.269	4482.65
946.575	4449.88
946.881	4429.32
947.187	4430
947.493	4396.55
947.799	4373.27
948.105	4364.69
948.41	4371.24
948.716	4333.95
949.022	4319.94
949.327	4309.1
949.633	4278.14
949.938	4285.59
950.244	4235.2
950.549	4187.74
950.854	4179.83
951.16	4133.51
951.465	4141.19
951.77	4118.82
952.075	4078.14
952.38	4096.45
952.685	4087.41
952.99	4041.98
953.294	4003.34
953.599	3964.47
953.904	3982.78
954.209	3959.05
954.513	3940.07
954.818	3944.81
955.122	3924.25
955.426	3926.51
955.731	3879.5
956.035	3866.17
956.339	3883.34
956.643	3860.52
956.948	3815.55
957.252	3800.86
957.556	3804.48
957.86	3775.1
958.163	3747.53
958.467	3747.53
958.771	3752.27
959.075	3729
959.378	3697.13
959.682	3690.13
959.985	3651.71
960.289	3671.15
960.592	3611.49
960.896	3660.75
961.199	3618.72
961.502	3606.97
961.805	3581.66
962.108	3567.19
962.411	3528.55
962.714	3505.05
963.017	3501.43
963.32	3512.51
963.623	3512.05
963.926	3448.1
964.228	3399.06
964.531	3416.01
964.833	3435.67
965.136	3404.94
965.438	3379.85
965.741	3333.98
966.043	3352.28
966.345	3311.16
966.648	3299.18
966.95	3339.18
967.252	3285.17
967.554	3294.66
967.856	3323.58
968.158	3268.45
968.46	3201.55
968.761	3219.63
969.063	3224.38
969.365	3208.56
969.666	3203.14
969.968	3171.95
970.269	3148
970.571	3121.1
970.872	3152.29
971.174	3124.49
971.475	3101.44
971.776	3082.69
972.077	3117.04
972.378	3080.88
972.679	3029.58
972.98	3071.84
973.281	3001.33
973.582	3048.79
973.883	3022.8
974.183	2983.25
974.484	2987.1
974.785	2940.32
975.085	2916.36
975.386	2984.16
975.686	2915.69
975.986	2901.68
976.287	2902.58
976.587	2874.33
976.887	2876.14
977.187	2884.5
977.487	2856.93
977.787	2829.13
978.087	2838.85
978.387	2828.23
978.687	2779.19
978.987	2770.15
979.286	2766.09
979.586	2744.62
979.885	2777.16
980.185	2730.83
980.484	2745.3
980.784	2721.57
981.083	2705.07
981.382	2691.06
981.682	2671.85
981.981	2655.81
982.28	2666.2
982.579	2643.15
982.878	2649.93
983.177	2615.13
983.475	2606.99
983.774	2566.54
984.073	2588.91
984.372	2569.71
984.67	2563.38
984.969	2552.31
985.267	2554.11
985.566	2545.3
985.864	2526.54
986.162	2501.69
986.461	2506.21
986.759	2472.53
987.057	2476.83
987.355	2461.23
987.653	2456.26
987.951	2394.34
988.249	2421.01
988.547	2427.79
988.844	2403.84
989.142	2404.06
989.44	2359.09
989.737	2397.96
990.035	2376.72
990.332	2374.23
990.63	2372.65
990.927	2318.64
991.224	2317.51
991.521	2337.4
991.819	2343.5
992.116	2295.36
992.413	2264.63
992.71	2225.31
993.006	2235.03
993.303	2238.19
993.6	2282.71
993.897	2226.89
994.193	2235.7
994.49	2196.61
994.787	2189.6
995.083	2172.43
995.379	2152.09
995.676	2166.33
995.972	2102.83
996.268	2120
996.565	2100.34
996.861	2107.12
997.157	2121.81
997.453	2082.71
997.749	2068.25
998.044	2065.76
998.34	2069.83
998.636	2083.39
998.932	2008.82
999.227	2007.24
999.523	1984.64
999.818	2054.24
1000.114	1996.16
1000.409	2039.1
1000.704	1969.27
1001	1939.89
1001.295	2018.99
1001.59	1944.64
1001.885	1941.7
1002.18	1915.03
1002.475	1943.28
1002.77	1902.61
1003.065	1896.28
1003.359	1889.72
1003.654	1888.14
1003.949	1842.04
1004.243	1878.65
1004.538	1855.6
1004.832	1826.9
1005.127	1831.87
1005.421	1795.94
1005.715	1841.82
1006.009	1809.27
1006.304	1788.48
1006.598	1746.9
1006.892	1767.24
1007.186	1771.08
1007.48	1749.62
1007.773	1749.16
1008.067	1692.22
1008.361	1740.8
1008.655	1727.24
1008.948	1697.86
1009.242	1686.79
1009.535	1670.52
1009.829	1684.98
1010.122	1659.45
1010.415	1660.8
1010.708	1634.36
1011.001	1653.57
1011.295	1629.84
1011.588	1628.04
1011.881	1557.76
1012.173	1602.95
1012.466	1588.94
1012.759	1553.91
1013.052	1571.31
1013.344	1565.44
1013.637	1553.46
1013.93	1533.35
1014.222	1549.62
1014.514	1518.66
1014.807	1536.74
1015.099	1524.08
1015.391	1520.92
1015.683	1487.93
1015.976	1482.96
1016.268	1462.16
1016.56	1466.23
1016.851	1452.22
1017.143	1454.26
1017.435	1448.83
1017.727	1434.14
1018.018	1423.07
1018.31	1410.41
1018.602	1405.67
1018.893	1386.69
1019.185	1361.83
1019.476	1362.05
1019.767	1363.41
1020.058	1356.18
1020.35	1313.69
1020.641	1354.37
1020.932	1327.25
1021.223	1322.96
1021.514	1312.56
1021.804	1289.29
1022.095	1302.85
1022.386	1289.29
1022.677	1287.03
1022.967	1301.94
1023.258	1249.52
1023.548	1262.4
1023.839	1249.29
1024.129	1252.68
1024.419	1275.28
1024.709	1208.84
1025	1240.93
1025.29	1219.46
1025.58	1210.42
1025.87	1188.73
1026.16	1190.08
1026.449	1182.85
1026.739	1150.53
1027.029	1168.16
1027.319	1173.58
1027.608	1154.38
1027.898	1129.52
1028.187	1125.68
1028.477	1120.93
1028.766	1146.69
1029.055	1110.76
1029.344	1103.53
1029.634	1103.98
1029.923	1090.65
1030.212	1100.14
1030.501	1090.42
1030.79	1064.89
1031.078	1051.33
1031.367	1066.47
1031.656	1058.11
1031.945	1059.92
1032.233	1012.46
1032.522	1005.45
1032.81	1042.97
1033.099	1024.66
1033.387	1002.06
1033.675	1004.32
1033.963	994.38
1034.251	999.35
1034.54	981.95
1034.828	975.17
1035.116	978.79
1035.403	960.71
1035.691	965
1035.979	959.13
1036.267	941.95
1036.554	934.72
1036.842	949.41
1037.129	932.24
1037.417	929.07
1037.704	932.69
1037.992	935.4
1038.279	906.02
1038.566	872.8
1038.853	872.8
1039.14	872.8
