Data from hue_150_FLMS001491_00029.txt Node
Date: Tue Feb 07 16:53:50 GMT 2017
User: dcchb
Spectrometer: FLMS00149
Trigger mode: 0
Integration Time (sec): 2.000000E-2
Scans to average: 10
Electric dark correction enabled: true
Nonlinearity correction enabled: false
Boxcar width: 0
XAxis mode: Wavelengths
Number of Pixels in Spectrum: 2048
>>>>>Begin Spectral Data<<<<<
341.393	-22.5
341.776	-22.5
342.16	-22.5
342.543	-53.69
342.927	-73.12
343.31	-53.91
343.693	-71.09
344.077	-57.3
344.46	-57.3
344.843	-55.72
345.226	-48.04
345.61	-37.19
345.993	-37.19
346.376	-15.95
346.759	17.95
347.142	21.34
347.525	39.87
347.908	57.72
348.291	85.97
348.674	105.63
349.057	105.18
349.44	137.27
349.823	133.2
350.206	171.85
350.588	199.87
350.971	202.13
351.354	235.35
351.737	236.48
352.119	233.09
352.502	264.5
352.884	262.92
353.267	283.03
353.65	283.71
354.032	271.5
354.414	300.2
354.797	321.45
355.179	318.73
355.562	344.72
355.944	323.03
356.326	331.84
356.709	330.03
357.091	313.99
357.473	346.3
357.855	340.65
358.238	343.59
358.62	332.07
359.002	335.23
359.384	338.4
359.766	323.93
360.148	359.86
360.53	344.72
360.912	335.23
361.294	348.79
361.676	343.37
362.057	337.94
362.439	330.94
362.821	328.23
363.203	323.03
363.584	345.17
363.966	342.01
364.348	331.16
364.729	340.88
365.111	325.29
365.493	321.45
365.874	312.86
366.256	332.97
366.637	319.86
367.019	309.02
367.4	327.77
367.781	339.75
368.163	321.9
368.544	329.36
368.925	304.72
369.306	335.91
369.688	290.03
370.069	305.63
370.45	300.66
370.831	318.06
371.212	310.37
371.593	294.78
371.974	322.12
372.355	319.41
372.736	330.03
373.117	323.03
373.498	321.9
373.879	293.65
374.26	316.93
374.641	303.82
375.021	326.19
375.402	327.55
375.783	308.57
376.163	336.36
376.544	317.6
376.925	342.01
377.305	334.33
377.686	337.72
378.066	328.68
378.447	345.85
378.827	353.99
379.208	330.94
379.588	334.33
379.968	348.56
380.349	328.68
380.729	355.8
381.109	322.8
381.489	337.27
381.87	343.37
382.25	359.64
382.63	354.67
383.01	363.03
383.39	353.08
383.77	346.53
384.15	334.78
384.53	357.83
384.91	366.19
385.29	334.55
385.67	356.02
386.049	366.87
386.429	340.65
386.809	374.1
387.189	363.48
387.568	353.54
387.948	379.07
388.328	365.74
388.707	362.12
389.087	370.03
389.466	359.86
389.846	344.04
390.225	360.54
390.605	385.85
390.984	394.89
391.363	399.86
391.743	377.26
392.122	368.9
392.501	375
392.881	397.6
393.26	386.3
393.639	381.78
394.018	390.6
394.397	409.35
394.776	382.69
395.155	403.25
395.534	408
395.913	367.32
396.292	388.79
396.671	383.82
397.05	421.78
397.429	400.99
397.808	394.21
398.186	421.78
398.565	402.35
398.944	393.08
399.323	385.4
399.701	400.09
400.08	431.73
400.458	420.2
400.837	417.72
401.215	425.4
401.594	398.05
401.972	391.05
402.351	409.81
402.729	420.43
403.107	455.23
403.486	449.35
403.864	434.89
404.242	427.66
404.62	434.44
404.999	453.65
405.377	444.15
405.755	443.93
406.133	439.41
406.511	453.42
406.889	443.03
407.267	443.7
407.645	453.19
408.023	464.27
408.401	435.12
408.779	471.05
409.156	457.94
409.534	468.79
409.912	453.87
410.29	472.85
410.667	471.72
411.045	494.32
411.422	475.57
411.8	497.94
412.178	510.82
412.555	501.78
412.933	497.71
413.31	490.26
413.687	522.35
414.065	509.01
414.442	520.54
414.819	526.41
415.197	517.15
415.574	524.6
415.951	527.77
416.328	527.09
416.705	558.73
417.082	539.07
417.46	532.97
417.837	541.33
418.214	548.79
418.591	560.99
418.967	539.07
419.344	539.52
419.721	563.7
420.098	575.9
420.475	555.79
420.852	545.17
421.228	578.39
421.605	582
421.982	596.02
422.358	573.64
422.735	597.15
423.111	582.68
423.488	593.98
423.864	597.6
424.241	608.44
424.617	602.12
424.994	614.09
425.37	623.81
425.746	599.86
426.123	608.67
426.499	622.23
426.875	649.57
427.251	637.82
427.627	654.77
428.003	687.99
428.379	661.1
428.756	668.56
429.132	690.25
429.507	678.73
429.883	667.2
430.259	680.53
430.635	716.24
431.011	689.12
431.387	715.79
431.763	696.58
432.138	708.33
432.514	726.86
432.89	709.68
433.265	728.89
433.641	780.19
434.016	741.77
434.392	772.96
434.767	766.86
435.143	784.71
435.518	789
435.894	777.48
436.269	830.81
436.644	811.6
437.02	816.12
437.395	826.29
437.77	839.85
438.145	852.51
438.52	837.82
438.895	887.31
439.271	866.29
439.646	880.08
440.021	886.63
440.395	858.16
440.77	870.81
441.145	894.99
441.52	889.79
441.895	889.57
442.27	917.14
442.645	916.91
443.019	928.66
443.394	913.97
443.769	948.55
444.143	903.35
444.518	951.94
444.892	968.21
445.267	939.06
445.641	966.85
446.016	959.85
446.39	979.73
446.764	975.21
447.139	973.63
447.513	988.77
447.887	1000.98
448.262	1003.24
448.636	1006.17
449.01	1010.47
449.384	1057.47
449.758	1020.19
450.132	1039.85
450.506	1050.92
450.88	1059.05
451.254	1021.31
451.628	1067.64
452.002	1085.72
452.376	1078.49
452.75	1097.47
453.123	1102.67
453.497	1135.89
453.871	1118.71
454.244	1154.19
454.618	1140.41
454.992	1160.52
455.365	1192.61
455.739	1219.5
456.112	1234.87
456.486	1220.63
456.859	1244.13
457.232	1258.82
457.606	1245.72
457.979	1272.38
458.352	1287.3
458.725	1301.08
459.099	1287.75
459.472	1348.31
459.845	1359.16
460.218	1367.75
460.591	1389.67
460.964	1412.94
461.337	1412.27
461.71	1438.71
462.083	1457.69
462.456	1455.88
462.829	1467.18
463.201	1513.05
463.574	1513.73
463.947	1509.21
464.32	1588.53
464.692	1592.83
465.065	1614.29
465.438	1633.95
465.81	1640.51
466.183	1668.98
466.555	1690.45
466.928	1747.17
467.3	1727.96
467.672	1755.08
468.045	1775.19
468.417	1812.93
468.789	1840.73
469.161	1862.65
469.534	1901.29
469.906	1933.38
470.278	1998.69
470.65	2010.67
471.022	2050.21
471.394	2120.04
471.766	2081.4
472.138	2160.49
472.51	2217.44
472.882	2235.52
473.253	2295.41
473.625	2297.67
473.997	2355.07
474.369	2404.56
474.74	2459.7
475.112	2491.33
475.484	2590.99
475.855	2617.88
476.227	2683.87
476.598	2767.03
476.97	2807.93
477.341	2894.71
477.713	2943.52
478.084	2992.11
478.455	3102.39
478.827	3141.71
479.198	3274.82
479.569	3270.75
479.94	3443.85
480.311	3460.35
480.682	3553.23
481.053	3705.31
481.424	3791.41
481.795	3829.83
482.166	3983.5
482.537	4032.76
482.908	4158.41
483.279	4246.09
483.65	4399.31
484.021	4466.87
484.391	4561.33
484.762	4694.89
485.133	4779.86
485.503	4872.97
485.874	4987.31
486.244	5122.45
486.615	5298.72
486.985	5398.6
487.356	5551.82
487.726	5650.35
488.097	5820.74
488.467	5898.93
488.837	6098.92
489.207	6188.64
489.578	6315.64
489.948	6450.55
490.318	6589.98
490.688	6688.28
491.058	6808.06
491.428	6940.93
491.798	7082.85
492.168	7288.27
492.538	7378.21
492.908	7575.04
493.278	7713.57
493.648	7713.12
494.017	7884.64
494.387	8089.83
494.757	8175.25
495.126	8253.89
495.496	8409.82
495.866	8502.93
496.235	8726.2
496.605	8807.1
496.974	8872.86
497.344	8955.8
497.713	9157.82
498.082	9212.06
498.452	9310.59
498.821	9413.86
499.19	9479.62
499.559	9672.39
499.928	9767.07
500.298	9833.29
500.667	9977.46
501.036	9998.03
501.405	10189.66
501.774	10208.64
502.143	10340.17
502.512	10321.41
502.88	10527.05
503.249	10520.5
503.618	10630.78
503.987	10718.01
504.356	10890.66
504.724	10846.82
505.093	10997.1
505.462	10995.97
505.83	11120.71
506.199	11235.28
506.567	11300.14
506.936	11337.43
507.304	11536.52
507.672	11600.02
508.041	11562.51
508.409	11727.02
508.777	11833.01
509.145	11794.14
509.514	11870.3
509.882	11926.79
510.25	11892.67
510.618	12119.33
510.986	12082.72
511.354	12240.68
511.722	12346.67
512.09	12338.08
512.458	12342.83
512.826	12520
513.193	12505.76
513.561	12484.74
513.929	12566.1
514.297	12625.76
514.664	12728.35
515.032	12702.82
515.4	12792.3
515.767	12805.41
516.135	12840.89
516.502	12786.43
516.869	12975.8
517.237	12983.94
517.604	13009.47
517.972	13099.64
518.339	13122.01
518.706	13112.07
519.073	13141.9
519.44	13268.9
519.808	13311.84
520.175	13231.84
520.542	13383.7
520.909	13417.37
521.276	13376.47
521.643	13423.47
522.009	13577.59
522.376	13441.33
522.743	13567.65
523.11	13638.38
523.477	13711.15
523.843	13729.23
524.21	13839.96
524.577	13881.77
524.943	13892.16
525.31	13935.33
525.676	14044.25
526.043	14025.49
526.409	14087.19
526.776	14095.55
527.142	14126.51
527.508	14243.34
527.874	14224.81
528.241	14190.91
528.607	14124.47
528.973	14178.94
529.339	14192.72
529.705	14230.23
530.071	14308.2
530.437	14344.81
530.803	14314.3
531.169	14326.28
531.535	14274.53
531.901	14218.71
532.267	14375.31
532.632	14385.94
532.998	14296.9
533.364	14346.84
533.73	14344.81
534.095	14317.01
534.461	14311.59
534.826	14435.2
535.192	14346.61
535.557	14402.21
535.923	14293.96
536.288	14192.04
536.653	14282.66
537.019	14232.72
537.384	14295.77
537.749	14254.19
538.114	14229.78
538.479	14205.15
538.845	14167.41
539.21	14085.6
539.575	14169.44
539.94	14038.37
540.305	14057.36
540.67	14032.5
541.034	13985.27
541.399	14011.03
541.764	14039.5
542.129	14021.2
542.494	13969
542.858	13949.11
543.223	13938.94
543.587	13948.43
543.952	13795.67
544.316	13855.55
544.681	13812.39
545.045	13782.11
545.41	13818.72
545.774	13773.75
546.138	13767.19
546.503	13665.95
546.867	13656.24
547.231	13729
547.595	13634.09
547.959	13586.86
548.324	13507.77
548.688	13481.33
549.052	13556.13
549.416	13486.98
549.779	13493.3
550.143	13530.82
550.507	13529.69
550.871	13452.4
551.235	13402.68
551.599	13434.55
551.962	13330.6
552.326	13332.86
552.689	13416.24
553.053	13346.19
553.417	13200.88
553.78	13405.62
554.143	13250.37
554.507	13177.15
554.87	13279.75
555.234	13327.88
555.597	13193.2
555.96	13153.88
556.323	13304.38
556.686	13223.25
557.05	13174.44
557.413	13238.17
557.776	13164.72
558.139	13268.9
558.502	13196.36
558.865	13174.67
559.228	13245.17
559.59	13226.64
559.953	13244.72
560.316	13373.08
560.679	13238.39
561.041	13294.44
561.404	13349.35
561.767	13317.49
562.129	13204.27
562.492	13359.07
562.854	13251.5
563.217	13294.44
563.579	13266.42
563.941	13411.95
564.304	13365.62
564.666	13449.91
565.028	13383.93
565.39	13494.66
565.753	13411.95
566.115	13465.51
566.477	13421.89
566.839	13498.05
567.201	13533.98
567.563	13531.04
567.925	13631.38
568.287	13517.48
568.648	13589.35
569.01	13606.97
569.372	13655.56
569.734	13636.35
570.095	13610.81
570.457	13750.92
570.819	13701.43
571.18	13760.87
571.542	13772.39
571.903	13780.08
572.265	13756.8
572.626	13763.8
572.987	13749.34
573.349	13783.92
573.71	13791.37
574.071	13837.25
574.432	13870.92
574.794	13895.1
575.155	13889.68
575.516	13828.21
575.877	13866.85
576.238	13917.25
576.599	13889.45
576.96	13841.09
577.32	13876.57
577.681	13969.45
578.042	13999.05
578.403	13903.01
578.763	13969.9
579.124	13934.2
579.485	14044.7
579.845	14017.81
580.206	13966.29
580.566	13938.26
580.927	14052.61
581.287	13959.05
581.648	13909.79
582.008	14022.1
582.368	13992.27
582.728	13960.64
583.089	14084.7
583.449	14018.94
583.809	13999.05
584.169	14046.28
584.529	14003.12
584.889	14079.73
585.249	13914.31
585.609	13878.15
585.969	14013.97
586.329	13929
586.688	13948.66
587.048	13883.8
587.408	13859.85
587.768	13864.14
588.127	13719.96
588.487	13821.88
588.846	13869.56
589.206	13795.44
589.565	13841.99
589.925	13880.19
590.284	13852.16
590.643	13826.85
591.003	13866.17
591.362	13869.56
591.721	13829.79
592.08	13834.76
592.44	13860.53
592.799	13810.58
593.158	13779.62
593.517	13846.74
593.876	13803.35
594.235	13802.9
594.593	13776.46
594.952	13855.1
595.311	13735.78
595.67	13827.98
596.029	13878.38
596.387	13825.72
596.746	13836.57
597.104	13812.62
597.463	13735.1
597.822	13740.98
598.18	13692.17
598.538	13734.2
598.897	13689.68
599.255	13674.54
599.613	13823.69
599.972	13735.56
600.33	13782.34
600.688	13705.73
601.046	13793.63
601.404	13772.17
601.762	13792.28
602.12	13764.48
602.478	13846.29
602.836	13783.47
603.194	13773.97
603.552	13760.19
603.91	13754.99
604.268	13794.99
604.625	13731.72
604.983	13803.35
605.341	13657.82
605.698	13858.49
606.056	13816.01
606.413	13778.72
606.771	13848.1
607.128	13849.23
607.485	13766.97
607.843	13814.65
608.2	13816.91
608.557	13924.7
608.914	13908.66
609.272	13919.96
609.629	13948.43
609.986	13909.11
610.343	13870.92
610.7	14027.53
611.057	13860.53
611.414	13924.48
611.771	13950.47
612.127	13985.95
612.484	13944.14
612.841	14060.29
613.198	13911.37
613.554	14004.93
613.911	14056.23
614.267	14066.85
614.624	14063.46
614.98	14023.01
615.337	14149.33
615.693	14109.11
616.05	14083.57
616.406	14085.15
616.762	14172.83
617.118	14098.71
617.475	14091.25
617.831	14189.1
618.187	14132.38
618.543	14132.16
618.899	14225.04
619.255	14176.22
619.611	14158.6
619.967	14245.37
620.323	14287.86
620.678	14246.96
621.034	14109.56
621.39	14216.45
621.746	14130.8
622.101	14297.12
622.457	14141.87
622.812	14251.7
623.168	14236.33
623.523	14167.41
623.879	14241.98
624.234	14213.51
624.589	14189.1
624.945	14263.9
625.3	14225.04
625.655	14208.09
626.01	14239.5
626.365	14227.75
626.72	14201.99
627.075	14145.72
627.43	14225.49
627.785	14120.86
628.14	14130.35
628.495	14093.06
628.85	14154.53
629.205	14054.87
629.559	14180.07
629.914	14112.27
630.269	14110.01
630.623	14110.24
630.978	14136.45
631.332	14072.72
631.687	14160.4
632.041	14056
632.396	14107.75
632.75	14010.8
633.104	14012.61
633.459	13954.08
633.813	13961.77
634.167	14030.46
634.521	13919.51
634.875	14018.49
635.229	13894.42
635.583	13848.55
635.937	13866.85
636.291	13877.25
636.645	13813.29
636.999	13774.65
637.352	13856.23
637.706	13755.44
638.06	13792.73
638.413	13799.28
638.767	13769.45
639.121	13746.86
639.474	13698.27
639.828	13761.09
640.181	13747.76
640.534	13715.44
640.888	13602.45
641.241	13573.98
641.594	13580.53
641.947	13652.4
642.301	13638.84
642.654	13715.22
643.007	13653.53
643.36	13689.23
643.713	13571.04
644.066	13666.18
644.419	13475.45
644.771	13402.68
645.124	13293.99
645.477	13260.32
645.83	13249.47
646.182	13265.74
646.535	13190.71
646.888	13123.6
647.24	13034.56
647.593	13148.91
647.945	13095.8
648.298	13002.69
648.65	13014.45
649.002	13067.55
649.355	13143.48
649.707	13064.84
650.059	13181.45
650.411	13328.56
650.763	13297.6
651.115	13374.89
651.467	13446.98
651.819	13380.99
652.171	13399.52
652.523	13354.1
652.875	13383.48
653.227	13373.31
653.578	13496.69
653.93	13378.5
654.282	13327.21
654.633	13301.67
654.985	13341.44
655.337	13346.87
655.688	13275.46
656.039	13373.98
656.391	13231.62
656.742	13313.87
657.094	13312.52
657.445	13440.42
657.796	13289.24
658.147	13243.82
658.498	13289.24
658.849	13353.87
659.2	13314.55
659.551	13328.34
659.902	13396.58
660.253	13363.59
660.604	13394.32
660.955	13291.95
661.306	13418.73
661.656	13448.78
662.007	13401.78
662.358	13364.49
662.708	13362.91
663.059	13341.44
663.409	13268.9
663.76	13424.83
664.11	13430.25
664.461	13311.39
664.811	13352.52
665.161	13432.97
665.511	13334.21
665.862	13383.7
666.212	13386.64
666.562	13399.07
666.912	13306.64
667.262	13302.57
667.612	13434.55
667.962	13388.45
668.312	13366.98
668.662	13423.7
669.011	13325.4
669.361	13333.76
669.711	13286.08
670.06	13352.97
670.41	13356.13
670.76	13416.02
671.109	13341.44
671.459	13320.88
671.808	13340.54
672.157	13320.43
672.507	13291.95
672.856	13215.12
673.205	13256.93
673.554	13266.19
673.904	13258.73
674.253	13300.77
674.602	13286.76
674.951	13084.05
675.3	13048.12
675.649	13162.69
675.998	13230.26
676.346	13128.79
676.695	13166.08
677.044	13090.6
677.393	13082.92
677.741	13164.5
678.09	13115.01
678.438	13008.34
678.787	13054.9
679.135	13137.38
679.484	12980.1
679.832	13006.08
680.181	12953.43
680.529	13006.08
680.877	12947.78
681.225	12910.95
681.573	12949.14
681.922	12940.78
682.27	12865.07
682.618	12975.8
682.966	12800.67
683.314	12846.99
683.661	12858.29
684.009	12617.85
684.357	12738.52
684.705	12661.91
685.053	12680.67
685.4	12664.85
685.748	12628.92
686.095	12607.23
686.443	12559.54
686.79	12517.06
687.138	12605.19
687.485	12492.88
687.832	12507.79
688.18	12527
688.527	12393.45
688.874	12452.65
689.221	12370.4
689.568	12388.7
689.915	12390.96
690.262	12303.96
690.609	12246.56
690.956	12287.69
691.303	12238.42
691.65	12172.21
691.997	12138.99
692.344	12036.17
692.69	11969.95
693.037	11862.39
693.383	11909.84
693.73	11919.56
694.077	11792.78
694.423	11839.56
694.769	11797.08
695.116	11706.68
695.462	11736.06
695.808	11686.12
696.155	11678.44
696.501	11637.76
696.847	11547.14
697.193	11530.42
697.539	11474.83
697.885	11417.2
698.231	11369.97
698.577	11336.52
698.923	11381.95
699.269	11357.77
699.614	11182.18
699.96	11145.79
700.306	11096.53
700.651	11121.61
700.997	11092.01
701.342	11074.84
701.688	11019.02
702.033	10985.35
702.379	10927.27
702.724	10979.02
703.069	10961.17
703.415	10789.19
703.76	10807.27
704.105	10782.41
704.45	10859.25
704.795	10709.65
705.14	10687.05
705.485	10733.6
705.83	10571.57
706.175	10597.33
706.52	10573.38
706.865	10546.71
707.209	10541.97
707.554	10501.74
707.899	10478.02
708.243	10409.32
708.588	10346.95
708.932	10379.49
709.277	10338.36
709.621	10344.69
709.966	10265.82
710.31	10274.86
710.654	10217.46
710.998	10201.64
711.342	10129.1
711.687	10164.13
712.031	10153.96
712.375	10127.74
712.719	10101.98
713.063	10050.91
713.407	10198.47
713.75	9953.06
714.094	10024.47
714.438	9958.26
714.782	9960.74
715.125	9980.18
715.469	10000.74
715.812	9847.3
716.156	9812.5
716.499	9849.78
716.843	9833.96
717.186	9794.64
717.53	9815.21
717.873	9812.5
718.216	9808.43
718.559	9759.39
718.902	9709.45
719.246	9728.2
719.589	9672.39
719.932	9699.73
720.275	9700.86
720.617	9640.52
720.96	9611.37
721.303	9659.28
721.646	9610.02
721.989	9633.07
722.331	9660.86
722.674	9654.08
723.016	9545.61
723.359	9586.74
723.701	9602.56
724.044	9540.19
724.386	9553.97
724.729	9500.19
725.071	9555.78
725.413	9508.32
725.755	9495.67
726.097	9440.08
726.439	9396.01
726.782	9466.74
727.124	9535.44
727.465	9442.34
727.807	9413.86
728.149	9422
728.491	9405.73
728.833	9453.41
729.175	9384.03
729.516	9332.73
729.858	9422.45
730.199	9490.7
730.541	9379.51
730.882	9432.62
731.224	9379.29
731.565	9328.22
731.906	9319.4
732.248	9379.97
732.589	9250.25
732.93	9281.66
733.271	9378.84
733.612	9381.1
733.953	9356.91
734.294	9288.44
734.635	9287.99
734.976	9386.29
735.317	9267.65
735.658	9306.52
735.999	9267.65
736.339	9282.79
736.68	9331.83
737.021	9248.9
737.361	9244.38
737.702	9346.75
738.042	9404.82
738.383	9313.98
738.723	9284.6
739.063	9338.38
739.404	9331.6
739.744	9307.65
740.084	9262
740.424	9337.93
740.764	9413.41
741.104	9326.63
741.444	9307.2
741.784	9328.67
742.124	9377.93
742.464	9420.42
742.804	9424.94
743.143	9412.73
743.483	9475.33
743.823	9483.01
744.162	9442.56
744.502	9557.59
744.841	9503.13
745.181	9606.17
745.52	9509.45
745.86	9671.26
746.199	9625.38
746.538	9664.93
746.877	9742.67
747.216	9777.02
747.556	9767.53
747.895	9832.61
748.234	9840.29
748.573	9935.2
748.911	9960.51
749.25	10038.03
749.589	10040.29
749.928	10128.42
750.267	10234.86
750.605	10166.61
750.944	10290.68
751.283	10336.78
751.621	10447.73
751.96	10515.08
752.298	10556.43
752.636	10671.46
752.975	10699.25
753.313	10861.28
753.651	10922.98
753.989	10991.9
754.327	11115.74
754.666	11168.39
755.004	11297.88
755.342	11346.24
755.679	11486.8
756.017	11696.06
756.355	11756.17
756.693	11849.05
757.031	12027.58
757.368	12131.08
757.706	12230.51
758.044	12409.49
758.381	12548.92
758.719	12711.86
759.056	12817.39
759.394	12978.06
759.731	13097.61
760.068	13280.65
760.405	13344.15
760.743	13399.29
761.08	13638.38
761.417	13736.01
761.754	13959.51
762.091	14119.95
762.428	14231.59
762.765	14300.29
763.102	14646.27
763.438	14696.21
763.775	14911.8
764.112	14993.83
764.449	15195.86
764.785	15254.61
765.122	15335.29
765.458	15529.63
765.795	15650.08
766.131	15855.95
766.467	15886.91
766.804	16032.45
767.14	16159
767.476	16295.72
767.812	16406.45
768.148	16637.18
768.485	16574.35
768.821	16753.1
769.157	16936.38
769.492	17064.28
769.828	17106.77
770.164	17155.81
770.5	17279.42
770.836	17408
771.171	17452.75
771.507	17572.97
771.842	17574.1
772.178	17687.09
772.513	17763.47
772.849	17868.78
773.184	17864.04
773.519	18068.32
773.855	18054.54
774.19	18104.03
774.525	18197.81
774.86	18289.56
775.195	18337.02
775.53	18314.65
775.865	18282.33
776.2	18349.9
776.535	18306.06
776.87	18447.52
777.205	18439.16
777.539	18472.16
777.874	18661.3
778.209	18534.53
778.543	18574.53
778.878	18561.19
779.212	18557.13
779.547	18670.12
779.881	18755.99
780.215	18690.68
780.55	18835.99
780.884	18688.65
781.218	18747.63
781.552	18768.42
781.886	18662.43
782.22	18615.65
782.554	18706.73
782.888	18610.46
783.222	18593.51
783.556	18594.64
783.889	18531.14
784.223	18484.36
784.557	18449.56
784.89	18600.51
785.224	18478.71
785.557	18523
785.891	18435.55
786.224	18387.64
786.558	18428.09
786.891	18360.97
787.224	18384.7
787.557	18339.28
787.891	18296.11
788.224	18389.22
788.557	18410.01
788.89	18366.4
789.223	18257.7
789.556	18232.39
789.888	18213.18
790.221	18257.25
790.554	18108.1
790.887	18127.53
791.219	18088.89
791.552	18076.23
791.884	18071.04
792.217	18022
792.549	17940.19
792.882	17865.62
793.214	17856.8
793.546	17874.21
793.879	17770.03
794.211	17713.53
794.543	17857.03
794.875	17674.44
795.207	17710.14
795.539	17637.6
795.871	17666.3
796.203	17476.02
796.535	17414.33
796.867	17339.3
797.198	17370.04
797.53	17461.33
797.862	17312.64
798.193	17332.75
798.525	17313.32
798.856	17354.9
799.188	17130.5
799.519	17081.68
799.85	16942.03
800.182	17000.1
800.513	17031.29
800.844	16937.05
801.175	16920.56
801.506	16921.69
801.837	16827.68
802.168	16836.94
802.499	16757.85
802.83	16695.03
803.161	16656.38
803.491	16609.83
803.822	16661.81
804.153	16574.8
804.483	16543.62
804.814	16359.44
805.145	16438.54
805.475	16430.18
805.805	16311.31
806.136	16347.47
806.466	16328.03
806.796	16265.66
807.126	16163.52
807.457	16184.31
807.787	16168.94
808.117	16091.88
808.447	16048.94
808.777	16143.18
809.107	16029.96
809.436	15952.22
809.766	15949.74
810.096	15948.83
810.426	15927.59
810.755	15882.39
811.085	15792.45
811.414	15775.28
811.744	15668.16
812.073	15665.68
812.403	15789.29
812.732	15610.99
813.061	15660.03
813.39	15598.11
813.719	15502.52
814.049	15545.9
814.378	15590.2
814.707	15494.38
815.036	15448.73
815.365	15337.32
815.693	15250.09
816.022	15304.1
816.351	15241.28
816.68	15150.89
817.008	15261.62
817.337	15091.45
817.665	15113.6
817.994	15114.28
818.322	15011.23
818.651	15018.91
818.979	14997.67
819.307	15037.67
819.636	14955.19
819.964	14957.22
820.292	14899.82
820.62	14957.45
820.948	14886.49
821.276	15001.96
821.604	14934.17
821.932	14956.54
822.259	14945.69
822.587	14967.61
822.915	14861.4
823.243	14891.91
823.57	14939.14
823.898	14858.69
824.225	14819.6
824.553	14790.44
824.88	14920.16
825.207	14995.86
825.535	14892.59
825.862	14940.95
826.189	14780.28
826.516	14921.06
826.843	14898.24
827.17	14945.92
827.497	14911.35
827.824	14880.16
828.151	14949.99
828.478	14985.47
828.805	14968.07
829.131	14858.92
829.458	14834.29
829.785	14791.57
830.111	14821.63
830.438	14924.9
830.764	14940.27
831.09	14869.31
831.417	14790.22
831.743	14877.45
832.069	14895.07
832.395	14789.77
832.722	14876.54
833.048	14818.24
833.374	14814.62
833.7	14772.14
834.026	14825.7
834.351	14738.47
834.677	14823.44
835.003	14754.97
835.329	14803.33
835.654	14748.19
835.98	14715.42
836.306	14742.08
836.631	14643.1
836.956	14765.13
837.282	14673.39
837.607	14724.46
837.932	14596.33
838.258	14507.97
838.583	14643.33
838.908	14598.59
839.233	14593.61
839.558	14472.03
839.883	14468.87
840.208	14359.5
840.533	14436.33
840.858	14473.39
841.182	14465.48
841.507	14433.39
841.832	14326.28
842.156	14365.14
842.481	14207.86
842.805	14233.17
843.13	14272.04
843.454	14225.49
843.778	14149.56
844.103	14192.72
844.427	14063.46
844.751	14064.81
845.075	13998.6
845.399	14028.2
845.723	13912.28
846.047	13874.54
846.371	13808.78
846.695	13769.68
847.019	13720.87
847.343	13628.67
847.666	13478.16
847.99	13567.65
848.313	13502.34
848.637	13390.71
848.96	13392.52
849.284	13332.63
849.607	13309.13
849.931	13246.3
850.254	13089.47
850.577	13063.71
850.9	12980.55
851.223	12950.49
851.546	12949.59
851.869	12866.88
852.192	12923.83
852.515	12750.5
852.838	12675.25
853.161	12683.38
853.483	12668.47
853.806	12579.88
854.129	12603.16
854.451	12545.53
854.774	12478.41
855.096	12470.73
855.419	12341.24
855.741	12381.92
856.063	12329.94
856.385	12268.02
856.708	12249.95
857.03	12227.8
857.352	12180.57
857.674	12208.14
857.996	12097.86
858.318	12070.52
858.64	12025.32
858.961	12021.25
859.283	11946.9
859.605	11845.89
859.926	11970.41
860.248	11858.32
860.57	11816.96
860.891	11954.59
861.212	11766.34
861.534	11752.56
861.855	11760.47
862.176	11708.72
862.498	11707.36
862.819	11660.58
863.14	11656.52
863.461	11626.01
863.782	11583.52
864.103	11607.48
864.424	11564.31
864.745	11548.5
865.065	11543.52
865.386	11431.89
865.707	11477.99
866.027	11442.28
866.348	11406.58
866.668	11463.3
866.989	11437.76
867.309	11309.63
867.63	11318.22
867.95	11312.34
868.27	11289.07
868.59	11288.16
868.91	11274.15
869.23	11312.12
869.55	11214.27
869.87	11223.31
870.19	11206.81
870.51	11154.16
870.83	11273.7
871.15	11113.7
871.469	11126.81
871.789	11173.82
872.109	11144.89
872.428	11057.44
872.748	11092.24
873.067	11037.55
873.386	10983.31
873.706	11015.18
874.025	10950.32
874.344	10990.32
874.663	10934.5
874.982	10938.34
875.301	10912.13
875.62	10916.65
875.939	10957.32
876.258	10871.23
876.577	10838.46
876.896	10872.36
877.214	10844.11
877.533	10861.28
877.852	10782.41
878.17	10800.72
878.489	10820.83
878.807	10746.93
879.125	10782.64
879.444	10662.19
879.762	10768.4
880.08	10668.52
880.398	10614.06
880.716	10671.68
881.034	10660.61
881.352	10607.96
881.67	10563.21
881.988	10565.02
882.306	10518.24
882.624	10524.79
882.941	10450.9
883.259	10363.44
883.577	10415.19
883.894	10390.33
884.212	10388.07
884.529	10337.23
884.846	10294.07
885.164	10288.19
885.481	10271.24
885.798	10248.64
886.115	10212.26
886.432	10168.42
886.75	10166.84
887.067	10167.74
887.383	10120.74
887.7	10152.6
888.017	10066.95
888.334	10067.86
888.651	10085.71
888.967	9937.69
889.284	10004.13
889.6	9985.37
889.917	9888.88
890.233	9855.43
890.55	9831.48
890.866	9865.15
891.182	9788.99
891.498	9766.4
891.815	9698.83
892.131	9673.06
892.447	9626.06
892.763	9601.88
893.079	9620.64
893.395	9536.35
893.71	9568.66
894.026	9543.12
894.342	9513.75
894.657	9386.74
894.973	9420.42
895.289	9405.5
895.604	9382.9
895.92	9322.34
896.235	9295.22
896.55	9349.01
896.865	9247.31
897.181	9196.24
897.496	9203.7
897.811	9156.24
898.126	9152.85
898.441	9083.25
898.756	9054.78
899.071	8994.89
899.386	9030.14
899.7	8945.63
900.015	8907.89
900.33	8856.59
900.644	8860.2
900.959	8867.44
901.273	8821.11
901.588	8782.92
901.902	8711.06
902.216	8668.12
902.531	8739.98
902.845	8659.31
903.159	8595.58
903.473	8616.37
903.787	8566.2
904.101	8472.64
904.415	8471.51
904.729	8438.52
905.042	8427
905.356	8351.29
905.67	8335.47
905.984	8368.92
906.297	8337.73
906.611	8286.66
906.924	8261.8
907.237	8229.04
907.551	8198.3
907.864	8192.2
908.177	8138.87
908.491	8097.51
908.804	8051.86
909.117	7944.07
909.43	7940.23
909.743	7933.68
910.056	7897.52
910.368	7836.05
910.681	7794.7
910.994	7789.27
911.307	7778.2
911.619	7691.87
911.932	7766.67
912.244	7650.52
912.557	7630.18
912.869	7673.8
913.181	7571.88
913.494	7548.37
913.806	7509.96
914.118	7427.47
914.43	7462.73
914.742	7454.82
915.054	7439.23
915.366	7387.48
915.678	7293.24
915.99	7296.18
916.302	7272.68
916.613	7236.74
916.925	7155.16
917.236	7192.9
917.548	7143.64
917.859	7140.02
918.171	7149.29
918.482	7071.33
918.794	7048.95
919.105	7015.73
919.416	7047.37
919.727	6985.9
920.038	6935.06
920.349	6928.73
920.66	6863.42
920.971	6876.98
921.282	6839.02
921.593	6810.32
921.903	6692.35
922.214	6756.31
922.525	6718.79
922.835	6649.64
923.146	6698.68
923.456	6590.21
923.767	6591.56
924.077	6549.76
924.387	6533.71
924.697	6515.86
925.008	6463.43
925.318	6451
925.628	6440.38
925.938	6415.07
926.248	6367.84
926.558	6375.3
926.867	6313.38
927.177	6329.65
927.487	6253.04
927.796	6235.64
928.106	6153.38
928.416	6177.79
928.725	6229.77
929.034	6139.6
929.344	6125.81
929.653	6069.77
929.962	6090.11
930.271	6043.56
930.581	6011.92
930.89	5985.7
931.199	5983.22
931.508	5916.55
931.817	5933.5
932.125	5914.97
932.434	5919.04
932.743	5831.81
933.051	5811.02
933.36	5819.15
933.669	5748.2
933.977	5755.2
934.286	5731.25
934.594	5690.34
934.902	5615.32
935.21	5661.64
935.519	5677.69
935.827	5633.62
936.135	5608.09
936.443	5537.13
936.751	5545.49
937.059	5544.36
937.367	5491.03
937.674	5488.32
937.982	5454.64
938.29	5471.14
938.597	5393.18
938.905	5375.78
939.213	5314.54
939.52	5310.69
939.827	5316.57
940.135	5265.95
940.442	5215.33
940.749	5226.85
941.056	5239.96
941.363	5167.42
941.67	5207.87
941.977	5069.8
942.284	5102.34
942.591	5079.97
942.898	5103.02
943.205	5108.21
943.511	5021.89
943.818	5044.49
944.125	4981.66
944.431	4968.78
944.738	4957.03
945.044	4978.05
945.35	4910.03
945.657	4908.67
945.963	4889.24
946.269	4811.05
946.575	4849.24
946.881	4810.59
947.187	4764.72
947.493	4817.83
947.799	4775.79
948.105	4739.86
948.41	4717.26
948.716	4652.41
949.022	4656.7
949.327	4677.04
949.633	4637.04
949.938	4581.22
950.244	4611.28
950.549	4553.88
950.854	4577.61
951.16	4498.74
951.465	4486.53
951.77	4468.23
952.075	4484.95
952.38	4480.89
952.685	4482.01
952.99	4361.57
953.294	4420.1
953.599	4378.74
953.904	4364.96
954.209	4312.98
954.513	4369.7
954.818	4258.07
955.122	4274.56
955.426	4237.28
955.731	4256.26
956.035	4185.3
956.339	4164.96
956.643	4231.4
956.948	4176.94
957.252	4121.12
957.556	4146.43
957.86	4101.69
958.163	4107.56
958.467	4029.82
958.771	4105.08
959.075	4051.29
959.378	4042.25
959.682	4009.03
959.985	4026.43
960.289	3977.17
960.592	3945.98
960.896	3924.06
961.199	3934.46
961.502	3955.93
961.805	3879.32
962.108	3882.03
962.411	3839.55
962.714	3865.53
963.017	3811.07
963.32	3826.89
963.623	3821.24
963.926	3759.1
964.228	3762.71
964.531	3774.69
964.833	3694.92
965.136	3707.57
965.438	3686.1
965.741	3652.21
966.043	3656.73
966.345	3673
966.648	3632.55
966.95	3650.17
967.252	3589.38
967.554	3636.84
967.856	3550.06
968.158	3504.64
968.46	3541.25
968.761	3504.19
969.063	3492.66
969.365	3518.42
969.666	3497.41
969.968	3469.84
970.269	3442.72
970.571	3440.91
970.872	3415.6
971.174	3377.64
971.475	3416.51
971.776	3376.28
972.077	3395.72
972.378	3385.55
972.679	3350.29
972.98	3337.41
973.281	3296.96
973.582	3291.09
973.883	3293.57
974.183	3261.26
974.484	3256.74
974.785	3225.1
975.085	3225.1
975.386	3240.01
975.686	3211.09
975.986	3235.04
976.287	3187.81
976.587	3156.85
976.887	3110.75
977.187	3095.16
977.487	3106.46
977.787	3073.92
978.087	3090.64
978.387	3077.08
978.687	3072.56
978.987	3033.01
979.286	3042.05
979.586	3016.52
979.885	2949.63
980.185	3000.7
980.484	2975.84
980.784	2979
981.083	2947.82
981.382	2918.67
981.682	2947.82
981.981	2880.02
982.28	2929.74
982.579	2889.06
982.878	2855.84
983.177	2872.34
983.475	2859.23
983.774	2815.84
984.073	2807.93
984.372	2804.32
984.67	2801.38
984.969	2767.94
985.267	2762.51
985.566	2757.77
985.864	2765
986.162	2717.32
986.461	2698.56
986.759	2694.49
987.057	2681.61
987.355	2696.53
987.653	2678.9
987.951	2667.83
988.249	2614.27
988.547	2638.22
988.844	2614.49
989.142	2548.73
989.44	2585.12
989.737	2600.26
990.035	2550.54
990.332	2560.26
990.63	2538.11
990.927	2544.44
991.224	2509.86
991.521	2477.55
991.819	2524.55
992.116	2531.78
992.413	2465.34
992.71	2450.2
993.006	2447.49
993.303	2435.29
993.6	2429.87
993.897	2419.24
994.193	2435.52
994.49	2399.81
994.787	2395.06
995.083	2364.78
995.379	2395.52
995.676	2368.85
995.972	2360.94
996.268	2341.05
996.565	2314.16
996.861	2296.99
997.157	2291.79
997.453	2284.11
997.749	2283.65
998.044	2230.55
998.34	2272.58
998.636	2239.81
998.932	2217.44
999.227	2251.11
999.523	2219.93
999.818	2218.12
1000.114	2196.2
1000.409	2153.49
1000.704	2113.72
1001	2167.05
1001.295	2110.1
1001.59	2169.31
1001.885	2127.27
1002.18	2093.6
1002.475	2074.39
1002.77	2081.63
1003.065	2075.52
1003.359	2028.75
1003.654	2061.06
1003.949	2050.44
1004.243	2039.59
1004.538	2017.9
1004.832	2010.22
1005.127	1992.81
1005.421	1974.28
1005.715	1937.9
1006.009	1943.55
1006.304	1917.11
1006.598	1915.75
1006.892	1937.68
1007.186	1913.27
1007.48	1876.89
1007.773	1911.01
1008.067	1895.19
1008.361	1901.97
1008.655	1842.99
1008.948	1844.12
1009.242	1845.47
1009.535	1852.25
1009.829	1808.41
1010.122	1769.32
1010.415	1797.79
1010.708	1786.27
1011.001	1772.93
1011.295	1761.86
1011.588	1759.83
1011.881	1740.39
1012.173	1722.09
1012.466	1754.18
1012.759	1720.51
1013.052	1708.53
1013.344	1712.6
1013.637	1701.52
1013.93	1649.77
1014.222	1681.41
1014.514	1648.87
1014.807	1615.2
1015.099	1622.88
1015.391	1628.08
1015.683	1619.49
1015.976	1602.09
1016.268	1590.57
1016.56	1556.44
1016.851	1584.01
1017.143	1581.98
1017.435	1552.15
1017.727	1567.74
1018.018	1551.47
1018.31	1530.91
1018.602	1513.28
1018.893	1504.92
1019.185	1497.46
1019.476	1488.42
1019.767	1466.28
1020.058	1462.66
1020.35	1451.81
1020.641	1461.3
1020.932	1449.33
1021.223	1447.97
1021.514	1443.9
1021.804	1412.94
1022.095	1399.61
1022.386	1380.4
1022.677	1359.61
1022.967	1370.23
1023.258	1371.81
1023.548	1367.29
1023.839	1385.15
1024.129	1327.97
1024.419	1345.37
1024.709	1339.27
1025	1328.2
1025.29	1321.19
1025.58	1296.34
1025.87	1298.14
1026.16	1268.09
1026.449	1266.96
1026.739	1257.01
1027.029	1254.76
1027.319	1233.74
1027.608	1258.6
1027.898	1270.35
1028.187	1217.02
1028.477	1219.05
1028.766	1226.06
1029.055	1186.06
1029.344	1221.76
1029.634	1181.08
1029.923	1205.94
1030.212	1190.12
1030.501	1187.41
1030.79	1132.05
1031.078	1164.14
1031.367	1132.95
1031.656	1145.15
1031.945	1122.33
1032.233	1108.09
1032.522	1080.97
1032.81	1104.7
1033.099	1093.86
1033.387	1072.84
1033.675	1084.59
1033.963	1078.71
1034.251	1085.04
1034.54	1077.58
1034.828	1075.55
1035.116	1050.47
1035.403	1046.17
1035.691	1032.84
1035.979	1034.87
1036.267	1007.53
1036.554	995.33
1036.842	980.41
1037.129	1018.15
1037.417	975.67
1037.704	975.21
1037.992	973.63
1038.279	982.9
1038.566	981.77
1038.853	981.77
1039.14	981.77
