Data from hue_320_FLMS001491_29.txt Node
Date: Mon Feb 06 15:46:59 GMT 2017
User: dcchb
Spectrometer: FLMS00149
Trigger mode: 0
Integration Time (sec): 2.000000E-2
Scans to average: 10
Electric dark correction enabled: true
Nonlinearity correction enabled: false
Boxcar width: 0
XAxis mode: Wavelengths
Number of Pixels in Spectrum: 2048
>>>>>Begin Spectral Data<<<<<
341.393	-26.96
341.776	-26.96
342.16	-26.96
342.543	-67.19
342.927	-69
343.31	-67.41
343.693	-71.48
344.077	-69.67
344.46	-50.92
344.843	-61.76
345.226	-36
345.61	-63.12
345.993	-14.53
346.376	-16.12
346.759	20.49
347.142	11.91
347.525	38.35
347.908	62.53
348.291	92.13
348.674	104.56
349.057	121.06
349.44	124.9
349.823	143.88
350.206	163.99
350.588	206.7
350.971	190.66
351.354	214.39
351.737	221.39
352.119	238.34
352.502	253.71
352.884	265.01
353.267	276.76
353.65	284.89
354.032	280.6
354.414	308.85
354.797	299.13
355.179	317.21
355.562	331.9
355.944	338.23
356.326	341.62
356.709	321.05
357.091	340.94
357.473	344.55
357.855	334.61
358.238	337.55
358.62	362.86
359.002	335.74
359.384	332.8
359.766	337.77
360.148	318.34
360.53	329.64
360.912	328.51
361.294	335.97
361.676	333.48
362.057	317.66
362.439	327.38
362.821	354.72
363.203	324.21
363.584	310.43
363.966	321.28
364.348	322.41
364.729	313.14
365.111	304.55
365.493	314.95
365.874	298
366.256	315.85
366.637	273.59
367.019	304.78
367.4	294.84
367.781	304.78
368.163	276.76
368.544	298
368.925	318.57
369.306	306.59
369.688	304.1
370.069	297.1
370.45	290.54
370.831	306.81
371.212	292.8
371.593	327.83
371.974	301.62
372.355	305.91
372.736	309.07
373.117	307.27
373.498	301.39
373.879	313.37
374.26	329.64
374.641	319.02
375.021	312.46
375.402	325.8
375.783	290.77
376.163	308.17
376.544	295.51
376.925	306.81
377.305	328.73
377.686	325.34
378.066	301.16
378.447	307.49
378.827	319.69
379.208	342.52
379.588	326.93
379.968	308.85
380.349	354.95
380.729	328.06
381.109	340.03
381.489	301.62
381.87	318.57
382.25	336.87
382.63	322.41
383.01	334.84
383.39	329.86
383.77	353.14
384.15	349.07
384.53	337.32
384.91	329.41
385.29	329.64
385.67	339.13
386.049	347.04
386.429	340.94
386.809	343.42
387.189	336.87
387.568	328.28
387.948	341.16
388.328	332.58
388.707	324.21
389.087	337.77
389.466	356.98
389.846	364.21
390.225	355.17
390.605	358.79
390.984	338.9
391.363	342.97
391.743	370.77
392.122	353.82
392.501	364.44
392.881	354.04
393.26	338.68
393.639	361.5
394.018	370.54
394.397	352.46
394.776	353.37
395.155	349.07
395.534	361.28
395.913	394.04
396.292	377.77
396.671	385.23
397.05	363.31
397.429	362.63
397.808	370.99
398.186	372.12
398.565	387.04
398.944	373.7
399.323	395.85
399.701	401.27
400.08	405.12
400.458	389.07
400.837	384.33
401.215	389.98
401.594	392.01
401.972	407.83
402.351	406.47
402.729	404.66
403.107	399.92
403.486	406.92
403.864	411.9
404.242	426.58
404.62	401.05
404.999	415.29
405.377	415.74
405.755	406.47
406.133	406.02
406.511	414.61
406.889	441.05
407.267	445.57
407.645	426.36
408.023	427.71
408.401	429.52
408.779	441.05
409.156	426.81
409.534	462.06
409.912	434.95
410.29	475.4
410.667	483.31
411.045	472.69
411.422	488.73
411.8	479.46
412.178	492.12
412.555	491.67
412.933	493.48
413.31	505.45
413.687	512.01
414.065	516.07
414.442	523.98
414.819	500.48
415.197	572.34
415.574	556.07
415.951	542.29
416.328	551.55
416.705	533.93
417.082	553.81
417.46	569.41
417.837	563.53
418.214	575.06
418.591	571.89
418.967	563.53
419.344	590.87
419.721	585.9
420.098	603.53
420.475	615.96
420.852	618.9
421.228	620.03
421.605	622.96
421.982	621.83
422.358	632.23
422.735	651.66
423.111	636.97
423.488	657.31
423.864	658.9
424.241	667.26
424.617	673.81
424.994	690.08
425.37	684.43
425.746	684.88
426.123	681.72
426.499	705.45
426.875	723.75
427.251	724.88
427.627	722.62
428.003	742.06
428.379	728.72
428.756	750.42
429.132	755.62
429.507	754.49
429.883	782.51
430.259	771.66
430.635	770.53
431.011	791.55
431.387	811.89
431.763	808.72
432.138	820.25
432.514	807.14
432.89	842.17
433.265	838.78
433.641	843.75
434.016	874.26
434.392	874.71
434.767	910.41
435.143	880.81
435.518	916.74
435.894	909.28
436.269	920.81
436.644	932.11
437.02	921.71
437.395	912
437.77	948.15
438.145	954.93
438.52	972.79
438.895	970.07
439.271	985.67
439.646	994.71
440.021	1000.36
440.395	996.74
440.77	987.7
441.145	1010.98
441.52	1019.11
441.895	1020.02
442.27	1014.14
442.645	1060.92
443.019	1034.25
443.394	1047.81
443.769	1048.49
444.143	1023.41
444.518	1063.18
444.892	1053.01
445.267	1054.14
445.641	1057.3
446.016	1061.82
446.39	1056.4
446.764	1053.69
447.139	1077.64
447.513	1091.88
447.887	1080.35
448.262	1087.36
448.636	1094.36
449.01	1115.15
449.384	1103.86
449.758	1102.05
450.132	1124.19
450.506	1092.78
450.88	1109.73
451.254	1107.47
451.628	1149.05
452.002	1146.79
452.376	1155.61
452.75	1168.71
453.123	1166
453.497	1203.97
453.871	1150.63
454.244	1182.05
454.618	1188.6
454.992	1200.8
455.365	1201.25
455.739	1222.72
456.112	1217.98
456.486	1224.08
456.859	1261.59
457.232	1255.49
457.606	1280.57
457.979	1272.21
458.352	1278.09
458.725	1305.43
459.099	1270.86
459.472	1311.08
459.845	1317.63
460.218	1320.57
460.591	1379.55
460.964	1314.92
461.337	1340.69
461.71	1375.26
462.083	1382.94
462.456	1389.95
462.829	1377.07
463.201	1418.2
463.574	1411.64
463.947	1430.17
464.32	1433.11
464.692	1452.77
465.065	1451.19
465.438	1443.96
465.81	1517.63
466.183	1512.43
466.555	1525.31
466.928	1523.05
467.3	1509.04
467.672	1516.73
468.045	1553.33
468.417	1572.32
468.789	1574.35
469.161	1584.07
469.534	1619.1
469.906	1620.45
470.278	1629.49
470.65	1666.33
471.022	1671.75
471.394	1686.66
471.766	1697.06
472.138	1700
472.51	1753.56
472.882	1740.9
473.253	1746.1
473.625	1789.71
473.997	1799.43
474.369	1806.21
474.74	1807.34
475.112	1862.03
475.484	1837.4
475.855	1869.71
476.227	1899.09
476.598	1945.19
476.97	1901.57
477.341	1973.66
477.713	2011.4
478.084	2022.93
478.455	2019.09
478.827	2066.54
479.198	2125.3
479.569	2090.95
479.94	2145.86
480.311	2165.97
480.682	2201.91
481.053	2246.2
481.424	2265.18
481.795	2281.45
482.166	2277.61
482.537	2323.48
482.908	2342.01
483.279	2352.64
483.65	2380.43
484.021	2433.76
484.391	2430.15
484.762	2486.42
485.133	2479.19
485.503	2528.22
485.874	2550.14
486.244	2561.44
486.615	2582.69
486.985	2620.43
487.356	2635.11
487.726	2640.76
488.097	2666.3
488.467	2737.03
488.837	2747.65
489.207	2787.2
489.578	2794.21
489.948	2811.15
490.318	2819.97
490.688	2844.15
491.058	2905.62
491.428	2901.1
491.798	2929.12
492.168	2949.91
492.538	2964.15
492.908	3000.75
493.278	3064.48
493.648	3059.74
494.017	3087.76
494.387	3095.44
494.757	3102.9
495.126	3144.48
495.496	3117.59
495.866	3160.3
496.235	3211.82
496.605	3222.22
496.974	3224.48
497.344	3226.29
497.713	3257.92
498.082	3299.96
498.452	3285.49
498.821	3304.48
499.19	3324.59
499.559	3338.37
499.928	3370.24
500.298	3388.77
500.667	3420.63
501.036	3382.21
501.405	3404.36
501.774	3398.03
502.143	3406.17
502.512	3443.68
502.88	3478.48
503.249	3501.53
503.618	3529.33
503.987	3500.85
504.356	3524.81
504.724	3530.46
505.093	3582.21
505.462	3567.75
505.83	3561.42
506.199	3600.74
506.567	3624.69
506.936	3624.24
507.304	3599.61
507.672	3665.37
508.041	3645.71
508.409	3681.19
508.777	3676.22
509.145	3714.41
509.514	3727.06
509.882	3714.63
510.25	3664.47
510.618	3731.81
510.986	3764.35
511.354	3753.05
511.722	3797.12
512.09	3779.49
512.458	3769.55
512.826	3802.54
513.193	3878.7
513.561	3829.89
513.929	3855.87
514.297	3882.31
514.664	3848.42
515.032	3847.96
515.4	3898.81
515.767	3911.24
516.135	3920.96
516.502	3860.84
516.869	3941.97
517.237	3928.41
517.604	3893.84
517.972	3961.41
518.339	3935.87
518.706	3995.53
519.073	3963.22
519.44	4027.39
519.808	4012.71
520.175	3991.46
520.542	4053.83
520.909	4040.05
521.276	4057.45
521.643	4053.38
522.009	4046.38
522.376	4111.46
522.743	4122.31
523.11	4103.55
523.477	4132.02
523.843	4132.25
524.21	4189.88
524.577	4205.92
524.943	4249.31
525.31	4224.68
525.676	4224.9
526.043	4343.32
526.409	4325.01
526.776	4346.93
527.142	4340.15
527.508	4395.07
527.874	4390.77
528.241	4394.16
528.607	4460.15
528.973	4469.19
529.339	4396.2
529.705	4480.26
530.071	4517.32
530.437	4589.41
530.803	4533.37
531.169	4557.32
531.535	4554.61
531.901	4606.36
532.267	4633.03
532.632	4609.3
532.998	4663.31
533.364	4652.91
533.73	4682.29
534.095	4755.96
534.461	4764.55
534.826	4759.13
535.192	4777.2
535.557	4829.63
535.923	4815.17
536.288	4828.95
536.653	4866.24
537.019	4819.46
537.384	4875.06
537.749	4889.07
538.114	4866.92
538.479	4924.77
538.845	4942.4
539.21	4934.26
539.575	4991.89
539.94	4953.7
540.305	5011.1
540.67	5010.87
541.034	5074.15
541.399	5078.21
541.764	5101.49
542.129	5090.87
542.494	5119.79
542.858	5117.53
543.223	5163.18
543.587	5154.14
543.952	5202.96
544.316	5207.25
544.681	5253.12
545.045	5271.43
545.41	5322.28
545.774	5312.11
546.138	5293.8
546.503	5355.72
546.867	5346.23
547.231	5358.88
547.595	5415.15
547.959	5442.95
548.324	5456.06
548.688	5436.17
549.052	5496.96
549.416	5501.48
549.779	5506.9
550.143	5513.91
550.507	5557.75
550.871	5550.74
551.235	5562.27
551.599	5623.74
551.962	5640.01
552.326	5686.33
552.689	5691.98
553.053	5677.29
553.417	5697.63
553.78	5726.11
554.143	5705.77
554.507	5735.82
554.87	5738.76
555.234	5793.68
555.597	5802.04
555.96	5805.88
556.323	5812.66
556.686	5876.61
557.05	5875.71
557.413	5876.61
557.776	5896.05
558.139	5952.99
558.502	5957.96
558.865	5947.8
559.228	5958.64
559.59	6003.39
559.953	5986.44
560.316	6065.08
560.679	6083.39
561.041	6070.5
561.404	6118.64
561.767	6099.43
562.129	6111.86
562.492	6145.98
562.854	6123.61
563.217	6187.11
563.579	6205.19
563.941	6236.38
564.304	6220.78
564.666	6277.28
565.028	6306.43
565.39	6327.67
565.753	6346.88
566.115	6350.5
566.477	6348.69
566.839	6420.33
567.201	6444.28
567.563	6437.95
567.925	6501.23
568.287	6478.63
568.648	6551.62
569.01	6562.02
569.372	6584.39
569.734	6551.85
570.095	6564.5
570.457	6630.94
570.819	6651.28
571.18	6670.26
571.542	6701.67
571.903	6715.01
572.265	6762.01
572.626	6738.96
572.987	6855.34
573.349	6840.2
573.71	6888.79
574.071	6976.24
574.432	7015.56
574.794	7097.82
575.155	7176.01
575.516	7115.9
575.877	7216.01
576.238	7216.01
576.599	7370.81
576.96	7406.51
577.32	7442.9
577.681	7526.74
578.042	7627.53
578.403	7653.51
578.763	7759.73
579.124	7844.69
579.485	7918.59
579.845	8047.18
580.206	8119.49
580.566	8225.02
580.927	8299.15
581.287	8416.88
581.648	8560.83
582.008	8705.46
582.368	8841.28
582.728	8918.34
583.089	9120.14
583.449	9121.05
583.809	9321.94
584.169	9497.31
584.529	9642.16
584.889	9942.49
585.249	10062.94
585.609	10310.17
585.969	10483.27
586.329	10621.12
586.688	10813.43
587.048	11001.9
587.408	11219.3
587.768	11423.36
588.127	11655.67
588.487	11911.48
588.846	12222.66
589.206	12357.57
589.565	12602.99
589.925	12836.2
590.284	13096.53
590.643	13299.01
591.003	13662.17
591.362	13943.07
591.721	14209.73
592.08	14367.24
592.44	14731.29
592.799	14980.33
593.158	15220.55
593.517	15533.98
593.876	15831.6
594.235	16148.21
594.593	16392.49
594.952	16693.05
595.311	16905.47
595.67	17230.44
596.029	17662.06
596.387	17984.77
596.746	18287.58
597.104	18389.5
597.463	18737.97
597.822	19168.01
598.18	19431.73
598.538	19633.31
598.897	20014.54
599.255	20133.19
599.613	20643
599.972	20848.65
600.33	21239.6
600.688	21334.51
601.046	21720.49
601.404	22115.96
601.762	22291.09
602.12	22602.95
602.478	22957.74
602.836	23250.84
603.194	23246.1
603.552	23637.27
603.91	23786.87
604.268	24133.98
604.625	24271.38
604.983	24718.15
605.341	24764.25
605.698	25161.75
606.056	25440.16
606.413	25674.28
606.771	26099.58
607.128	26230.2
607.485	26418.67
607.843	26713.13
608.2	27091.19
608.557	27311.3
608.914	27443.28
609.272	27643.04
609.629	27940.66
609.986	28230.37
610.343	28404.38
610.7	28779.96
611.057	28945.61
611.414	28901.54
611.771	29229.44
612.127	29546.05
612.484	29557.12
612.841	29894.51
613.198	29904.45
613.554	30216.54
613.911	30368.62
614.267	30643.42
614.624	30716.41
614.98	30822.62
615.337	31256.96
615.693	31236.85
616.05	31356.39
616.406	31860.33
616.762	31627.8
617.118	31766.33
617.475	32021.46
617.831	32324.28
618.187	32373.09
618.543	32441.56
618.899	32791.61
619.255	32788.22
619.611	32837.71
619.967	33113.86
620.323	33463.68
620.678	33319.96
621.034	33293.07
621.39	33571.02
621.746	33615.32
622.101	33967.4
622.457	33898.25
622.812	34044.91
623.168	34202.65
623.523	34264.57
623.879	34389.08
624.234	34267.95
624.589	34563.99
624.945	34662.97
625.3	34749.52
625.655	34730.32
626.01	34904.1
626.365	34753.59
626.72	34861.84
627.075	35034.71
627.43	35122.4
627.785	35142.06
628.14	35165.33
628.495	35349.96
628.85	35422.95
629.205	35238.1
629.559	35564.87
629.914	35391.99
630.269	35531.2
630.623	35545.44
630.978	35557.64
631.332	35719.89
631.687	35891.19
632.041	35751.08
632.396	35889.38
632.75	35760.8
633.104	35776.39
633.459	35671.76
633.813	35829.72
634.167	35790.63
634.521	35793.34
634.875	35792.89
635.229	35774.36
635.583	35640.12
635.937	35769.38
636.291	35708.59
636.645	35795.82
636.999	35808.25
637.352	35818.42
637.706	35700.46
638.06	35979.32
638.413	35759.89
638.767	35765.54
639.121	35918.31
639.474	35771.64
639.828	35914.92
640.181	35823.62
640.534	35912.43
640.888	35743.17
641.241	35679.22
641.594	35654.81
641.947	35900.23
642.301	35739.55
642.654	35775.03
643.007	35839.44
643.36	35739.1
643.713	35683.51
644.066	35825.65
644.419	35689.61
644.771	35482.39
645.124	35135.73
645.477	35128.5
645.83	35024.77
646.182	34750.88
646.535	34723.08
646.888	34769.64
647.24	34588.85
647.593	34867.49
647.945	34682.63
648.298	34604.44
648.65	34605.57
649.002	34467.5
649.355	34688.28
649.707	34610.77
650.059	34845.79
650.411	35195.39
650.763	35127.82
651.115	35567.36
651.467	35410.3
651.819	35557.19
652.171	35322.62
652.523	35362.16
652.875	35201.49
653.227	35163.07
653.578	35461.37
653.93	35438.77
654.282	35330.07
654.633	35244.43
654.985	35319.45
655.337	35226.8
655.688	35218.66
656.039	35430.64
656.391	35064.09
656.742	35138.44
657.094	35256.18
657.445	35418.43
657.796	35216.18
658.147	35203.07
658.498	35201.72
658.849	35237.65
659.2	35126.92
659.551	35103.19
659.902	35177.54
660.253	35243.97
660.604	35220.7
660.955	35067.48
661.306	35141.38
661.656	35056.63
662.007	35113.81
662.358	35125.33
662.708	34987.94
663.059	35000.37
663.409	34923.76
663.76	35158.78
664.11	35032.68
664.461	35220.47
664.811	35049.86
665.161	34973.93
665.511	34966.69
665.862	35149.51
666.212	35089.85
666.562	35153.58
666.912	35037.43
667.262	34939.58
667.612	34985.68
667.962	35128.5
668.312	35019.12
668.662	35119.23
669.011	35050.31
669.361	34962.63
669.711	35003.53
670.06	34849.86
670.41	34959.01
670.76	34740.26
671.109	34978.44
671.459	34774.16
671.808	34832.69
672.157	34974.6
672.507	34859.58
672.856	34868.62
673.205	34883.76
673.554	34846.7
673.904	34796.53
674.253	34961.5
674.602	34756.53
674.951	34368.07
675.3	34257.79
675.649	34698
675.998	34722.18
676.346	34682.63
676.695	34832.46
677.044	34430.66
677.393	34631.79
677.741	34638.79
678.09	34494.39
678.438	34611.67
678.787	34485.12
679.135	34544.11
679.484	34285.36
679.832	34406.48
680.181	34332.59
680.529	34420.04
680.877	34202.87
681.225	34146.15
681.573	34417.33
681.922	34144.57
682.27	34082.88
682.618	34016.66
682.966	34007.17
683.314	34140.27
683.661	33943.67
684.009	33787.06
684.357	33762.88
684.705	33784.8
685.053	33929.21
685.4	33762.43
685.748	33498.26
686.095	33630.46
686.443	33429.11
686.79	33478.82
687.138	33504.13
687.485	33547.52
687.832	33382.55
688.18	33448.99
688.527	33256.68
688.874	33205.16
689.221	33162.45
689.568	32934.2
689.915	32938.72
690.262	33008.55
690.609	32769.69
690.956	32771.5
691.303	32730.59
691.65	32562.69
691.997	32683.82
692.344	32387.55
692.69	32365.41
693.037	32415.35
693.383	32141.46
693.73	32201.57
694.077	32024.62
694.423	32023.49
694.769	32075.24
695.116	31999.99
695.462	31919.99
695.808	31799.32
696.155	31755.25
696.501	31459.22
696.847	31497.41
697.193	31275.27
697.539	31469.16
697.885	31197.98
698.231	31150.75
698.577	31272.78
698.923	30994.82
699.269	30969.06
699.614	30822.17
699.96	30781.94
700.306	30774.94
700.651	30626.92
700.997	30640.71
701.342	30526.81
701.688	30491.11
702.033	30385.12
702.379	30395.74
702.724	30338.79
703.069	30244.11
703.415	30031
703.76	30143.09
704.105	30054.96
704.45	30028.52
704.795	29831.46
705.14	29667.85
705.485	29619.72
705.83	29517.12
706.175	29571.81
706.52	29497.68
706.865	29412.04
707.209	29388.54
707.554	29320.29
707.899	29390.57
708.243	29208.2
708.588	29156.9
708.932	28923.01
709.277	29040.75
709.621	29014.08
709.966	28934.76
710.31	28874.2
710.654	28715.11
710.998	28663.13
711.342	28658.16
711.687	28567.09
712.031	28461.33
712.375	28292.29
712.719	28384.49
713.063	28272.41
713.407	28417.94
713.75	28307.21
714.094	28246.42
714.438	28050.49
714.782	28011.62
715.125	28045.52
715.469	27979.08
715.812	27848.24
716.156	27728.69
716.499	27772.53
716.843	27724.62
717.186	27524.63
717.53	27712.2
717.873	27643.27
718.216	27606.66
718.559	27540.45
718.902	27338.87
719.246	27405.08
719.589	27360.34
719.932	27157.86
720.275	27281.47
720.617	27212.77
720.96	26986.79
721.303	27086.67
721.646	27135.71
721.989	26909.96
722.331	27169.38
722.674	26970.29
723.016	26919.9
723.359	26929.62
723.701	26891.88
724.044	26762.62
724.386	26718.55
724.729	26713.58
725.071	26674.26
725.413	26663.18
725.755	26592.9
726.097	26415.05
726.439	26351.1
726.782	26395.62
727.124	26566.24
727.465	26353.81
727.807	26347.94
728.149	26311.78
728.491	26211.9
728.833	26198.11
729.175	26162.18
729.516	26042.18
729.858	26058.91
730.199	26165.57
730.541	25895.75
730.882	25932.58
731.224	25980.94
731.565	25852.36
731.906	25855.52
732.248	25799.7
732.589	25702.53
732.93	25745.47
733.271	25602.87
733.612	25587.73
733.953	25620.27
734.294	25539.82
734.635	25540.73
734.976	25507.06
735.317	25483.78
735.658	25327.17
735.999	25428.87
736.339	25401.52
736.68	25453.27
737.021	25257.34
737.361	25255.76
737.702	25294.41
738.042	25155.88
738.383	25238.81
738.723	25240.62
739.063	25183.9
739.404	25135.31
739.744	25019.38
740.084	25032.72
740.424	25021.87
740.764	24946.84
741.104	25068.65
741.444	24921.76
741.784	24861.42
742.124	24803.8
742.464	24759.73
742.804	24845.38
743.143	24725.38
743.483	24700.3
743.823	24502.79
744.162	24619.4
744.502	24622.33
744.841	24560.87
745.181	24494.43
745.52	24465.05
745.86	24480.42
746.199	24408.33
746.538	24336.46
746.877	24357.71
747.216	24419.85
747.556	24217.82
747.895	24262.79
748.234	24062.35
748.573	24183.93
748.911	24093.99
749.25	24091.5
749.589	23927.44
749.928	23891.96
750.267	24039.3
750.605	23902.8
750.944	23935.8
751.283	23820.32
751.621	23866.65
751.96	23673.21
752.298	23658.29
752.636	23755.01
752.975	23523.38
753.313	23367.45
753.651	23561.12
753.989	23426.88
754.327	23334.68
754.666	23292.2
755.004	23350.5
755.342	23357.06
755.679	23312.76
756.017	23149.15
756.355	23198.64
756.693	23058.53
757.031	23204.97
757.368	23019.89
757.706	22904.86
758.044	22782.83
758.381	22804.3
758.719	22817.63
759.056	22733.79
759.394	22699.9
759.731	22475.5
760.068	22549.39
760.405	22514.82
760.743	22385.1
761.08	22346.01
761.417	22222.4
761.754	22364.31
762.091	22183.3
762.428	22125.9
762.765	22056.52
763.102	22047.03
763.438	21938.11
763.775	21838.68
764.112	21788.96
764.449	21818.34
764.785	21605.91
765.122	21556.42
765.458	21527.95
765.795	21470.55
766.131	21392.81
766.467	21341.06
766.804	21254.51
767.14	21134.74
767.476	21099.04
767.812	21064.46
768.148	21026.72
768.485	20839.16
768.821	20821.98
769.157	20950.34
769.492	20783.56
769.828	20655.43
770.164	20491.59
770.5	20481.42
770.836	20535.21
771.171	20373.63
771.507	20255.67
771.842	20219.06
772.178	20266.06
772.513	20189
772.849	20158.72
773.184	19909.24
773.519	19928.44
773.855	19866.3
774.19	19778.84
774.525	19695.23
774.86	19708.56
775.195	19642.58
775.53	19514.9
775.865	19410.94
776.2	19307.22
776.535	19158.75
776.87	19209.37
777.205	19032.42
777.539	19001.01
777.874	19116.04
778.209	18847.8
778.543	18793.11
778.878	18824.52
779.212	18746.78
779.547	18677.4
779.881	18698.87
780.215	18495.49
780.55	18602.6
780.884	18385.21
781.218	18363.74
781.552	18297.08
781.886	18219.56
782.22	18101.15
782.554	18154.25
782.888	17943.86
783.222	17971.66
783.556	17818.67
783.889	17752.23
784.223	17634.72
784.557	17651.44
784.89	17680.37
785.224	17529.64
785.557	17485.35
785.891	17373.03
786.224	17333.71
786.558	17369.19
786.891	17177.78
787.224	17190.89
787.557	17076.99
787.891	17157.22
788.224	17049.88
788.557	17072.25
788.89	16919.71
789.223	16771.24
789.556	16761.97
789.888	16784.12
790.221	16631.36
790.554	16495.09
790.887	16637.01
791.219	16522.43
791.552	16494.18
791.884	16355.66
792.217	16338.48
792.549	16225.27
792.882	16210.35
793.214	16099.39
793.546	16058.94
793.879	15992.73
794.211	15986.4
794.543	16000.86
794.875	15961.32
795.207	15935.1
795.539	15807.88
795.871	15854.2
796.203	15725.39
796.535	15635
796.867	15574.89
797.198	15548.45
797.53	15533.31
797.862	15411.73
798.193	15444.27
798.525	15365.85
798.856	15408.34
799.188	15165.86
799.519	15114.11
799.85	15056.71
800.182	15096.26
800.513	15081.11
800.844	14941.46
801.175	15013.55
801.506	14965.41
801.837	14825.08
802.168	14836.83
802.499	14835.47
802.83	14734.46
803.161	14630.05
803.491	14593.44
803.822	14643.84
804.153	14537.4
804.483	14433.22
804.814	14451.53
805.145	14321.36
805.475	14303.51
805.805	14274.13
806.136	14276.39
806.466	14245.88
806.796	14147.81
807.126	14039.33
807.457	14118.88
807.787	14038.43
808.117	13958.88
808.447	14006.79
808.777	13955.27
809.107	13943.29
809.436	13835.95
809.766	13840.7
810.096	13825.33
810.426	13773.8
810.755	13794.59
811.085	13740.36
811.414	13782.17
811.744	13537.43
812.073	13508.05
812.403	13511.44
812.732	13480.25
813.061	13405
813.39	13423.98
813.719	13400.48
814.049	13485.45
814.378	13415.4
814.707	13342.86
815.036	13263.76
815.365	13262.41
815.693	13148.51
816.022	13279.13
816.351	13049.76
816.68	13031.9
817.008	13062.86
817.337	12935.63
817.665	12932.7
817.994	12969.08
818.322	12952.36
818.651	12933.15
818.979	12853.83
819.307	12895.86
819.636	12757.56
819.964	12787.62
820.292	12748.97
820.62	12794.85
820.948	12717.11
821.276	12795.53
821.604	12718.69
821.932	12768.18
822.259	12649.77
822.587	12657.9
822.915	12686.15
823.243	12694.74
823.57	12604.12
823.898	12621.07
824.225	12592.37
824.553	12653.83
824.88	12669.65
825.207	12649.31
825.535	12633.27
825.862	12607.06
826.189	12579.94
826.516	12654.96
826.843	12637.11
827.17	12663.78
827.497	12708.75
827.824	12684.12
828.151	12613.38
828.478	12588.98
828.805	12654.29
829.131	12607.06
829.458	12590.56
829.785	12547.62
830.111	12517.79
830.438	12602.31
830.764	12569.99
831.09	12537.45
831.417	12544.01
831.743	12563.21
832.069	12530.45
832.395	12494.06
832.722	12540.84
833.048	12477.12
833.374	12523.67
833.7	12466.49
834.026	12493.84
834.351	12500.17
834.677	12490.45
835.003	12487.28
835.329	12497.45
835.654	12422.2
835.98	12430.34
836.306	12486.38
836.631	12309.44
836.956	12355.76
837.282	12383.56
837.607	12324.58
837.932	12260.62
838.258	12277.8
838.583	12256.33
838.908	12178.59
839.233	12266.5
839.558	12182.89
839.883	12113.28
840.208	12175.88
840.533	12122.77
840.858	12101.08
841.182	12047.52
841.507	12125.71
841.832	11987.86
842.156	11950.12
842.481	12020.86
842.805	11998.26
843.13	11894.31
843.454	11851.6
843.778	11879.17
844.103	11839.17
844.427	11858.83
844.751	11795.55
845.075	11762.11
845.399	11695.89
845.723	11651.15
846.047	11652.73
846.371	11559.4
846.695	11631.94
847.019	11476.46
847.343	11417.71
847.666	11420.19
847.99	11309.01
848.313	11321.21
848.637	11219.75
848.96	11241.89
849.284	11207.54
849.607	11108.34
849.931	11111.5
850.254	11013.2
850.577	10916.03
850.9	10852.3
851.223	10857.5
851.546	10871.06
851.869	10747.22
852.192	10852.75
852.515	10683.26
852.838	10656.15
853.161	10665.41
853.483	10647.79
853.806	10549.48
854.129	10557.39
854.451	10528.24
854.774	10427
855.096	10421.12
855.419	10433.33
855.741	10422.03
856.063	10311.3
856.385	10251.64
856.708	10305.42
857.03	10166.67
857.352	10243.28
857.674	10192.88
857.996	10177.51
858.318	10126.89
858.64	10125.09
858.961	10065.43
859.283	10030.63
859.605	9995.82
859.926	10053.22
860.248	9973.23
860.57	9876.51
860.891	9942.27
861.212	9859.56
861.534	9861.59
861.855	9915.6
862.176	9886
862.498	9798.09
862.819	9831.08
863.14	9836.05
863.461	9733.01
863.782	9740.24
864.103	9700.01
864.424	9666.34
864.745	9706.34
865.065	9607.36
865.386	9629.28
865.707	9676.96
866.027	9668.38
866.348	9581.15
866.668	9620.47
866.989	9569.4
867.309	9450.08
867.63	9542.73
867.95	9522.62
868.27	9437.65
868.59	9555.84
868.91	9497.98
869.23	9443.52
869.55	9411.89
869.87	9438.78
870.19	9443.07
870.51	9430.19
870.83	9413.47
871.15	9330.31
871.469	9387.03
871.789	9359.68
872.109	9326.24
872.428	9296.86
872.748	9310.87
873.067	9248.05
873.386	9273.58
873.706	9219.57
874.025	9179.8
874.344	9135.96
874.663	9144.55
874.982	9173.7
875.301	9127.15
875.62	9066.36
875.939	9010.99
876.258	9161.27
876.577	9047.6
876.896	9121.05
877.214	9049.18
877.533	9015.96
877.852	9021.61
878.17	9041.27
878.489	9003.31
878.807	9008.51
879.125	8989.52
879.444	8965.8
879.762	8942.07
880.08	8971.9
880.398	8848.74
880.716	8903.2
881.034	8822.3
881.352	8880.83
881.67	8815.06
881.988	8896.64
882.306	8798.12
882.624	8801.05
882.941	8745.46
883.259	8771.9
883.577	8623.66
883.894	8705.92
884.212	8651.45
884.529	8656.42
884.846	8600.83
885.164	8626.37
885.481	8581.4
885.798	8605.35
886.115	8502.53
886.432	8561.96
886.75	8580.49
887.067	8510.44
887.383	8496.43
887.7	8558.35
888.017	8410.1
888.334	8403.32
888.651	8434.96
888.967	8406.71
889.284	8361.74
889.6	8307.06
889.917	8285.59
890.233	8270.9
890.55	8286.04
890.866	8246.27
891.182	8195.65
891.498	8175.76
891.815	8146.83
892.131	8135.08
892.447	8133.05
892.763	8117.23
893.079	8032.26
893.395	8025.93
893.71	8008.31
894.026	7958.82
894.342	7957.69
894.657	7894.41
894.973	7931.02
895.289	7931.47
895.604	7907.52
895.92	7861.19
896.235	7784.13
896.55	7792.27
896.865	7826.16
897.181	7780.97
897.496	7731.93
897.811	7650.8
898.126	7652.84
898.441	7610.12
898.756	7626.4
899.071	7553.63
899.386	7536.68
899.7	7468.43
900.015	7456.68
900.33	7453.74
900.644	7474.99
900.959	7427.3
901.273	7413.97
901.588	7374.65
901.902	7361.77
902.216	7241.77
902.531	7268.44
902.845	7272.73
903.159	7239.97
903.473	7160.42
903.787	7150.7
904.101	7146.86
904.415	7169.68
904.729	7095.79
905.042	7025.06
905.356	7043.13
905.67	7032.06
905.984	7073.42
906.297	6969.01
906.611	6982.57
906.924	6921.56
907.237	6885.4
907.551	6868.68
907.864	6863.93
908.177	6856.7
908.491	6788.45
908.804	6741.9
909.117	6720.66
909.43	6689.47
909.743	6687.21
910.056	6658.29
910.368	6661
910.681	6610.83
910.994	6595.01
911.307	6525.63
911.619	6523.83
911.932	6517.5
912.244	6458.06
912.557	6471.62
912.869	6415.13
913.181	6461.23
913.494	6400.44
913.806	6344.17
914.118	6388.46
914.43	6316.15
914.742	6273.89
915.054	6200.22
915.366	6249.93
915.678	6168.35
915.99	6153.89
916.302	6108.7
916.613	6090.16
916.925	6122.25
917.236	6061.24
917.548	6025.53
917.859	6016.04
918.171	5964.74
918.482	5905.54
918.794	5901.02
919.105	5940.79
919.416	5865.76
919.727	5847.69
920.038	5826.22
920.349	5798.42
920.66	5882.71
920.971	5736.73
921.282	5722.94
921.593	5729.72
921.903	5666.45
922.214	5648.37
922.525	5657.41
922.835	5613.12
923.146	5645.66
923.456	5571.31
923.767	5530.18
924.077	5549.16
924.387	5531.99
924.697	5494.93
925.008	5462.16
925.318	5472.55
925.628	5489.28
925.938	5404.08
926.248	5400.92
926.558	5339.45
926.867	5357.3
927.177	5320.47
927.487	5267.81
927.796	5243.18
928.106	5234.59
928.416	5273.24
928.725	5161.15
929.034	5181.71
929.344	5130.64
929.653	5134.26
929.962	5113.92
930.271	5100.59
930.581	5101.94
930.89	4993.92
931.199	5016.75
931.508	4996.41
931.817	5006.13
932.125	4967.26
932.434	4966.8
932.743	4905.34
933.051	4941.95
933.36	4888.61
933.669	4884.09
933.977	4838.67
934.286	4820.37
934.594	4817.2
934.902	4718.9
935.21	4761.39
935.519	4764.32
935.827	4705.34
936.135	4701.5
936.443	4640.94
936.751	4642.52
937.059	4684.33
937.367	4628.73
937.674	4596.64
937.982	4574.5
938.29	4542.41
938.597	4539.02
938.905	4475.52
939.213	4476.42
939.52	4473.94
939.827	4479.81
940.135	4445.46
940.442	4419.7
940.749	4419.47
941.056	4396.65
941.363	4370.89
941.67	4365.46
941.977	4324.11
942.284	4281.4
942.591	4300.83
942.898	4288.86
943.205	4289.08
943.511	4242.08
943.818	4220.38
944.125	4218.12
944.431	4187.62
944.738	4174.73
945.044	4146.26
945.35	4128.86
945.657	4129.09
945.963	4098.35
946.269	4068.52
946.575	4067.39
946.881	4045.7
947.187	4027.85
947.493	4005.47
947.799	3991.69
948.105	3979.49
948.41	3933.16
948.716	3970.67
949.022	3960.05
949.327	3889.54
949.633	3885.02
949.938	3880.51
950.244	3904.01
950.549	3808.42
950.854	3781.98
951.16	3793.95
951.465	3770.23
951.77	3831.69
952.075	3715.99
952.38	3776.1
952.685	3743.11
952.99	3705.82
953.294	3709.44
953.599	3680.51
953.904	3681.64
954.209	3671.25
954.513	3655.65
954.818	3647.29
955.122	3609.78
955.426	3573.85
955.731	3574.07
956.035	3558.48
956.339	3572.04
956.643	3524.36
956.948	3515.77
957.252	3476.67
957.556	3452.95
957.86	3470.8
958.163	3477.13
958.467	3372.5
958.771	3438.71
959.075	3467.41
959.378	3373.4
959.682	3404.81
959.985	3346.96
960.289	3345.6
960.592	3327.07
960.896	3367.75
961.199	3307.87
961.502	3334.08
961.805	3313.74
962.108	3265.83
962.411	3253.18
962.714	3215.44
963.017	3234.19
963.32	3236
963.623	3206.85
963.926	3215.21
964.228	3197.13
964.531	3133.18
964.833	3136.57
965.136	3139.73
965.438	3122.11
965.741	3120.07
966.043	3112.16
966.345	3065.61
966.648	3060.41
966.95	3062.67
967.252	3015.44
967.554	3010.47
967.856	2983.13
968.158	2944.71
968.46	2970.47
968.761	2999.62
969.063	2910.14
969.365	2918.04
969.666	2924.15
969.968	2898.38
970.269	2909.23
970.571	2878.95
970.872	2839.63
971.174	2888.89
971.475	2872.62
971.776	2810.25
972.077	2796.01
972.378	2820.42
972.679	2801.21
972.98	2809.35
973.281	2786.75
973.582	2772.06
973.883	2770.03
974.183	2758.5
974.484	2729.35
974.785	2744.04
975.085	2720.08
975.386	2720.08
975.686	2687.99
975.986	2677.83
976.287	2695.45
976.587	2643.93
976.887	2644.61
977.187	2625.4
977.487	2619.97
977.787	2604.15
978.087	2575.23
978.387	2593.76
978.687	2593.53
978.987	2564.16
979.286	2567.55
979.586	2556.02
979.885	2527.09
980.185	2545.63
980.484	2539.52
980.784	2523.03
981.083	2480.09
981.382	2485.51
981.682	2477.6
981.981	2436.7
982.28	2459.53
982.579	2448.45
982.878	2484.16
983.177	2435.8
983.475	2400.09
983.774	2363.26
984.073	2372.3
984.372	2385.63
984.67	2371.39
984.969	2365.97
985.267	2356.25
985.566	2339.53
985.864	2316.25
986.162	2310.83
986.461	2313.09
986.759	2264.95
987.057	2250.04
987.355	2265.18
987.653	2257.5
987.951	2214.79
988.249	2230.61
988.547	2260.66
988.844	2244.16
989.142	2198.97
989.44	2177.5
989.737	2177.73
990.035	2199.19
990.332	2179.99
990.63	2157.39
990.927	2151.29
991.224	2140.44
991.521	2124.62
991.819	2103.38
992.116	2135.24
992.413	2131.4
992.71	2112.19
993.006	2130.72
993.303	2082.36
993.6	2094.56
993.897	2064.96
994.193	2034
994.49	2055.02
994.787	2037.16
995.083	2005.75
995.379	2012.08
995.676	2010.72
995.972	2012.53
996.268	1973.21
996.565	1969.82
996.861	1983.83
997.157	1942.93
997.453	1946.54
997.749	1964.85
998.044	1956.26
998.34	1939.31
998.636	1897.96
998.932	1912.65
999.227	1888.02
999.523	1886.43
999.818	1899.31
1000.114	1864.29
1000.409	1867.68
1000.704	1831.75
1001	1837.85
1001.295	1815.7
1001.59	1822.93
1001.885	1805.53
1002.18	1822.48
1002.475	1772.09
1002.77	1770.73
1003.065	1761.46
1003.359	1753.33
1003.654	1763.05
1003.949	1733.9
1004.243	1714.23
1004.538	1704.52
1004.832	1722.37
1005.127	1700.22
1005.421	1691.41
1005.715	1690.05
1006.009	1692.31
1006.304	1667.46
1006.598	1650.73
1006.892	1631.3
1007.186	1626.33
1007.48	1624.97
1007.773	1624.29
1008.067	1605.08
1008.361	1584.75
1008.655	1604.41
1008.948	1606.44
1009.242	1577.74
1009.535	1559.66
1009.829	1577.52
1010.122	1547.46
1010.415	1568.7
1010.708	1545.43
1011.001	1526.44
1011.295	1516.05
1011.588	1496.84
1011.881	1494.58
1012.173	1504.75
1012.466	1487.12
1012.759	1473.34
1013.052	1511.3
1013.344	1487.35
1013.637	1469.27
1013.93	1472.89
1014.222	1432.89
1014.514	1395.15
1014.807	1412.77
1015.099	1399.67
1015.391	1408.71
1015.683	1398.99
1015.976	1396.95
1016.268	1350.85
1016.56	1386.11
1016.851	1348.14
1017.143	1382.49
1017.435	1364.19
1017.727	1367.35
1018.018	1344.75
1018.31	1336.62
1018.602	1321.93
1018.893	1276.51
1019.185	1301.14
1019.476	1299.56
1019.767	1280.57
1020.058	1291.65
1020.35	1283.06
1020.641	1253
1020.932	1274.47
1021.223	1260.46
1021.514	1223.63
1021.804	1236.06
1022.095	1222.72
1022.386	1200.8
1022.677	1182.27
1022.967	1209.62
1023.258	1192.21
1023.548	1185.89
1023.839	1169.84
1024.129	1163.06
1024.419	1163.51
1024.709	1155.15
1025	1135.49
1025.29	1153.35
1025.58	1133.68
1025.87	1123.29
1026.16	1098.21
1026.449	1114.02
1026.739	1116.96
1027.029	1095.49
1027.319	1102.27
1027.608	1087.36
1027.898	1069.28
1028.187	1087.81
1028.477	1053.69
1028.766	1072.67
1029.055	1075.61
1029.344	1053.91
1029.634	1029.96
1029.923	1019.56
1030.212	1033.12
1030.501	999.9
1030.79	1023.41
1031.078	986.8
1031.367	990.64
1031.656	1013.01
1031.945	985.89
1032.233	967.14
1032.522	959.45
1032.81	966.91
1033.099	983.41
1033.387	975.72
1033.675	946.35
1033.963	939.79
1034.251	953.12
1034.54	930.98
1034.828	931.66
1035.116	929.85
1035.403	934.14
1035.691	926.23
1035.979	931.2
1036.267	897.98
1036.554	903.86
1036.842	912.67
1037.129	884.2
1037.417	877.42
1037.704	895.05
1037.992	871.32
1038.279	868.61
1038.566	853.24
1038.853	853.24
1039.14	853.24
