Data from hue_34_FLMS001491_00088.txt Node
Date: Tue Feb 07 17:26:20 GMT 2017
User: dcchb
Spectrometer: FLMS00149
Trigger mode: 0
Integration Time (sec): 2.000000E-2
Scans to average: 10
Electric dark correction enabled: true
Nonlinearity correction enabled: false
Boxcar width: 0
XAxis mode: Wavelengths
Number of Pixels in Spectrum: 2048
>>>>>Begin Spectral Data<<<<<
341.393	2.94
341.776	2.94
342.16	2.94
342.543	-65.99
342.927	-72.99
343.31	-53.78
343.693	-58.08
344.077	-44.52
344.46	-79.32
344.843	-48.36
345.226	-37.06
345.61	-34.8
345.993	-27.34
346.376	-21.24
346.759	-0.45
347.142	14.46
347.525	37.51
347.908	65.76
348.291	62.6
348.674	93.33
349.057	131.3
349.44	127.23
349.823	164.52
350.206	172.2
350.588	210.62
350.971	229.82
351.354	220.79
351.737	229.82
352.119	237.96
352.502	269.82
352.884	267.34
353.267	287.68
353.65	298.98
354.032	298.52
354.414	310.27
354.797	319.09
355.179	312.31
355.562	329.26
355.944	319.54
356.326	343.72
356.709	337.39
357.091	338.75
357.473	349.82
357.855	332.65
358.238	347.34
358.62	351.86
359.002	331.06
359.384	340.1
359.766	372.65
360.148	340.1
360.53	326.77
360.912	357.28
361.294	348.01
361.676	322.7
362.057	331.52
362.439	325.87
362.821	345.75
363.203	331.52
363.584	320.67
363.966	326.77
364.348	324.06
364.729	327.45
365.111	322.25
365.493	311.18
365.874	333.78
366.256	319.31
366.637	307.34
367.019	310.27
367.4	337.84
367.781	303.72
368.163	293.33
368.544	310.95
368.925	307.11
369.306	323.16
369.688	322.03
370.069	328.58
370.45	323.16
370.831	285.64
371.212	312.31
371.593	319.09
371.974	314.79
372.355	317.28
372.736	308.47
373.117	335.36
373.498	332.65
373.879	322.93
374.26	324.51
374.641	317.51
375.021	336.04
375.402	326.77
375.783	328.13
376.163	331.74
376.544	322.93
376.925	333.32
377.305	330.16
377.686	342.59
378.066	323.83
378.447	321.12
378.827	333.1
379.208	345.08
379.588	318.18
379.968	355.24
380.349	331.52
380.729	344.85
381.109	341.46
381.489	344.17
381.87	340.33
382.25	347.11
382.63	339.43
383.01	331.97
383.39	345.3
383.77	349.37
384.15	322.03
384.53	326.55
384.91	336.04
385.29	330.61
385.67	326.55
386.049	361.8
386.429	356.15
386.809	346.66
387.189	349.37
387.568	359.76
387.948	331.52
388.328	371.97
388.707	381.91
389.087	381.01
389.466	359.99
389.846	369.71
390.225	365.64
390.605	367.67
390.984	382.59
391.363	382.14
391.743	378.3
392.122	374.68
392.501	372.42
392.881	370.84
393.26	366.32
393.639	393.66
394.018	385.53
394.397	382.36
394.776	390.72
395.155	394.79
395.534	382.14
395.913	404.96
396.292	388.46
396.671	386.43
397.05	384.62
397.429	372.65
397.808	383.49
398.186	389.14
398.565	400.89
398.944	382.36
399.323	414.23
399.701	414.23
400.08	393.44
400.458	409.71
400.837	406.54
401.215	411.97
401.594	402.93
401.972	403.61
402.351	418.75
402.729	412.87
403.107	415.58
403.486	416.49
403.864	424.17
404.242	418.29
404.62	427.11
404.999	430.95
405.377	406.77
405.755	423.04
406.133	426.43
406.511	424.85
406.889	462.13
407.267	434.56
407.645	434.56
408.023	420.55
408.401	445.41
408.779	427.11
409.156	444.28
409.534	466.88
409.912	441.57
410.29	444.51
410.667	461.46
411.045	440.67
411.422	448.12
411.8	460.55
412.178	462.36
412.555	462.36
412.933	486.54
413.31	478.18
413.687	467.11
414.065	475.02
414.442	490.83
414.819	471.4
415.197	472.08
415.574	473.21
415.951	488.8
416.328	492.64
416.705	503.04
417.082	480.21
417.46	513.66
417.837	515.47
418.214	502.59
418.591	530.38
418.967	499.87
419.344	524.73
419.721	524.28
420.098	501.23
420.475	535.13
420.852	515.92
421.228	519.08
421.605	527.44
421.982	543.04
422.358	547.1
422.735	536.94
423.111	551.17
423.488	554.34
423.864	549.14
424.241	538.06
424.617	564.28
424.994	552.3
425.37	559.53
425.746	568.35
426.123	578.29
426.499	545.3
426.875	550.49
427.251	555.24
427.627	584.39
428.003	588.69
428.379	615.58
428.756	601.57
429.132	613.09
429.507	578.29
429.883	619.64
430.259	608.8
430.635	612.41
431.011	616.48
431.387	620.1
431.763	645.41
432.138	617.84
432.514	650.38
432.89	635.01
433.265	653.54
433.641	659.19
434.016	659.42
434.392	665.52
434.767	665.97
435.143	681.79
435.518	684.73
435.894	681.79
436.269	702.58
436.644	674.11
437.02	698.29
437.395	699.64
437.77	704.39
438.145	716.37
438.52	725.63
438.895	725.63
439.271	726.76
439.646	717.27
440.021	734.44
440.395	728.12
440.77	743.48
441.145	734.44
441.52	782.8
441.895	755.91
442.27	759.75
442.645	771.73
443.019	749.81
443.394	769.02
443.769	763.6
444.143	780.09
444.518	802.69
444.892	773.09
445.267	802.46
445.641	807.44
446.016	793.2
446.39	782.35
446.764	814.67
447.139	806.76
447.513	828
447.887	816.93
448.262	838.17
448.636	827.1
449.01	832.52
449.384	868.23
449.758	844.27
450.132	849.92
450.506	848.34
450.88	864.38
451.254	862.58
451.628	877.04
452.002	870.49
452.376	884.04
452.75	888.79
453.123	901.22
453.497	937.15
453.871	922.69
454.244	952.07
454.618	924.04
454.992	952.74
455.365	949.58
455.739	948.68
456.112	963.59
456.486	971.05
456.859	981.22
457.232	973.76
457.606	998.62
457.979	988
458.352	1023.93
458.725	1041.33
459.099	1019.41
459.472	1059.86
459.845	1082.23
460.218	1081.78
460.591	1087.2
460.964	1095.56
461.337	1090.14
461.71	1105.28
462.083	1123.13
462.456	1129.24
462.829	1133.53
463.201	1159.97
463.574	1181.21
463.947	1186.64
464.32	1181.89
464.692	1210.14
465.065	1221.21
465.438	1244.94
465.81	1261.44
466.183	1295.79
466.555	1297.59
466.928	1294.2
467.3	1296.92
467.672	1340.76
468.045	1362.9
468.417	1358.16
468.789	1396.35
469.161	1409.45
469.534	1423.47
469.906	1463.01
470.278	1475.67
470.65	1485.38
471.022	1514.31
471.394	1558.6
471.766	1580.98
472.138	1604.7
472.51	1611.94
472.882	1619.84
473.253	1643.12
473.625	1675.21
473.997	1731.25
474.369	1748.65
474.74	1771.93
475.112	1803.12
475.484	1856.9
475.855	1896.22
476.227	1933.06
476.598	1978.03
476.97	1984.58
477.341	2042.43
477.713	2088.76
478.084	2122.66
478.455	2191.81
478.827	2187.51
479.198	2274.06
479.569	2331.46
479.94	2375.76
480.311	2450.56
480.682	2502.99
481.053	2583.89
481.424	2585.69
481.795	2653.94
482.166	2696.65
482.537	2772.13
482.908	2837.44
483.279	2929.19
483.65	2961.05
484.021	3035.4
484.391	3091.22
484.762	3208.5
485.133	3234.49
485.503	3307.48
485.874	3379.8
486.244	3464.99
486.615	3595.16
486.985	3634.03
487.356	3715.61
487.726	3773.01
488.097	3927.35
488.467	3916.51
488.837	4006.9
489.207	4131.19
489.578	4187.46
489.948	4293.22
490.318	4401.47
490.688	4488.7
491.058	4528.24
491.428	4656.37
491.798	4689.59
492.168	4832.42
492.538	4882.81
492.908	5000.32
493.278	5042.35
493.648	5115.12
494.017	5261.78
494.387	5278.51
494.757	5376.81
495.126	5422.91
495.496	5478.05
495.866	5600.53
496.235	5662.22
496.605	5777.25
496.974	5824.71
497.344	5924.82
497.713	5916.45
498.082	6032.16
498.452	6153.06
498.821	6188.99
499.19	6240.29
499.559	6295.88
499.928	6370.68
500.298	6480.73
500.667	6562.99
501.036	6574.97
501.405	6647.28
501.774	6714.85
502.143	6809.99
502.512	6846.6
502.88	6947.16
503.249	6934.28
503.618	7023.77
503.987	7076.42
504.356	7100.15
504.724	7190.32
505.093	7231
505.462	7297.44
505.83	7302.41
506.199	7423.53
506.567	7509.86
506.936	7480.03
507.304	7624.88
507.672	7625.56
508.041	7782.39
508.409	7830.75
508.777	7879.57
509.145	7863.75
509.514	7985.55
509.882	7976.29
510.25	8044.53
510.618	8107.36
510.986	8164.76
511.354	8242.5
511.722	8374.92
512.09	8360.01
512.458	8367.69
512.826	8461.92
513.193	8517.74
513.561	8578.98
513.929	8612.65
514.297	8645.2
514.664	8761.8
515.032	8772.2
515.4	8879.54
515.767	8837.28
516.135	8918.64
516.502	8870.5
516.869	9038.86
517.237	8950.73
517.604	9040.44
517.972	9156.37
518.339	9155.01
518.706	9185.97
519.073	9310.49
519.44	9268.91
519.808	9402.24
520.175	9413.09
520.542	9484.5
520.909	9571.95
521.276	9482.24
521.643	9678.16
522.009	9717.03
522.376	9743.92
522.743	9730.14
523.11	9867.31
523.477	9962.45
523.843	9948.66
524.21	10121.32
524.577	10177.81
524.943	10238.37
525.31	10272.27
525.676	10401.99
526.043	10399.73
526.409	10463
526.776	10561.53
527.142	10610.79
527.508	10598.59
527.874	10784.58
528.241	10764.91
528.607	10811.47
528.973	10923.33
529.339	10936.21
529.705	11015.08
530.071	11074.06
530.437	11159.03
530.803	11161.74
531.169	11297.1
531.535	11195.41
531.901	11301.62
532.267	11335.75
532.632	11424.56
532.998	11446.93
533.364	11570.32
533.73	11559.92
534.095	11597.44
534.461	11684.21
534.826	11767.37
535.192	11834.72
535.557	11896.64
535.923	11858.9
536.288	11968.95
536.653	12001.49
537.019	12020.02
537.384	12055.73
537.749	12106.12
538.114	12200.58
538.479	12145.22
538.845	12234.48
539.21	12248.04
539.575	12293.24
539.94	12334.36
540.305	12481.71
540.67	12413.23
541.034	12567.13
541.399	12569.16
541.764	12582.04
542.129	12703.39
542.494	12714.24
542.858	12782.94
543.223	12760.34
543.587	12858.42
543.952	12839.66
544.316	12953.78
544.681	12927.12
545.045	13073.33
545.41	13140.45
545.774	13147.9
546.138	13165.98
546.503	13218.64
546.867	13277.39
547.231	13384.05
547.595	13350.38
547.959	13520.1
548.324	13436.03
548.688	13453.43
549.052	13607.78
549.416	13626.99
549.779	13585.41
550.143	13667.66
550.507	13713.54
550.871	13797.38
551.235	13689.58
551.599	13915.57
551.962	13943.81
552.326	14028.56
552.689	14145.62
553.053	14025.85
553.417	14028.56
553.78	14232.62
554.143	14035.34
554.507	14283.92
554.87	14276.01
555.234	14417.93
555.597	14392.16
555.96	14376.12
556.323	14566.4
556.686	14435.78
557.05	14587.19
557.413	14647.07
557.776	14682.55
558.139	14759.16
558.502	14710.8
558.865	14837.58
559.228	14933.17
559.59	14961.41
559.953	14938.82
560.316	15170.22
560.679	15140.39
561.041	15216.55
561.404	15253.38
561.767	15350.33
562.129	15296.32
562.492	15466.26
562.854	15425.58
563.217	15521.17
563.579	15461.51
563.941	15560.04
564.304	15682.53
564.666	15751.68
565.028	15772.24
565.39	15805.91
565.753	15906.93
566.115	15891.79
566.477	15978.34
566.839	15987.38
567.201	16212.91
567.563	16101.95
567.925	16255.39
568.287	16270.08
568.648	16367.03
569.01	16531.32
569.372	16500.81
569.734	16442.73
570.095	16649.28
570.457	16565.44
570.819	16649.28
571.18	16763.18
571.542	16906.9
571.903	16840.46
572.265	17058.53
572.626	17140.79
572.987	17141.02
573.349	17214.46
573.71	17246.33
574.071	17406.32
574.432	17471.41
574.794	17636.15
575.155	17681.12
575.516	17706.88
575.877	17783.04
576.238	17945.52
576.599	18091.5
576.96	18086.08
577.32	18214.89
577.681	18443.13
578.042	18485.39
578.403	18629.57
578.763	18686.51
579.124	18825.27
579.485	18995.88
579.845	19200.4
580.206	19212.83
580.566	19452.82
580.927	19598.13
581.287	19676.77
581.648	19834.28
582.008	20028.85
582.368	20181.84
582.728	20351.78
583.089	20494.83
583.449	20691.43
583.809	20815.72
584.169	21017.3
584.529	21222.49
584.889	21587.91
585.249	21622.03
585.609	21828.58
585.969	22146.08
586.329	22348.11
586.688	22532.97
587.048	22717.14
587.408	22954.65
587.768	23065.61
588.127	23411.14
588.487	23597.57
588.846	23939.71
589.206	23976.54
589.565	24200.49
589.925	24603.19
590.284	24777.43
590.643	25051.09
591.003	25302.84
591.362	25616.28
591.721	25841.35
592.08	26042.25
592.44	26355.92
592.799	26584.39
593.158	26823.25
593.517	26926.75
593.876	27295.1
594.235	27428.66
594.593	27773.51
594.952	28051.01
595.311	28186.38
595.67	28510.21
596.029	28890.77
596.387	29094.6
596.746	29445.55
597.104	29436.97
597.463	29688.71
597.822	29979.78
598.18	30140.68
598.538	30415.92
598.897	30807.33
599.255	30744.5
599.613	31413.64
599.972	31372.28
600.33	31699.73
600.688	31855.89
601.046	32018.14
601.404	32377.45
601.762	32535.42
602.12	32832.81
602.478	33070.54
602.836	33153.7
603.194	33191.22
603.552	33318.9
603.91	33468.5
604.268	33794.59
604.625	33948.26
604.983	34176.5
605.341	34230.74
605.698	34619.65
606.056	34738.97
606.413	34932.87
606.771	35141.67
607.128	35256.93
607.485	35472.29
607.843	35541.21
608.2	35837.48
608.557	36147.07
608.914	36059.16
609.272	36303.9
609.629	36519.49
609.986	36861.18
610.343	36771.69
610.7	37065.69
611.057	37199.02
611.414	37119.7
611.771	37463.2
612.127	37631.55
612.484	37869.06
612.841	37784.54
613.198	37911.77
613.554	38031.77
613.911	38371.19
614.267	38402.38
614.624	38528.25
614.98	38663.39
615.337	38750.39
615.693	38876.27
616.05	38933.44
616.406	39270.83
616.762	39185.86
617.118	39325.52
617.475	39385.18
617.831	39631.27
618.187	39950.59
618.543	39897.93
618.899	40085.05
619.255	40113.75
619.611	40095.44
619.967	40262.9
620.323	40492.49
620.678	40395.77
621.034	40249.79
621.39	40479.84
621.746	40583.34
622.101	41000.73
622.457	40773.39
622.812	40927.06
623.168	40954.86
623.523	40939.49
623.879	41259.71
624.234	40941.97
624.589	41108.98
624.945	41186.04
625.3	41407.27
625.655	41273.27
626.01	41323.21
626.365	41496.99
626.72	41433.03
627.075	41415.86
627.43	41435.75
627.785	41542.64
628.14	41706.93
628.495	41661.5
628.85	41678
629.205	41647.27
629.559	41863.31
629.914	41666.93
630.269	41728.85
630.623	41575.63
630.978	41685.46
631.332	41860.37
631.687	41934.26
632.041	41842.74
632.396	41855.62
632.75	41670.32
633.104	41753.7
633.459	41661.96
633.813	41649.75
634.167	41757.32
634.521	41710.77
634.875	41898.11
635.229	41626.7
635.583	41570.21
635.937	41544.67
636.291	41640.26
636.645	41750.09
636.999	41569.08
637.352	41693.14
637.706	41659.7
638.06	41736.53
638.413	41496.08
638.767	41556.42
639.121	41656.31
639.474	41283.21
639.828	41524.33
640.181	41506.03
640.534	41423.09
640.888	41361.62
641.241	41378.12
641.594	41439.59
641.947	41433.49
642.301	41353.94
642.654	41521.39
643.007	41360.27
643.36	41359.36
643.713	41307.84
644.066	41421.74
644.419	41133.38
644.771	40962.99
645.124	40541.76
645.477	40649.33
645.83	40372.5
646.182	40149.9
646.535	40005.95
646.888	40243.24
647.24	39999.4
647.593	40255.21
647.945	40100.87
648.298	39919.18
648.65	39993.52
649.002	39807.31
649.355	39947.65
649.707	39952.4
650.059	40200.3
650.411	40495.21
650.763	40539.95
651.115	40999.6
651.467	40850.68
651.819	40742.43
652.171	40778.14
652.523	40717.12
652.875	40802.99
653.227	40617.24
653.578	40825.37
653.93	40743.79
654.282	40453.4
654.633	40423.8
654.985	40469.9
655.337	40574.07
655.688	40520.06
656.039	40905.37
656.391	40379.5
656.742	40532.49
657.094	40688.2
657.445	40615.43
657.796	40490.91
658.147	40611.59
658.498	40592.83
658.849	40438.48
659.2	40533.85
659.551	40465.83
659.902	40535.43
660.253	40328.21
660.604	40441.42
660.955	40427.41
661.306	40567.75
661.656	40431.93
662.007	40514.87
662.358	40324.59
662.708	40367.3
663.059	40412.5
663.409	40150.36
663.76	40458.82
664.11	40273.52
664.461	40443.46
664.811	40340.41
665.161	40332.5
665.511	40205.04
665.862	40242.33
666.212	40278.71
666.562	40282.33
666.912	40296.34
667.262	40190.13
667.612	40256.79
667.962	40266.96
668.312	40219.96
668.662	40349.67
669.011	40243.46
669.361	40163.46
669.711	40226.06
670.06	40058.61
670.41	39978.16
670.76	40033.07
671.109	40215.21
671.459	40070.13
671.808	40128.44
672.157	40123.01
672.507	39885.05
672.856	39951.27
673.205	39993.75
673.554	40092.05
673.904	39995.78
674.253	40229
674.602	39976.58
674.951	39428.57
675.3	39126.88
675.649	39915.33
675.998	39678.05
676.346	39822.46
676.695	40061.32
677.044	39701.1
677.393	39819.29
677.741	39823.13
678.09	39747.2
678.438	39588.56
678.787	39774.55
679.135	39754.66
679.484	39403.71
679.832	39719.63
680.181	39450.49
680.529	39630.6
680.877	39498.62
681.225	39373.88
681.573	39766.86
681.922	39350.15
682.27	39104.73
682.618	39260.44
682.966	39205.52
683.314	39193.32
683.661	39060.22
684.009	38925.98
684.357	38800.79
684.705	38747
685.053	38814.35
685.4	38733.44
685.748	38553.56
686.095	38603.05
686.443	38513.11
686.79	38406.45
687.138	38483.06
687.485	38591.75
687.832	38209.62
688.18	38351.99
688.527	38171.65
688.874	38192.67
689.221	38130.3
689.568	38019.11
689.915	37870.87
690.262	37789.97
690.609	37763.53
690.956	37687.14
691.303	37645.11
691.65	37536.87
691.997	37473.14
692.344	37215.29
692.69	37201.28
693.037	37163.77
693.383	36938.69
693.73	36985.47
694.077	36836.77
694.423	36801.97
694.769	36651.92
695.116	36627.29
695.462	36685.36
695.808	36519.72
696.155	36556.55
696.501	36445.82
696.847	36230.69
697.193	36102.33
697.539	36223.68
697.885	35976.91
698.231	35937.36
698.577	35820.3
698.923	35710.02
699.269	35767.87
699.614	35356.13
699.96	35330.14
700.306	35479.97
700.651	35362.46
700.997	35176.02
701.342	35209.24
701.688	35077.27
702.033	34883.38
702.379	34854.68
702.724	34761.8
703.069	34889.48
703.415	34414.69
703.76	34410.62
704.105	34558.19
704.45	34390.28
704.795	34268.93
705.14	34215.37
705.485	34135.83
705.83	34077.3
706.175	33905.78
706.52	33912.1
706.865	33787.59
707.209	33765.89
707.554	33630.98
707.899	33718.89
708.243	33485.22
708.588	33402.06
708.932	33305.79
709.277	33264.21
709.621	33259.92
709.966	33067.83
710.31	33164.78
710.654	32671.46
710.998	33001.84
711.342	33018.79
711.687	32805.92
712.031	32686.6
712.375	32605.47
712.719	32751.46
713.063	32504
713.407	32652.25
713.75	32467.85
714.094	32474.63
714.438	32366.61
714.782	32385.82
715.125	32207.51
715.469	32314.18
715.812	31995.99
716.156	31997.12
716.499	31957.58
716.843	31843.68
717.186	31801.88
717.53	31963.23
717.873	31938.6
718.216	31766.85
718.559	31661.99
718.902	31491.6
719.246	31513.52
719.589	31339.51
719.932	31213.87
720.275	31368.44
720.617	31153.98
720.96	31166.41
721.303	31128.9
721.646	31316.24
721.989	31030.14
722.331	31085.51
722.674	30998.05
723.016	31047.77
723.359	30909.24
723.701	31063.36
724.044	30657.27
724.386	30605.3
724.729	30713.77
725.071	30681
725.413	30679.87
725.755	30664.28
726.097	30347
726.439	30286.21
726.782	30387.22
727.124	30486.66
727.465	30220.45
727.807	30227
728.149	30084.86
728.491	30115.37
728.833	30100.9
729.175	30122.6
729.516	30033.79
729.858	30067.01
730.199	29952.66
730.541	30034.92
730.882	29912.89
731.224	29994.47
731.565	29839.67
731.906	29741.82
732.248	29719.22
732.589	29646.45
732.93	29505.66
733.271	29426.34
733.612	29612.78
733.953	29550.41
734.294	29584.76
734.635	29351.54
734.976	29514.93
735.317	29242.85
735.658	29324.43
735.999	29306.57
736.339	29174.83
736.68	29280.81
737.021	29132.57
737.361	28980.48
737.702	29200.59
738.042	29064.77
738.383	28959.69
738.723	29022.29
739.063	28886.02
739.404	28923.76
739.744	28921.27
740.084	28647.61
740.424	28877.66
740.764	28573.71
741.104	28912.01
741.444	28613.48
741.784	28559.48
742.124	28619.36
742.464	28503.88
742.804	28535.07
743.143	28482.87
743.483	28509.53
743.823	28394.51
744.162	28410.33
744.502	28499.59
744.841	28241.52
745.181	28319.93
745.52	28218.02
745.86	28200.84
746.199	28189.77
746.538	28005.37
746.877	28139.15
747.216	28050.11
747.556	27922.66
747.895	28086.49
748.234	27819.83
748.573	27798.14
748.911	27833.17
749.25	27762.21
749.589	27612.61
749.928	27704.36
750.267	27783.68
750.605	27741.64
750.944	27649.22
751.283	27490.8
751.621	27550.24
751.96	27461.88
752.298	27438.15
752.636	27441.54
752.975	27305.5
753.313	27171.26
753.651	27366.51
753.989	27227.98
754.327	27139.4
754.666	26890.14
755.004	26988.22
755.342	27089.23
755.679	26858.28
756.017	26804.94
756.355	26809.01
756.693	26682.46
757.031	26775.12
757.368	26648.34
757.706	26588
758.044	26449.25
758.381	26480.21
758.719	26387.1
759.056	26315.01
759.394	26174
759.731	26171.74
760.068	26017.62
760.405	26001.12
760.743	25928.13
761.08	26097.84
761.417	25896.49
761.754	25738.31
762.091	25734.01
762.428	25660.12
762.765	25462.83
763.102	25496.96
763.438	25445.88
763.775	25334.48
764.112	25404.08
764.449	25268.94
764.785	25266.91
765.122	24916.86
765.458	24967.93
765.795	24958.44
766.131	24876.86
766.467	24881.61
766.804	24639.58
767.14	24594.83
767.476	24618.11
767.812	24520.26
768.148	24534.5
768.485	24370.66
768.821	24206.14
769.157	24221.28
769.492	24111.91
769.828	24211.34
770.164	23861.75
770.5	23876.21
770.836	23773.39
771.171	23687.96
771.507	23563.45
771.842	23409.33
772.178	23412.94
772.513	23359.84
772.849	23231.03
773.184	23222.21
773.519	23123.23
773.855	23171.82
774.19	22984.93
774.525	22911.49
774.86	22828.78
775.195	22856.35
775.53	22671.72
775.865	22516.24
776.2	22412.52
776.535	22355.57
776.87	22364.38
777.205	22246.87
777.539	22230.15
777.874	22116.25
778.209	21992.19
778.543	21907.9
778.878	21714.68
779.212	21843.72
779.547	21634.01
779.881	21785.42
780.215	21491.64
780.55	21579.09
780.884	21429.72
781.218	21332.77
781.552	21374.35
781.886	21228.59
782.22	21150.63
782.554	21017.53
782.888	20889.17
783.222	20806.01
783.556	20726.23
783.889	20700.7
784.223	20628.61
784.557	20571.44
784.89	20557.43
785.224	20313.59
785.557	20265.46
785.891	20253.93
786.224	20233.82
786.558	20140.26
786.891	20007.16
787.224	19888.97
787.557	19878.8
787.891	19775.98
788.224	19902.75
788.557	19719.03
788.89	19709.31
789.223	19665.47
789.556	19542.09
789.888	19412.14
790.221	19387.96
790.554	19234.97
790.887	19229.1
791.219	19220.29
791.552	19072.27
791.884	18980.07
792.217	18918.82
792.549	18887.19
792.882	18847.87
793.214	18778.49
793.546	18746.4
793.879	18634.99
794.211	18459.63
794.543	18575.33
794.875	18490.59
795.207	18615.33
795.539	18438.16
795.871	18386.18
796.203	18292.63
796.535	18102.12
796.867	18144.83
797.198	18088.34
797.53	18107.55
797.862	18037.27
798.193	18012.63
798.525	17872.07
798.856	17803.37
799.188	17617.16
799.519	17629.82
799.85	17580.78
800.182	17495.81
800.513	17544.62
800.844	17203.39
801.175	17464.85
801.506	17347.57
801.837	17279.32
802.168	17218.3
802.499	17172.66
802.83	17181.7
803.161	17062.6
803.491	17059.44
803.822	17007.69
804.153	16950.06
804.483	16797.3
804.814	16709.62
805.145	16807.69
805.475	16756.85
805.805	16723.18
806.136	16631.65
806.466	16696.96
806.796	16591.2
807.126	16416.07
807.457	16422.39
807.787	16353.69
808.117	16383.3
808.447	16300.81
808.777	16345.78
809.107	16163.19
809.436	16028.28
809.766	16136.98
810.096	16111.67
810.426	15942.41
810.755	16030.09
811.085	15940.82
811.414	15873.48
811.744	15806.14
812.073	15775.18
812.403	15786.7
812.732	15667.61
813.061	15695.41
813.39	15593.94
813.719	15589.42
814.049	15604.56
814.378	15494.73
814.707	15520.27
815.036	15354.4
815.365	15419.03
815.693	15233.95
816.022	15295.19
816.351	15200.5
816.68	15160.73
817.008	15140.84
817.337	15042.77
817.665	15094.29
817.994	15179.04
818.322	15085.71
818.651	14944.92
818.979	14887.07
819.307	14955.76
819.636	14872.38
819.964	14827.86
820.292	14901.08
820.62	14887.52
820.948	14802.77
821.276	14814.98
821.604	14745.6
821.932	14827.63
822.259	14830.12
822.587	14737.01
822.915	14705.38
823.243	14695.66
823.57	14687.3
823.898	14763.45
824.225	14667.41
824.553	14732.72
824.88	14667.18
825.207	14705.38
825.535	14702.44
825.862	14741.08
826.189	14624.25
826.516	14707.18
826.843	14728.43
827.17	14674.42
827.497	14688.43
827.824	14706.28
828.151	14712.61
828.478	14678.26
828.805	14645.04
829.131	14664.02
829.458	14637.58
829.785	14612.05
830.111	14579.73
830.438	14710.35
830.764	14643.23
831.09	14566.17
831.417	14539.96
831.743	14645.72
832.069	14580.86
832.395	14551.93
832.722	14607.53
833.048	14539.5
833.374	14571.59
833.7	14505.61
834.026	14518.04
834.351	14544.7
834.677	14422.9
835.003	14593.06
835.329	14497.02
835.654	14419.73
835.98	14393.97
836.306	14390.81
836.631	14455.21
836.956	14413.63
837.282	14376.35
837.607	14240.53
837.932	14264.48
838.258	14290.25
838.583	14238.27
838.908	14161.21
839.233	14172.96
839.558	14070.82
839.883	14128.22
840.208	14073.53
840.533	14047.31
840.858	14077.14
841.182	14151.27
841.507	13996.69
841.832	13926.87
842.156	13882.57
842.481	14041.89
842.805	13910.59
843.13	13863.82
843.454	13789.47
843.778	13792.86
844.103	13730.49
844.427	13706.76
844.751	13729.36
845.075	13681
845.399	13670.83
845.723	13535.46
846.047	13558.74
846.371	13493.2
846.695	13488.23
847.019	13315.36
847.343	13365.52
847.666	13200.1
847.99	13241.23
848.313	13115.59
848.637	13076.72
848.96	13060.22
849.284	13055.7
849.607	12948.81
849.931	12940.22
850.254	12867.23
850.577	12819.78
850.9	12718.08
851.223	12744.52
851.546	12664.53
851.869	12540.01
852.192	12594.7
852.515	12469.05
852.838	12439.45
853.161	12489.84
853.483	12458.43
853.806	12334.82
854.129	12306.34
854.451	12284.65
854.774	12174.82
855.096	12175.95
855.419	12060.25
855.741	12163.75
856.063	11945.67
856.385	11952.45
856.708	11896.64
857.03	11885.11
857.352	11905.22
857.674	11848.5
857.996	11813.25
858.318	11725.12
858.64	11735.06
858.961	11692.35
859.283	11696.19
859.605	11601.73
859.926	11593.59
860.248	11530.54
860.57	11494.61
860.891	11503.2
861.212	11598.34
861.534	11487.38
861.855	11385.92
862.176	11467.5
862.498	11433.15
862.819	11417.33
863.14	11384.33
863.461	11299.36
863.782	11314.05
864.103	11298.69
864.424	11270.44
864.745	11332.36
865.065	11235.41
865.386	11230.21
865.707	11183.89
866.027	11178.24
866.348	11115.64
866.668	11155.86
866.989	11130.33
867.309	10986.6
867.63	11052.36
867.95	10960.16
868.27	10995.42
868.59	11027.51
868.91	10942.76
869.23	10937.34
869.55	10954.74
869.87	10913.39
870.19	10951.58
870.51	10914.52
870.83	10913.84
871.15	10875.87
871.469	10838.13
871.789	10844.23
872.109	10795.2
872.428	10740.51
872.748	10739.83
873.067	10746.16
873.386	10796.78
873.706	10756.33
874.025	10651.47
874.344	10652.6
874.663	10619.38
874.982	10674.3
875.301	10602.89
875.62	10533.96
875.939	10656.22
876.258	10625.03
876.577	10534.86
876.896	10512.27
877.214	10510.23
877.533	10507.29
877.852	10448.99
878.17	10445.6
878.489	10429.1
878.807	10432.27
879.125	10439.73
879.444	10357.24
879.762	10392.04
880.08	10378.26
880.398	10377.35
880.716	10276.57
881.034	10352.95
881.352	10297.13
881.67	10241.99
881.988	10220.52
882.306	10197.7
882.624	10222.1
882.941	10122.22
883.259	10119.06
883.577	10042.22
883.894	10007.19
884.212	10070.7
884.529	10002
884.846	9908.89
885.164	10001.54
885.481	9884.94
885.798	9961.77
886.115	9815.34
886.432	9901.21
886.75	9843.81
887.067	9863.7
887.383	9836.8
887.7	9910.93
888.017	9768.78
888.334	9763.13
888.651	9730.14
888.967	9741.66
889.284	9656.7
889.6	9675.68
889.917	9584.15
890.233	9641.33
890.55	9559.07
890.866	9576.02
891.182	9518.85
891.498	9511.16
891.815	9451.28
892.131	9405.85
892.447	9427.1
892.763	9351.17
893.079	9382.8
893.395	9320.43
893.71	9294.67
894.026	9323.6
894.342	9320.66
894.657	9218.51
894.973	9175.35
895.289	9206.09
895.604	9140.1
895.92	9020.78
896.235	8957.73
896.55	9003.83
896.865	8946.88
897.181	9029.37
897.496	8959.76
897.811	8896.49
898.126	8858.07
898.441	8902.36
898.756	8782.14
899.071	8781.69
899.386	8744.63
899.7	8684.29
900.015	8683.16
900.33	8612.2
900.644	8630.28
900.959	8580.11
901.273	8558.19
901.588	8586.21
901.902	8503.73
902.216	8486.78
902.531	8459.21
902.845	8402.04
903.159	8343.96
903.473	8369.27
903.787	8332.66
904.101	8286.56
904.415	8224.64
904.729	8253.57
905.042	8235.26
905.356	8201.37
905.67	8133.12
905.984	8173.8
906.297	8054.48
906.611	8049.28
906.924	8059.9
907.237	7948.27
907.551	8038.88
907.864	7931.99
908.177	7933.12
908.491	7889.74
908.804	7884.54
909.117	7833.01
909.43	7804.09
909.743	7776.07
910.056	7739.01
910.368	7701.49
910.681	7664.21
910.994	7630.53
911.307	7614.26
911.619	7496.75
911.932	7500.14
912.244	7523.19
912.557	7524.55
912.869	7396.87
913.181	7378.34
913.494	7384.89
913.806	7355.29
914.118	7279.36
914.43	7231.9
914.742	7250.43
915.054	7235.74
915.366	7180.83
915.678	7188.06
915.99	7162.98
916.302	7058.57
916.613	7053.37
916.925	7028.52
917.236	7036.2
917.548	6974.51
917.859	6985.13
918.171	6903.77
918.482	6887.73
918.794	6927.05
919.105	6852.93
919.416	6781.97
919.727	6819.03
920.038	6786.04
920.349	6758.24
920.66	6692.25
920.971	6679.15
921.282	6646.38
921.593	6597.34
921.903	6571.35
922.214	6539.49
922.525	6603.22
922.835	6503.33
923.146	6428.53
923.456	6490.68
923.767	6391.47
924.077	6403.67
924.387	6389.21
924.697	6296.78
925.008	6361.87
925.318	6289.55
925.628	6306.95
925.938	6235.09
926.248	6158.93
926.558	6167.97
926.867	6168.88
927.177	6132.04
927.487	6055.66
927.796	6075.09
928.106	6028.54
928.416	6013.4
928.725	6003.68
929.034	5943.12
929.344	5943.35
929.653	5941.31
929.962	5888.43
930.271	5858.83
930.581	5836.91
930.89	5834.87
931.199	5784.48
931.508	5779.51
931.817	5738.38
932.125	5728.89
932.434	5659.74
932.743	5647.54
933.051	5638.72
933.36	5603.69
933.669	5571.15
933.977	5596.46
934.286	5596.91
934.594	5524.6
934.902	5481.89
935.21	5494.77
935.519	5495.9
935.827	5454.32
936.135	5389.24
936.443	5341.78
936.751	5379.75
937.059	5306.98
937.367	5349.46
937.674	5334.77
937.982	5302.23
938.29	5241.9
938.597	5251.61
938.905	5146.98
939.213	5130.26
939.52	5128
939.827	5136.81
940.135	5113.09
940.442	5056.59
940.749	5100.66
941.056	5020.43
941.363	4991.06
941.67	4987.21
941.977	4986.99
942.284	4955.58
942.591	4946.76
942.898	4931.17
943.205	4908.35
943.511	4845.97
943.818	4886.65
944.125	4864.5
944.431	4871.06
944.738	4822.25
945.044	4805.3
945.35	4768.24
945.657	4728.69
945.963	4719.88
946.269	4670.84
946.575	4717.39
946.881	4636.71
947.187	4646.21
947.493	4621.35
947.799	4563.5
948.105	4583.83
948.41	4576.6
948.716	4542.71
949.022	4509.49
949.327	4519.43
949.633	4433.1
949.938	4461.13
950.244	4472.65
950.549	4438.53
950.854	4385.42
951.16	4421.35
951.465	4376.61
951.77	4319.43
952.075	4330.96
952.38	4303.16
952.685	4311.75
952.99	4294.35
953.294	4252.09
953.599	4245.31
953.904	4241.02
954.209	4205.77
954.513	4198.76
954.818	4154.92
955.122	4176.16
955.426	4156.73
955.731	4096.84
956.035	4100.01
956.339	4092.77
956.643	4091.64
956.948	4028.59
957.252	4006.22
957.556	3991.53
957.86	3956.73
958.163	3978.2
958.467	3950.63
958.771	3960.57
959.075	3959.9
959.378	3931.65
959.682	3893.23
959.985	3883.74
960.289	3866.57
960.592	3833.12
960.896	3811.65
961.199	3796.51
961.502	3813.46
961.805	3766.45
962.108	3762.16
962.411	3766.91
962.714	3731.65
963.017	3701.82
963.32	3703.18
963.623	3692.11
963.926	3670.19
964.228	3638.1
964.531	3624.31
964.833	3626.57
965.136	3536.4
965.438	3555.84
965.741	3562.62
966.043	3560.58
966.345	3532.11
966.648	3521.04
966.95	3504.54
967.252	3514.94
967.554	3470.87
967.856	3459.8
968.158	3443.3
968.46	3437.2
968.761	3412.79
969.063	3398.78
969.365	3366.24
969.666	3334.83
969.968	3340.93
970.269	3299.12
970.571	3331.89
970.872	3305.68
971.174	3298.9
971.475	3290.99
971.776	3220.71
972.077	3272
972.378	3234.04
972.679	3240.82
972.98	3193.81
973.281	3168.73
973.582	3152.91
973.883	3157.88
974.183	3180.48
974.484	3132.57
974.785	3122.4
975.085	3120.14
975.386	3102.74
975.686	3109.3
975.986	3081.95
976.287	3072.69
976.587	3043.54
976.887	3011.67
977.187	3008.06
977.487	3033.59
977.787	2999.92
978.087	3000.83
978.387	2974.84
978.687	2937.55
978.987	2942.75
979.286	2929.87
979.586	2972.58
979.885	2888.74
980.185	2858
980.484	2841.73
980.784	2826.59
981.083	2829.3
981.382	2814.16
981.682	2811.45
981.981	2801.28
982.28	2767.38
982.579	2784.33
982.878	2764.9
983.177	2759.02
983.475	2762.19
983.774	2727.16
984.073	2729.42
984.372	2710.89
984.67	2688.74
984.969	2700.04
985.267	2664.34
985.566	2630.21
985.864	2655.52
986.162	2638.8
986.461	2632.47
986.759	2619.14
987.057	2617.11
987.355	2600.84
987.653	2599.03
987.951	2552.25
988.249	2536.2
988.547	2556.32
988.844	2539.37
989.142	2532.81
989.44	2517.22
989.737	2510.89
990.035	2533.27
990.332	2451.69
990.63	2462.08
990.927	2472.48
991.224	2430.67
991.521	2411.69
991.819	2446.49
992.116	2427.28
992.413	2369.88
992.71	2388.41
993.006	2351.58
993.303	2332.37
993.6	2362.88
993.897	2352.03
994.193	2297.57
994.49	2348.64
994.787	2287.85
995.083	2320.62
995.379	2293.95
995.676	2284.46
995.972	2251.92
996.268	2254.86
996.565	2235.42
996.861	2244.01
997.157	2257.12
997.453	2206.72
997.749	2182.77
998.044	2185.48
998.34	2168.3
998.636	2133.05
998.932	2113.16
999.227	2135.76
999.523	2163.33
999.818	2140.96
1000.114	2119.94
1000.409	2088.08
1000.704	2085.82
1001	2089.66
1001.295	2064.58
1001.59	2061.87
1001.885	2081.3
1002.18	2038.59
1002.475	2031.59
1002.77	2042.21
1003.065	2004.69
1003.359	2011.02
1003.654	1975.09
1003.949	1972.15
1004.243	1960.4
1004.538	1969.89
1004.832	1913.62
1005.127	1928.54
1005.421	1916.33
1005.715	1909.1
1006.009	1903.23
1006.304	1860.97
1006.598	1890.57
1006.892	1887.63
1007.186	1850.35
1007.48	1860.29
1007.773	1836.34
1008.067	1809.22
1008.361	1842.44
1008.655	1818.94
1008.948	1810.12
1009.242	1781.42
1009.535	1774.42
1009.829	1783.23
1010.122	1738.94
1010.415	1764.93
1010.708	1753.17
1011.001	1731.71
1011.295	1734.87
1011.588	1719.5
1011.881	1699.16
1012.173	1661.88
1012.466	1703.91
1012.759	1679.73
1013.052	1671.82
1013.344	1662.1
1013.637	1651.71
1013.93	1618.49
1014.222	1644.02
1014.514	1600.41
1014.807	1598.38
1015.099	1596.57
1015.391	1612.61
1015.683	1549.34
1015.976	1575.33
1016.268	1557.25
1016.56	1534.87
1016.851	1537.59
1017.143	1522.45
1017.435	1500.53
1017.727	1450.58
1018.018	1512.5
1018.31	1472.96
1018.602	1484.48
1018.893	1453.3
1019.185	1439.96
1019.476	1438.61
1019.767	1439.74
1020.058	1423.24
1020.35	1417.36
1020.641	1417.82
1020.932	1428.44
1021.223	1401.77
1021.514	1414.65
1021.804	1369.46
1022.095	1366.52
1022.386	1359.96
1022.677	1353.41
1022.967	1369
1023.258	1334.43
1023.548	1341.43
1023.839	1343.24
1024.129	1307.31
1024.419	1304.37
1024.709	1308.89
1025	1283.13
1025.29	1308.44
1025.58	1268.67
1025.87	1248.55
1026.16	1248.78
1026.449	1237.93
1026.739	1224.83
1027.029	1212.4
1027.319	1202.91
1027.608	1224.6
1027.898	1206.75
1028.187	1192.96
1028.477	1182.34
1028.766	1187.77
1029.055	1164.04
1029.344	1142.34
1029.634	1146.86
1029.923	1149.12
1030.212	1135.79
1030.501	1150.25
1030.79	1115.45
1031.078	1142.57
1031.367	1123.36
1031.656	1113.19
1031.945	1127.65
1032.233	1088.56
1032.522	1087.43
1032.81	1052.18
1033.099	1067.77
1033.387	1063.7
1033.675	1054.66
1033.963	1055.57
1034.251	1058.28
1034.54	1040.88
1034.828	1053.76
1035.116	1049.46
1035.403	1033.65
1035.691	1009.92
1035.979	1008.56
1036.267	1004.27
1036.554	974.21
1036.842	986.41
1037.129	982.35
1037.417	986.19
1037.704	954.78
1037.992	954.55
1038.279	987.09
1038.566	956.81
1038.853	956.81
1039.14	956.81
