Data from hue_32_FLMS001491_00042.txt Node
Date: Tue Feb 07 17:23:26 GMT 2017
User: dcchb
Spectrometer: FLMS00149
Trigger mode: 0
Integration Time (sec): 2.000000E-2
Scans to average: 10
Electric dark correction enabled: true
Nonlinearity correction enabled: false
Boxcar width: 0
XAxis mode: Wavelengths
Number of Pixels in Spectrum: 2048
>>>>>Begin Spectral Data<<<<<
341.393	4.84
341.776	4.84
342.16	4.84
342.543	-70.18
342.927	-57.53
343.31	-66.11
343.693	-77.41
344.077	-67.92
344.46	-62.95
344.843	-52.33
345.226	-50.3
345.61	-38.77
345.993	-11.43
346.376	-9.39
346.759	9.59
347.142	43.04
347.525	37.16
347.908	60.44
348.291	80.32
348.674	79.87
349.057	126.2
349.44	132.07
349.823	169.81
350.206	159.87
350.588	189.7
350.971	217.95
351.354	230.83
351.737	229.92
352.119	262.69
352.502	286.19
352.884	288.45
353.267	284.61
353.65	290.26
354.032	282.8
354.414	303.14
354.797	327.1
355.179	323.71
355.562	334.33
355.944	329.13
356.326	351.5
356.709	337.49
357.091	311.73
357.473	352.86
357.855	336.14
358.238	366.19
358.62	351.05
359.002	343.82
359.384	332.52
359.766	340.88
360.148	344.95
360.53	375.23
360.912	335.68
361.294	351.5
361.676	341.56
362.057	346.3
362.439	345.17
362.821	344.5
363.203	333.42
363.584	359.64
363.966	323.71
364.348	325.74
364.729	332.07
365.111	347.21
365.493	342.46
365.874	320.09
366.256	323.25
366.637	333.88
367.019	336.36
367.4	346.76
367.781	316.7
368.163	318.51
368.544	324.38
368.925	331.16
369.306	323.93
369.688	309.92
370.069	327.1
370.45	333.42
370.831	327.32
371.212	333.42
371.593	317.6
371.974	325.97
372.355	327.77
372.736	320.09
373.117	322.35
373.498	305.63
373.879	315.12
374.26	313.99
374.641	337.72
375.021	337.72
375.402	324.16
375.783	331.39
376.163	329.58
376.544	342.01
376.925	328.9
377.305	339.07
377.686	330.94
378.066	331.84
378.447	343.14
378.827	326.87
379.208	323.48
379.588	335.91
379.968	351.28
380.349	347.21
380.729	350.6
381.109	313.54
381.489	329.58
381.87	364.38
382.25	350.37
382.63	335.68
383.01	344.5
383.39	332.75
383.77	379.52
384.15	353.54
384.53	359.41
384.91	360.54
385.29	360.09
385.67	366.64
386.049	359.64
386.429	357.38
386.809	382.91
387.189	375.23
387.568	364.16
387.948	391.95
388.328	358.96
388.707	365.06
389.087	364.61
389.466	370.48
389.846	384.27
390.225	365.51
390.605	379.07
390.984	369.13
391.363	381.11
391.743	370.26
392.122	370.26
392.501	372.52
392.881	382.01
393.26	381.56
393.639	402.12
394.018	369.35
394.397	390.15
394.776	382.46
395.155	395.12
395.534	400.31
395.913	388.34
396.292	398.28
396.671	401.9
397.05	388.79
397.429	413.87
397.808	386.3
398.186	393.99
398.565	411.84
398.944	408.68
399.323	405.74
399.701	422.46
400.08	398.96
400.458	419.3
400.837	424.49
401.215	405.96
401.594	432.63
401.972	408.45
402.351	415.46
402.729	419.97
403.107	430.6
403.486	433.08
403.864	436.02
404.242	433.99
404.62	425.85
404.999	414.33
405.377	437.6
405.755	431.95
406.133	426.08
406.511	443.25
406.889	459.97
407.267	438.73
407.645	459.3
408.023	469.47
408.401	473.08
408.779	484.15
409.156	472.63
409.534	466.75
409.912	468.56
410.29	473.08
410.667	479.63
411.045	475.57
411.422	498.62
411.8	484.15
412.178	487.54
412.555	504.72
412.933	474.66
413.31	494.1
413.687	490.48
414.065	514.66
414.442	511.72
414.819	506.98
415.197	506.3
415.574	500.88
415.951	512.85
416.328	505.85
416.705	532.97
417.082	516.24
417.46	499.52
417.837	524.83
418.214	532.29
418.591	523.02
418.967	540.88
419.344	529.12
419.721	541.78
420.098	578.16
420.475	547.66
420.852	551.27
421.228	566.86
421.605	561.21
421.982	572.06
422.358	575.68
422.735	565.51
423.111	578.84
423.488	585.62
423.864	576.35
424.241	598.95
424.617	570.03
424.994	599.86
425.37	609.12
425.746	589.91
426.123	598.05
426.499	587.43
426.875	605.28
427.251	588.78
427.627	614.32
428.003	615.45
428.379	634.88
428.756	624.26
429.132	625.17
429.507	640.53
429.883	654.09
430.259	648.22
430.635	643.47
431.011	650.7
431.387	655
431.763	680.76
432.138	678.05
432.514	684.15
432.89	683.7
433.265	687.54
433.641	701.32
434.016	677.14
434.392	697.48
434.767	728.22
435.143	735.9
435.518	747.42
435.894	744.71
436.269	743.36
436.644	742.68
437.02	737.25
437.395	760.98
437.77	747.88
438.145	756.69
438.52	748.55
438.895	787.2
439.271	778.16
439.646	790.59
440.021	800.3
440.395	790.36
440.77	803.02
441.145	807.99
441.52	825.84
441.895	828.55
442.27	832.85
442.645	819.51
443.019	823.35
443.394	825.39
443.769	851.83
444.143	859.96
444.518	837.36
444.892	862.68
445.267	875.78
445.641	855.67
446.016	874.43
446.39	879.17
446.764	876.69
447.139	876.91
447.513	875.78
447.887	893.63
448.262	896.8
448.636	893.18
449.01	896.12
449.384	898.15
449.758	897.48
450.132	906.97
450.506	919.4
450.88	944.71
451.254	927.31
451.628	947.19
452.002	937.25
452.376	979.51
452.75	938.15
453.123	963.24
453.497	989.9
453.871	955.33
454.244	995.78
454.618	1009.56
454.992	1015.89
455.365	1035.78
455.739	1017.7
456.112	1060.18
456.486	1071.26
456.859	1045.27
457.232	1079.17
457.606	1084.36
457.979	1090.01
458.352	1097.02
458.725	1113.29
459.099	1091.82
459.472	1159.84
459.845	1145.15
460.218	1171.82
460.591	1190.35
460.964	1198.26
461.337	1204.81
461.71	1221.31
462.083	1243.46
462.456	1209.56
462.829	1261.76
463.201	1271.48
463.574	1274.87
463.947	1269.22
464.32	1298.14
464.692	1314.64
465.065	1329.78
465.438	1347.86
465.81	1347.41
466.183	1380.4
466.555	1431.25
466.928	1430.12
467.3	1429.21
467.672	1442.77
468.045	1493.17
468.417	1497.01
468.789	1521.19
469.161	1539.27
469.534	1542.66
469.906	1564.13
470.278	1601.86
470.65	1612.49
471.022	1645.48
471.394	1699.04
471.766	1683.44
472.138	1760.73
472.51	1788.07
472.882	1781.75
473.253	1821.07
473.625	1851.35
473.997	1873.72
474.369	1919.14
474.74	1937.9
475.112	1974.28
475.484	1981.52
475.855	2043.66
476.227	2087.05
476.598	2165.92
476.97	2206.37
477.341	2251.34
477.713	2279.81
478.084	2335.4
478.455	2421.96
478.827	2432.35
479.198	2509.86
479.569	2522.52
479.94	2645.45
480.311	2655.4
480.682	2733.13
481.053	2839.57
481.424	2876.18
481.795	2916.63
482.166	2991.43
482.537	3071.2
482.908	3153.69
483.279	3196.17
483.65	3299.45
484.021	3349.62
484.391	3429.39
484.762	3520.01
485.133	3592.32
485.503	3664.41
485.874	3694.47
486.244	3837.96
486.615	3859.66
486.985	3975.36
487.356	4064.62
487.726	4127.22
488.097	4243.38
488.467	4320.44
488.837	4397.27
489.207	4450.38
489.578	4617.6
489.948	4710.03
490.318	4774.21
490.688	4876.13
491.058	4962
491.428	5017.82
491.798	5140.75
492.168	5255.78
492.538	5320.64
492.908	5379.84
493.278	5496.9
493.648	5543.91
494.017	5686.28
494.387	5798.59
494.757	5783
495.126	5928.3
495.496	5931.92
495.866	6084.46
496.235	6159.48
496.605	6281.52
496.974	6326.49
497.344	6434.28
497.713	6506.37
498.082	6587.95
498.452	6585.46
498.821	6710.43
499.19	6720.15
499.559	6872.23
499.928	6907.71
500.298	6965.34
500.667	7041.27
501.036	7118.56
501.405	7178.89
501.774	7216.63
502.143	7282.62
502.512	7407.14
502.88	7442.16
503.249	7492.56
503.618	7563.29
503.987	7651.42
504.356	7734.81
504.724	7774.58
505.093	7818.88
505.462	7856.62
505.83	7904.75
506.199	7981.13
506.567	8087.34
506.936	8027.23
507.304	8244.18
507.672	8200.34
508.041	8305.64
508.409	8408.24
508.777	8410.73
509.145	8499.08
509.514	8503.6
509.882	8594.68
510.25	8614.56
510.618	8693.2
510.986	8705.86
511.354	8849.36
511.722	8924.84
512.09	8980.2
512.458	8963.93
512.826	9050.03
513.193	9130.03
513.561	9163.02
513.929	9256.8
514.297	9300.19
514.664	9326.63
515.032	9389.23
515.4	9441.21
515.767	9521.2
516.135	9514.88
516.502	9529.34
516.869	9661.09
517.237	9659.96
517.604	9660.86
517.972	9799.62
518.339	9797.58
518.706	9864.47
519.073	9917.58
519.44	9982.89
519.808	10102.21
520.175	10041.87
520.542	10136.1
520.909	10217.68
521.276	10245.93
521.643	10420.39
522.009	10411.8
522.376	10439.37
522.743	10526.83
523.11	10625.81
523.477	10670.55
523.843	10651.8
524.21	10866.25
524.577	10882.98
524.943	10929.75
525.31	11001.84
525.676	11067.83
526.043	11188.28
526.409	11101.95
526.776	11223.53
527.142	11313.7
527.508	11283.87
527.874	11505.79
528.241	11493.13
528.607	11586.69
528.973	11654.26
529.339	11613.13
529.705	11843.4
530.071	11824.65
530.437	11880.46
530.803	11956.17
531.169	12040.23
531.535	12060.57
531.901	12036.17
532.267	12093.34
532.632	12195.03
532.998	12161.14
533.364	12257.4
533.73	12385.31
534.095	12474.35
534.461	12551.86
534.826	12585.3
535.192	12644.51
535.557	12765.19
535.923	12681.57
536.288	12788.92
536.653	12791.17
537.019	12887.22
537.384	12856.94
537.749	12927.22
538.114	12844.51
538.479	12973.09
538.845	13034.56
539.21	13114.78
539.575	13252.41
539.94	13194.33
540.305	13327.88
540.67	13311.61
541.034	13364.49
541.399	13359.75
541.764	13373.76
542.129	13448.78
542.494	13530.36
542.858	13645.16
543.223	13672.28
543.587	13742.11
543.952	13702.79
544.316	13813.75
544.681	13886.97
545.045	13938.26
545.41	14086.28
545.774	14086.06
546.138	14086.73
546.503	14074.31
546.867	14158.6
547.231	14320.17
547.595	14298.03
547.959	14310.01
548.324	14451.92
548.688	14436.78
549.052	14495.31
549.416	14554.07
549.779	14628.64
550.143	14643.1
550.507	14676.55
550.871	14691.92
551.235	14741.18
551.599	14926.03
551.962	14847.39
552.326	14917.67
552.689	14901.63
553.053	14925.36
553.417	15041.96
553.78	15164.22
554.143	15159.7
554.507	15200.38
554.87	15204.9
555.234	15400.15
555.597	15271.56
555.96	15404.89
556.323	15506.36
556.686	15505.23
557.05	15518.33
557.413	15648.5
557.776	15671.78
558.139	15730.76
558.502	15773.7
558.865	15801.72
559.228	15893.92
559.59	15951.32
559.953	15885.33
560.316	16128.71
560.679	16136.62
561.041	16257.98
561.404	16217.98
561.767	16408.26
562.129	16267.47
562.492	16510.63
562.854	16436.28
563.217	16529.38
563.579	16508.37
563.941	16691.86
564.304	16775.25
564.666	16831.75
565.028	16796.49
565.39	16833.33
565.753	16954
566.115	16986.77
566.477	17020.22
566.839	17139.76
567.201	17182.47
567.563	17221.34
567.925	17430.15
568.287	17396.03
568.648	17423.37
569.01	17513.99
569.372	17648.22
569.734	17730.25
570.095	17764.15
570.457	17743.14
570.819	17858.16
571.18	17908.1
571.542	18084.14
571.903	18054.54
572.265	18202.11
572.626	18272.84
572.987	18395.32
573.349	18448.65
573.71	18572.04
574.071	18572.72
574.432	18656.56
574.794	18767.06
575.155	18933.84
575.516	18943.78
575.877	19028.53
576.238	19158.69
576.599	19308.07
576.96	19349.42
577.32	19435.52
577.681	19690.43
578.042	19702.86
578.403	19822.85
578.763	19914.15
579.124	20073.02
579.485	20329.73
579.845	20461.26
580.206	20616.28
580.566	20705.77
580.927	20873.22
581.287	21174.01
581.648	21125.87
582.008	21528.35
582.368	21592.3
582.728	21849.24
583.089	21953.87
583.449	22110.03
583.809	22375.33
584.169	22565.61
584.529	22685.6
584.889	23073.39
585.249	23050.57
585.609	23348.19
585.969	23701.62
586.329	23767.16
586.688	24135.06
587.048	24264.77
587.408	24448.5
587.768	24727.81
588.127	25068.82
588.487	25092.77
588.846	25671.97
589.206	25742.7
589.565	25981.11
589.925	26279.41
590.284	26533.41
590.643	26753.97
591.003	27017.47
591.362	27467.63
591.721	27540.17
592.08	27858.58
592.44	28212.46
592.799	28471.44
593.158	28678.21
593.517	28967.02
593.876	29282.49
594.235	29383.51
594.593	29624.63
594.952	30064.39
595.311	30195.24
595.67	30555
596.029	30858.95
596.387	31152.5
596.746	31478.59
597.104	31650.79
597.463	31880.16
597.822	32225.69
598.18	32410.32
598.538	32677.66
598.897	33096.18
599.255	32906.8
599.613	33654.13
599.972	33642.15
600.33	33946.78
600.688	34133.66
601.046	34411.17
601.404	34708.56
601.762	34757.38
602.12	35119.4
602.478	35259.28
602.836	35619.05
603.194	35563.46
603.552	35800.51
603.91	35946.27
604.268	36320.05
604.625	36426.49
604.983	36827.15
605.341	36833.93
605.698	37111.89
606.056	37447.93
606.413	37574.93
606.771	37618.09
607.128	37973.11
607.485	37964.98
607.843	38218.75
608.2	38457.84
608.557	38703.71
608.914	38815.58
609.272	38930.83
609.629	39281.78
609.986	39510.92
610.343	39482.22
610.7	39899.39
611.057	40010.12
611.414	40079.72
611.771	40121.53
612.127	40455.98
612.484	40592.03
612.841	40761.96
613.198	40671.57
613.554	40955.63
613.911	41273.82
614.267	41312.23
614.624	41293.02
614.98	41520.82
615.337	41830.41
615.693	41668.61
616.05	41923.74
616.406	42211.64
616.762	42096.85
617.118	42245.99
617.475	42204.19
617.831	42588.13
618.187	42527.79
618.543	42780.67
618.899	42879.2
619.255	43005.97
619.611	43090.72
619.967	43204.16
620.323	43485.74
620.678	43285.29
621.034	43212.52
621.39	43403.93
621.746	43389.92
622.101	43962.56
622.457	43610.93
622.812	43790.81
623.168	43990.58
623.523	44019.28
623.879	44288.43
624.234	43946.74
624.589	44130.24
624.945	44249.78
625.3	44395.54
625.655	44291.36
626.01	44409.1
626.365	44320.97
626.72	44508.31
627.075	44485.71
627.43	44430.12
627.785	44451.36
628.14	44598.02
628.495	44737.68
628.85	44706.49
629.205	44553.5
629.559	44746.27
629.914	44628.3
630.269	44704.01
630.623	44764.57
630.978	44603.67
631.332	44706.49
631.687	44977.9
632.041	44739.71
632.396	44861.52
632.75	44746.27
633.104	44962.53
633.459	44526.16
633.813	44685.25
634.167	44746.04
634.521	44682.77
634.875	44760.28
635.229	44792.82
635.583	44527.29
635.937	44649.55
636.291	44673.95
636.645	44639.15
636.999	44554.18
637.352	44881.63
637.706	44671.01
638.06	44779.03
638.413	44590.34
638.767	44361.64
639.121	44647.29
639.474	44408.87
639.828	44676.44
640.181	44562.09
640.534	44606.61
640.888	44378.59
641.241	44248.43
641.594	44382.21
641.947	44431.02
642.301	44356.22
642.654	44373.62
643.007	44386.95
643.36	44413.39
643.713	44322.55
644.066	44458.14
644.419	44245.04
644.771	44026.96
645.124	43678.27
645.477	43589.24
645.83	43315.8
646.182	43185.63
646.535	43125.97
646.888	43095.24
647.24	43004.39
647.593	43210.04
647.945	43013.88
648.298	42912.64
648.65	42967.56
649.002	42761.91
649.355	42847.11
649.707	42929.59
650.059	43105.18
650.411	43490.93
650.763	43521.89
651.115	43923.69
651.467	43831.71
651.819	43752.39
652.171	43707.2
652.523	43591.72
652.875	43643.92
653.227	43373.87
653.578	43777.7
653.93	43746.75
654.282	43555.11
654.633	43490.03
654.985	43559.63
655.337	43617.94
655.688	43525.28
656.039	43703.81
656.391	43390.82
656.742	43561.21
657.094	43506.3
657.445	43612.96
657.796	43539.07
658.147	43422.01
658.498	43485.28
658.849	43591.27
659.2	43404.16
659.551	43335.46
659.902	43424.95
660.253	43288
660.604	43397.83
660.955	43175.69
661.306	43408
661.656	43347.43
662.007	43343.14
662.358	43298.62
662.708	43383.82
663.059	43317.38
663.409	43142.47
663.76	43341.78
664.11	43318.06
664.461	43318.06
664.811	43306.98
665.161	43290.03
665.511	43098.17
665.862	43159.87
666.212	43352.86
666.562	43315.8
666.912	43212.3
667.262	43258.85
667.612	43123.03
667.962	43147.44
668.312	43158.29
668.662	43404.83
669.011	43263.82
669.361	43222.69
669.711	43088.01
670.06	43095.46
670.41	43054.56
670.76	42874.9
671.109	43041.45
671.459	43102.69
671.808	42965.52
672.157	42842.59
672.507	42799.88
672.856	42814.34
673.205	42831.74
673.554	42874.23
673.904	42774.12
674.253	43088.01
674.602	43001.91
674.951	42229.5
675.3	42041.71
675.649	42843.94
675.998	42728.69
676.346	42792.87
676.695	42786.54
677.044	42550.62
677.393	42643.95
677.741	42685.76
678.09	42634.46
678.438	42595.36
678.787	42503.61
679.135	42614.35
679.484	42246.9
679.832	42538.64
680.181	42141.82
680.529	42387.46
680.877	42330.74
681.225	42184.53
681.573	42474.01
681.922	42157.63
682.27	42019.56
682.618	42054.59
682.966	41961.03
683.314	41965.78
683.661	41941.82
684.009	41749.06
684.357	41657.31
684.705	41717.87
685.053	41819.79
685.4	41577.31
685.748	41512.45
686.095	41582.06
686.443	41381.61
686.79	41156.3
687.138	41361.27
687.485	41290.99
687.832	41185.23
688.18	41185.91
688.527	40959.93
688.874	40923.09
689.221	40911.34
689.568	40794.05
689.915	40636.77
690.262	40616.43
690.609	40573.95
690.956	40397.68
691.303	40482.42
691.65	40255.31
691.997	40262.32
692.344	39957.24
692.69	40086.5
693.037	40007.18
693.383	39535.56
693.73	39750.47
694.077	39519.96
694.423	39553.86
694.769	39485.39
695.116	39283.36
695.462	39384.83
695.808	39251.95
696.155	39241.33
696.501	39062.12
696.847	38958.85
697.193	38750.72
697.539	38872.07
697.885	38489.26
698.231	38476.38
698.577	38511.63
698.923	38431.86
699.269	38246.78
699.614	38152.09
699.96	38038.87
700.306	38061.7
700.651	37932.43
700.997	37773.12
701.342	37810.4
701.688	37713.46
702.033	37528.38
702.379	37575.83
702.724	37452.9
703.069	37507.36
703.415	37133.81
703.76	37039.12
704.105	37086.58
704.45	36987.83
704.795	36843.65
705.14	36736.53
705.485	36700.6
705.83	36530.21
706.175	36752.35
706.52	36498.57
706.865	36393.72
707.209	36353.27
707.554	36036.44
707.899	36135.87
708.243	36034.86
708.588	35901.98
708.932	35782.21
709.277	35743.57
709.621	35779.72
709.966	35710.8
710.31	35723.68
710.654	35305.16
710.998	35465.83
711.342	35354.88
711.687	35210.47
712.031	35041.89
712.375	34935.45
712.719	35082.79
713.063	35055.67
713.407	35150.14
713.75	34955.56
714.094	34865.17
714.438	34706.08
714.782	34813.65
715.125	34629.92
715.469	34692.29
715.812	34445.52
716.156	34372.75
716.499	34272.42
716.843	34405.3
717.186	34229.93
717.53	34322.81
717.873	34376.14
718.216	34159.2
718.559	33888.93
718.902	33780.91
719.246	33858.87
719.589	33591.08
719.932	33558.99
720.275	33563.28
720.617	33614.81
720.96	33525.09
721.303	33619.78
721.646	33462.95
721.989	33300.69
722.331	33376.85
722.674	33302.05
723.016	33316.51
723.359	33202.16
723.701	33347.92
724.044	33069.06
724.386	32860.25
724.729	32992.68
725.071	33004.65
725.413	32875.84
725.755	32883.53
726.097	32755.4
726.439	32625.23
726.782	32602.41
727.124	32755.85
727.465	32604.89
727.807	32532.58
728.149	32558.56
728.491	32456.19
728.833	32390.66
729.175	32282.64
729.516	32316.76
729.858	32112.47
730.199	32317.44
730.541	32130.78
730.882	32000.39
731.224	32173.49
731.565	32016.66
731.906	31963.78
732.248	31972.14
732.589	31825.48
732.93	31728.76
733.271	31724.24
733.612	31822.76
733.953	31831.8
734.294	31588.42
734.635	31583.45
734.976	31733.05
735.317	31496.45
735.658	31445.37
735.999	31360.63
736.339	31361.53
736.68	31480.18
737.021	31430.91
737.361	31105.95
737.702	31269.79
738.042	31265.04
738.383	31291.03
738.723	31121.31
739.063	30919.74
739.404	31122.44
739.744	30906.63
740.084	30879.29
740.424	30953.41
740.764	30820.76
741.104	31035.22
741.444	30749.57
741.784	30686.52
742.124	30845.62
742.464	30664.38
742.804	30635
743.143	30553.65
743.483	30548
743.823	30314.1
744.162	30376.7
744.502	30595.68
744.841	30286.08
745.181	30506.19
745.52	30153.88
745.86	30305.52
746.199	30172.19
746.538	30169.7
746.877	30181.9
747.216	30235.24
747.556	29946.2
747.895	30117.27
748.234	29828.47
748.573	29929.71
748.911	29899.88
749.25	29809.03
749.589	29703.05
749.928	29793.44
750.267	29750.28
750.605	29580.34
750.944	29539.89
751.283	29585.31
751.621	29543.5
751.96	29524.07
752.298	29332.66
752.636	29374.92
752.975	29239.78
753.313	29122.05
753.651	29261.7
753.989	29083.18
754.327	29126.34
754.666	28866.91
755.004	29044.53
755.342	28922.73
755.679	28914.14
756.017	28783.3
756.355	28821.94
756.693	28658.78
757.031	28767.93
757.368	28645.9
757.706	28580.59
758.044	28388.28
758.381	28419.24
758.719	28278.68
759.056	28302.86
759.394	28233.03
759.731	28020.61
760.068	28038.68
760.405	27933.38
760.743	27892.25
761.08	27850.89
761.417	27807.96
761.754	27743.78
762.091	27670.56
762.428	27553.05
762.765	27361.41
763.102	27519.15
763.438	27327.29
763.775	27296.56
764.112	27157.35
764.449	27195.77
764.785	27143.11
765.122	26883.46
765.458	26773.18
765.795	26817.7
766.131	26732.05
766.467	26636.23
766.804	26518.72
767.14	26565.73
767.476	26334.55
767.812	26205.96
768.148	26224.04
768.485	26081
768.821	26022.24
769.157	25944.05
769.492	25907.21
769.828	25749.48
770.164	25535.25
770.5	25579.99
770.836	25670.16
771.171	25367.79
771.507	25421.13
771.842	25151.53
772.178	25075.82
772.513	25020.91
772.849	25069.72
773.184	25020.01
773.519	24921.03
773.855	24833.34
774.19	24793.35
774.525	24655.27
774.86	24570.98
775.195	24582.96
775.53	24282.85
775.865	24295.51
776.2	24205.34
776.535	24097.77
776.87	23981.62
777.205	23869.08
777.539	23764.67
777.874	23884.67
778.209	23581.17
778.543	23582.08
778.878	23469.99
779.212	23554.51
779.547	23312.03
779.881	23397.68
780.215	23123.56
780.55	23190.68
780.884	22940.06
781.218	22988.42
781.552	22925.37
781.886	22776.45
782.22	22737.35
782.554	22615.32
782.888	22314.99
783.222	22454.42
783.556	22249.23
783.889	22280.87
784.223	22136.69
784.557	22040.2
784.89	22095.79
785.224	21945.51
785.557	21816.02
785.891	21735.12
786.224	21804.5
786.558	21620.77
786.891	21516.14
787.224	21528.57
787.557	21334
787.891	21284.28
788.224	21263.49
788.557	21328.8
788.89	21149.37
789.223	21172.88
789.556	20948.93
789.888	20842.04
790.221	20870.96
790.554	20708.71
790.887	20750.74
791.219	20603.17
791.552	20546.9
791.884	20487.02
792.217	20384.42
792.549	20332.67
792.882	20248.61
793.214	20103.53
793.546	20035.28
793.879	19946.69
794.211	19885
794.543	19922.51
794.875	19841.16
795.207	19895.17
795.539	19784.21
795.871	19716.42
796.203	19583.99
796.535	19529.75
796.867	19489.53
797.198	19372.24
797.53	19395.75
797.862	19340.83
798.193	19214.06
798.525	19210.67
798.856	19233.94
799.188	19010.45
799.519	18870.11
799.85	18856.55
800.182	18911.01
800.513	18777.23
800.844	18676.67
801.175	18742.66
801.506	18742.88
801.837	18491.59
802.168	18552.61
802.499	18470.35
802.83	18427.18
803.161	18367.07
803.491	18321.2
803.822	18369.79
804.153	18209.79
804.483	18087.08
804.814	18038.27
805.145	18057.93
805.475	18014.99
805.805	17893.19
806.136	17863.36
806.466	17832.62
806.796	17857.03
807.126	17646.19
807.457	17656.13
807.787	17721.89
808.117	17528.68
808.447	17513.54
808.777	17503.82
809.107	17508.57
809.436	17333.2
809.766	17396.25
810.096	17255.01
810.426	17228.35
810.755	17270.15
811.085	17123.72
811.414	17195.13
811.744	17012.98
812.073	16997.84
812.403	16986.77
812.732	16803.5
813.061	16890.95
813.39	16822.93
813.719	16730.28
814.049	16801.47
814.378	16732.54
814.707	16588.36
815.036	16564.64
815.365	16538.42
815.693	16438.31
816.022	16426.11
816.351	16380.91
816.68	16273.57
817.008	16304.75
817.337	16184.98
817.665	16082.84
817.994	16275.83
818.322	16222.72
818.651	16164.87
818.979	16069.73
819.307	16200.12
819.636	16096.4
819.964	16018.89
820.292	15942.96
820.62	15970.53
820.948	15996.06
821.276	15901.15
821.604	15900.7
821.932	15920.13
822.259	15914.71
822.587	15812.79
822.915	15844.65
823.243	15993.58
823.57	15734.15
823.898	15832.22
824.225	15773.02
824.553	15812.34
824.88	15825.67
825.207	15779.12
825.535	15694.38
825.862	15833.13
826.189	15710.42
826.516	15846.01
826.843	15788.84
827.17	15772.57
827.497	15914.26
827.824	15794.71
828.151	15834.94
828.478	15828.16
828.805	15893.69
829.131	15689.18
829.458	15817.99
829.785	15692.57
830.111	15798.1
830.438	15928.04
830.764	15794.49
831.09	15732.79
831.417	15630.42
831.743	15800.36
832.069	15636.07
832.395	15641.04
832.722	15628.16
833.048	15621.16
833.374	15718.1
833.7	15595.4
834.026	15602.85
834.351	15611.67
834.677	15650.76
835.003	15628.16
835.329	15547.71
835.654	15549.75
835.98	15440.14
836.306	15553.81
836.631	15446.7
836.956	15474.49
837.282	15522.85
837.607	15406.93
837.932	15302.97
838.258	15376.64
838.583	15332.8
838.908	15237.66
839.233	15253.48
839.558	15179.59
839.883	15210.55
840.208	15101.17
840.533	15147.05
840.858	15126.25
841.182	15187.72
841.507	15132.58
841.832	15000.16
842.156	15008.07
842.481	14982.98
842.805	15007.84
843.13	14922.19
843.454	14848.75
843.778	14907.28
844.103	14735.08
844.427	14680.16
844.751	14773.04
845.075	14694.63
845.399	14701.41
845.723	14615.76
846.047	14561.75
846.371	14528.76
846.695	14398.36
847.019	14376.22
847.343	14263.23
847.666	14238.37
847.99	14199.73
848.313	14131.03
848.637	14053.97
848.96	14042.67
849.284	13993.18
849.607	13892.16
849.931	13877.7
850.254	13818.94
850.577	13684.71
850.9	13668.67
851.223	13633.64
851.546	13530.14
851.869	13437.03
852.192	13570.14
852.515	13448.33
852.838	13371.5
853.161	13371.05
853.483	13280.65
853.806	13251.73
854.129	13176.93
854.451	13120.88
854.774	13069.13
855.096	13050.83
855.419	12997.95
855.741	13003.6
856.063	12980.77
856.385	12934.9
856.708	12884.28
857.03	12756.37
857.352	12884.96
857.674	12724.28
857.996	12715.92
858.318	12640.67
858.64	12637.96
858.961	12578.07
859.283	12572.65
859.605	12472.54
859.926	12534.91
860.248	12514.35
860.57	12458.98
860.891	12472.99
861.212	12333.56
861.534	12320.9
861.855	12276.39
862.176	12309.38
862.498	12233.45
862.819	12270.51
863.14	12195.48
863.461	12130.63
863.782	12082.49
864.103	12140.57
864.424	12129.27
864.745	12151.19
865.065	12045.66
865.386	12054.7
865.707	11990.29
866.027	11969.05
866.348	11948.03
866.668	11973.12
866.989	11918.66
867.309	11822.16
867.63	11895.83
867.95	11848.37
868.27	11770.18
868.59	11805.66
868.91	11756.17
869.23	11743.74
869.55	11707.14
869.87	11722.73
870.19	11723.18
870.51	11679.57
870.83	11734.93
871.15	11640.7
871.469	11672.56
871.789	11714.14
872.109	11665.78
872.428	11601.15
872.748	11494.03
873.067	11448.16
873.386	11556.86
873.706	11478.22
874.025	11439.57
874.344	11412.45
874.663	11468.72
874.982	11368.16
875.301	11416.75
875.62	11400.7
875.939	11393.7
876.258	11333.36
876.577	11279.35
876.896	11328.61
877.214	11269.63
877.533	11317.77
877.852	11236.87
878.17	11227.6
878.489	11199.13
878.807	11132.01
879.125	11233.02
879.444	11138.34
879.762	11167.26
880.08	11147.6
880.398	11084.55
880.716	11103.99
881.034	11057.44
881.352	11085.68
881.67	10924.56
881.988	10978.34
882.306	11002.97
882.624	10999.36
882.941	10903.99
883.259	10878.68
883.577	10765.69
883.894	10812.02
884.212	10860.83
884.529	10835.52
884.846	10764.11
885.164	10772.25
885.481	10724.11
885.798	10718.91
886.115	10630.78
886.432	10558.69
886.75	10616.77
887.067	10592.81
887.383	10567.96
887.7	10579.26
888.017	10515.3
888.334	10504
888.651	10494.74
888.967	10438.69
889.284	10384.01
889.6	10321.41
889.917	10388.75
890.233	10290
890.55	10273.73
890.866	10328.64
891.182	10214.29
891.498	10144.69
891.815	10213.16
892.131	10163.45
892.447	10087.29
892.763	10030.57
893.079	10057.69
893.395	10035.99
893.71	9978.59
894.026	9939.27
894.342	9913.74
894.657	9850.24
894.973	9886.62
895.289	9846.85
895.604	9853.4
895.92	9770.92
896.235	9665.61
896.55	9752.84
896.865	9663.35
897.181	9596.68
897.496	9620.86
897.811	9551.49
898.126	9513.3
898.441	9407.99
898.756	9478.49
899.071	9377.71
899.386	9432.62
899.7	9360.76
900.015	9328.22
900.33	9269.69
900.644	9244.15
900.959	9255.9
901.273	9210.48
901.588	9142.46
901.902	9128.22
902.216	9141.1
902.531	9051.61
902.845	9057.04
903.159	9003.7
903.473	8932.52
903.787	8900.66
904.101	8880.09
904.415	8917.83
904.729	8806.87
905.042	8799.64
905.356	8775.46
905.67	8755.35
905.984	8768.23
906.297	8720.55
906.611	8618.86
906.924	8648.23
907.237	8611.17
907.551	8590.61
907.864	8535.02
908.177	8525.07
908.491	8464.51
908.804	8379.31
909.117	8451.18
909.43	8356.49
909.743	8311.07
910.056	8315.36
910.368	8316.49
910.681	8227.68
910.994	8195.36
911.307	8158.75
911.619	8084.18
911.932	8144.52
912.244	8057.29
912.557	8002.6
912.869	7946.78
913.181	8031.3
913.494	7975.48
913.806	7862.72
914.118	7863.85
914.43	7833.34
914.742	7788.14
915.054	7814.36
915.366	7717.41
915.678	7696.39
915.99	7657.07
916.302	7590.86
916.613	7621.59
916.925	7616.4
917.236	7557.64
917.548	7516.96
917.859	7484.42
918.171	7466.12
918.482	7398.55
918.794	7377.76
919.105	7381.83
919.416	7304.09
919.727	7324.43
920.038	7272.9
920.349	7223.86
920.66	7215.28
920.971	7199.23
921.282	7148.16
921.593	7058.9
921.903	7111.55
922.214	7060.93
922.525	7010.54
922.835	7017.77
923.146	6945.45
923.456	6893.7
923.767	6845.57
924.077	6876.08
924.387	6825.91
924.697	6750.66
925.008	6840.37
925.318	6752.01
925.628	6688.74
925.938	6769.86
926.248	6630.88
926.558	6627.72
926.867	6601.96
927.177	6642.41
927.487	6557.89
927.796	6524.67
928.106	6474.73
928.416	6444.68
928.725	6431.57
929.034	6375.07
929.344	6383.21
929.653	6359.03
929.962	6291.68
930.271	6309.31
930.581	6230.9
930.89	6224.34
931.199	6189.77
931.508	6178.47
931.817	6201.52
932.125	6189.99
932.434	6156.32
932.743	6122.42
933.051	6054.18
933.36	6074.52
933.669	6043.1
933.977	5944.12
934.286	5950
934.594	5961.52
934.902	5853.5
935.21	5836.56
935.519	5891.47
935.827	5800.85
936.135	5754.07
936.443	5782.32
936.751	5735.77
937.059	5740.74
937.367	5686.5
937.674	5716.56
937.982	5672.94
938.29	5617.13
938.597	5621.42
938.905	5547.3
939.213	5528.54
939.52	5533.51
939.827	5516.56
940.135	5477.92
940.442	5467.75
940.749	5462.78
941.056	5476.34
941.363	5391.82
941.67	5334.42
941.977	5285.84
942.284	5274.99
942.591	5302.78
942.898	5313.63
943.205	5281.09
943.511	5180.53
943.818	5188.89
944.125	5177.36
944.431	5130.13
944.738	5129.91
945.044	5138.72
945.35	5062.34
945.657	5021.89
945.963	5025.96
946.269	5044.71
946.575	5025.5
946.881	4983.92
947.187	4975.56
947.493	4939.18
947.799	4915
948.105	4869.12
948.41	4853.76
948.716	4855.79
949.022	4847.66
949.327	4831.16
949.633	4770.37
949.938	4829.12
950.244	4794.32
950.549	4699.18
950.854	4700.31
951.16	4675.46
951.465	4663.71
951.77	4673.2
952.075	4620.99
952.38	4628.68
952.685	4588.23
952.99	4523.37
953.294	4565.85
953.599	4527.44
953.904	4494.44
954.209	4458.74
954.513	4434.11
954.818	4421.45
955.122	4469.59
955.426	4407.21
955.731	4395.69
956.035	4364.73
956.339	4374.67
956.643	4356.59
956.948	4303.94
957.252	4304.84
957.556	4300.55
957.86	4235.02
958.163	4218.52
958.467	4219.2
958.771	4174.23
959.075	4147.11
959.378	4178.07
959.682	4163.61
959.985	4174.9
960.289	4123.61
960.592	4128.35
960.896	4108.92
961.199	4065.75
961.502	4077.51
961.805	4023.95
962.108	3994.8
962.411	3965.64
962.714	3979.2
963.017	3948.02
963.32	3967.23
963.623	3945.08
963.926	3909.37
964.228	3913.22
964.531	3863.27
964.833	3846.33
965.136	3805.65
965.438	3836.61
965.741	3830.05
966.043	3801.58
966.345	3793.67
966.648	3752.09
966.95	3701.92
967.252	3731.07
967.554	3714.8
967.856	3680.45
968.158	3654.92
968.46	3648.36
968.761	3617.63
969.063	3630.06
969.365	3637.97
969.666	3595.26
969.968	3562.27
970.269	3519.78
970.571	3525.66
970.872	3547.35
971.174	3484.3
971.475	3480.46
971.776	3480.69
972.077	3504.64
972.378	3465.32
972.679	3409.73
972.98	3451.31
973.281	3439.78
973.582	3414.47
973.883	3371.54
974.183	3338.54
974.484	3362.04
974.785	3347.13
975.085	3347.36
975.386	3331.08
975.686	3279.56
975.986	3281.82
976.287	3315.49
976.587	3228.04
976.887	3236.4
977.187	3237.98
977.487	3222.16
977.787	3217.87
978.087	3163.41
978.387	3156.4
978.687	3174.25
978.987	3146
979.286	3113.24
979.586	3126.34
979.885	3112.11
980.185	3098.55
980.484	3040.7
980.784	3048.61
981.083	3026.91
981.382	3046.35
981.682	3003.64
981.981	3008.16
982.28	2944.88
982.579	2989.4
982.878	2964.31
983.177	2981.26
983.475	2936.29
983.774	2889.29
984.073	2927.03
984.372	2898.1
984.67	2870.08
984.969	2877.99
985.267	2859.91
985.566	2870.76
985.864	2795.73
986.162	2821.27
986.461	2802.29
986.759	2797.09
987.057	2752.79
987.355	2764.55
987.653	2729.29
987.951	2738.33
988.249	2734.26
988.547	2689.97
988.844	2695.4
989.142	2714.38
989.44	2666.24
989.737	2660.14
990.035	2636.64
990.332	2629.63
990.63	2628.28
990.927	2627.15
991.224	2608.17
991.521	2579.24
991.819	2570.65
992.116	2557.55
992.413	2561.39
992.71	2506.93
993.006	2526.81
993.303	2527.94
993.6	2500.15
993.897	2499.69
994.193	2508.06
994.49	2466.47
994.787	2420.83
995.083	2426.7
995.379	2434.84
995.676	2446.59
995.972	2397.55
996.268	2400.49
996.565	2390.09
996.861	2391
997.157	2366.82
997.453	2329.98
997.749	2353.26
998.044	2291.79
998.34	2352.58
998.636	2292.02
998.932	2269.64
999.227	2297.44
999.523	2299.7
999.818	2261.28
1000.114	2260.38
1000.409	2245.92
1000.704	2238.23
1001	2219.02
1001.295	2172.47
1001.59	2202.53
1001.885	2176.76
1002.18	2135.64
1002.475	2164.79
1002.77	2156.43
1003.065	2141.96
1003.359	2099.7
1003.654	2127.27
1003.949	2116.65
1004.243	2081.63
1004.538	2071.46
1004.832	2052.93
1005.127	2084.34
1005.421	2054.28
1005.715	2053.38
1006.009	2009.54
1006.304	2000.27
1006.598	1965.7
1006.892	1974.28
1007.186	2008.18
1007.48	1967.73
1007.773	1922.53
1008.067	1934.96
1008.361	1913.04
1008.655	1932.93
1008.948	1901.29
1009.242	1905.13
1009.535	1875.3
1009.829	1859.03
1010.122	1857
1010.415	1879.37
1010.708	1837.79
1011.001	1849.77
1011.295	1823.33
1011.588	1849.09
1011.881	1789.88
1012.173	1779.94
1012.466	1793.72
1012.759	1774.29
1013.052	1755.53
1013.344	1724.35
1013.637	1744.91
1013.93	1753.95
1014.222	1738.13
1014.514	1695.42
1014.807	1711.24
1015.099	1690.45
1015.391	1664.01
1015.683	1650.9
1015.976	1631.47
1016.268	1640.06
1016.56	1645.03
1016.851	1627.17
1017.143	1640.73
1017.435	1595.09
1017.727	1599.15
1018.018	1557.57
1018.31	1603.45
1018.602	1601.41
1018.893	1580.4
1019.185	1544.24
1019.476	1529.1
1019.767	1547.85
1020.058	1531.81
1020.35	1533.84
1020.641	1492.26
1020.932	1495.88
1021.223	1503.11
1021.514	1433.96
1021.804	1471.02
1022.095	1421.3
1022.386	1461.53
1022.677	1412.49
1022.967	1446.84
1023.258	1435.32
1023.548	1380.63
1023.839	1391.47
1024.129	1397.12
1024.419	1367.75
1024.709	1342.21
1025	1360.97
1025.29	1334.98
1025.58	1345.15
1025.87	1328.88
1026.16	1309.89
1026.449	1320.52
1026.739	1274.87
1027.029	1290.46
1027.319	1298.37
1027.608	1257.47
1027.898	1304.92
1028.187	1269.67
1028.477	1259.27
1028.766	1273.74
1029.055	1245.94
1029.344	1254.53
1029.634	1243.91
1029.923	1233.29
1030.212	1196.68
1030.501	1211.59
1030.79	1185.38
1031.078	1191.48
1031.367	1171.59
1031.656	1162.78
1031.945	1168.2
1032.233	1142.22
1032.522	1158.71
1032.81	1171.37
1033.099	1142.44
1033.387	1138.6
1033.675	1118.71
1033.963	1090.92
1034.251	1124.14
1034.54	1094.99
1034.828	1119.62
1035.116	1092.05
1035.403	1088.21
1035.691	1057.02
1035.979	1059.05
1036.267	1027.42
1036.554	1014.31
1036.842	1045.27
1037.129	1041.43
1037.417	1035.78
1037.704	999.62
1037.992	1009.34
1038.279	999.62
1038.566	998.49
1038.853	998.49
1039.14	998.49
