Data from hue_20_FLMS001491_31.txt Node
Date: Mon Feb 06 15:33:58 GMT 2017
User: dcchb
Spectrometer: FLMS00149
Trigger mode: 0
Integration Time (sec): 2.000000E-2
Scans to average: 10
Electric dark correction enabled: true
Nonlinearity correction enabled: false
Boxcar width: 0
XAxis mode: Wavelengths
Number of Pixels in Spectrum: 2048
>>>>>Begin Spectral Data<<<<<
341.393	2.3
341.776	2.3
342.16	2.3
342.543	-70.69
342.927	-58.94
343.31	-50.13
343.693	-63.01
344.077	-81.99
344.46	-50.8
344.843	-52.61
345.226	-52.84
345.61	-24.82
345.993	-34.76
346.376	-17.81
346.759	19.02
347.142	5.24
347.525	30.32
347.908	61.96
348.291	77.1
348.674	96.31
349.057	138.8
349.44	117.1
349.823	134.05
350.206	161.39
350.588	190.77
350.971	215.86
351.354	217.66
351.737	237.55
352.119	239.13
352.502	259.02
352.884	263.76
353.267	274.84
353.65	280.94
354.032	287.27
354.414	301.73
354.797	303.54
355.179	329.07
355.562	317.55
355.944	335.63
356.326	339.02
356.709	316.42
357.091	320.94
357.473	325.91
357.855	359.58
358.238	347.38
358.62	330.43
359.002	334.5
359.384	321.84
359.766	356.87
360.148	349.19
360.53	347.38
360.912	335.63
361.294	309.19
361.676	339.92
362.057	323.88
362.439	315.06
362.821	329.75
363.203	327.27
363.584	327.94
363.966	339.02
364.348	316.42
364.729	320.94
365.111	323.88
365.493	321.16
365.874	322.75
366.256	314.38
366.637	292.24
367.019	305.12
367.4	312.12
367.781	297.21
368.163	306.25
368.544	305.35
368.925	323.88
369.306	323.65
369.688	308.51
370.069	311.67
370.45	326.81
370.831	311.9
371.212	305.35
371.593	308.06
371.974	318.45
372.355	314.38
372.736	293.82
373.117	322.07
373.498	326.14
373.879	332.46
374.26	322.75
374.641	313.71
375.021	303.76
375.402	320.03
375.783	332.24
376.163	313.25
376.544	292.24
376.925	315.97
377.305	334.95
377.686	308.51
378.066	320.49
378.447	350.77
378.827	319.13
379.208	300.83
379.588	331.33
379.968	313.03
380.349	341.05
380.729	323.2
381.109	311.22
381.489	325.46
381.87	347.15
382.25	315.74
382.63	342.41
383.01	318.45
383.39	333.37
383.77	330.43
384.15	332.24
384.53	330.43
384.91	351.9
385.29	341.73
385.67	340.82
386.049	348.06
386.429	343.08
386.809	337.21
387.189	352.8
387.568	351.45
387.948	352.12
388.328	335.63
388.707	345.34
389.087	348.96
389.466	352.58
389.846	379.92
390.225	352.58
390.605	352.58
390.984	336.08
391.363	357.77
391.743	377.43
392.122	348.28
392.501	378.11
392.881	359.58
393.26	360.94
393.639	367.49
394.018	352.12
394.397	371.78
394.776	361.61
395.155	365.68
395.534	363.65
395.913	383.08
396.292	372.46
396.671	380.6
397.05	356.42
397.429	398.22
397.808	368.17
398.186	373.14
398.565	368.39
398.944	390.99
399.323	370.2
399.701	374.04
400.08	400.03
400.458	358.9
400.837	399.58
401.215	385.34
401.594	388.73
401.972	386.7
402.351	377.66
402.729	388.28
403.107	379.69
403.486	392.35
403.864	392.35
404.242	377.66
404.62	396.42
404.999	402.97
405.377	424.44
405.755	409.98
406.133	419.24
406.511	404.1
406.889	398.68
407.267	418.34
407.645	415.62
408.023	418.34
408.401	402.29
408.779	419.01
409.156	433.25
409.534	424.21
409.912	425.34
410.29	450.43
410.667	438.9
411.045	438
411.422	427.83
411.8	431.44
412.178	431.67
412.555	398
412.933	416.3
413.31	443.19
413.687	438.22
414.065	444.32
414.442	422.63
414.819	457.88
415.197	438.9
415.574	456.98
415.951	447.71
416.328	451.33
416.705	480.71
417.082	455.4
417.46	439.35
417.837	443.19
418.214	476.41
418.591	470.99
418.967	463.53
419.344	473.25
419.721	466.92
420.098	460.37
420.475	467.83
420.852	467.37
421.228	494.27
421.605	504.21
421.982	495.4
422.358	478.22
422.735	477.54
423.111	499.69
423.488	495.4
423.864	489.97
424.241	510.09
424.617	516.86
424.994	492.91
425.37	514.38
425.746	518.22
426.123	498.56
426.499	512.8
426.875	526.58
427.251	518.45
427.627	534.72
428.003	544.66
428.379	546.47
428.756	558.67
429.132	558.22
429.507	550.99
429.883	546.24
430.259	568.16
430.635	555.73
431.011	528.39
431.387	558.9
431.763	559.12
432.138	543.98
432.514	597.54
432.89	579.69
433.265	583.76
433.641	576.52
434.016	601.61
434.392	618.56
434.767	629.86
435.143	601.83
435.518	607.03
435.894	598.67
436.269	605.22
436.644	616.52
437.02	641.83
437.395	628.27
437.77	615.17
438.145	625.79
438.52	638.22
438.895	661.04
439.271	652.45
439.646	632.57
440.021	670.99
440.395	643.87
440.77	657.88
441.145	647.93
441.52	679.35
441.895	674.15
442.27	668.73
442.645	658.56
443.019	674.37
443.394	717.54
443.769	689.52
444.143	696.97
444.518	712.57
444.892	701.04
445.267	713.02
445.641	714.6
446.016	698.33
446.39	713.92
446.764	719.12
447.139	725.22
447.513	706.46
447.887	734.71
448.262	754.37
448.636	720.48
449.01	732.68
449.384	754.82
449.758	764.09
450.132	739.91
450.506	742.62
450.88	748.5
451.254	791.66
451.628	773.81
452.002	749.18
452.376	778.33
452.75	803.64
453.123	791.21
453.497	802.96
453.871	799.34
454.244	837.53
454.618	822.62
454.992	818.55
455.365	830.53
455.739	832.79
456.112	847.7
456.486	836.4
456.859	819.91
457.232	889.74
457.606	859.68
457.979	863.97
458.352	884.99
458.725	900.36
459.099	909.17
459.472	919.57
459.845	915.27
460.218	906.91
460.591	912.33
460.964	948.27
461.337	918.89
461.71	959.34
462.083	976.06
462.456	962.5
462.829	979.68
463.201	1003.18
463.574	998.66
463.947	1028.49
464.32	1023.07
464.692	1054.48
465.065	1056.06
465.438	1050.41
465.81	1068.26
466.183	1074.59
466.555	1102.61
466.928	1098.77
467.3	1099.67
467.672	1106.23
468.045	1140.8
468.417	1128.6
468.789	1142.16
469.161	1156.17
469.534	1200.24
469.906	1204.53
470.278	1209.73
470.65	1230.97
471.022	1245.21
471.394	1274.59
471.766	1280.91
472.138	1287.24
472.51	1299.44
472.882	1344.87
473.253	1323.85
473.625	1373.79
473.997	1366.11
474.369	1367.69
474.74	1434.81
475.112	1438.87
475.484	1490.85
475.855	1515.03
476.227	1535.82
476.598	1540.34
476.97	1584.86
477.341	1603.62
477.713	1612.88
478.084	1640.23
478.455	1690.62
478.827	1727.91
479.198	1749.6
479.569	1782.37
479.94	1785.53
480.311	1811.97
480.682	1831.86
481.053	1903.5
481.424	1920.9
481.795	1964.51
482.166	1984.17
482.537	2023.49
482.908	2074.11
483.279	2055.13
483.65	2128.12
484.021	2176.48
484.391	2190.95
484.762	2264.16
485.133	2250.6
485.503	2305.52
485.874	2358.17
486.244	2360.88
486.615	2398.4
486.985	2431.39
487.356	2507.55
487.726	2512.52
488.097	2563.36
488.467	2604.72
488.837	2637.94
489.207	2665.28
489.578	2700.99
489.948	2745.96
490.318	2771.27
490.688	2820.76
491.058	2856.69
491.428	2874.54
491.798	2934.88
492.168	2991.83
492.538	3001.32
492.908	3026.4
493.278	3062.11
493.648	3088.55
494.017	3130.36
494.387	3131.71
494.757	3186.63
495.126	3271.37
495.496	3248.09
495.866	3271.14
496.235	3340.52
496.605	3371.25
496.974	3389.56
497.344	3394.98
497.713	3446.73
498.082	3432.27
498.452	3498.48
498.821	3516.33
499.19	3496
499.559	3543.68
499.928	3569.44
500.298	3632.94
500.667	3633.62
501.036	3627.74
501.405	3687.86
501.774	3680.4
502.143	3690.34
502.512	3771.24
502.88	3817.8
503.249	3734.63
503.618	3799.94
503.987	3818.7
504.356	3842.65
504.724	3831.13
505.093	3848.98
505.462	3870.9
505.83	3904.57
506.199	3907.51
506.567	4008.52
506.936	3977.79
507.304	4036.55
507.672	4047.85
508.041	4045.36
508.409	4075.87
508.777	4051.01
509.145	4131.01
509.514	4135.75
509.882	4169.65
510.25	4173.72
510.618	4215.75
510.986	4168.07
511.354	4225.02
511.722	4222.53
512.09	4276.09
512.458	4247.61
512.826	4340.72
513.193	4327.61
513.561	4321.96
513.929	4339.14
514.297	4357.67
514.664	4369.42
515.032	4431.56
515.4	4427.72
515.767	4469.08
516.135	4480.15
516.502	4399.93
516.869	4559.02
517.237	4541.62
517.604	4508.17
517.972	4533.93
518.339	4549.3
518.706	4604.67
519.073	4539.81
519.44	4592.69
519.808	4643.08
520.175	4659.35
520.542	4709.07
520.909	4700.26
521.276	4679.24
521.643	4769.86
522.009	4768.05
522.376	4735.06
522.743	4774.61
523.11	4793.36
523.477	4850.99
523.843	4825.9
524.21	4946.13
524.577	4950.65
524.943	4941.83
525.31	4960.82
525.676	5044.66
526.043	5041.04
526.409	5018.67
526.776	5070.87
527.142	5114.03
527.508	5155.61
527.874	5210.3
528.241	5130.53
528.607	5193.8
528.973	5231.77
529.339	5241.03
529.705	5306.34
530.071	5356.74
530.437	5343.86
530.803	5381.37
531.169	5397.87
531.535	5452.33
531.901	5396.28
532.267	5455.72
532.632	5477.64
532.998	5490.75
533.364	5546.34
533.73	5512.67
534.095	5505.66
534.461	5595.38
534.826	5642.83
535.192	5691.42
535.557	5677.63
535.923	5707.24
536.288	5697.75
536.653	5755.6
537.019	5690.97
537.384	5756.5
537.749	5815.93
538.114	5794.47
538.479	5833.34
538.845	5887.8
539.21	5837.63
539.575	5861.13
539.94	5883.73
540.305	5943.84
540.67	5900.45
541.034	5986.78
541.399	6036.72
541.764	6015.03
542.129	6091.63
542.494	6122.14
542.858	6134.57
543.223	6154.46
543.587	6205.98
543.952	6190.39
544.316	6196.49
544.681	6174.57
545.045	6266.09
545.41	6255.7
545.774	6271.74
546.138	6276.49
546.503	6306.32
546.867	6338.86
547.231	6391.96
547.595	6394.22
547.959	6443.71
548.324	6431.06
548.688	6450.49
549.052	6515.13
549.416	6503.15
549.779	6488.23
550.143	6538.18
550.507	6562.13
550.871	6610.72
551.235	6599.64
551.599	6627.44
551.962	6610.72
552.326	6671.96
552.689	6730.94
553.053	6703.37
553.417	6718.06
553.78	6817.04
554.143	6806.19
554.507	6841.44
554.87	6808.68
555.234	6863.82
555.597	6835.79
555.96	6876.7
556.323	6933.87
556.686	6923.02
557.05	6958.5
557.413	6925.74
557.776	6966.41
558.139	7044.38
558.502	7060.42
558.865	7073.3
559.228	7068.78
559.59	7150.36
559.953	7147.43
560.316	7155.56
560.679	7200.31
561.041	7225.16
561.404	7218.84
561.767	7298.16
562.129	7314.43
562.492	7375.67
562.854	7323.01
563.217	7326.18
563.579	7386.74
563.941	7417.47
564.304	7449.34
564.666	7440.75
565.028	7504.93
565.39	7541.54
565.753	7556
566.115	7600.29
566.477	7561.88
566.839	7622.21
567.201	7657.24
567.563	7637.81
567.925	7747.64
568.287	7729.1
568.648	7809.78
569.01	7829.89
569.372	7858.82
569.734	7792.61
570.095	7951.25
570.457	7930.23
570.819	8021.53
571.18	8044.12
571.542	7978.82
571.903	8078.02
572.265	8140.62
572.626	8174.52
572.987	8173.61
573.349	8189.21
573.71	8317.56
574.071	8336.55
574.432	8334.29
574.794	8434.4
575.155	8430.56
575.516	8503.77
575.877	8511.68
576.238	8610.89
576.599	8711.45
576.96	8718.46
577.32	8770.89
577.681	8878.45
578.042	8983.99
578.403	9028.51
578.763	9104.21
579.124	9106.92
579.485	9271.89
579.845	9363.86
580.206	9397.99
580.566	9462.39
580.927	9604.54
581.287	9719.79
581.648	9815.6
582.008	9956.16
582.368	10040.91
582.728	10188.02
583.089	10247.91
583.449	10378.98
583.809	10547.56
584.169	10678.18
584.529	10850.15
584.889	11104.61
585.249	11194.32
585.609	11255.57
585.969	11595.44
586.329	11712.28
586.688	11900.07
587.048	12030.46
587.408	12244.01
587.768	12488.53
588.127	12671.8
588.487	12855.98
588.846	13146.14
589.206	13282.86
589.565	13537.99
589.925	13855.5
590.284	14031.54
590.643	14274.92
591.003	14542.71
591.362	14845.3
591.721	15021.79
592.08	15338.4
592.44	15631.5
592.799	15934.31
593.158	16159.17
593.517	16349.44
593.876	16672.15
594.235	16945.13
594.593	17195.07
594.952	17564.55
595.311	17753.47
595.67	18059.68
596.029	18406.34
596.387	18688.82
596.746	19017.85
597.104	19187.79
597.463	19472.52
597.822	19781.9
598.18	20107.31
598.538	20347.3
598.897	20782.55
599.255	20836.78
599.613	21360.16
599.972	21490.32
600.33	21869.07
600.688	22152.68
601.046	22453.24
601.404	22640.13
601.762	23134.58
602.12	23546.09
602.478	23609.82
602.836	23938.17
603.194	23913.76
603.552	24393.98
603.91	24640.98
604.268	25010.23
604.625	25087.74
604.983	25414.97
605.341	25565.47
605.698	25960.72
606.056	26177.21
606.413	26445.67
606.771	26826
607.128	27030.74
607.485	27154.13
607.843	27417.63
608.2	27756.6
608.557	28020.77
608.914	28208.79
609.272	28411.5
609.629	28776.01
609.986	29002.67
610.343	29157.02
610.7	29521.98
611.057	29627.96
611.414	29780.05
611.771	30006.49
612.127	30324.22
612.484	30492.8
612.841	30757.88
613.198	30832
613.554	31002.84
613.911	31286.68
614.267	31471.53
614.624	31670.85
614.98	31815.93
615.337	32151.74
615.693	32195.81
616.05	32419.98
616.406	32614.55
616.762	32734.32
617.118	32799.18
617.475	33015.22
617.831	33224.25
618.187	33491.82
618.543	33463.34
618.899	33810
619.255	33969.54
619.611	34017.68
619.967	34231.23
620.323	34460.61
620.678	34425.58
621.034	34337.44
621.39	34584.22
621.746	34643.2
622.101	35058.56
622.457	34913.02
622.812	35077.09
623.168	35281.83
623.523	35410.41
623.879	35461.48
624.234	35334.25
624.589	35495.38
624.945	35672.78
625.3	35853.79
625.655	35817.86
626.01	35964.07
626.365	36036.38
626.72	36000.45
627.075	36070.05
627.43	36176.49
627.785	36199.77
628.14	36388.92
628.495	36501.46
628.85	36459.65
629.205	36546.65
629.559	36849.47
629.914	36648.8
630.269	36755.91
630.623	36655.8
630.978	36663.94
631.332	36836.81
631.687	37041.1
632.041	36748.91
632.396	37003.36
632.75	36908.68
633.104	36988.67
633.459	36873.42
633.813	36938.51
634.167	36894.89
634.521	36960.88
634.875	37058.73
635.229	36838.85
635.583	36771.05
635.937	36856.7
636.291	36832.52
636.645	37033.19
636.999	36930.6
637.352	37077.94
637.706	36869.36
638.06	36997.49
638.413	37056.92
638.767	36937.6
639.121	37001.56
639.474	36941.22
639.828	36909.81
640.181	37034.77
640.534	37018.28
640.888	36891.05
641.241	36749.58
641.594	36827.1
641.947	37044.72
642.301	36833.65
642.654	37028.67
643.007	36960.88
643.36	36969.01
643.713	36901.67
644.066	37039.07
644.419	36858.28
644.771	36556.14
645.124	36300.1
645.477	36187.79
645.83	36091.75
646.182	35894.92
646.535	35962.03
646.888	35834.13
647.24	35676.39
647.593	36034.58
647.945	35864.18
648.298	35716.84
648.65	35471.88
649.002	35636.62
649.355	35835.94
649.707	35612.67
650.059	35869.83
650.411	36207
650.763	36284.96
651.115	36666.42
651.467	36442.47
651.819	36649.02
652.171	36364.28
652.523	36468.91
652.875	36447.9
653.227	36309.37
653.578	36528.57
653.93	36478.86
654.282	36303.04
654.633	36356.6
654.985	36376.71
655.337	36380.78
655.688	36351.4
656.039	36466.65
656.391	36214.68
656.742	36203.61
657.094	36298.07
657.445	36384.4
657.796	36203.38
658.147	36315.47
658.498	36298.52
658.849	36305.75
659.2	36272.53
659.551	36166.55
659.902	36425.98
660.253	36299.88
660.604	36225.08
660.955	36074.35
661.306	36204.74
661.656	36102.82
662.007	36242.25
662.358	36217.17
662.708	36108.92
663.059	36110.28
663.409	35927.01
663.76	36258.52
664.11	36135.82
664.461	36133.33
664.811	36146.89
665.161	36133.56
665.511	36061.69
665.862	36195.47
666.212	36191.18
666.562	36247.9
666.912	35998.19
667.262	36023.05
667.612	36145.53
667.962	36034.12
668.312	35934.24
668.662	36290.16
669.011	36212.2
669.361	36053.56
669.711	36139.43
670.06	35953.22
670.41	35982.15
670.76	35890.17
671.109	36030.28
671.459	35934.01
671.808	35960.9
672.157	35942.83
672.507	35764.98
672.856	35746
673.205	35944.63
673.554	35985.76
673.904	35788.71
674.253	35923.17
674.602	35808.59
674.951	35408.83
675.3	35181.72
675.649	35899.89
675.998	35662.61
676.346	35866.67
676.695	35977.85
677.044	35708.48
677.393	35691.53
677.741	35625.77
678.09	35538.54
678.438	35519.33
678.787	35583.97
679.135	35616.51
679.484	35277.98
679.832	35477.3
680.181	35298.1
680.529	35387.36
680.877	35452.22
681.225	35191.66
681.573	35485.89
681.922	35228.72
682.27	35288.15
682.618	35240.47
682.966	35129.74
683.314	35154.82
683.661	35027.6
684.009	34950.76
684.357	34786.7
684.705	34765.91
685.053	34901.05
685.4	34777.88
685.748	34560.49
686.095	34532.92
686.443	34470.77
686.79	34395.3
687.138	34576.76
687.485	34529.76
687.832	34399.82
688.18	34410.44
688.527	34214.51
688.874	34209.09
689.221	34160.05
689.568	34049.99
689.915	33998.02
690.262	33936.33
690.609	33881.19
690.956	33912.37
691.303	33688.65
691.65	33655.65
691.997	33579.95
692.344	33468.09
692.69	33381.76
693.037	33330.47
693.383	33118.49
693.73	33144.71
694.077	33007.31
694.423	33059.29
694.769	32962.34
695.116	32847.31
695.462	32896.35
695.808	32712.4
696.155	32853.64
696.501	32673.99
696.847	32588.56
697.193	32274.45
697.539	32489.13
697.885	32317.84
698.231	32067.22
698.577	32132.76
698.923	31963.95
699.269	31823.39
699.614	31742.71
699.96	31598.76
700.306	31714.91
700.651	31544.52
700.997	31479.21
701.342	31462.04
701.688	31360.12
702.033	31325.32
702.379	31180.47
702.724	31193.35
703.069	31286.23
703.415	30762.62
703.76	30917.2
704.105	30931.21
704.45	30944.31
704.795	30670.65
705.14	30617.54
705.485	30543.87
705.83	30387.72
706.175	30481.73
706.52	30340.49
706.865	30229.98
707.209	30256.42
707.554	30113.15
707.899	30258.68
708.243	29914.96
708.588	30047.39
708.932	29781.63
709.277	29775.98
709.621	29824.12
709.966	29683.78
710.31	29667.51
710.654	29478.82
710.998	29486.5
711.342	29501.64
711.687	29395.65
712.031	29269.78
712.375	29164.25
712.719	29162.67
713.063	29183.91
713.407	29115.21
713.75	29018.71
714.094	28985.95
714.438	28947.08
714.782	28917.93
715.125	28757.7
715.469	28863.24
715.812	28690.59
716.156	28644.94
716.499	28615.56
716.843	28498.95
717.186	28328.34
717.53	28547.77
717.873	28547.09
718.216	28411.95
718.559	28304.16
718.902	28051.28
719.246	28218.96
719.589	28004.5
719.932	28113.88
720.275	28034.33
720.617	27891.74
720.96	27899.65
721.303	27892.42
721.646	27853.32
721.989	27775.58
722.331	27861.46
722.674	27714.57
723.016	27695.81
723.359	27599.32
723.701	27702.59
724.044	27437.96
724.386	27448.36
724.729	27425.54
725.071	27334.01
725.413	27329.27
725.755	27273
726.097	27313.67
726.439	27120.69
726.782	27153.68
727.124	27144.64
727.465	27115.49
727.807	27047.69
728.149	27047.69
728.491	26854.48
728.833	27009.5
729.175	26845.44
729.516	26804.99
729.858	26740.36
730.199	26879.34
730.541	26776.51
730.882	26673.69
731.224	26864.19
731.565	26541.04
731.906	26569.29
732.248	26589.63
732.589	26481.61
732.93	26435.73
733.271	26382.4
733.612	26431.89
733.953	26320.93
734.294	26255.17
734.635	26216.3
734.976	26311.89
735.317	26343.53
735.658	26211.56
735.999	26123.42
736.339	26129.75
736.68	26165.91
737.021	26160.94
737.361	25964.78
737.702	26064.44
738.042	25895.86
738.383	25841.4
738.723	26042.52
739.063	25795.52
739.404	25854.28
739.744	25779.48
740.084	25716.65
740.424	25831
740.764	25719.82
741.104	25739.93
741.444	25644.57
741.784	25520.95
742.124	25610.22
742.464	25367.51
742.804	25467.62
743.143	25376.78
743.483	25417.68
743.823	25244.12
744.162	25188.08
744.502	25320.51
744.841	25113.05
745.181	25234.86
745.52	25208.19
745.86	25219.72
746.199	25115.09
746.538	25115.31
746.877	25177.46
747.216	25144.69
747.556	25045.49
747.895	24967.75
748.234	24974.3
748.573	24908.09
748.911	24874.19
749.25	24793.97
749.589	24787.19
749.928	24825.6
750.267	24709.45
750.605	24728.21
750.944	24701.31
751.283	24499.06
751.621	24671.26
751.96	24398.5
752.298	24448.21
752.636	24438.5
752.975	24222.46
753.313	24234.43
753.651	24360.08
753.989	24173.64
754.327	24255.45
754.666	24134.78
755.004	24126.64
755.342	24072.18
755.679	24012.97
756.017	23903.14
756.355	23990.82
756.693	24033.31
757.031	23932.75
757.368	23808.46
757.706	23820.88
758.044	23674.22
758.381	23710.61
758.719	23535.02
759.056	23613.88
759.394	23471.52
759.731	23432.87
760.068	23352.65
760.405	23351.52
760.743	23231.52
761.08	23193.33
761.417	23151.98
761.754	23001.7
762.091	22990.4
762.428	22935.94
762.765	22909.95
763.102	22887.35
763.438	22704.76
763.775	22630.41
764.112	22679.67
764.449	22675.83
764.785	22566.45
765.122	22364.65
765.458	22326.23
765.795	22260.47
766.131	22290.76
766.467	22241.94
766.804	22059.58
767.14	21889.18
767.476	22025.23
767.812	21909.75
768.148	21885.79
768.485	21789.07
768.821	21697.78
769.157	21744.33
769.492	21523.54
769.828	21570.55
770.164	21375.75
770.5	21431.8
770.836	21288.75
771.171	21155.87
771.507	21082.2
771.842	21017.79
772.178	21002.2
772.513	20859.15
772.849	20851.25
773.184	20799.04
773.519	20787.07
773.855	20617.13
774.19	20584.13
774.525	20502.33
774.86	20533.97
775.195	20436.34
775.53	20321.09
775.865	20218.49
776.2	20082.68
776.535	19966.52
776.87	20039.97
777.205	20021.44
777.539	19864.15
777.874	19822.35
778.209	19645.4
778.543	19624.16
778.878	19527.89
779.212	19544.61
779.547	19381.68
779.881	19461.45
780.215	19252.64
780.55	19372.87
780.884	19181.23
781.218	19113.66
781.552	19042.48
781.886	19022.82
782.22	18885.87
782.554	18860.11
782.888	18699.66
783.222	18633.68
783.556	18450.4
783.889	18614.02
784.223	18411.76
784.557	18374.02
784.89	18347.81
785.224	18299.45
785.557	18220.58
785.891	18159.11
786.224	18040.92
786.558	18126.57
786.891	17946.01
787.224	17843.64
787.557	17723.87
787.891	17864.66
788.224	17797.99
788.557	17757.09
788.89	17708.96
789.223	17646.36
789.556	17460.83
789.888	17440.26
790.221	17373.6
790.554	17253.83
790.887	17288.4
791.219	17196.2
791.552	17075.75
791.884	17096.09
792.217	17011.57
792.549	16931.8
792.882	16858.13
793.214	16833.72
793.546	16777
793.879	16663.56
794.211	16623.56
794.543	16642.09
794.875	16505.82
795.207	16667.63
795.539	16415.43
795.871	16418.82
796.203	16349.67
796.535	16232.61
796.867	16245.72
797.198	16097.92
797.53	16135.89
797.862	15980.19
798.193	16121.65
798.525	15963.24
798.856	15953.52
799.188	15780.64
799.519	15803.24
799.85	15784.26
800.182	15704.71
800.513	15740.87
800.844	15641.89
801.175	15640.08
801.506	15563.47
801.837	15476.02
802.168	15459.07
802.499	15404.16
802.83	15346.76
803.161	15304.27
803.491	15238.29
803.822	15249.13
804.153	15181.56
804.483	15036.03
804.814	14965.52
805.145	15013.66
805.475	14939.99
805.805	14946.09
806.136	14912.19
806.466	14947.22
806.796	14797.85
807.126	14677.4
807.457	14681.24
807.787	14626.55
808.117	14612.99
808.447	14480.57
808.777	14558.53
809.107	14569.15
809.436	14407.57
809.766	14526.44
810.096	14485.09
810.426	14301.36
810.755	14317.86
811.085	14348.59
811.414	14268.82
811.744	14101.59
812.073	14107.92
812.403	14126
812.732	14144.08
813.061	14080.12
813.39	13955.16
813.719	13972.1
814.049	14026.34
814.378	14005.32
814.707	13906.34
815.036	13847.81
815.365	13805.1
815.693	13721.72
816.022	13746.35
816.351	13677.87
816.68	13540.25
817.008	13670.64
817.337	13454.6
817.665	13444.66
817.994	13500.48
818.322	13440.14
818.651	13369.63
818.979	13306.13
819.307	13406.92
819.636	13366.47
819.964	13320.37
820.292	13290.77
820.62	13253.93
820.948	13181.39
821.276	13289.64
821.604	13184.78
821.932	13197.66
822.259	13255.74
822.587	13186.59
822.915	13151.56
823.243	13216.19
823.57	13160.6
823.898	13261.39
824.225	13166.93
824.553	13201.5
824.88	13205.8
825.207	13142.52
825.535	13112.01
825.862	13257.55
826.189	13153.14
826.516	13159.7
826.843	13225.01
827.17	13195.85
827.497	13238.11
827.824	13229.53
828.151	13230.2
828.478	13122.18
828.805	13156.76
829.131	13166.25
829.458	13169.41
829.785	13052.35
830.111	13111.11
830.438	13229.75
830.764	13173.71
831.09	13120.6
831.417	13101.62
831.743	13143.43
832.069	13140.94
832.395	13066.82
832.722	13057.33
833.048	13035.86
833.374	12986.14
833.7	12972.58
834.026	12989.98
834.351	12967.61
834.677	13010.1
835.003	13015.29
835.329	13034.73
835.654	12905.69
835.98	12838.12
836.306	12938.69
836.631	12825.69
836.956	12900.04
837.282	12808.75
837.607	12803.1
837.932	12770.1
838.258	12810.55
838.583	12759.71
838.908	12682.65
839.233	12713.83
839.558	12732.36
839.883	12652.14
840.208	12625.02
840.533	12678.35
840.858	12595.19
841.182	12600.16
841.507	12605.36
841.832	12536.66
842.156	12495.98
842.481	12451.47
842.805	12409.21
843.13	12468.87
843.454	12358.36
843.778	12380.28
844.103	12312.04
844.427	12281.08
844.751	12255.54
845.075	12186.61
845.399	12129.44
845.723	12252.83
846.047	12140.06
846.371	12077.46
846.695	12087.18
847.019	12001.31
847.343	11945.27
847.666	11846.28
847.99	11786.4
848.313	11752.05
848.637	11694.42
848.96	11693.07
849.284	11688.55
849.607	11571.04
849.931	11580.3
850.254	11473.64
850.577	11453.75
850.9	11392.74
851.223	11381.89
851.546	11252.63
851.869	11211.05
852.192	11223.93
852.515	11122.69
852.838	11109.35
853.161	11128.79
853.483	11048.79
853.806	11025.06
854.129	11046.08
854.451	10879.53
854.774	10955.23
855.096	10906.2
855.419	10889.02
855.741	10860.32
856.063	10789.14
856.385	10795.46
856.708	10694
857.03	10626.88
857.352	10661.68
857.674	10627.33
857.996	10619.88
858.318	10612.64
858.64	10584.17
858.961	10483.83
859.283	10513.44
859.605	10393.22
859.926	10424.18
860.248	10364.29
860.57	10301.47
860.891	10371.52
861.212	10312.09
861.534	10293.33
861.855	10220.11
862.176	10216.95
862.498	10214.46
862.819	10256.5
863.14	10097.86
863.461	10167.91
863.782	10101.02
864.103	10091.53
864.424	10054.47
864.745	10169.49
865.065	10024.41
865.386	10021.7
865.707	10056.5
866.027	10029.16
866.348	9972.44
866.668	10001.36
866.989	9955.03
867.309	9906.67
867.63	9914.81
867.95	9895.6
868.27	9811.99
868.59	9838.43
868.91	9844.3
869.23	9860.8
869.55	9799.33
869.87	9833.23
870.19	9740.58
870.51	9782.84
870.83	9802.27
871.15	9710.52
871.469	9709.62
871.789	9746.9
872.109	9689.51
872.428	9668.26
872.748	9672.1
873.067	9615.38
873.386	9653.57
873.706	9640.47
874.025	9532
874.344	9562.05
874.663	9565.67
874.982	9547.59
875.301	9543.52
875.62	9518.44
875.939	9517.31
876.258	9479.57
876.577	9368.61
876.896	9412
877.214	9406.8
877.533	9446.8
877.852	9397.08
878.17	9406.57
878.489	9327.25
878.807	9263.3
879.125	9327.03
879.444	9315.73
879.762	9249.74
880.08	9259.46
880.398	9252.45
880.716	9252.23
881.034	9214.04
881.352	9269.63
881.67	9192.8
881.988	9209.07
882.306	9221.49
882.624	9181.04
882.941	9079.13
883.259	9086.13
883.577	9059.92
883.894	9016.3
884.212	9020.82
884.529	8980.15
884.846	9008.62
885.164	8981.28
885.481	8928.4
885.798	8922.29
886.115	8851.79
886.432	8890.43
886.75	8825.57
887.067	8810.88
887.383	8746.03
887.7	8825.8
888.017	8742.64
888.334	8769.53
888.651	8725.91
888.967	8730.21
889.284	8693.83
889.6	8650.66
889.917	8631.91
890.233	8630.55
890.55	8518.24
890.866	8565.24
891.182	8560.04
891.498	8496.32
891.815	8500.16
892.131	8457
892.447	8442.08
892.763	8393.95
893.079	8383.32
893.395	8383.55
893.71	8315.76
894.026	8303.78
894.342	8292.48
894.657	8301.97
894.973	8174.29
895.289	8219.49
895.604	8246.61
895.92	8158.7
896.235	8079.6
896.55	8127.06
896.865	8087.29
897.181	8113.73
897.496	8089.32
897.811	8012.26
898.126	7948.76
898.441	7981.08
898.756	7927.97
899.071	7905.82
899.386	7838.93
899.7	7852.49
900.015	7800.97
900.33	7769.1
900.644	7742.21
900.959	7783.34
901.273	7708.54
901.588	7633.51
901.902	7668.77
902.216	7542.67
902.531	7536.79
902.845	7461.77
903.159	7530.47
903.473	7420.19
903.787	7496.34
904.101	7421.99
904.415	7420.64
904.729	7384.25
905.042	7361.66
905.356	7334.31
905.67	7347.87
905.984	7339.96
906.297	7228.1
906.611	7240.08
906.924	7212.96
907.237	7191.49
907.551	7172.74
907.864	7155.56
908.177	7064.72
908.491	7091.61
908.804	7038.28
909.117	7027.65
909.43	6927.77
909.743	6974.32
910.056	6916.47
910.368	6874.44
910.681	6888.22
910.994	6855.91
911.307	6843.7
911.619	6762.8
911.932	6824.04
912.244	6705.4
912.557	6708.79
912.869	6667.89
913.181	6669.25
913.494	6602.58
913.806	6560.77
914.118	6535.01
914.43	6572.07
914.742	6539.98
915.054	6478.74
915.366	6450.72
915.678	6443.49
915.99	6358.75
916.302	6324.62
916.613	6312.42
916.925	6319.88
917.236	6308.58
917.548	6250.05
917.859	6281.91
918.171	6289.59
918.482	6175.02
918.794	6224.74
919.105	6121.92
919.416	6044.4
919.727	6103.61
920.038	6111.97
920.349	6093.89
920.66	6016.16
920.971	6043.27
921.282	5954.91
921.593	5965.08
921.903	5902.94
922.214	5902.94
922.525	5884.41
922.835	5834.69
923.146	5796.95
923.456	5799.21
923.767	5800.12
924.077	5695.03
924.387	5731.42
924.697	5670.4
925.008	5704.3
925.318	5661.36
925.628	5648.93
925.938	5649.16
926.248	5597.18
926.558	5589.5
926.867	5563.74
927.177	5530.07
927.487	5464.53
927.796	5498.65
928.106	5422.05
928.416	5404.65
928.725	5427.02
929.034	5372.1
929.344	5368.26
929.653	5344.99
929.962	5322.61
930.271	5347.02
930.581	5235.38
930.89	5215.05
931.199	5212.56
931.508	5199.91
931.817	5177.53
932.125	5178.66
932.434	5146.8
932.743	5109.51
933.051	5098.21
933.36	5081.72
933.669	4980.25
933.977	5032.45
934.286	4974.6
934.594	4956.3
934.902	4939.57
935.21	4909.97
935.519	4963.3
935.827	4918.56
936.135	4853.02
936.443	4825.45
936.751	4796.98
937.059	4805.34
937.367	4806.92
937.674	4777.32
937.982	4721.05
938.29	4732.35
938.597	4719.01
938.905	4671.56
939.213	4662.29
939.52	4656.87
939.827	4648.51
940.135	4616.87
940.442	4599.24
940.749	4568.74
941.056	4545.01
941.363	4526.03
941.67	4500.49
941.977	4483.99
942.284	4432.24
942.591	4484.67
942.898	4424.33
943.205	4435.63
943.511	4448.29
943.818	4396.99
944.125	4317.22
944.431	4359.93
944.738	4316.99
945.044	4336.2
945.35	4269.31
945.657	4270.89
945.963	4281.96
946.269	4226.6
946.575	4249.87
946.881	4221.63
947.187	4186.37
947.493	4166.49
947.799	4157.22
948.105	4166.26
948.41	4116.09
948.716	4112.93
949.022	4049.88
949.327	4070.44
949.633	4043.78
949.938	4013.27
950.244	4025.93
950.549	3993.38
950.854	3978.69
951.16	3919.71
951.465	3913.16
951.77	3891.01
952.075	3907.06
952.38	3909.54
952.685	3861.64
952.99	3824.8
953.294	3822.99
953.599	3824.35
953.904	3799.26
954.209	3745.71
954.513	3818.93
954.818	3763.79
955.122	3738.02
955.426	3745.03
955.731	3698.7
956.035	3698.02
956.339	3665.03
956.643	3658.25
956.948	3631.81
957.252	3594.3
957.556	3625.48
957.86	3603.11
958.163	3583.45
958.467	3619.38
958.771	3580.97
959.075	3562.89
959.378	3529.89
959.682	3490.12
959.985	3471.82
960.289	3477.69
960.592	3463.23
960.896	3467.52
961.199	3410.12
961.502	3434.3
961.805	3445.83
962.108	3382.78
962.411	3387.07
962.714	3390.91
963.017	3325.15
963.32	3346.17
963.623	3301.88
963.926	3305.49
964.228	3299.16
964.531	3307.75
964.833	3241.54
965.136	3235.89
965.438	3254.19
965.741	3221.88
966.043	3207.19
966.345	3221.2
966.648	3208.77
966.95	3210.58
967.252	3131.94
967.554	3119.28
967.856	3109.79
968.158	3131.71
968.46	3110.02
968.761	3085.84
969.063	3081.32
969.365	3034.76
969.666	3037.93
969.968	3054.2
970.269	3000.64
970.571	2995.9
970.872	2971.72
971.174	2987.08
971.475	2985.5
971.776	2994.77
972.077	2957.93
972.378	2895.56
972.679	2901.44
972.98	2893.53
973.281	2880.42
973.582	2867.99
973.883	2851.72
974.183	2863.24
974.484	2827.99
974.785	2825.5
975.085	2836.35
975.386	2832.51
975.686	2748.22
975.986	2788.44
976.287	2776.92
976.587	2736.69
976.887	2738.28
977.187	2716.81
977.487	2736.92
977.787	2704.15
978.087	2680.65
978.387	2663.48
978.687	2664.61
978.987	2650.37
979.286	2652.85
979.586	2652.85
979.885	2637.04
980.185	2608.79
980.484	2576.02
980.784	2576.25
981.083	2574.66
981.382	2558.62
981.682	2542.12
981.981	2503.48
982.28	2550.03
982.579	2571.27
982.878	2558.17
983.177	2479.3
983.475	2492.18
983.774	2470.03
984.073	2465.74
984.372	2456.7
984.67	2471.84
984.969	2459.41
985.267	2411.96
985.566	2441.56
985.864	2392.52
986.162	2387.78
986.461	2395.23
986.759	2375.35
987.057	2366.08
987.355	2349.59
987.653	2386.65
987.951	2335.12
988.249	2346.87
988.547	2318.4
988.844	2317.72
989.142	2283.15
989.44	2300.55
989.737	2287.21
990.035	2259.42
990.332	2261.23
990.63	2244.96
990.927	2241.57
991.224	2238.18
991.521	2172.64
991.819	2194.33
992.116	2194.33
992.413	2174.9
992.71	2194.56
993.006	2170.61
993.303	2163.15
993.6	2147.33
993.897	2150.04
994.193	2143.71
994.49	2138.52
994.787	2098.97
995.083	2087.67
995.379	2100.55
995.676	2096.71
995.972	2094.68
996.268	2041.8
996.565	2028.69
996.861	2044.28
997.157	2016.49
997.453	2063.49
997.749	2008.13
998.044	1993.66
998.34	1974
998.636	1968.35
998.932	1976.04
999.227	1936.49
999.523	1956.38
999.818	1940.78
1000.114	1931.97
1000.409	1931.97
1000.704	1936.26
1001	1896.72
1001.295	1874.8
1001.59	1901.46
1001.885	1850.39
1002.18	1871.63
1002.475	1841.58
1002.77	1863.04
1003.065	1841.58
1003.359	1847.9
1003.654	1841.35
1003.949	1784.85
1004.243	1798.41
1004.538	1772.43
1004.832	1754.57
1005.127	1786.21
1005.421	1737.85
1005.715	1726.1
1006.009	1756.15
1006.304	1723.39
1006.598	1719.77
1006.892	1722.03
1007.186	1697.62
1007.48	1695.82
1007.773	1665.31
1008.067	1647
1008.361	1662.15
1008.655	1635.25
1008.948	1649.04
1009.242	1632.09
1009.535	1614.24
1009.829	1615.37
1010.122	1624.41
1010.415	1602.49
1010.708	1597.97
1011.001	1578.08
1011.295	1547.57
1011.588	1561.13
1011.881	1541.92
1012.173	1524.97
1012.466	1567.68
1012.759	1533.56
1013.052	1531.75
1013.344	1506.22
1013.637	1501.02
1013.93	1500.57
1014.222	1462.83
1014.514	1470.74
1014.807	1476.39
1015.099	1466.9
1015.391	1440.68
1015.683	1431.19
1015.976	1417.18
1016.268	1415.82
1016.56	1431.87
1016.851	1439.1
1017.143	1409.5
1017.435	1373.34
1017.727	1404.53
1018.018	1379.67
1018.31	1378.54
1018.602	1384.41
1018.893	1345.32
1019.185	1343.06
1019.476	1346.9
1019.767	1317.52
1020.058	1321.14
1020.35	1289.05
1020.641	1289.95
1020.932	1302.16
1021.223	1297.41
1021.514	1303.96
1021.804	1286.11
1022.095	1262.83
1022.386	1230.74
1022.677	1233.46
1022.967	1226
1023.258	1229.16
1023.548	1252.89
1023.839	1240.01
1024.129	1225.09
1024.419	1174.7
1024.709	1177.19
1025	1193.01
1025.29	1170.18
1025.58	1149.62
1025.87	1167.92
1026.16	1132.44
1026.449	1160.46
1026.739	1139
1027.029	1152.1
1027.319	1120.01
1027.608	1102.16
1027.898	1102.84
1028.187	1115.27
1028.477	1084.99
1028.766	1103.74
1029.055	1076.85
1029.344	1074.14
1029.634	1051.09
1029.923	1072.1
1030.212	1041.82
1030.501	1053.57
1030.79	1034.59
1031.078	1035.04
1031.367	1031.43
1031.656	1018.32
1031.945	1044.99
1032.233	1037.08
1032.522	990.52
1032.81	964.08
1033.099	986.23
1033.387	973.8
1033.675	968.38
1033.963	971.99
1034.251	957.31
1034.54	967.02
1034.828	952.79
1035.116	959.57
1035.403	960.92
1035.691	949.62
1035.979	944.88
1036.267	938.55
1036.554	889.28
1036.842	932.22
1037.129	931.54
1037.417	907.59
1037.704	899.91
1037.992	918.44
1038.279	893.13
1038.566	903.75
1038.853	903.75
1039.14	903.75
