Data from hue_60_FLMS001491_27.txt Node
Date: Mon Feb 06 15:17:09 GMT 2017
User: dcchb
Spectrometer: FLMS00149
Trigger mode: 0
Integration Time (sec): 2.000000E-2
Scans to average: 10
Electric dark correction enabled: true
Nonlinearity correction enabled: false
Boxcar width: 0
XAxis mode: Wavelengths
Number of Pixels in Spectrum: 2048
>>>>>Begin Spectral Data<<<<<
341.393	-8.19
341.776	-8.19
342.16	-8.19
342.543	-56.78
342.927	-70.79
343.31	-61.75
343.693	-77.79
344.077	-54.74
344.46	-85.25
344.843	-49.77
345.226	-43.22
345.61	-21.98
345.993	-10.45
346.376	-7.51
346.759	17.57
347.142	27.97
347.525	33.61
347.908	60.73
348.291	65.93
348.674	91.47
349.057	115.19
349.44	125.82
349.823	152.71
350.206	174.63
350.588	188.64
350.971	222.99
351.354	247.62
351.737	246.72
352.119	255.98
352.502	263.21
352.884	290.11
353.267	282.87
353.65	300.73
354.032	300.95
354.414	300.5
354.797	316.32
355.179	335.98
355.562	339.37
355.944	337.56
356.326	344.12
356.709	350.67
357.091	332.14
357.473	354.06
357.855	353.61
358.238	353.61
358.62	345.47
359.002	355.19
359.384	348.63
359.766	354.96
360.148	334.62
360.53	345.7
360.912	333.27
361.294	352.48
361.676	338.24
362.057	349.76
362.439	335.3
362.821	341.18
363.203	364.91
363.584	339.14
363.966	313.16
364.348	339.82
364.729	337.11
365.111	319.03
365.493	331.69
365.874	329.88
366.256	318.81
366.637	298.01
367.019	337.11
367.4	310.67
367.781	336.21
368.163	328.97
368.544	307.96
368.925	304.79
369.306	333.95
369.688	317
370.069	305.25
370.45	317.9
370.831	346.15
371.212	307.05
371.593	325.13
371.974	292.59
372.355	312.7
372.736	321.07
373.117	317.9
373.498	328.07
373.879	303.66
374.26	323.55
374.641	316.55
375.021	314.29
375.402	318.13
375.783	321.74
376.163	315.19
376.544	319.03
376.925	324
377.305	329.65
377.686	336.66
378.066	326.71
378.447	330.78
378.827	333.27
379.208	352.7
379.588	332.14
379.968	342.08
380.349	332.82
380.729	331.91
381.109	344.79
381.489	317.22
381.87	339.82
382.25	304.79
382.63	351.8
383.01	352.25
383.39	346.83
383.77	330.33
384.15	323.78
384.53	337.56
384.91	347.96
385.29	344.79
385.67	335.75
386.049	366.04
386.429	343.89
386.809	353.61
387.189	348.63
387.568	362.19
387.948	352.93
388.328	355.87
388.707	334.4
389.087	365.36
389.466	367.84
389.846	336.88
390.225	348.63
390.605	348.63
390.984	376.66
391.363	351.35
391.743	343.89
392.122	357.22
392.501	352.02
392.881	380.27
393.26	373.27
393.639	373.49
394.018	357
394.397	370.1
394.776	393.61
395.155	378.46
395.534	357.67
395.913	374.4
396.292	384.34
396.671	386.83
397.05	377.11
397.429	378.01
397.808	394.28
398.186	381.63
398.565	394.96
398.944	394.28
399.323	379.14
399.701	396.32
400.08	374.85
400.458	395.87
400.837	385.24
401.215	379.37
401.594	402.42
401.972	383.89
402.351	396.09
402.729	383.66
403.107	407.39
403.486	389.31
403.864	381.63
404.242	401.97
404.62	381.85
404.999	388.86
405.377	408.97
405.755	402.19
406.133	411.91
406.511	429.76
406.889	412.81
407.267	414.85
407.645	413.72
408.023	422.98
408.401	429.31
408.779	427.5
409.156	429.08
409.534	440.16
409.912	427.28
410.29	426.6
410.667	413.94
411.045	457.11
411.422	456.88
411.8	433.38
412.178	453.94
412.555	439.25
412.933	454.85
413.31	436.54
413.687	443.55
414.065	455.98
414.442	454.62
414.819	452.36
415.197	474.73
415.574	471.12
415.951	468.41
416.328	448.97
416.705	479.03
417.082	473.83
417.46	495.07
417.837	470.44
418.214	504.56
418.591	457.56
418.967	490.33
419.344	494.39
419.721	479.03
420.098	486.26
420.475	495.3
420.852	493.04
421.228	490.1
421.605	502.76
421.982	514.96
422.358	516.77
422.735	504.79
423.111	505.47
423.488	521.29
423.864	507.73
424.241	561.51
424.617	535.52
424.994	547.95
425.37	538.69
425.746	532.36
426.123	540.95
426.499	548.63
426.875	543.66
427.251	551.34
427.627	537.56
428.003	562.87
428.379	572.13
428.756	554.96
429.132	575.75
429.507	567.39
429.883	586.82
430.259	587.27
430.635	605.58
431.011	561.51
431.387	595.18
431.763	591.11
432.138	595.86
432.514	605.58
432.89	608.06
433.265	608.74
433.641	618.46
434.016	602.87
434.392	642.86
434.767	620.94
435.143	639.02
435.518	620.94
435.894	655.07
436.269	636.08
436.644	637.67
437.02	662.3
437.395	651.45
437.77	656.88
438.145	654.62
438.52	689.42
438.895	676.76
439.271	694.16
439.646	665.91
440.021	693.26
440.395	695.52
440.77	686.93
441.145	685.35
441.52	680.38
441.895	725.12
442.27	688.06
442.645	712.92
443.019	721.05
443.394	725.35
443.769	717.89
444.143	706.59
444.518	744.56
444.892	739.81
445.267	744.78
445.641	747.04
446.016	760.38
446.39	746.14
446.764	757.44
447.139	739.36
447.513	768.06
447.887	750.66
448.262	738.68
448.636	767.83
449.01	793.82
449.384	779.36
449.758	782.07
450.132	783.43
450.506	788.62
450.88	799.92
451.254	815.74
451.628	825.01
452.002	809.41
452.376	822.07
452.75	830.88
453.123	820.49
453.497	844.89
453.871	838.11
454.244	861.62
454.618	873.59
454.992	875.4
455.365	845.35
455.739	890.99
456.112	908.39
456.486	887.38
456.859	911.78
457.232	931.22
457.606	903.87
457.979	941.16
458.352	953.14
458.725	978.22
459.099	947.49
459.472	979.13
459.845	989.52
460.218	996.98
460.591	1013.7
460.964	994.27
461.337	1017.54
461.71	1040.14
462.083	1062.06
462.456	1042.18
462.829	1044.21
463.201	1072.68
463.574	1105.45
463.947	1109.74
464.32	1095.06
464.692	1122.17
465.065	1139.35
465.438	1159.01
465.81	1153.13
466.183	1213.92
466.555	1204.66
466.928	1220.93
467.3	1248.27
467.672	1265.67
468.045	1280.81
468.417	1308.61
468.789	1298.21
469.161	1327.14
469.534	1362.85
469.906	1389.06
470.278	1386.12
470.65	1420.7
471.022	1449.85
471.394	1502.05
471.766	1501.82
472.138	1510.41
472.51	1611.43
472.882	1623.86
473.253	1652.1
473.625	1697.3
473.997	1724.87
474.369	1737.3
474.74	1793.79
475.112	1835.83
475.484	1855.26
475.855	1911.76
476.227	1974.81
476.598	2038.99
476.97	2065.88
477.341	2114.46
477.713	2158.08
478.084	2214.57
478.455	2273.1
478.827	2366.43
479.198	2432.65
479.569	2486.88
479.94	2600.33
480.311	2624.96
480.682	2742.92
481.053	2838.29
481.424	2911.28
481.795	2954.44
482.166	3061.33
482.537	3154.44
482.908	3256.58
483.279	3330.7
483.65	3435.33
484.021	3523.92
484.391	3649.79
484.762	3750.58
485.133	3852.95
485.503	3966.84
485.874	4098.59
486.244	4180.17
486.615	4311.24
486.985	4468.53
487.356	4544.23
487.726	4719.37
488.097	4853.83
488.467	4935.63
488.837	5090.21
489.207	5243.87
489.578	5349.63
489.948	5523.41
490.318	5699
490.688	5806.34
491.058	5984.64
491.428	6133.12
491.798	6229.16
492.168	6461.47
492.538	6535.36
492.908	6733.1
493.278	6858.97
493.648	6969.48
494.017	7114.78
494.387	7269.36
494.757	7464.61
495.126	7609.91
495.496	7771.26
495.866	7922
496.235	8103.46
496.605	8230.24
496.974	8333.96
497.344	8566.05
497.713	8703.44
498.082	8853.72
498.452	9069.54
498.821	9203.09
499.19	9263.65
499.559	9472.91
499.928	9615.28
500.298	9776.86
500.667	9997.87
501.036	9936.41
501.405	10201.48
501.774	10303.18
502.143	10477.18
502.512	10571.87
502.88	10752.88
503.249	10962.14
503.618	11007.34
503.987	11130.5
504.356	11323.94
504.724	11471.51
505.093	11612.52
505.462	11702.46
505.83	11811.61
506.199	11939.97
506.567	12247.76
506.936	12288.21
507.304	12520.29
507.672	12590.12
508.041	12768.87
508.409	12822.88
508.777	13071.01
509.145	13176.32
509.514	13245.02
509.882	13424
510.25	13504.9
510.618	13712.35
510.986	13805.68
511.354	13945.79
511.722	14101.49
512.09	14320.7
512.458	14313.01
512.826	14519.79
513.193	14640.69
513.561	14742.83
513.929	14918.2
514.297	14978.76
514.664	15208.36
515.032	15268.02
515.4	15476.6
515.767	15660.77
516.135	15799.08
516.502	15668.46
516.869	15910.49
517.237	16105.96
517.604	16101.67
517.972	16346.63
518.339	16498.94
518.706	16583.91
519.073	16608.09
519.44	16864.36
519.808	17021.87
520.175	17088.53
520.542	17285.14
520.909	17400.84
521.276	17502.76
521.643	17622.08
522.009	17941.39
522.376	18002.18
522.743	18079.92
523.11	18280.14
523.477	18485.11
523.843	18596.52
524.21	18813.91
524.577	19062.72
524.943	19064.53
525.31	19152.43
525.676	19358.76
526.043	19570.5
526.409	19604.63
526.776	19828.57
527.142	19899.76
527.508	20079.64
527.874	20170.71
528.241	20423.81
528.607	20383.14
528.973	20628.33
529.339	20633.3
529.705	20967.75
530.071	21047.07
530.437	21124.81
530.803	21302.43
531.169	21521.86
531.535	21289.55
531.901	21370.68
532.267	21585.82
532.632	21813.61
532.998	21864.91
533.364	21894.06
533.73	21998.91
534.095	22164.11
534.461	22359.81
534.826	22409.52
535.192	22498.11
535.557	22751.89
535.923	22656.07
536.288	22736.29
536.653	22889.96
537.019	22895.84
537.384	22990.3
537.749	23163.85
538.114	23174.7
538.479	23238.88
538.845	23397.97
539.21	23412.89
539.575	23465.32
539.94	23549.15
540.305	23821.92
540.67	23752.31
541.034	23821.01
541.399	23884.97
541.764	24000.67
542.129	24111.85
542.494	24112.53
542.858	24209.25
543.223	24232.53
543.587	24466.42
543.952	24406.76
544.316	24669.13
544.681	24544.16
545.045	24679.29
545.41	24776.24
545.774	24842.68
546.138	24928.1
546.503	24918.61
546.867	25103.01
547.231	25199.73
547.595	25291.03
547.959	25303.01
548.324	25437.47
548.688	25420.74
549.052	25597.69
549.416	25601.3
549.779	25615.77
550.143	25790.23
550.507	25923.1
550.871	26002.2
551.235	26039.48
551.599	26252.36
551.962	26322.87
552.326	26321.96
552.689	26503.65
553.053	26425.92
553.417	26412.81
553.78	26912.91
554.143	26692.8
554.507	26867.03
554.87	27026.58
555.234	27172.56
555.597	27101.6
555.96	27270.41
556.323	27358.77
556.686	27373.69
557.05	27657.07
557.413	27738.2
557.776	27840.79
558.139	27987.91
558.502	27927.34
558.865	28205.76
559.228	28277.39
559.59	28451.85
559.953	28533.66
560.316	28763.93
560.679	28805.51
561.041	28859.75
561.404	29139.97
561.767	29193.53
562.129	29142
562.492	29474.87
562.854	29523.46
563.217	29410.47
563.579	29613.18
563.941	29659.05
564.304	29875.77
564.666	30178.59
565.028	30118.7
565.39	30259.71
565.753	30473.94
566.115	30596.65
566.477	30675.07
566.839	30719.81
567.201	30966.59
567.563	31043.42
567.925	31306.92
568.287	31344.43
568.648	31433.92
569.01	31577.19
569.372	31755.94
569.734	31657.64
570.095	31830.29
570.457	31968.82
570.819	32020.8
571.18	32013.11
571.542	32159.1
571.903	32297.4
572.265	32512.76
572.626	32553.66
572.987	32561.8
573.349	32710.27
573.71	32871.17
574.071	32823.71
574.432	32948.23
574.794	33253.76
575.155	33164.5
575.516	33117.72
575.877	33313.42
576.238	33369.01
576.599	33637.03
576.96	33420.08
577.32	33646.29
577.681	33689.91
578.042	33701.66
578.403	33833.18
578.763	33812.16
579.124	33925.15
579.485	34036.11
579.845	34151.81
580.206	34117.69
580.566	34053.74
580.927	34177.58
581.287	34339.83
581.648	34146.62
582.008	34431.81
582.368	34253.73
582.728	34441.3
583.089	34292.38
583.449	34330.79
583.809	34435.2
584.169	34385.25
584.529	34381.86
584.889	34761.97
585.249	34575.98
585.609	34405.82
585.969	34702.31
586.329	34392.94
586.688	34519.04
587.048	34657.79
587.408	34618.24
587.768	34608.07
588.127	34669.31
588.487	34480.39
588.846	34923.32
589.206	34599.94
589.565	34601.29
589.925	34820.04
590.284	34787.5
590.643	34854.17
591.003	34943.43
591.362	34952.02
591.721	34919.93
592.08	34897.78
592.44	35079.7
592.799	35081.96
593.158	35190.43
593.517	34970.32
593.876	35085.12
594.235	35019.14
594.593	35120.6
594.952	35117.44
595.311	34997.22
595.67	35253.25
596.029	35302.29
596.387	35367.6
596.746	35468.16
597.104	35289.64
597.463	35328.96
597.822	35446.92
598.18	35284.89
598.538	35206.02
598.897	35455.73
599.255	35257.32
599.613	35841.94
599.972	35487.82
600.33	35629.06
600.688	35443.76
601.046	35726.24
601.404	35774.82
601.762	35716.52
602.12	35848.04
602.478	35911.09
602.836	35887.14
603.194	35790.41
603.552	36071.99
603.91	35817.31
604.268	36039
604.625	35848.27
604.983	36099.79
605.341	36041.71
605.698	36211.87
606.056	36216.17
606.413	36195.6
606.771	36454.8
607.128	36453.22
607.485	36443.73
607.843	36320.8
608.2	36683.05
608.557	36691.41
608.914	36606.21
609.272	36919.42
609.629	36865.64
609.986	36964.17
610.343	36834
610.7	37157.16
611.057	37101.11
611.414	37066.09
611.771	37076.71
612.127	37233.77
612.484	37304.27
612.841	37312.41
613.198	37218.85
613.554	37409.36
613.911	37578.84
614.267	37452.74
614.624	37473.53
614.98	37631.72
615.337	37729.12
615.693	37766.41
616.05	37661.1
616.406	37913.97
616.762	37765.05
617.118	37850.7
617.475	37927.31
617.831	37938.83
618.187	38083.91
618.543	38135.44
618.899	38346.05
619.255	38397.8
619.611	38244.81
619.967	38527.97
620.323	38486.16
620.678	38364.81
621.034	38427.86
621.39	38349.9
621.746	38416.33
622.101	38740.39
622.457	38573.84
622.812	38558.93
623.168	38758.02
623.523	38748.3
623.879	38899.26
624.234	38641.64
624.589	38847.74
624.945	38890.45
625.3	38879.6
625.655	38942.42
626.01	39028.52
626.365	38948.75
626.72	38866.72
627.075	38742.2
627.43	38862.2
627.785	38808.19
628.14	38882.76
628.495	38941.07
628.85	38880.05
629.205	38742.65
629.559	39160.95
629.914	38897.23
630.269	39003.89
630.623	38752.6
630.978	38760.96
631.332	39029.88
631.687	39084.11
632.041	38795.08
632.396	38925.93
632.75	38764.35
633.104	38894.97
633.459	38689.77
633.813	38632.83
634.167	38681.86
634.521	38827.17
634.875	38806.38
635.229	38733.61
635.583	38589.44
635.937	38631.24
636.291	38607.97
636.645	38734.74
636.999	38443.23
637.352	38645.48
637.706	38356.45
638.06	38565.26
638.413	38390.12
638.767	38390.57
639.121	38514.86
639.474	38371.59
639.828	38283.46
640.181	38376.34
640.534	38417.69
640.888	38325.26
641.241	38174.53
641.594	38101.54
641.947	38329.11
642.301	38193.74
642.654	38074.42
643.007	38206.17
643.36	38197.36
643.713	38057.02
644.066	38359.16
644.419	37987.87
644.771	37766.63
645.124	37509.92
645.477	37329.58
645.83	37165.52
646.182	36945.86
646.535	36968.24
646.888	37069.48
647.24	36807.56
647.593	36991.51
647.945	36904.96
648.298	36721.24
648.65	36642.82
649.002	36601.24
649.355	36728.24
649.707	36798.3
650.059	36841.23
650.411	37217.04
650.763	37306.99
651.115	37587.66
651.467	37534.55
651.819	37550.82
652.171	37540.88
652.523	37484.83
652.875	37350.37
653.227	37163.94
653.578	37634.21
653.93	37388.79
654.282	37182.92
654.633	37183.37
654.985	37204.39
655.337	37239.87
655.688	37204.39
656.039	37234.22
656.391	37097.5
656.742	37045.3
657.094	36990.84
657.445	37261.79
657.796	37125.75
658.147	37080.32
658.498	36942.47
658.849	37148.12
659.2	36995.35
659.551	36996.71
659.902	37034.22
660.253	37073.32
660.604	37050.49
660.955	36842.36
661.306	36949.25
661.656	36938.18
662.007	36918.75
662.358	36917.62
662.708	36792.65
663.059	36843.72
663.409	36589.49
663.76	36883.95
664.11	36863.16
664.461	36831.52
664.811	36773.44
665.161	36831.29
665.511	36797.62
665.862	36763.27
666.212	36905.41
666.562	37048.69
666.912	36777.28
667.262	36693.22
667.612	36834.68
667.962	36802.82
668.312	36692.76
668.662	36836.26
669.011	36765.3
669.361	36622.94
669.711	36717.17
670.06	36608.7
670.41	36439.21
670.76	36579.32
671.109	36712.2
671.459	36521.47
671.808	36550.85
672.157	36654.57
672.507	36480.57
672.856	36447.12
673.205	36493.45
673.554	36568.25
673.904	36444.63
674.253	36638.3
674.602	36374.13
674.951	36083.29
675.3	35775.5
675.649	36471.98
675.998	36407.12
676.346	36328.25
676.695	36476.72
677.044	36274.02
677.393	36255.94
677.741	36245.54
678.09	36225.21
678.438	36153.57
678.787	36081.71
679.135	36209.16
679.484	35891.88
679.832	36054.81
680.181	35841.49
680.529	36062.95
680.877	35869.06
681.225	35872.45
681.573	36018.66
681.922	35799.45
682.27	35657.54
682.618	35758.78
682.966	35613.47
683.314	35639.01
683.661	35550.87
684.009	35543.42
684.357	35296.42
684.705	35236.31
685.053	35318.79
685.4	35291.44
685.748	35259.13
686.095	35065.46
686.443	34984.56
686.79	35033.37
687.138	35173.26
687.485	35114.73
687.832	34881.51
688.18	34990.89
688.527	34797.22
688.874	34778.46
689.221	34614.17
689.568	34505.7
689.915	34408.76
690.262	34564.91
690.609	34207.18
690.956	34196.56
691.303	34304.13
691.65	33997.24
691.997	34069.56
692.344	34030.69
692.69	33965.15
693.037	33984.59
693.383	33724.48
693.73	33793.63
694.077	33518.16
694.423	33469.12
694.769	33422.12
695.116	33316.58
695.462	33333.76
695.808	33313.19
696.155	33289.69
696.501	32938.29
696.847	32996.36
697.193	32674.79
697.539	32891.73
697.885	32583.49
698.231	32490.61
698.577	32514.12
698.923	32400.9
699.269	32358.64
699.614	32221.47
699.96	32164.07
700.306	32097.63
700.651	32176.27
700.997	31960.46
701.342	31831.65
701.688	31863.06
702.033	31707.58
702.379	31703.06
702.724	31630.3
703.069	31623.74
703.415	31256.97
703.76	31338.55
704.105	31470.3
704.45	31266.92
704.795	31092.69
705.14	30925.23
705.485	30925.91
705.83	30834.61
706.175	30866.25
706.52	30845.23
706.865	30770.21
707.209	30648.4
707.554	30446.15
707.899	30591.46
708.243	30360.73
708.588	30319.82
708.932	30215.42
709.277	30066.95
709.621	30182.88
709.966	30091.13
710.31	30098.59
710.654	29809.56
710.998	29862.66
711.342	29810.01
711.687	29790.57
712.031	29646.62
712.375	29625.83
712.719	29604.59
713.063	29525.72
713.407	29690.01
713.75	29376.12
714.094	29432.16
714.438	29262.22
714.782	29298.61
715.125	29200.53
715.469	29212.96
715.812	28983.81
716.156	28902.91
716.499	28997.6
716.843	28969.58
717.186	28714.22
717.53	28851.61
717.873	28838.06
718.216	28803.71
718.559	28662.01
718.902	28446.88
719.246	28510.38
719.589	28380.21
719.932	28448.24
720.275	28318.52
720.617	28237.17
720.96	28206.21
721.303	28308.58
721.646	28217.51
721.989	27992.2
722.331	28198.3
722.674	28086.66
723.016	28001.02
723.359	27930.73
723.701	27997.63
724.044	27766.22
724.386	27726.9
724.729	27857.97
725.071	27720.34
725.413	27649.84
725.755	27621.36
726.097	27527.58
726.439	27387.02
726.782	27427.02
727.124	27527.13
727.465	27410.3
727.807	27381.14
728.149	27362.61
728.491	27269.96
728.833	27304.08
729.175	27076.07
729.516	27163.3
729.858	27109.29
730.199	27150.19
730.541	27061.15
730.882	26985.45
731.224	27242.62
731.565	26898.45
731.906	26883.76
732.248	26878.33
732.589	26718.56
732.93	26532.35
733.271	26666.59
733.612	26685.57
733.953	26653.48
734.294	26626.14
734.635	26565.57
734.976	26606.48
735.317	26402.19
735.658	26451.23
735.999	26369.65
736.339	26343.43
736.68	26401.51
737.021	26295.3
737.361	26193.15
737.702	26389.31
738.042	26175.07
738.383	26083.33
738.723	26079.94
739.063	26082.42
739.404	26186.83
739.744	26050.33
740.084	25952.26
740.424	25910
740.764	25815.08
741.104	25918.81
741.444	25695.09
741.784	25679.04
742.124	25671.36
742.464	25696.89
742.804	25594.52
743.143	25609.67
743.483	25639.04
743.823	25521.53
744.162	25392.27
744.502	25531.25
744.841	25298.94
745.181	25430.69
745.52	25306.85
745.86	25511.14
746.199	25222.56
746.538	25217.81
746.877	25337.58
747.216	25261.43
747.556	25122.45
747.895	25213.07
748.234	25028.21
748.573	25009
748.911	24971.26
749.25	24969.68
749.589	24882.23
749.928	24933.53
750.267	24886.97
750.605	24687.88
750.944	24669.58
751.283	24585.29
751.621	24678.16
751.96	24567.21
752.298	24529.24
752.636	24481.56
752.975	24499.41
753.313	24299.64
753.651	24408.12
753.989	24306.65
754.327	24223.94
754.666	24101
755.004	24222.58
755.342	24244.5
755.679	24055.36
756.017	23912.99
756.355	23947.34
756.693	23905.53
757.031	23872.08
757.368	23739.21
757.706	23675.25
758.044	23543.28
758.381	23592.54
758.719	23464.41
759.056	23533.11
759.394	23416.05
759.731	23319.56
760.068	23330.4
760.405	23152.33
760.743	23132.44
761.08	23172.89
761.417	22987.14
761.754	22976.74
762.091	22852
762.428	22867.14
762.765	22618.78
763.102	22815.16
763.438	22642.51
763.775	22441.16
764.112	22483.19
764.449	22471.44
764.785	22410.88
765.122	22287.49
765.458	22127.95
765.795	22179.47
766.131	22094.96
766.467	22061.51
766.804	21934.06
767.14	21873.49
767.476	21807.96
767.812	21744.68
768.148	21735.42
768.485	21637.11
768.821	21450
769.157	21539.04
769.492	21495.42
769.828	21317.12
770.164	21240.06
770.5	21225.83
770.836	21144.7
771.171	21050.24
771.507	20946.06
771.842	20871.49
772.178	20808.89
772.513	20801.66
772.849	20791.71
773.184	20604.6
773.519	20599.63
773.855	20529.57
774.19	20422.91
774.525	20406.19
774.86	20340.65
775.195	20333.87
775.53	20141.11
775.865	20118.74
776.2	19912.19
776.535	19833.32
776.87	19795.36
777.205	19744.06
777.539	19721.23
777.874	19698.63
778.209	19452.77
778.543	19434.01
778.878	19351.75
779.212	19396.27
779.547	19187.69
779.881	19208.7
780.215	19078.09
780.55	19041.7
780.884	18979.33
781.218	18953.57
781.552	18948.15
781.886	18721.71
782.22	18724.87
782.554	18659.34
782.888	18571.43
783.222	18461.83
783.556	18446.92
783.889	18434.26
784.223	18235.17
784.557	18304.55
784.89	18269.75
785.224	18064.55
785.557	18133.93
785.891	18011.45
786.224	17841.51
786.558	17923.99
786.891	17795.63
787.224	17718.12
787.557	17726.03
787.891	17724.68
788.224	17545.92
788.557	17618.69
788.89	17541.18
789.223	17442.65
789.556	17333.73
789.888	17312.48
790.221	17230
790.554	17088.76
790.887	17155.65
791.219	17087.18
791.552	16892.83
791.884	16964.02
792.217	16892.15
792.549	16763.57
792.882	16743.23
793.214	16613.07
793.546	16632.05
793.879	16484.71
794.211	16394.31
794.543	16515.22
794.875	16368.33
795.207	16451.94
795.539	16373.75
795.871	16287.2
796.203	16117.94
796.535	16036.81
796.867	16038.17
797.198	15926.3
797.53	16020.99
797.862	15805.63
798.193	15946.19
798.525	15755.91
798.856	15843.37
799.188	15632.07
799.519	15488.58
799.85	15524.96
800.182	15580.78
800.513	15531.51
800.844	15366.77
801.175	15397.5
801.506	15440.44
801.837	15357.51
802.168	15264.4
802.499	15243.16
802.83	15131.75
803.161	15109.83
803.491	15110.96
803.822	15123.84
804.153	14970.85
804.483	14960
804.814	14853.34
805.145	14824.64
805.475	14753.91
805.805	14752.32
806.136	14693.12
806.466	14618.32
806.796	14684.08
807.126	14562.95
807.457	14559.33
807.787	14534.25
808.117	14437.98
808.447	14443.63
808.777	14459.45
809.107	14379.9
809.436	14327.93
809.766	14333.8
810.096	14306.69
810.426	14234.6
810.755	14211.77
811.085	14235.28
811.414	14121.38
811.744	14028.5
812.073	13993.93
812.403	13993.02
812.732	13906.47
813.061	13958.22
813.39	13820.15
813.719	13772.24
814.049	13870.31
814.378	13777.21
814.707	13765.23
815.036	13712.35
815.365	13613.37
815.693	13558.46
816.022	13583.09
816.351	13467.39
816.68	13460.38
817.008	13440.04
817.337	13331.57
817.665	13304.68
817.994	13291.8
818.322	13289.09
818.651	13287.5
818.979	13191.69
819.307	13203.21
819.636	13222.19
819.964	13084.35
820.292	13190.11
820.62	13134.29
820.948	13096.1
821.276	13176.77
821.604	13063.55
821.932	13105.81
822.259	13105.36
822.587	13019.04
822.915	13005.03
823.243	13055.42
823.57	12956.89
823.898	13032.37
824.225	13004.57
824.553	12944.91
824.88	12986.49
825.207	13039.6
825.535	13021.07
825.862	13027.85
826.189	12958.02
826.516	12996.66
826.843	13045.7
827.17	13016.78
827.497	12996.66
827.824	13010.9
828.151	13070.79
828.478	13011.35
828.805	13051.58
829.131	12943.56
829.458	12930.22
829.785	12978.81
830.111	12958.7
830.438	12977.46
830.764	12917.34
831.09	12939.94
831.417	12919.6
831.743	12922.77
832.069	12964.8
832.395	12900.17
832.722	12952.6
833.048	12824.24
833.374	12956.21
833.7	12785.14
834.026	12824.24
834.351	12923.9
834.677	12767.97
835.003	12797.35
835.329	12878.02
835.654	12831.02
835.98	12678.93
836.306	12739.72
836.631	12749.21
836.956	12727.29
837.282	12771.81
837.607	12600.52
837.932	12635.54
838.258	12669.21
838.583	12646.39
838.908	12574.53
839.233	12568.2
839.558	12533.4
839.883	12517.13
840.208	12439.39
840.533	12513.06
840.858	12443.23
841.182	12462.89
841.507	12391.71
841.832	12393.29
842.156	12380.86
842.481	12340.64
842.805	12264.71
843.13	12280.3
843.454	12300.64
843.778	12154.2
844.103	12128.89
844.427	12100.87
844.751	12098.16
845.075	12118.49
845.399	12037.14
845.723	11998.5
846.047	12062.45
846.371	11790.59
846.695	11914.66
847.019	11773.65
847.343	11831.5
847.666	11728
847.99	11632.41
848.313	11669.69
848.637	11542.46
848.96	11580.88
849.284	11499.08
849.607	11408.01
849.931	11384.28
850.254	11390.6
850.577	11299.31
850.9	11225.64
851.223	11145.41
851.546	11194.68
851.869	11070.84
852.192	11072.65
852.515	11012.54
852.838	10953.1
853.161	11040.56
853.483	10858.19
853.806	10882.14
854.129	10898.19
854.451	10836.95
854.774	10695.26
855.096	10707.23
855.419	10693.9
855.741	10703.62
856.063	10642.38
856.385	10580.68
856.708	10598.31
857.03	10553.34
857.352	10504.98
857.674	10488.93
857.996	10448.93
858.318	10376.85
858.64	10373.23
858.961	10303.18
859.283	10374.36
859.605	10297.53
859.926	10294.59
860.248	10218.88
860.57	10205.55
860.891	10275.38
861.212	10155.61
861.534	10071.54
861.855	10126
862.176	10093.92
862.498	10153.57
862.819	10072.22
863.14	10043.3
863.461	9988.61
863.782	9954.48
864.103	9952.22
864.424	9931.21
864.745	9978.89
865.065	9850.08
865.386	9914.03
865.707	9909.74
866.027	9824.09
866.348	9791.55
866.668	9873.36
866.989	9818.89
867.309	9770.53
867.63	9782.51
867.95	9715.62
868.27	9713.59
868.59	9755.85
868.91	9735.96
869.23	9696.64
869.55	9622.97
869.87	9716.75
870.19	9673.81
870.51	9658.9
870.83	9691.67
871.15	9576.87
871.469	9606.47
871.789	9580.71
872.109	9554.49
872.428	9519.24
872.748	9507.49
873.067	9524.44
873.386	9493.48
873.706	9500.48
874.025	9425.46
874.344	9423.65
874.663	9391.79
874.982	9434.5
875.301	9443.76
875.62	9403.09
875.939	9347.95
876.258	9393.37
876.577	9354.73
876.896	9282.19
877.214	9238.34
877.533	9277.21
877.852	9251.45
878.17	9242.86
878.489	9286.03
878.807	9184.56
879.125	9198.57
879.444	9189.31
879.762	9148.63
880.08	9191.34
880.398	9032.02
880.716	9148.86
881.034	9037.9
881.352	9119.03
881.67	9093.26
881.988	9072.7
882.306	9037.22
882.624	8991.35
882.941	8946.83
883.259	8968.97
883.577	8962.87
883.894	8941.4
884.212	8880.61
884.529	8940.05
884.846	8886.94
885.164	8886.04
885.481	8814.4
885.798	8871.57
886.115	8838.13
886.432	8800.16
886.75	8728.08
887.067	8781.18
887.383	8668.64
887.7	8708.64
888.017	8624.12
888.334	8684.69
888.651	8590
888.967	8569.21
889.284	8526.72
889.6	8505.26
889.917	8450.12
890.233	8432.72
890.55	8402.89
890.866	8444.47
891.182	8384.13
891.498	8456.44
891.815	8420.29
892.131	8362.21
892.447	8354.07
892.763	8267.3
893.079	8281.31
893.395	8209.22
893.71	8202.44
894.026	8244.25
894.342	8202.67
894.657	8166.06
894.973	8158.6
895.289	8041.09
895.604	8065.04
895.92	8004.93
896.235	7984.14
896.55	8014.42
896.865	7991.37
897.181	7909.34
897.496	7971.03
897.811	7905.95
898.126	7856.23
898.441	7837.25
898.756	7864.37
899.071	7767.65
899.386	7791.6
899.7	7731.49
900.015	7684.71
900.33	7613.98
900.644	7688.55
900.959	7601.1
901.273	7586.41
901.588	7532.63
901.902	7488.79
902.216	7526.75
902.531	7446.3
902.845	7449.24
903.159	7385.06
903.473	7404.04
903.787	7318.62
904.101	7303.93
904.415	7337.6
904.729	7349.35
905.042	7262.35
905.356	7211.51
905.67	7210.15
905.984	7216.48
906.297	7107.1
906.611	7066.42
906.924	7134.9
907.237	7088.57
907.551	7038.85
907.864	7002.25
908.177	6999.53
908.491	6945.3
908.804	6910.72
909.117	6895.13
909.43	6916.82
909.743	6830.72
910.056	6825.3
910.368	6758.86
910.681	6773.1
910.994	6734
911.307	6745.53
911.619	6652.88
911.932	6671.41
912.244	6637.96
912.557	6577.85
912.869	6616.49
913.181	6537.62
913.494	6553.44
913.806	6479.55
914.118	6456.27
914.43	6447.23
914.742	6446.55
915.054	6412.88
915.366	6405.65
915.678	6363.39
915.99	6300.79
916.302	6312.55
916.613	6286.78
916.925	6252.66
917.236	6247.69
917.548	6187.58
917.859	6091.53
918.171	6160.91
918.482	6123.17
918.794	6126.56
919.105	6090.18
919.416	6008.83
919.727	5977.41
920.038	5979.45
920.349	5966.79
920.66	5938.77
920.971	5925.21
921.282	5890.41
921.593	5830.75
921.903	5809.51
922.214	5806.34
922.525	5800.02
922.835	5765.67
923.146	5719.57
923.456	5711.66
923.767	5691.77
924.077	5680.47
924.387	5662.85
924.697	5625.33
925.008	5644.54
925.318	5587.82
925.628	5616.74
925.938	5576.97
926.248	5486.8
926.558	5472.79
926.867	5460.59
927.177	5456.98
927.487	5421.04
927.796	5359.8
928.106	5417.2
928.416	5304.21
928.725	5349.41
929.034	5317.77
929.344	5302.85
929.653	5301.95
929.962	5263.99
930.271	5194.16
930.581	5181.05
930.89	5142.63
931.199	5129.3
931.508	5149.64
931.817	5139.92
932.125	5105.8
932.434	5097.66
932.743	4969.98
933.051	5002.98
933.36	5044.1
933.669	4953.26
933.977	4971.56
934.286	4932.02
934.594	4937.21
934.902	4909.19
935.21	4849.76
935.519	4849.08
935.827	4813.83
936.135	4819.25
936.443	4753.26
936.751	4791.68
937.059	4750.33
937.367	4695.19
937.674	4714.62
937.982	4710.1
938.29	4675.75
938.597	4686.37
938.905	4618.13
939.213	4585.13
939.52	4583.33
939.827	4551.46
940.135	4543.78
940.442	4548.07
940.749	4492.71
941.056	4518.24
941.363	4491.8
941.67	4450.45
941.977	4462.2
942.284	4381.3
942.591	4364.57
942.898	4339.04
943.205	4399.83
943.511	4330.68
943.818	4345.37
944.125	4283.9
944.431	4273.96
944.738	4297.23
945.044	4275.09
945.35	4227.85
945.657	4192.15
945.963	4220.62
946.269	4161.64
946.575	4139.27
946.881	4162.77
947.187	4145.37
947.493	4106.95
947.799	4108.54
948.105	4083.68
948.41	4044.81
948.716	4103.34
949.022	4054.3
949.327	3982.21
949.633	3961.2
949.938	4042.78
950.244	3972.72
950.549	3927.52
950.854	3943.12
951.16	3910.12
951.465	3867.19
951.77	3883.91
952.075	3855.66
952.38	3848.2
952.685	3812.5
952.99	3752.84
953.294	3772.95
953.599	3761.2
953.904	3738.15
954.209	3746.96
954.513	3744.48
954.818	3740.18
955.122	3678.72
955.426	3671.03
955.731	3641.43
956.035	3651.6
956.339	3616.8
956.643	3601.43
956.948	3609.34
957.252	3602.33
957.556	3576.12
957.86	3520.53
958.163	3569.79
958.467	3539.74
958.771	3534.54
959.075	3471.94
959.378	3470.13
959.682	3501.09
959.985	3430.14
960.289	3415.22
960.592	3403.92
960.896	3397.14
961.199	3420.42
961.502	3380.87
961.805	3369.8
962.108	3341.1
962.411	3341.55
962.714	3299.29
963.017	3332.29
963.32	3301.78
963.623	3280.54
963.926	3228.33
964.228	3227.88
964.531	3243.02
964.833	3252.74
965.136	3203.7
965.438	3161.44
965.741	3202.8
966.043	3190.37
966.345	3163.25
966.648	3165.74
966.95	3141.33
967.252	3111.73
967.554	3098.62
967.856	3115.12
968.158	3016.81
968.46	3044.61
968.761	3054.1
969.063	3063.37
969.365	3046.19
969.666	3007.55
969.968	2985.18
970.269	2986.31
970.571	2960.32
970.872	2941.56
971.174	2910.15
971.475	2927.32
971.776	2934.78
972.077	2926.65
972.378	2887.33
972.679	2851.17
972.98	2873.54
973.281	2870.83
973.582	2863.82
973.883	2809.36
974.183	2826.76
974.484	2815.24
974.785	2751.51
975.085	2788.8
975.386	2756.48
975.686	2745.63
975.986	2729.14
976.287	2732.98
976.587	2690.95
976.887	2713.77
977.187	2694.79
977.487	2676.26
977.787	2667.22
978.087	2628.12
978.387	2655.69
978.687	2633.77
978.987	2617.95
979.286	2624.51
979.586	2603.04
979.885	2600.78
980.185	2567.11
980.484	2549.03
980.784	2559.2
981.083	2504.06
981.382	2550.38
981.682	2528.24
981.981	2530.05
982.28	2495.25
982.579	2508.35
982.878	2491.18
983.177	2466.32
983.475	2475.81
983.774	2447.11
984.073	2416.38
984.372	2399.88
984.67	2399.65
984.969	2415.02
985.267	2394.91
985.566	2348.13
985.864	2354.23
986.162	2354.23
986.461	2349.26
986.759	2322.59
987.057	2277.62
987.355	2304.52
987.653	2301.13
987.951	2279.21
988.249	2324.63
988.547	2291.18
988.844	2238.08
989.142	2266.55
989.44	2245.31
989.737	2241.69
990.035	2265.19
990.332	2203.5
990.63	2174.58
990.927	2193.33
991.224	2201.47
991.521	2166.21
991.819	2154.01
992.116	2148.14
992.413	2150.62
992.71	2149.04
993.006	2132.54
993.303	2137.74
993.6	2131.19
993.897	2116.05
994.193	2127.57
994.49	2093.67
994.787	2055.71
995.083	2063.62
995.379	2042.83
995.676	2032.21
995.972	2030.4
996.268	2028.36
996.565	1979.55
996.861	2017.29
997.157	2006.44
997.453	1978.2
997.749	1972.1
998.044	1969.38
998.34	1952.89
998.636	1951.98
998.932	1939.55
999.227	1924.41
999.523	1968.93
999.818	1907.01
1000.114	1901.14
1000.409	1899.33
1000.704	1891.65
1001	1876.96
1001.295	1869.95
1001.59	1847.8
1001.885	1861.82
1002.18	1848.03
1002.475	1821.14
1002.77	1821.36
1003.065	1813.91
1003.359	1775.72
1003.654	1796.73
1003.949	1768.03
1004.243	1775.26
1004.538	1787.47
1004.832	1749.05
1005.127	1734.36
1005.421	1719.22
1005.715	1721.03
1006.009	1722.16
1006.304	1748.15
1006.598	1675.15
1006.892	1704.76
1007.186	1666.34
1007.48	1638.09
1007.773	1660.92
1008.067	1646
1008.361	1635.83
1008.655	1631.77
1008.948	1618.43
1009.242	1591.99
1009.535	1592.44
1009.829	1579.34
1010.122	1599.68
1010.415	1584.76
1010.708	1551.99
1011.001	1569.39
1011.295	1555.16
1011.588	1527.36
1011.881	1521.71
1012.173	1508.6
1012.466	1509.06
1012.759	1512.67
1013.052	1482.62
1013.344	1507.93
1013.637	1449.85
1013.93	1480.58
1014.222	1469.74
1014.514	1446.69
1014.807	1420.02
1015.099	1442.39
1015.391	1420.02
1015.683	1427.7
1015.976	1445.33
1016.268	1390.87
1016.56	1396.52
1016.851	1377.53
1017.143	1392.22
1017.435	1388.38
1017.727	1386.35
1018.018	1380.47
1018.31	1366.46
1018.602	1353.13
1018.893	1319
1019.185	1312.9
1019.476	1343.41
1019.767	1337.99
1020.058	1318.33
1020.35	1272
1020.641	1276.07
1020.932	1277.65
1021.223	1258.67
1021.514	1270.64
1021.804	1260.48
1022.095	1229.74
1022.386	1253.02
1022.677	1220.93
1022.967	1244.66
1023.258	1238.33
1023.548	1220.7
1023.839	1199.46
1024.129	1198.78
1024.419	1182.29
1024.709	1162.62
1025	1170.76
1025.29	1173.25
1025.58	1139.57
1025.87	1162.62
1026.16	1129.41
1026.449	1149.74
1026.739	1136.18
1027.029	1107.26
1027.319	1101.84
1027.608	1127.82
1027.898	1111.33
1028.187	1118.56
1028.477	1080.14
1028.766	1068.84
1029.055	1070.42
1029.344	1090.54
1029.634	1088.5
1029.923	1065.9
1030.212	1042.18
1030.501	1037.43
1030.79	1047.6
1031.078	1034.27
1031.367	1007.83
1031.656	1020.48
1031.945	1006.92
1032.233	1013.25
1032.522	992.01
1032.81	977.32
1033.099	966.47
1033.387	990.65
1033.675	966.25
1033.963	952.46
1034.251	963.99
1034.54	934.16
1034.828	948.85
1035.116	932.8
1035.403	915.85
1035.691	949.07
1035.979	931.67
1036.267	939.13
1036.554	934.61
1036.842	888.96
1037.129	921.73
1037.417	882.86
1037.704	878.79
1037.992	893.03
1038.279	874.72
1038.566	878.56
1038.853	878.56
1039.14	878.56
