Data from hue_10_FLMS001491_3.txt Node
Date: Mon Feb 06 15:31:18 GMT 2017
User: dcchb
Spectrometer: FLMS00149
Trigger mode: 0
Integration Time (sec): 2.000000E-2
Scans to average: 10
Electric dark correction enabled: true
Nonlinearity correction enabled: false
Boxcar width: 0
XAxis mode: Wavelengths
Number of Pixels in Spectrum: 2048
>>>>>Begin Spectral Data<<<<<
341.393	-14.91
341.776	-14.91
342.16	-14.91
342.543	-60.79
342.927	-70.05
343.31	-57.85
343.693	-53.11
344.077	-59.43
344.46	-32.99
344.843	-56.5
345.226	-53.78
345.61	-21.69
345.993	-33.22
346.376	-12.2
346.759	11.98
347.142	17.85
347.525	23.95
347.908	57.63
348.291	93.78
348.674	80.68
349.057	94.91
349.44	120.9
349.823	129.71
350.206	181.01
350.588	192.31
350.971	204.97
351.354	208.13
351.737	224.17
352.119	234.57
352.502	256.94
352.884	266.66
353.267	268.69
353.65	306.21
354.032	304.17
354.414	303.49
354.797	304.62
355.179	311.18
355.562	327.22
355.944	336.26
356.326	326.77
356.709	346.21
357.091	341.01
357.473	350.95
357.855	341.23
358.238	333.78
358.62	322.93
359.002	321.35
359.384	340.56
359.766	324.96
360.148	342.36
360.53	345.53
360.912	335.81
361.294	326.77
361.676	349.6
362.057	322.7
362.439	344.4
362.821	331.74
363.203	343.72
363.584	322.48
363.966	330.61
364.348	337.62
364.729	332.87
365.111	299.2
365.493	323.38
365.874	331.52
366.256	307.79
366.637	321.35
367.019	311.4
367.4	332.19
367.781	300.56
368.163	312.53
368.544	308.01
368.925	310.95
369.306	327.67
369.688	320.67
370.069	343.95
370.45	323.16
370.831	314.12
371.212	313.44
371.593	316.15
371.974	312.53
372.355	320.67
372.736	312.08
373.117	319.54
373.498	322.93
373.879	339.2
374.26	320.44
374.641	321.8
375.021	323.38
375.402	320.67
375.783	324.96
376.163	340.78
376.544	331.06
376.925	331.06
377.305	312.76
377.686	322.48
378.066	317.73
378.447	324.51
378.827	325.42
379.208	328.8
379.588	316.6
379.968	325.64
380.349	326.55
380.729	317.73
381.109	334
381.489	335.58
381.87	337.62
382.25	330.39
382.63	311.4
383.01	349.6
383.39	358.86
383.77	342.36
384.15	360.67
384.53	355.47
384.91	334.45
385.29	349.14
385.67	320.44
386.049	346.66
386.429	353.21
386.809	346.21
387.189	342.36
387.568	349.6
387.948	359.99
388.328	341.01
388.707	338.97
389.087	366.77
389.466	358.63
389.846	352.08
390.225	356.6
390.605	362.48
390.984	352.31
391.363	368.58
391.743	365.64
392.122	346.88
392.501	374.45
392.881	356.37
393.26	371.74
393.639	369.93
394.018	345.98
394.397	362.93
394.776	365.64
395.155	379.2
395.534	371.29
395.913	374.23
396.292	355.47
396.671	367.45
397.05	381.68
397.429	368.8
397.808	359.31
398.186	383.27
398.565	391.18
398.944	381.68
399.323	365.87
399.701	364.96
400.08	383.72
400.458	383.72
400.837	376.49
401.215	388.92
401.594	384.17
401.972	392.31
402.351	371.06
402.729	399.76
403.107	391.63
403.486	393.89
403.864	408.8
404.242	409.93
404.62	402.93
404.999	412.42
405.377	411.51
405.755	399.76
406.133	409.93
406.511	420.1
406.889	425.98
407.267	424.62
407.645	430.05
408.023	416.71
408.401	411.97
408.779	434.11
409.156	430.05
409.534	408.35
409.912	417.16
410.29	436.15
410.667	429.14
411.045	422.36
411.422	432.76
411.8	454.9
412.178	444.73
412.555	454.45
412.933	451.06
413.31	453.32
413.687	447.67
414.065	468.24
414.442	456.26
414.819	466.88
415.197	453.32
415.574	464.39
415.951	456.03
416.328	461.68
416.705	461.46
417.082	461.46
417.46	477.95
417.837	477.28
418.214	473.89
418.591	473.89
418.967	503.49
419.344	496.94
419.721	492.87
420.098	512.98
420.475	491.51
420.852	489.03
421.228	507.78
421.605	510.72
421.982	527.9
422.358	490.83
422.735	492.87
423.111	517.73
423.488	519.76
423.864	507.56
424.241	517.05
424.617	530.38
424.994	527.22
425.37	517.5
425.746	535.13
426.123	509.82
426.499	555.24
426.875	534.68
427.251	550.49
427.627	552.3
428.003	552.75
428.379	544.62
428.756	564.5
429.132	588.23
429.507	577.39
429.883	576.93
430.259	577.61
430.635	582.81
431.011	575.13
431.387	584.17
431.763	600.21
432.138	589.14
432.514	590.94
432.89	608.57
433.265	604.96
433.641	611.51
434.016	622.58
434.392	619.42
434.767	673.2
435.143	606.99
435.518	631.4
435.894	644.73
436.269	650.38
436.644	660.32
437.02	646.31
437.395	658.29
437.77	666.88
438.145	648.8
438.52	677.72
438.895	670.72
439.271	650.83
439.646	679.53
440.021	720.66
440.395	695.57
440.77	700.09
441.145	679.53
441.52	688.34
441.895	701.22
442.27	702.35
442.645	721.79
443.019	693.99
443.394	714.33
443.769	753.2
444.143	686.99
444.518	707.78
444.892	712.3
445.267	732.41
445.641	757.72
446.016	729.7
446.39	740.09
446.764	748.45
447.139	748.23
447.513	746.87
447.887	767.89
448.262	747.32
448.636	782.35
449.01	778.06
449.384	780.54
449.758	757.95
450.132	765.86
450.506	781.22
450.88	783.71
451.254	806.76
451.628	803.37
452.002	821
452.376	804.72
452.75	811.96
453.123	792.07
453.497	813.31
453.871	830.03
454.244	840.88
454.618	823.93
454.992	830.03
455.365	851.95
455.739	869.13
456.112	863.25
456.486	893.08
456.859	894.21
457.232	915.46
457.606	924.95
457.979	891.28
458.352	923.82
458.725	915.46
459.099	964.04
459.472	941.22
459.845	947.32
460.218	944.83
460.591	967.88
460.964	969.47
461.337	976.7
461.71	987.09
462.083	997.49
462.456	1021.44
462.829	1033.87
463.201	1056.24
463.574	1025.28
463.947	1042.23
464.32	1076.36
464.692	1067.09
465.065	1081.33
465.438	1086.75
465.81	1125.17
466.183	1096.24
466.555	1123.36
466.928	1127.65
467.3	1144.83
467.672	1165.85
468.045	1187.99
468.417	1180.76
468.789	1203.13
469.161	1200.87
469.534	1228.67
469.906	1261.21
470.278	1267.76
470.65	1267.76
471.022	1319.51
471.394	1304.37
471.766	1318.16
472.138	1347.54
472.51	1388.66
472.882	1375.56
473.253	1385.95
473.625	1409.68
473.997	1451.04
474.369	1448.55
474.74	1455.33
475.112	1534.65
475.484	1522.9
475.855	1575.1
476.227	1597.92
476.598	1633.63
476.97	1592.05
477.341	1634.99
477.713	1689
478.084	1671.14
478.455	1716.57
478.827	1778.26
479.198	1807.41
479.569	1814.64
479.94	1872.72
480.311	1851.25
480.682	1909.33
481.053	1952.49
481.424	1980.96
481.795	2035.43
482.166	2025.26
482.537	2064.35
482.908	2117.91
483.279	2153.62
483.65	2244.69
484.021	2225.48
484.391	2251.24
484.762	2300.05
485.133	2323.78
485.503	2357.45
485.874	2394.29
486.244	2404
486.615	2513.61
486.985	2519.03
487.356	2557.45
487.726	2598.35
488.097	2629.54
488.467	2622.76
488.837	2716.99
489.207	2715.63
489.578	2781.4
489.948	2857.78
490.318	2885.8
490.688	2916.76
491.058	2960.15
491.428	2963.99
491.798	3019.58
492.168	3025.91
492.538	3081.95
492.908	3093.93
493.278	3174.38
493.648	3194.04
494.017	3213.25
494.387	3243.08
494.757	3284.21
495.126	3327.82
495.496	3361.95
495.866	3357.43
496.235	3399.01
496.605	3416.18
496.974	3469.51
497.344	3480.36
497.713	3535.73
498.082	3585.22
498.452	3587.02
498.821	3594.26
499.19	3631.77
499.559	3654.14
499.928	3654.82
500.298	3732.56
500.667	3739.11
501.036	3708.6
501.405	3742.95
501.774	3791.54
502.143	3867.92
502.512	3848.03
502.88	3902.95
503.249	3921.03
503.618	3961.93
503.987	3942.95
504.356	4001.93
504.724	3994.47
505.093	4001.25
505.462	4008.03
505.83	4080.57
506.199	4087.12
506.567	4148.14
506.936	4161.92
507.304	4153.11
507.672	4197.18
508.041	4213.67
508.409	4224.52
508.777	4217.29
509.145	4256.16
509.514	4262.03
509.882	4301.36
510.25	4321.92
510.618	4339.09
510.986	4396.04
511.354	4383.39
511.722	4389.94
512.09	4446.66
512.458	4415.7
512.826	4482.14
513.193	4496.15
513.561	4467.91
513.929	4520.33
514.297	4571.63
514.664	4544.51
515.032	4579.77
515.4	4595.59
515.767	4634.68
516.135	4641.46
516.502	4647.56
516.869	4698.86
517.237	4661.57
517.604	4699.99
517.972	4722.14
518.339	4732.76
518.706	4757.16
519.073	4802.81
519.44	4786.31
519.808	4830.83
520.175	4838.74
520.542	4871.51
520.909	4859.99
521.276	4903.6
521.643	4949.7
522.009	4946.54
522.376	5017.27
522.743	4999.87
523.11	5032.41
523.477	5086.42
523.843	5051.39
524.21	5103.82
524.577	5116.7
524.943	5169.13
525.31	5178.39
525.676	5258.62
526.043	5239.41
526.409	5309.92
526.776	5321.67
527.142	5327.09
527.508	5372.74
527.874	5407.32
528.241	5426.98
528.607	5390.82
528.973	5480.31
529.339	5496.13
529.705	5507.65
530.071	5550.36
530.437	5642.11
530.803	5637.82
531.169	5616.58
531.535	5626.07
531.901	5694.77
532.267	5721.88
532.632	5754.42
532.998	5711.71
533.364	5781.54
533.73	5794.65
534.095	5854.54
534.461	5882.78
534.826	5910.13
535.192	5954.19
535.557	5923.46
535.923	5939.96
536.288	6008.43
536.653	5987.64
537.019	5960.75
537.384	6017.92
537.749	6107.64
538.114	6050.46
538.479	6085.26
538.845	6137.69
539.21	6080.97
539.575	6118.03
539.94	6171.59
540.305	6242.1
540.67	6247.97
541.034	6268.08
541.399	6273.28
541.764	6303.56
542.129	6356.44
542.494	6354.64
542.858	6366.16
543.223	6431.7
543.587	6419.72
543.952	6420.17
544.316	6423.33
544.681	6445.03
545.045	6510.11
545.41	6546.72
545.774	6594.4
546.138	6533.39
546.503	6639.83
546.867	6628.75
547.231	6686.15
547.595	6649.54
547.959	6751.46
548.324	6783.78
548.688	6772.48
549.052	6789.65
549.416	6779.03
549.779	6805.24
550.143	6873.27
550.507	6890.67
550.871	6929.31
551.235	6922.53
551.599	6967.05
551.962	6987.16
552.326	7001.17
552.689	7060.61
553.053	7028.97
553.417	7059.25
553.78	7115.07
554.143	7102.86
554.507	7136.99
554.87	7141.51
555.234	7223.76
555.597	7210.88
555.96	7241.17
556.323	7229.64
556.686	7267.61
557.05	7298.11
557.413	7348.73
557.776	7354.16
558.139	7330.43
558.502	7390.99
558.865	7389.86
559.228	7473.25
559.59	7492.68
559.953	7517.09
560.316	7519.8
560.679	7583.08
561.041	7632.57
561.404	7616.75
561.767	7632.57
562.129	7652.91
562.492	7754.37
562.854	7709.85
563.217	7741.94
563.579	7774.03
563.941	7715.73
564.304	7817.65
564.666	7836.4
565.028	7878.21
565.39	7910.98
565.753	7940.36
566.115	7941.26
566.477	8004.08
566.839	7991.2
567.201	8056.74
567.563	8089.73
567.925	8118.88
568.287	8177.86
568.648	8181.03
569.01	8204.3
569.372	8334.47
569.734	8226.45
570.095	8350.97
570.457	8314.13
570.819	8350.51
571.18	8375.37
571.542	8447.01
571.903	8430.51
572.265	8575.82
572.626	8555.26
572.987	8549.61
573.349	8651.75
573.71	8735.59
574.071	8760.67
574.432	8784.85
574.794	8785.98
575.155	8865.08
575.516	8992.53
575.877	8967.22
576.238	8971.06
576.599	9143.71
576.96	9180.78
577.32	9228.91
577.681	9310.26
578.042	9419.64
578.403	9492.18
578.763	9507.77
579.124	9577.15
579.485	9719.07
579.845	9838.84
580.206	9870.7
580.566	9969.23
580.927	10102.11
581.287	10216.23
581.648	10247.41
582.008	10440.4
582.368	10494.41
582.728	10684.24
583.089	10796.1
583.449	10884.91
583.809	11065.02
584.169	11195.86
584.529	11382.07
584.889	11670.88
585.249	11665
585.609	11798.33
585.969	12143.64
586.329	12204.2
586.688	12312.44
587.048	12591.08
587.408	12751.3
587.768	12911.07
588.127	13160.11
588.487	13337.28
588.846	13686.19
589.206	13825.4
589.565	14030.59
589.925	14309.91
590.284	14450.47
590.643	14839.61
591.003	15119.15
591.362	15324.79
591.721	15594.39
592.08	15822.63
592.44	16046.58
592.799	16393.92
593.158	16610.18
593.517	16913
593.876	17213.11
594.235	17347.34
594.593	17799.53
594.952	18060.54
595.311	18274.55
595.67	18579.62
596.029	18901.65
596.387	19126.5
596.746	19539.83
597.104	19733.72
597.463	19958.35
597.822	20292.8
598.18	20584.32
598.538	20907.02
598.897	21192.89
599.255	21430.62
599.613	21952.87
599.972	22059.76
600.33	22454.1
600.688	22599.63
601.046	22994.88
601.404	23290.69
601.762	23421.98
602.12	23964.57
602.478	24176.77
602.836	24427.38
603.194	24584.89
603.552	24831.89
603.91	25078.21
604.268	25334.93
604.625	25603.17
604.983	25928.36
605.341	26068.24
605.698	26439.53
606.056	26853.98
606.413	26990.02
606.771	27274.99
607.128	27547.07
607.485	27545.94
607.843	27803.56
608.2	28175.3
608.557	28633.37
608.914	28465.24
609.272	28937.54
609.629	29278.55
609.986	29596.74
610.343	29607.58
610.7	29908.14
611.057	30103.39
611.414	30273.33
611.771	30585.86
612.127	30831.05
612.484	31065.17
612.841	31253.42
613.198	31396.01
613.554	31501.77
613.911	32010.91
614.267	32033.73
614.624	32179.72
614.98	32285.93
615.337	32588.97
615.693	32699.48
616.05	32896.31
616.406	33208.62
616.762	33187.38
617.118	33337.65
617.475	33461.04
617.831	33750.75
618.187	33912.55
618.543	34188.93
618.899	34311.87
619.255	34247.24
619.611	34585.53
619.967	34581.69
620.323	34851.06
620.678	34752.08
621.034	34858.29
621.39	34902.59
621.746	35056.71
622.101	35553.87
622.457	35225.29
622.812	35524.72
623.168	35670.7
623.523	35740.08
623.879	35893.07
624.234	35729.23
624.589	35971.71
624.945	36114.53
625.3	36209.44
625.655	36223
626.01	36292.38
626.365	36416.9
626.72	36437.69
627.075	36609.43
627.43	36605.37
627.785	36597.46
628.14	36721.29
628.495	36935.75
628.85	36763.33
629.205	36831.12
629.559	36999.25
629.914	36960.38
630.269	37024.56
630.623	37018.91
630.978	36852.14
631.332	37168.74
631.687	37105.01
632.041	37151.34
632.396	37220.04
632.75	37150.66
633.104	37269.3
633.459	37126.71
633.813	37274.73
634.167	37131.68
634.521	37189.53
634.875	37394.05
635.229	37332.35
635.583	37110.66
635.937	37262.07
636.291	37164.22
636.645	37219.81
636.999	37247.83
637.352	37369.19
637.706	37274.95
638.06	37304.33
638.413	37293.26
638.767	37227.72
639.121	37317.89
639.474	37125.13
639.828	37143.43
640.181	37380.94
640.534	37324.67
640.888	37240.15
641.241	37179.81
641.594	37175.29
641.947	37312.69
642.301	37133.03
642.654	37213.03
643.007	37178.23
643.36	37202.41
643.713	37155.63
644.066	37359.92
644.419	37036.99
644.771	36768.98
645.124	36515.42
645.477	36509.77
645.83	36247.63
646.182	36177.13
646.535	36049.9
646.888	36246.28
647.24	36070.46
647.593	36207.18
647.945	36129.9
648.298	35981.2
648.65	35961.99
649.002	35799.28
649.355	36174.64
649.707	35931.03
650.059	36140.74
650.411	36540.28
650.763	36515.88
651.115	36877.45
651.467	36753.84
651.819	36875.41
652.171	36946.37
652.523	36820.95
652.875	36643.78
653.227	36515.42
653.578	36772.14
653.93	36738.7
654.282	36599.04
654.633	36498.02
654.985	36645.82
655.337	36726.72
655.688	36654.63
656.039	36733.27
656.391	36442.21
656.742	36544.35
657.094	36557.68
657.445	36720.16
657.796	36624.35
658.147	36576.21
658.498	36552.26
658.849	36640.39
659.2	36469.78
659.551	36416.9
659.902	36583.22
660.253	36521.75
660.604	36514.07
660.955	36323.79
661.306	36439.72
661.656	36427.52
662.007	36339.38
662.358	36403.79
662.708	36397.91
663.059	36254.64
663.409	36083.35
663.76	36397.01
664.11	36284.92
664.461	36452.37
664.811	36387.52
665.161	36423
665.511	36366.5
665.862	36338.03
666.212	36342.32
666.562	36365.82
666.912	36309.33
667.262	36280.85
667.612	36386.61
667.962	36326.28
668.312	36297.8
668.662	36407.18
669.011	36295.32
669.361	36304.81
669.711	36209.44
670.06	36169.22
670.41	36059.39
670.76	36275.43
671.109	36280.18
671.459	36264.36
671.808	36095.32
672.157	36289.89
672.507	35962.9
672.856	35967.19
673.205	36066.85
673.554	36272.27
673.904	35991.14
674.253	36184.59
674.602	36145.26
674.951	35669.57
675.3	35459.41
675.649	36020.97
675.998	35999.28
676.346	35942.78
676.695	35973.97
677.044	35807.65
677.393	35949.56
677.741	35918.15
678.09	35849
678.438	35777.59
678.787	35698.72
679.135	35839.28
679.484	35570.36
679.832	35791.83
680.181	35506.41
680.529	35471.38
680.877	35518.84
681.225	35428
681.573	35716.12
681.922	35322.69
682.27	35358.62
682.618	35424.38
682.966	35281.56
683.314	35281.33
683.661	35226.87
684.009	35136.03
684.357	35136.25
684.705	34884.05
685.053	35066.2
685.4	34991.85
685.748	34833.21
686.095	34858.97
686.443	34670.05
686.79	34625.76
687.138	34595.93
687.485	34603.38
687.832	34566.55
688.18	34538.3
688.527	34244.52
688.874	34406.55
689.221	34300.79
689.568	34138.76
689.915	34175.6
690.262	34213.11
690.609	34092.66
690.956	33948.03
691.303	33903.74
691.65	33824.2
691.997	33652
692.344	33489.06
692.69	33546.46
693.037	33483.19
693.383	33196.64
693.73	33424.88
694.077	33211.78
694.423	33334.72
694.769	33028.28
695.116	32964.33
695.462	33007.04
695.808	32869.87
696.155	32981.73
696.501	32716.43
696.847	32712.13
697.193	32410.45
697.539	32624.68
697.885	32452.03
698.231	32228.76
698.577	32274.63
698.923	32190.11
699.269	32081.87
699.614	31901.99
699.96	31926.17
700.306	31835.32
700.651	31797.36
700.997	31746.06
701.342	31680.97
701.688	31639.62
702.033	31448.44
702.379	31326.86
702.724	31339.51
703.069	31415.67
703.415	31033.53
703.76	31189.46
704.105	31008.9
704.45	30902.69
704.795	30783.37
705.14	30782.47
705.485	30775.46
705.83	30541.12
706.175	30610.04
706.52	30586.99
706.865	30350.39
707.209	30401.69
707.554	30305.19
707.899	30333.44
708.243	30201.47
708.588	30122.37
708.932	29956.5
709.277	29932.32
709.621	29967.35
709.966	29741.82
710.31	29862.27
710.654	29654.59
710.998	29772.32
711.342	29665.66
711.687	29571.2
712.031	29344.09
712.375	29272.22
712.719	29351.54
713.063	29329.62
713.407	29335.73
713.75	29148.84
714.094	29128.27
714.438	29138.67
714.782	29071.78
715.125	29013.25
715.469	28975.28
715.812	28816.87
716.156	28676.08
716.499	28673.14
716.843	28750.66
717.186	28557.89
717.53	28716.53
717.873	28535.75
718.216	28555.18
718.559	28499.36
718.902	28318.8
719.246	28270.22
719.589	28096.66
719.932	28105.25
720.275	28034.07
720.617	28000.62
720.96	28016.21
721.303	27997.68
721.646	27839.49
721.989	27895.76
722.331	27936.21
722.674	27794.75
723.016	27772.15
723.359	27708.2
723.701	27811.25
724.044	27561.08
724.386	27571.48
724.729	27703.9
725.071	27607.41
725.413	27502.78
725.755	27437.47
726.097	27425.95
726.439	27304.14
726.782	27294.88
727.124	27300.98
727.465	27219.4
727.807	27134.88
728.149	27073.41
728.491	27054.66
728.833	27093.75
729.175	27061.66
729.516	26905.73
729.858	26929.01
730.199	26788
730.541	26879.52
730.882	26911.61
731.224	26944.15
731.565	26825.51
731.906	26716.81
732.248	26738.05
732.589	26517.95
732.93	26465.29
733.271	26593.88
733.612	26555.91
733.953	26525.18
734.294	26446.54
734.635	26389.59
734.976	26437.95
735.317	26197.73
735.658	26215.58
735.999	26337.16
736.339	26218.52
736.68	26237.95
737.021	26124.28
737.361	26015.36
737.702	26185.3
738.042	25954.57
738.383	25967.9
738.723	25968.81
739.063	26030.73
739.404	26017.85
739.744	25792.32
740.084	25727.46
740.424	25864.86
740.764	25792.32
741.104	25827.57
741.444	25659.21
741.784	25558.2
742.124	25774.69
742.464	25610.17
742.804	25665.99
743.143	25498.09
743.483	25547.8
743.823	25495.37
744.162	25465.32
744.502	25359.79
744.841	25238.43
745.181	25383.06
745.52	25226.23
745.86	25255.38
746.199	25190.75
746.538	25134.93
746.877	25211.77
747.216	25197.3
747.556	25020.36
747.895	25127.7
748.234	24926.8
748.573	24874.15
748.911	24909.63
749.25	24803.42
749.589	24842.74
749.928	24703.76
750.267	24707.82
750.605	24687.71
750.944	24697.2
751.283	24550.54
751.621	24609.3
751.96	24612.23
752.298	24496.31
752.636	24443.2
752.975	24467.38
753.313	24375.63
753.651	24479.13
753.989	24424.67
754.327	24343.09
754.666	24121.63
755.004	24271.23
755.342	24236.2
755.679	24105.35
756.017	24012.7
756.355	23980.61
756.693	23926.15
757.031	23973.38
757.368	23810.67
757.706	23793.5
758.044	23783.33
758.381	23732.48
758.719	23664.46
759.056	23723.9
759.394	23544.69
759.731	23383.79
760.068	23477.12
760.405	23360.97
760.743	23223.8
761.08	23296.79
761.417	23139.5
761.754	23132.95
762.091	23093.18
762.428	22997.59
762.765	22904.93
763.102	22851.83
763.438	22756.46
763.775	22640.99
764.112	22691.61
764.449	22737.48
764.785	22646.18
765.122	22448
765.458	22437.15
765.795	22359.19
766.131	22297.49
766.467	22148.34
766.804	22151.96
767.14	21984.96
767.476	22071.28
767.812	21903.38
768.148	21913.1
768.485	21872.87
768.821	21692.99
769.157	21672.65
769.492	21543.61
769.828	21608.02
770.164	21439.66
770.5	21370.29
770.836	21353.34
771.171	21215.71
771.507	21157.18
771.842	21059.33
772.178	20973.69
772.513	20916.06
772.849	20857.08
773.184	20850.07
773.519	20763.75
773.855	20592.9
774.19	20649.17
774.525	20549.74
774.86	20481.95
775.195	20415.73
775.53	20314.04
775.865	20225.46
776.2	20170.54
776.535	19933.94
776.87	19945.46
777.205	19821.85
777.539	19916.09
777.874	19778.69
778.209	19678.8
778.543	19731.23
778.878	19549.54
779.212	19540.5
779.547	19433.84
779.881	19447.85
780.215	19171.7
780.55	19385.03
780.884	19133.51
781.218	19149.55
781.552	19159.5
781.886	19068.2
782.22	18937.13
782.554	18841.31
782.888	18674.99
783.222	18723.8
783.556	18566.07
783.889	18551.83
784.223	18405.62
784.557	18336.47
784.89	18411.04
785.224	18259.86
785.557	18184.15
785.891	18166.3
786.224	18150.48
786.558	18032.07
786.891	17863.94
787.224	17860.77
787.557	17790.27
787.891	17803.37
788.224	17696.03
788.557	17717.5
788.89	17752.3
789.223	17655.81
789.556	17468.02
789.888	17496.49
790.221	17422.37
790.554	17267.79
790.887	17280
791.219	17170.4
791.552	17136.27
791.884	17128.59
792.217	17098.08
792.549	16956.16
792.882	16893.12
793.214	16752.78
793.546	16866.9
793.879	16666.91
794.211	16724.53
794.543	16708.71
794.875	16601.6
795.207	16553.24
795.539	16400.7
795.871	16451.54
796.203	16407.25
796.535	16303.3
796.867	16182.63
797.198	16145.56
797.53	16291.32
797.862	16082.74
798.193	16086.81
798.525	15937.89
798.856	15977.88
799.188	15861.28
799.519	15712.58
799.85	15737.21
800.182	15692.24
800.513	15679.14
800.844	15534.73
801.175	15598.01
801.506	15614.28
801.837	15508.29
802.168	15598.91
802.499	15399.82
802.83	15391.01
803.161	15303.1
803.491	15167.51
803.822	15282.08
804.153	15250.22
804.483	15022.43
804.814	14939.95
805.145	15025.14
805.475	14969.55
805.805	14927.52
806.136	14918.93
806.466	14880.96
806.796	14801.64
807.126	14648.43
807.457	14701.53
807.787	14658.6
808.117	14640.52
808.447	14572.95
808.777	14587.41
809.107	14595.1
809.436	14522.1
809.766	14461.77
810.096	14362.79
810.426	14353.29
810.755	14351.26
811.085	14280.3
811.414	14330.47
811.744	14238.27
812.073	14160.98
812.403	14164.15
812.732	14016.35
813.061	13988.11
813.39	14020.42
813.719	13958.5
814.049	14078.5
814.378	13993.98
814.707	13915.11
815.036	13959.63
815.365	13824.04
815.693	13652.75
816.022	13725.51
816.351	13672.63
816.68	13572.3
817.008	13669.7
817.337	13522.36
817.665	13496.82
817.994	13509.02
818.322	13477.39
818.651	13360.78
818.979	13395.35
819.307	13399.42
819.636	13431.06
819.964	13315.36
820.292	13323.27
820.62	13348.8
820.948	13281.01
821.276	13277.39
821.604	13294.34
821.932	13255.24
822.259	13272.42
822.587	13252.08
822.915	13198.52
823.243	13307.67
823.57	13272.42
823.898	13202.36
824.225	13230.16
824.553	13100.9
824.88	13162.59
825.207	13202.59
825.535	13159.65
825.862	13141.8
826.189	13165.08
826.516	13191.74
826.843	13230.16
827.17	13148.13
827.497	13217.96
827.824	13173.89
828.151	13145.87
828.478	13185.87
828.805	13180.9
829.131	13134.12
829.458	13163.95
829.785	13052.54
830.111	13180.9
830.438	13164.85
830.764	13081.24
831.09	13117.17
831.417	13029.94
831.743	13105.87
832.069	13102.48
832.395	13042.37
832.722	13088.47
833.048	12990.84
833.374	13010.28
833.7	12960.56
834.026	12987.46
834.351	12987.91
834.677	13041.92
835.003	12965.76
835.329	12962.37
835.654	13017.06
835.98	12918.3
836.306	12951.07
836.631	12854.58
836.956	12889.15
837.282	12951.3
837.607	12814.13
837.932	12786.33
838.258	12845.76
838.583	12782.71
838.908	12701.81
839.233	12725.32
839.558	12704.52
839.883	12676.5
840.208	12639.67
840.533	12688.48
840.858	12608.93
841.182	12606.45
841.507	12672.44
841.832	12456.62
842.156	12477.86
842.481	12474.02
842.805	12513.57
843.13	12541.59
843.454	12448.94
843.778	12376.4
844.103	12336.62
844.427	12261.6
844.751	12370.97
845.075	12240.36
845.399	12166.69
845.723	12169.85
846.047	12174.14
846.371	12095.28
846.695	12142.05
847.019	12034.03
847.343	11949.74
847.666	11970.08
847.99	11864.32
848.313	11824.1
848.637	11715.17
848.96	11734.83
849.284	11703.42
849.607	11595.63
849.931	11592.92
850.254	11501.62
850.577	11472.01
850.9	11383.88
851.223	11396.08
851.546	11305.24
851.869	11302.3
852.192	11310.89
852.515	11134.17
852.838	11112.93
853.161	11120.84
853.483	11024.79
853.806	11024.57
854.129	10960.62
854.451	10990.9
854.774	10879.49
855.096	10840.62
855.419	10833.61
855.741	10842.2
856.063	10761.07
856.385	10729.66
856.708	10722.66
857.03	10661.87
857.352	10651.25
857.674	10691.92
857.996	10616.9
858.318	10524.7
858.64	10560.63
858.961	10510.68
859.283	10476.79
859.605	10330.35
859.926	10431.82
860.248	10406.28
860.57	10323.8
860.891	10365.6
861.212	10251.71
861.534	10279.96
861.855	10257.81
862.176	10230.01
862.498	10255.55
862.819	10236.79
863.14	10228.88
863.461	10147.98
863.782	10122.45
864.103	10130.13
864.424	10073.18
864.745	10094.2
865.065	10105.72
865.386	10030.92
865.707	10018.04
866.027	10045.39
866.348	10037.7
866.668	10006.29
866.989	9913.19
867.309	9886.29
867.63	9886.52
867.95	9844.49
868.27	9887.2
868.59	9864.15
868.91	9853.07
869.23	9747.09
869.55	9768.78
869.87	9781.21
870.19	9811.04
870.51	9867.76
870.83	9731.72
871.15	9697.6
871.469	9749.12
871.789	9684.04
872.109	9733.98
872.428	9670.93
872.748	9675.9
873.067	9722.91
873.386	9668.45
873.706	9619.63
874.025	9555.23
874.344	9599.75
874.663	9655.34
874.982	9495.8
875.301	9516.13
875.62	9486.98
875.939	9443.82
876.258	9437.94
876.577	9421.67
876.896	9437.04
877.214	9370.83
877.533	9472.29
877.852	9373.09
878.17	9382.8
878.489	9365.4
878.807	9394.78
879.125	9333.31
879.444	9333.09
879.762	9312.75
880.08	9301.22
880.398	9268.23
880.716	9263.26
881.034	9229.59
881.352	9226.88
881.67	9161.79
881.988	9233.43
882.306	9150.49
882.624	9093.77
882.941	9052.42
883.259	9055.58
883.577	9006.09
883.894	9038.41
884.212	8997.96
884.529	9032.53
884.846	8959.99
885.164	8967.22
885.481	8941.01
885.798	8939.43
886.115	8884.96
886.432	8870.95
886.75	8844.29
887.067	8857.62
887.383	8825.76
887.7	8816.72
888.017	8764.74
888.334	8815.36
888.651	8767
888.967	8710.51
889.284	8675.48
889.6	8689.72
889.917	8611.98
890.233	8618.08
890.55	8635.71
890.866	8626.21
891.182	8549.15
891.498	8500.79
891.815	8515.26
892.131	8449.5
892.447	8470.06
892.763	8450.17
893.079	8429.61
893.395	8369.95
893.71	8391.42
894.026	8344.41
894.342	8275.04
894.657	8243.4
894.973	8220.12
895.289	8228.48
895.604	8166.56
895.92	8147.58
896.235	8163.18
896.55	8107.36
896.865	8129.96
897.181	8058.55
897.496	8113.91
897.811	7965.21
898.126	8001.82
898.441	7938.55
898.756	7918.21
899.071	7938.1
899.386	7866.01
899.7	7821.72
900.015	7790.53
900.33	7737.88
900.644	7771.1
900.959	7749.17
901.273	7775.16
901.588	7711.21
901.902	7623.75
902.216	7535.17
902.531	7623.75
902.845	7565.22
903.159	7492.91
903.473	7495.85
903.787	7436.19
904.101	7392.12
904.415	7438.22
904.729	7401.16
905.042	7358.68
905.356	7258.11
905.67	7299.7
905.984	7305.57
906.297	7265.57
906.611	7249.3
906.924	7231.22
907.237	7220.83
907.551	7182.64
907.864	7111.9
908.177	7101.51
908.491	7073.49
908.804	7077.1
909.117	6996.88
909.43	6938.8
909.743	6983.55
910.056	6932.02
910.368	6910.55
910.681	6814.06
910.994	6821.06
911.307	6795.98
911.619	6777.9
911.932	6747.39
912.244	6719.6
912.557	6709.65
912.869	6668.07
913.181	6650.9
913.494	6649.54
913.806	6608.41
914.118	6595.08
914.43	6511.24
914.742	6516.44
915.054	6439.6
915.366	6448.87
915.678	6472.6
915.99	6361.64
916.302	6359.15
916.613	6316.67
916.925	6333.17
917.236	6344.92
917.548	6277.35
917.859	6288.87
918.171	6250.01
918.482	6185.6
918.794	6179.72
919.105	6166.17
919.416	6158.93
919.727	6100.86
920.038	6115.55
920.349	6020.63
920.66	5981.76
920.971	6012.72
921.282	5963.23
921.593	5903.35
921.903	5935.66
922.214	5887.3
922.525	5907.19
922.835	5911.48
923.146	5831.94
923.456	5749.45
923.767	5830.36
924.077	5785.38
924.387	5745.39
924.697	5751.26
925.008	5692.96
925.318	5707.87
925.628	5649.34
925.938	5645.28
926.248	5623.35
926.558	5547.65
926.867	5542.91
927.177	5517.6
927.487	5481.21
927.796	5434.21
928.106	5466.07
928.416	5433.76
928.725	5417.03
929.034	5367.09
929.344	5402.57
929.653	5326.64
929.962	5310.82
930.271	5250.03
930.581	5229.02
930.89	5227.89
931.199	5209.81
931.508	5244.16
931.817	5225.4
932.125	5205.74
932.434	5106.98
932.743	5094.33
933.051	5104.5
933.36	5051.62
933.669	5026.53
933.977	5037.16
934.286	5005.07
934.594	5020.66
934.902	4973.43
935.21	4951.28
935.519	4923.71
935.827	4963.94
936.135	4835.58
936.443	4850.95
936.751	4840.78
937.059	4782.47
937.367	4782.7
937.674	4828.57
937.982	4769.14
938.29	4735.47
938.597	4750.38
938.905	4720.78
939.213	4674
939.52	4648.92
939.827	4668.8
940.135	4638.75
940.442	4627.22
940.749	4640.33
941.056	4570.28
941.363	4547.68
941.67	4540.45
941.977	4523.72
942.284	4500.45
942.591	4458.19
942.898	4462.71
943.205	4408.92
943.511	4419.54
943.818	4373.44
944.125	4359.66
944.431	4347.46
944.738	4354.46
945.044	4320.11
945.35	4356.95
945.657	4294.12
945.963	4247.57
946.269	4256.39
946.575	4228.14
946.881	4177.97
947.187	4217.29
947.493	4198.31
947.799	4186.78
948.105	4129.16
948.41	4111.08
948.716	4107.46
949.022	4069.27
949.327	4125.09
949.633	4012.1
949.938	4052.55
950.244	4021.82
950.549	3994.25
950.854	3959.22
951.16	3956.28
951.465	3943.85
951.77	3896.62
952.075	3904.53
952.38	3897.07
952.685	3914.7
952.99	3806.68
953.294	3871.54
953.599	3830.86
953.904	3822.05
954.209	3811.88
954.513	3798.09
954.818	3775.27
955.122	3802.39
955.426	3724.87
955.731	3709.96
956.035	3688.94
956.339	3669.51
956.643	3690.75
956.948	3668.83
957.252	3632.22
957.556	3602.84
957.86	3596.74
958.163	3598.78
958.467	3586.12
958.771	3544.09
959.075	3555.39
959.378	3536.18
959.682	3513.35
959.985	3506.12
960.289	3515.61
960.592	3469.29
960.896	3466.58
961.199	3467.25
961.502	3450.53
961.805	3434.49
962.108	3412.79
962.411	3373.7
962.714	3404.66
963.017	3372.79
963.32	3331.21
963.623	3314.94
963.926	3306.81
964.228	3332.12
964.531	3321.72
964.833	3276.75
965.136	3255.06
965.438	3241.27
965.741	3217.09
966.043	3200.14
966.345	3179.58
966.648	3190.88
966.95	3166.24
967.252	3183.42
967.554	3127.83
967.856	3146.58
968.158	3105.23
968.46	3123.08
968.761	3049.64
969.063	3121.27
969.365	3052.58
969.666	3067.26
969.968	3044.89
970.269	2980.49
970.571	3017.32
970.872	2976.64
971.174	2967.15
971.475	2975.51
971.776	2950.66
972.077	2909.3
972.378	2922.86
972.679	2946.59
972.98	2908.62
973.281	2870.88
973.582	2902.52
973.883	2876.08
974.183	2860.26
974.484	2843.09
974.785	2805.8
975.085	2809.64
975.386	2806.93
975.686	2779.81
975.986	2772.81
976.287	2787.72
976.587	2778.68
976.887	2756.31
977.187	2729.65
977.487	2752.02
977.787	2743.2
978.087	2680.83
978.387	2679.03
978.687	2700.04
978.987	2663.66
979.286	2608.74
979.586	2640.16
979.885	2630.44
980.185	2598.12
980.484	2621.85
980.784	2609.87
981.083	2576.43
981.382	2538.01
981.682	2576.66
981.981	2564
982.28	2522.65
982.579	2516.77
982.878	2501.4
983.177	2530.78
983.475	2480.16
983.774	2473.83
984.073	2469.54
984.372	2510.67
984.67	2462.76
984.969	2459.37
985.267	2424.57
985.566	2425.25
985.864	2438.13
986.162	2413.72
986.461	2396.1
986.759	2406.94
987.057	2336.89
987.355	2367.62
987.653	2336.21
987.951	2322.42
988.249	2320.16
988.547	2324.23
988.844	2287.85
989.142	2353.16
989.44	2278.58
989.737	2261.18
990.035	2292.37
990.332	2255.31
990.63	2240.17
990.927	2241.07
991.224	2239.26
991.521	2194.07
991.819	2213.5
992.116	2230.9
992.413	2214.63
992.71	2169.89
993.006	2157.01
993.303	2149.1
993.6	2163.11
993.897	2138.7
994.193	2117.23
994.49	2114.75
994.787	2136.89
995.083	2087.85
995.379	2066.61
995.676	2090.79
995.972	2051.47
996.268	2074.52
996.565	2028.2
996.861	2018.25
997.157	2017.8
997.453	2023.22
997.749	1994.75
998.044	1999.95
998.34	1988.2
998.636	1968.54
998.932	1976.67
999.227	1949.55
999.523	1936.9
999.818	1938.48
1000.114	1926.28
1000.409	1908.88
1000.704	1918.37
1001	1891.48
1001.295	1874.75
1001.59	1854.87
1001.885	1879.95
1002.18	1850.35
1002.475	1830.23
1002.77	1859.61
1003.065	1826.62
1003.359	1828.43
1003.654	1845.15
1003.949	1834.08
1004.243	1813.74
1004.538	1792.27
1004.832	1774.64
1005.127	1801.08
1005.421	1766.51
1005.715	1760.18
1006.009	1773.51
1006.304	1736.23
1006.598	1708.2
1006.892	1721.08
1007.186	1667.53
1007.48	1698.03
1007.773	1672.95
1008.067	1673.4
1008.361	1655.32
1008.655	1655.55
1008.948	1641.31
1009.242	1649.67
1009.535	1601.09
1009.829	1630.69
1010.122	1619.39
1010.415	1600.64
1010.708	1592.5
1011.001	1563.8
1011.295	1551.37
1011.588	1568.77
1011.881	1546.17
1012.173	1542.56
1012.466	1532.16
1012.759	1510.92
1013.052	1550.69
1013.344	1515.44
1013.637	1487.42
1013.93	1505.27
1014.222	1506.63
1014.514	1483.8
1014.807	1487.64
1015.099	1465.5
1015.391	1482.45
1015.683	1451.49
1015.976	1431.15
1016.268	1443.8
1016.56	1423.24
1016.851	1410.13
1017.143	1420.3
1017.435	1402
1017.727	1385.73
1018.018	1383.69
1018.31	1408.78
1018.602	1375.11
1018.893	1364.03
1019.185	1361.77
1019.476	1351.83
1019.767	1354.54
1020.058	1348.21
1020.35	1309.57
1020.641	1287.88
1020.932	1293.07
1021.223	1288.1
1021.514	1271.83
1021.804	1268.22
1022.095	1261.89
1022.386	1261.44
1022.677	1253.07
1022.967	1231.38
1023.258	1230.48
1023.548	1230.7
1023.839	1237.48
1024.129	1190.93
1024.419	1216.69
1024.709	1205.84
1025	1204.26
1025.29	1178.05
1025.58	1165.17
1025.87	1210.59
1026.16	1186.86
1026.449	1171.49
1026.739	1121.1
1027.029	1141.44
1027.319	1133.53
1027.608	1129.69
1027.898	1126.52
1028.187	1109.58
1028.477	1108.22
1028.766	1082.46
1029.055	1104.38
1029.344	1093.08
1029.634	1082.23
1029.923	1066.86
1030.212	1066.41
1030.501	1057.37
1030.79	1053.08
1031.078	1054.89
1031.367	1047.43
1031.656	1017.15
1031.945	1026.87
1032.233	1001.56
1032.522	1001.33
1032.81	1002.91
1033.099	987.54
1033.387	995.45
1033.675	1001.1
1033.963	964.95
1034.251	965.4
1034.54	962.23
1034.828	957.04
1035.116	960.65
1035.403	960.65
1035.691	930.82
1035.979	948
1036.267	925.63
1036.554	924.72
1036.842	924.27
1037.129	933.99
1037.417	910.48
1037.704	911.16
1037.992	908.22
1038.279	895.8
1038.566	879.75
1038.853	879.75
1039.14	879.75
