Data from hue_230_FLMS001491_00054.txt Node
Date: Tue Feb 07 16:37:26 GMT 2017
User: dcchb
Spectrometer: FLMS00149
Trigger mode: 0
Integration Time (sec): 2.000000E-2
Scans to average: 10
Electric dark correction enabled: true
Nonlinearity correction enabled: false
Boxcar width: 0
XAxis mode: Wavelengths
Number of Pixels in Spectrum: 2048
>>>>>Begin Spectral Data<<<<<
341.393	-2.78
341.776	-2.78
342.16	-2.78
342.543	-52.27
342.927	-50.01
343.31	-79.84
343.693	-72.84
344.077	-80.29
344.46	-54.31
344.843	-23.57
345.226	-62.67
345.61	-39.62
345.993	-36.45
346.376	-7.98
346.759	-3.46
347.142	44.9
347.525	57.55
347.908	49.65
348.291	85.35
348.674	105.46
349.057	118.12
349.44	131.9
349.823	161.96
350.206	161.06
350.588	193.14
350.971	199.7
351.354	221.62
351.737	245.12
352.119	240.38
352.502	247.83
352.884	273.82
353.267	263.2
353.65	285.35
354.032	303.65
354.414	300.03
354.797	301.16
355.179	331.45
355.562	316.98
355.944	322.86
356.326	325.8
356.709	325.8
357.091	340.94
357.473	338.45
357.855	331.45
358.238	345.01
358.62	324.67
359.002	330.77
359.384	342.52
359.766	326.93
360.148	328.28
360.53	352.24
360.912	325.12
361.294	321.73
361.676	317.21
362.057	343.2
362.439	321.05
362.821	307.72
363.203	318.79
363.584	313.59
363.966	320.82
364.348	327.38
364.729	322.18
365.111	345.68
365.493	313.82
365.874	300.71
366.256	293.26
366.637	319.69
367.019	319.47
367.4	306.36
367.781	287.83
368.163	323.31
368.544	296.87
368.925	316.31
369.306	317.44
369.688	309.53
370.069	303.65
370.45	311.11
370.831	302.29
371.212	318.34
371.593	304.78
371.974	302.29
372.355	305.68
372.736	295.74
373.117	316.53
373.498	312.92
373.879	298.9
374.26	318.11
374.641	332.35
375.021	290.77
375.402	323.99
375.783	321.95
376.163	307.27
376.544	336.64
376.925	326.47
377.305	325.12
377.686	324.21
378.066	312.46
378.447	319.69
378.827	313.37
379.208	323.31
379.588	311.33
379.968	342.29
380.349	337.32
380.729	322.86
381.109	312.01
381.489	325.8
381.87	311.11
382.25	313.37
382.63	352.91
383.01	344.1
383.39	307.49
383.77	345.46
384.15	325.57
384.53	342.07
384.91	344.1
385.29	350.88
385.67	355.63
386.049	347.94
386.429	323.76
386.809	349.52
387.189	343.65
387.568	346.81
387.948	350.65
388.328	367.6
388.707	350.88
389.087	353.82
389.466	358.11
389.846	375.06
390.225	367.6
390.605	362.18
390.984	343.65
391.363	370.32
391.743	363.99
392.122	374.61
392.501	361.28
392.881	356.53
393.26	387.94
393.639	374.38
394.018	363.08
394.397	372.8
394.776	366.25
395.155	375.06
395.534	380.94
395.913	377.55
396.292	374.16
396.671	366.7
397.05	370.77
397.429	380.71
397.808	392.46
398.186	384.55
398.565	381.39
398.944	392.46
399.323	382.74
399.701	390.2
400.08	427.71
400.458	394.95
400.837	404.66
401.215	398.11
401.594	407.6
401.972	395.17
402.351	407.15
402.729	426.58
403.107	424.55
403.486	414.38
403.864	414.61
404.242	425
404.62	451.22
404.999	457.32
405.377	453.93
405.755	417.09
406.133	444.89
406.511	463.19
406.889	450.99
407.267	447.6
407.645	458
408.023	440.6
408.401	468.39
408.779	483.31
409.156	476.53
409.534	459.13
409.912	477.43
410.29	487.83
410.667	498.67
411.045	491.89
411.422	512.23
411.8	504.55
412.178	516.07
412.555	524.89
412.933	557.65
413.31	527.83
413.687	545.23
414.065	549.52
414.442	586.13
414.819	574.83
415.197	576.86
415.574	600.37
415.951	583.87
416.328	586.81
416.705	602.63
417.082	611.66
417.46	630.87
417.837	632.68
418.214	619.8
418.591	641.95
418.967	646.69
419.344	627.94
419.721	649.18
420.098	654.6
420.475	661.61
420.852	676.75
421.228	690.08
421.605	710.19
421.982	697.09
422.358	723.3
422.735	728.27
423.111	716.75
423.488	713.58
423.864	751.1
424.241	766.69
424.617	788.84
424.994	755.84
425.37	773.24
425.746	783.19
426.123	805.78
426.499	827.25
426.875	849.17
427.251	836.29
427.627	856.63
428.003	875.61
428.379	886.23
428.756	895.73
429.132	872
429.507	907.93
429.883	896.63
430.259	926.68
430.635	920.58
431.011	927.14
431.387	959.9
431.763	966.68
432.138	971.2
432.514	980.69
432.89	978.89
433.265	1013.24
433.641	1020.47
434.016	1049.39
434.392	1072.9
434.767	1098.66
435.143	1078.09
435.518	1094.14
435.894	1160.35
436.269	1152.44
436.644	1163.74
437.02	1171.88
437.395	1189.28
437.77	1207.81
438.145	1209.62
438.52	1225.43
438.895	1262.04
439.271	1288.03
439.646	1289.84
440.021	1294.58
440.395	1334.13
440.77	1312.66
441.145	1331.65
441.52	1380.01
441.895	1357.86
442.27	1367.8
442.645	1384.53
443.019	1406.67
443.394	1436.28
443.769	1458.2
444.143	1416.39
444.518	1458.87
444.892	1457.29
445.267	1457.52
445.641	1469.72
446.016	1506.33
446.39	1490.51
446.764	1535.48
447.139	1544.07
447.513	1555.14
447.887	1551.98
448.262	1554.01
448.636	1582.49
449.01	1591.75
449.384	1611.41
449.758	1608.93
450.132	1612.77
450.506	1614.12
450.88	1624.07
451.254	1641.24
451.628	1678.53
452.002	1676.5
452.376	1700.22
452.75	1690.51
453.123	1688.7
453.497	1731.64
453.871	1761.46
454.244	1782.48
454.618	1792.2
454.992	1819.09
455.365	1828.58
455.739	1884.85
456.112	1885.08
456.486	1877.62
456.859	1880.56
457.232	1937.28
457.606	1921.01
457.979	1967.34
458.352	2006.2
458.725	2012.76
459.099	1984.96
459.472	2066.09
459.845	2102.02
460.218	2065.64
460.591	2130.49
460.964	2127.78
461.337	2170.49
461.71	2178.86
462.083	2216.14
462.456	2217.72
462.829	2236.93
463.201	2244.39
463.574	2283.03
463.947	2306.99
464.32	2372.07
464.692	2353.31
465.065	2331.62
465.438	2417.94
465.81	2458.85
466.183	2476.93
466.555	2523.7
466.928	2530.71
467.3	2518.06
467.672	2556.7
468.045	2608.67
468.417	2620.43
468.789	2639.41
469.161	2659.07
469.534	2730.93
469.906	2756.24
470.278	2762.79
470.65	2831.95
471.022	2833.75
471.394	2904.26
471.766	2895.22
472.138	2916.69
472.51	3029.45
472.882	3035.78
473.253	3070.58
473.625	3094.09
473.997	3179.05
474.369	3202.11
474.74	3219.05
475.112	3276.45
475.484	3306.28
475.855	3342.44
476.227	3390.12
476.598	3465.15
476.97	3472.15
477.341	3549.21
477.713	3607.07
478.084	3606.16
478.455	3677.57
478.827	3720.06
479.198	3826.27
479.569	3818.81
479.94	3880.28
480.311	3953.27
480.682	4054.74
481.053	4055.64
481.424	4136.32
481.795	4161.4
482.166	4213.38
482.537	4249.54
482.908	4351.45
483.279	4387.61
483.65	4435.97
484.021	4500.83
484.391	4555.74
484.762	4606.81
485.133	4654.95
485.503	4680.26
485.874	4790.09
486.244	4802.97
486.615	4902.17
486.985	4966.8
487.356	5005.22
487.726	5039.8
488.097	5117.08
488.467	5187.36
488.837	5240.7
489.207	5278.66
489.578	5315.72
489.948	5358.66
490.318	5470.75
490.688	5447.47
491.058	5509.39
491.428	5607.47
491.798	5600.23
492.168	5720
492.538	5784.86
492.908	5820.12
493.278	5844.07
493.648	5869.61
494.017	5934.69
494.387	6015.59
494.757	6011.75
495.126	6100.33
495.496	6066.66
495.866	6183.27
496.235	6161.12
496.605	6225.53
496.974	6232.53
497.344	6281.35
497.713	6303.72
498.082	6315.02
498.452	6406.77
498.821	6426.88
499.19	6446.31
499.559	6494.67
499.928	6472.3
500.298	6489.48
500.667	6570.15
501.036	6558.4
501.405	6619.42
501.774	6611.28
502.143	6637.95
502.512	6571.96
502.88	6684.05
503.249	6707.55
503.618	6669.36
503.987	6789.81
504.356	6816.02
504.724	6793.88
505.093	6828.45
505.462	6856.92
505.83	6881.33
506.199	6953.42
506.567	6992.74
506.936	6951.61
507.304	7037.94
507.672	7066.41
508.041	7016.69
508.409	7085.39
508.777	7139.85
509.145	7197.03
509.514	7158.16
509.882	7174.66
510.25	7150.7
510.618	7191.83
510.986	7199.51
511.354	7312.51
511.722	7285.16
512.09	7347.31
512.458	7316.57
512.826	7314.54
513.193	7358.38
513.561	7289.23
513.929	7437.93
514.297	7374.65
514.664	7456.46
515.032	7443.8
515.4	7494.2
515.767	7486.51
516.135	7514.99
516.502	7379.85
516.869	7627.3
517.237	7641.08
517.604	7524.48
517.972	7580.97
518.339	7620.07
518.706	7605.15
519.073	7554.31
519.44	7626.62
519.808	7660.29
520.175	7650.58
520.542	7745.94
520.909	7764.02
521.276	7687.41
521.643	7741.19
522.009	7796.11
522.376	7706.62
522.743	7801.98
523.11	7806.05
523.477	7922.88
523.843	7875.88
524.21	7924.69
524.577	7962.88
524.943	7949.55
525.31	7935.77
525.676	8031.13
526.043	8044.01
526.409	8030.45
526.776	8067.51
527.142	8016.22
527.508	8037.68
527.874	8099.38
528.241	8086.27
528.607	8116.55
528.973	8147.96
529.339	8138.92
529.705	8110.9
530.071	8192.48
530.437	8183.67
530.803	8176.89
531.169	8159.49
531.535	8161.52
531.901	8159.71
532.267	8150.22
532.632	8199.04
532.998	8166.72
533.364	8154.74
533.73	8157.68
534.095	8159.04
534.461	8157.46
534.826	8170.56
535.192	8154.74
535.557	8169.43
535.923	8044.01
536.288	8134.18
536.653	8134.4
537.019	8088.3
537.384	8109.55
537.749	8175.99
538.114	8072.94
538.479	8103.9
538.845	8125.14
539.21	8033.84
539.575	8061.86
539.94	8008.53
540.305	8053.95
540.67	8018.48
541.034	8057.57
541.399	8034.29
541.764	8030.45
542.129	7989.55
542.494	7980.06
542.858	8019.61
543.223	7987.97
543.587	8022.77
543.952	8004.01
544.316	7918.82
544.681	7940.96
545.045	7946.16
545.41	7923.34
545.774	7912.26
546.138	7939.83
546.503	7949.1
546.867	7896.67
547.231	7884.92
547.595	7910
547.959	7839.95
548.324	7815.77
548.688	7819.61
549.052	7808.99
549.416	7840.18
549.779	7769.67
550.143	7723.12
550.507	7785.71
550.871	7785.71
551.235	7713.17
551.599	7771.48
551.962	7688.77
552.326	7716.56
552.689	7809.67
553.053	7662.78
553.417	7742.78
553.78	7774.64
554.143	7684.47
554.507	7682.67
554.87	7653.51
555.234	7725.38
555.597	7656.68
555.96	7693.74
556.323	7748.2
556.686	7717.92
557.05	7742.1
557.413	7623.91
557.776	7687.86
558.139	7743.68
558.502	7718.6
558.865	7710.01
559.228	7717.47
559.59	7730.35
559.953	7731.25
560.316	7771.48
560.679	7752.04
561.041	7725.38
561.404	7750.01
561.767	7780.52
562.129	7777.58
562.492	7768.09
562.854	7830.01
563.217	7762.89
563.579	7848.31
563.941	7826.84
564.304	7869.1
564.666	7879.95
565.028	7825.03
565.39	7870.23
565.753	7912.94
566.115	7882.21
566.477	7952.26
566.839	7944.35
567.201	7953.84
567.563	8027.06
567.925	7973.28
568.287	8004.69
568.648	7994.97
569.01	8008.53
569.372	8017.35
569.734	8041.07
570.095	8074.75
570.457	8092.15
570.819	8072.49
571.18	8136.66
571.542	8122.2
571.903	8150
572.265	8157.23
572.626	8156.78
572.987	8145.93
573.349	8213.05
573.71	8211.01
574.071	8253.27
574.432	8290.78
574.794	8331.46
575.155	8342.31
575.516	8286.27
575.877	8305.02
576.238	8397
576.599	8424.79
576.96	8380.95
577.32	8362.42
577.681	8437.45
578.042	8443.55
578.403	8480.61
578.763	8462.53
579.124	8424.34
579.485	8507.73
579.845	8571.91
580.206	8575.52
580.566	8493.72
580.927	8528.29
581.287	8560.16
581.648	8462.76
582.008	8606.26
582.368	8600.61
582.728	8612.58
583.089	8593.83
583.449	8620.04
583.809	8631.57
584.169	8632.7
584.529	8621.62
584.889	8733.94
585.249	8684.45
585.609	8669.31
585.969	8733.26
586.329	8715.63
586.688	8739.13
587.048	8735.52
587.408	8710.43
587.768	8740.72
588.127	8732.81
588.487	8776.87
588.846	8816.87
589.206	8733.03
589.565	8776.2
589.925	8842.63
590.284	8829.53
590.643	8826.36
591.003	8847.15
591.362	8868.17
591.721	8836.08
592.08	8818.91
592.44	8818.23
592.799	8837.66
593.158	8883.31
593.517	8914.05
593.876	8904.1
594.235	8901.16
594.593	8898.23
594.952	8906.14
595.311	8829.08
595.67	8901.84
596.029	9000.14
596.387	9020.94
596.746	9027.04
597.104	8981.84
597.463	8999.01
597.822	8986.13
598.18	8975.51
598.538	8987.04
598.897	8977.09
599.255	8944.78
599.613	9061.84
599.972	8999.47
600.33	9066.81
600.688	9020.26
601.046	9036.53
601.404	9098.67
601.762	9064.78
602.12	9083.08
602.478	9062.97
602.836	9081.27
603.194	9043.31
603.552	9072.01
603.91	9044.89
604.268	9058.22
604.625	9074.72
604.983	9085.34
605.341	9077.66
605.698	9046.92
606.056	9143.87
606.413	9145.45
606.771	9159.24
607.128	9121.72
607.485	9056.41
607.843	9089.41
608.2	9206.69
608.557	9153.81
608.914	9154.26
609.272	9210.08
609.629	9200.59
609.986	9252.79
610.343	9204.89
610.7	9238.1
611.057	9193.59
611.414	9165.56
611.771	9212.79
612.127	9236.97
612.484	9262.28
612.841	9290.53
613.198	9290.31
613.554	9243.08
613.911	9342.51
614.267	9339.12
614.624	9290.08
614.98	9329.18
615.337	9359.46
615.693	9331.66
616.05	9281.72
616.406	9393.13
616.762	9351.55
617.118	9327.59
617.475	9316.29
617.831	9365.33
618.187	9354.71
618.543	9428.61
618.899	9401.49
619.255	9379.8
619.611	9444.43
619.967	9453.47
620.323	9478.32
620.678	9437.65
621.034	9420.92
621.39	9448.72
621.746	9374.37
622.101	9438.55
622.457	9434.03
622.812	9384.09
623.168	9420.47
623.523	9476.97
623.879	9517.19
624.234	9419.34
624.589	9474.26
624.945	9405.33
625.3	9437.2
625.655	9417.99
626.01	9451.66
626.365	9446.46
626.72	9467.03
627.075	9421.6
627.43	9372.56
627.785	9392.9
628.14	9375.73
628.495	9414.6
628.85	9402.85
629.205	9399
629.559	9426.8
629.914	9368.5
630.269	9387.25
630.623	9326.69
630.978	9292.11
631.332	9388.84
631.687	9378.67
632.041	9300.48
632.396	9299.8
632.75	9346.12
633.104	9263.87
633.459	9297.31
633.813	9324.43
634.167	9232.68
634.521	9249.4
634.875	9333.92
635.229	9247.6
635.583	9236.97
635.937	9128.28
636.291	9236.52
636.645	9189.97
636.999	9195.62
637.352	9155.62
637.706	9176.41
638.06	9177.77
638.413	9175.73
638.767	9136.19
639.121	9092.57
639.474	9067.04
639.828	9094.83
640.181	9124.44
640.534	9110.88
640.888	9109.97
641.241	8994.5
641.594	9072.01
641.947	8993.82
642.301	9074.27
642.654	9003.76
643.007	9057.09
643.36	9010.77
643.713	9007.38
644.066	9083.08
644.419	8964.89
644.771	8942.75
645.124	8845.12
645.477	8888.51
645.83	8832.69
646.182	8753.15
646.535	8759.7
646.888	8737.78
647.24	8691.68
647.593	8669.08
647.945	8696.2
648.298	8736.2
648.65	8684.45
649.002	8646.93
649.355	8709.98
649.707	8685.12
650.059	8748.63
650.411	8869.98
650.763	8836.53
651.115	8910.88
651.467	8902.07
651.819	8860.26
652.171	8922.63
652.523	8911.11
652.875	8847.15
653.227	8797.66
653.578	8868.4
653.93	8905.91
654.282	8851.9
654.633	8801.73
654.985	8862.75
655.337	8905.01
655.688	8846.02
656.039	8813.71
656.391	8820.71
656.742	8809.42
657.094	8873.14
657.445	8915.4
657.796	8906.14
658.147	8863.2
658.498	8822.07
658.849	8843.31
659.2	8886.25
659.551	8863.88
659.902	8899.36
660.253	8880.83
660.604	8868.17
660.955	8886.93
661.306	8936.19
661.656	8898
662.007	8886.25
662.358	8825.01
662.708	8788.85
663.059	8920.82
663.409	8808.96
663.76	8914.95
664.11	8901.39
664.461	8906.14
664.811	8872.92
665.161	8889.64
665.511	8853.26
665.862	8902.52
666.212	8938
666.562	8935.06
666.912	8827.04
667.262	8864.78
667.612	8847.38
667.962	8920.15
668.312	8859.81
668.662	8890.54
669.011	8862.07
669.361	8869.53
669.711	8899.58
670.06	8884.44
670.41	8854.84
670.76	8824.56
671.109	8871.11
671.459	8877.66
671.808	8829.3
672.157	8877.21
672.507	8773.26
672.856	8828.4
673.205	8777.33
673.554	8817.78
673.904	8826.14
674.253	8880.83
674.602	8822.52
674.951	8697.33
675.3	8635.86
675.649	8794.95
675.998	8766.03
676.346	8742.75
676.695	8808.74
677.044	8737.78
677.393	8734.84
677.741	8725.58
678.09	8748.63
678.438	8688.74
678.787	8709.3
679.135	8701.17
679.484	8671.79
679.832	8647.39
680.181	8615.97
680.529	8615.97
680.877	8662.53
681.225	8630.21
681.573	8616.88
681.922	8522.42
682.27	8580.95
682.618	8508.41
682.966	8529.2
683.314	8571.68
683.661	8565.35
684.009	8429.09
684.357	8435.41
684.705	8424.11
685.053	8426.37
685.4	8404.45
685.748	8356.09
686.095	8355.64
686.443	8324
686.79	8339.82
687.138	8316.55
687.485	8289.65
687.832	8270.45
688.18	8238.36
688.527	8192.26
688.874	8268.64
689.221	8226.38
689.568	8185.7
689.915	8146.83
690.262	8145.03
690.609	8133.73
690.956	8086.5
691.303	8066.84
691.65	8035.42
691.997	8030.9
692.344	8058.02
692.69	7924.92
693.037	7943.68
693.383	7875.43
693.73	7947.29
694.077	7863.9
694.423	7858.48
694.769	7803.11
695.116	7782.55
695.462	7814.41
695.808	7731.48
696.155	7793.17
696.501	7696.68
696.847	7666.17
697.193	7588.88
697.539	7631.82
697.885	7640.18
698.231	7513.18
698.577	7498.94
698.923	7532.16
699.269	7531.03
699.614	7447.64
699.96	7418.04
700.306	7413.97
700.651	7467.08
700.997	7325.61
701.342	7360.64
701.688	7273.41
702.033	7276.57
702.379	7289.46
702.724	7268.21
703.069	7214.65
703.415	7149.57
703.76	7161.77
704.105	7198.38
704.45	7180.76
704.795	7122.23
705.14	7070.48
705.485	7067.77
705.83	7033.42
706.175	7044.49
706.52	7006.52
706.865	6951.16
707.209	6948.45
707.554	6976.92
707.899	6921.1
708.243	6882.69
708.588	6827.77
708.932	6812.63
709.277	6838.62
709.621	6887.43
709.966	6850.37
710.31	6816.47
710.654	6765.63
710.998	6716.59
711.342	6738.74
711.687	6767.44
712.031	6683.37
712.375	6697.15
712.719	6674.78
713.063	6668.91
713.407	6661.45
713.75	6639.75
714.094	6588.23
714.438	6628.23
714.782	6575.12
715.125	6578.29
715.469	6555.69
715.812	6594.11
716.156	6506.2
716.499	6514.79
716.843	6543.94
717.186	6477.27
717.53	6530.83
717.873	6577.16
718.216	6473.43
718.559	6457.39
718.902	6409.93
719.246	6496.26
719.589	6443.15
719.932	6448.35
720.275	6436.6
720.617	6395.02
720.96	6425.75
721.303	6436.82
721.646	6395.24
721.989	6372.19
722.331	6409.03
722.674	6314.57
723.016	6369.48
723.359	6339.42
723.701	6356.37
724.044	6343.72
724.386	6344.85
724.729	6302.81
725.071	6373.1
725.413	6336.94
725.755	6278.18
726.097	6303.04
726.439	6264.4
726.782	6285.87
727.124	6322.48
727.465	6207
727.807	6306.88
728.149	6276.37
728.491	6241.35
728.833	6251.97
729.175	6235.7
729.516	6256.49
729.858	6256.49
730.199	6230.73
730.541	6268.01
730.882	6230.5
731.224	6206.77
731.565	6233.66
731.906	6237.28
732.248	6268.24
732.589	6178.07
732.93	6152.54
733.271	6203.16
733.612	6219.65
733.953	6272.31
734.294	6248.58
734.635	6177.17
734.976	6253.1
735.317	6240.67
735.658	6216.04
735.999	6270.72
736.339	6223.04
736.68	6294.68
737.021	6207.68
737.361	6273.44
737.702	6303.72
738.042	6234.79
738.383	6169.71
738.723	6216.49
739.063	6221.46
739.404	6260.33
739.744	6298.75
740.084	6250.39
740.424	6306.66
740.764	6347.56
741.104	6336.26
741.444	6305.98
741.784	6284.51
742.124	6266.21
742.464	6254.23
742.804	6357.28
743.143	6287.45
743.483	6347.11
743.823	6373.77
744.162	6362.93
744.502	6386.65
744.841	6364.51
745.181	6444.73
745.52	6396.82
745.86	6471.62
746.199	6463.71
746.538	6513.2
746.877	6607.67
747.216	6574.45
747.556	6609.25
747.895	6657.38
748.234	6678.4
748.573	6720.88
748.911	6734.22
749.25	6772.18
749.589	6882.69
749.928	6897.38
750.267	6865.51
750.605	6975.34
750.944	7063.7
751.283	7103.47
751.621	7190.02
751.96	7169.01
752.298	7206.97
752.636	7327.42
752.975	7300.98
753.313	7387.98
753.651	7524.48
753.989	7577.13
754.327	7629.79
754.666	7728.77
755.004	7812.61
755.342	7876.11
755.679	7960.62
756.017	8049.21
756.355	8178.02
756.693	8208.08
757.031	8370.56
757.368	8453.27
757.706	8520.38
758.044	8608.74
758.381	8692.36
758.719	8836.76
759.056	8988.39
759.394	9114.04
759.731	9144.77
760.068	9279.46
760.405	9407.82
760.743	9548.6
761.08	9653.23
761.417	9672.22
761.754	9825.89
762.091	9929.39
762.428	9982.27
762.765	10144.52
763.102	10277.4
763.438	10308.81
763.775	10424.29
764.112	10563.27
764.449	10815.69
764.785	10770.49
765.122	10914.67
765.458	10928.68
765.795	11129.81
766.131	11209.35
766.467	11249.13
766.804	11380.65
767.14	11488.89
767.476	11637.36
767.812	11633.3
768.148	11740.19
768.485	11860.63
768.821	11856.11
769.157	11991.48
769.492	12004.36
769.828	12155.32
770.164	12178.82
770.5	12295.43
770.836	12389.66
771.171	12425.59
771.507	12485.93
771.842	12454.29
772.178	12557.11
772.513	12607.06
772.849	12666.04
773.184	12751.01
773.519	12724.34
773.855	12749.2
774.19	12821.51
774.525	12849.31
774.86	12919.14
775.195	12983.77
775.53	13039.81
775.865	12967.05
776.2	12920.04
776.535	13000.04
776.87	13046.59
777.205	12983.32
777.539	13002.53
777.874	13106.25
778.209	13066.25
778.543	13109.42
778.878	13120.94
779.212	13061.51
779.547	13081.85
779.881	13134.73
780.215	13160.71
780.55	13128.4
780.884	13114.61
781.218	13121.62
781.552	13147.38
781.886	13119.13
782.22	13093.6
782.554	13095.86
782.888	13036.87
783.222	13045.24
783.556	13036.2
783.889	13059.7
784.223	12953.94
784.557	12994.62
784.89	13038.23
785.224	12935.41
785.557	12949.19
785.891	12942.87
786.224	12938.8
786.558	12973.15
786.891	12859.48
787.224	12876.43
787.557	12868.74
787.891	12872.13
788.224	12860.16
788.557	12784.23
788.89	12746.49
789.223	12805.69
789.556	12793.04
789.888	12767.73
790.221	12776.32
790.554	12568.41
790.887	12686.38
791.219	12685.7
791.552	12593.27
791.884	12573.84
792.217	12622.87
792.549	12590.11
792.882	12449.32
793.214	12548.98
793.546	12539.71
793.879	12476.21
794.211	12420.85
794.543	12497
794.875	12382.2
795.207	12393.05
795.539	12308.98
795.871	12363.22
796.203	12227.63
796.535	12293.84
796.867	12234.64
797.198	12199.16
797.53	12233.05
797.862	12134.98
798.193	12081.65
798.525	12057.01
798.856	12120.97
799.188	11917.13
799.519	11965.49
799.85	11833.52
800.182	11928.66
800.513	11927.3
800.844	11833.29
801.175	11858.15
801.506	11828.32
801.837	11869.45
802.168	11855.66
802.499	11724.37
802.83	11733.63
803.161	11687.08
803.491	11680.3
803.822	11699.96
804.153	11600.98
804.483	11503.13
804.814	11514.2
805.145	11425.62
805.475	11479.18
805.805	11446.86
806.136	11391.49
806.466	11398.73
806.796	11417.48
807.126	11320.08
807.457	11292.29
807.787	11295.45
808.117	11248
808.447	11287.54
808.777	11267.66
809.107	11181.78
809.436	11177.04
809.766	11160.99
810.096	11130.03
810.426	11040.32
810.755	11080.32
811.085	11059.07
811.414	11020.2
811.744	10975.23
812.073	11039.87
812.403	11002.35
812.732	10923.71
813.061	11000.09
813.39	10932.52
813.719	10889.36
814.049	10836.48
814.378	10834.22
814.707	10843.94
815.036	10769.14
815.365	10748.12
815.693	10662.25
816.022	10716.94
816.351	10685.3
816.68	10658.63
817.008	10707.22
817.337	10605.3
817.665	10518.97
817.994	10614.34
818.322	10588.35
818.651	10429.94
818.979	10438.52
819.307	10564.62
819.636	10594
819.964	10438.3
820.292	10468.13
820.62	10510.84
820.948	10417.51
821.276	10468.58
821.604	10421.35
821.932	10455.7
822.259	10461.35
822.587	10412.31
822.915	10438.75
823.243	10453.44
823.57	10455.02
823.898	10442.82
824.225	10375.25
824.553	10402.14
824.88	10410.28
825.207	10477.85
825.535	10396.04
825.862	10504.74
826.189	10428.36
826.516	10428.13
826.843	10435.14
827.17	10422.25
827.497	10469.26
827.824	10405.31
828.151	10481.24
828.478	10490.73
828.805	10451.86
829.131	10473.78
829.458	10468.13
829.785	10436.04
830.111	10411.41
830.438	10527.11
830.764	10479.2
831.09	10447.79
831.417	10469.48
831.743	10449.15
832.069	10378.64
832.395	10396.27
832.722	10446.21
833.048	10356.95
833.374	10422.71
833.7	10351.97
834.026	10417.96
834.351	10386.1
834.677	10391.75
835.003	10425.19
835.329	10323.27
835.654	10361.24
835.98	10296.83
836.306	10290.73
836.631	10278.3
836.956	10336.15
837.282	10274.69
837.607	10216.16
837.932	10278.53
838.258	10219.32
838.583	10211.64
838.908	10194.46
839.233	10211.41
839.558	10155.82
839.883	10126.67
840.208	10069.04
840.533	10049.83
840.858	10053.9
841.182	10064.07
841.507	10052.77
841.832	10069.95
842.156	10011.64
842.481	9965.54
842.805	9987.92
843.13	9971.87
843.454	9908.14
843.778	9939.56
844.103	9894.13
844.427	9852.33
844.751	9860.46
845.075	9775.49
845.399	9750.63
845.723	9762.61
846.047	9753.12
846.371	9672.44
846.695	9682.84
847.019	9659.56
847.343	9598.55
847.666	9531.43
847.99	9551.09
848.313	9464.77
848.637	9393.58
848.96	9411.21
849.284	9367.14
849.607	9274.49
849.931	9278.33
850.254	9255.05
850.577	9198.56
850.9	9241.95
851.223	9124.89
851.546	9083.53
851.869	9053.48
852.192	9078.11
852.515	8998.79
852.838	8972.35
853.161	8984.1
853.483	8943.65
853.806	8893.25
854.129	8899.81
854.451	8832.24
854.774	8813.93
855.096	8790.88
855.419	8761.05
855.741	8784.56
856.063	8711.56
856.385	8667.05
856.708	8683.99
857.03	8601.96
857.352	8622.3
857.674	8591.12
857.996	8612.58
858.318	8529.65
858.64	8509.08
858.961	8486.71
859.283	8421.4
859.605	8414.62
859.926	8505.02
860.248	8422.53
860.57	8390.44
860.891	8412.59
861.212	8272.25
861.534	8277.23
861.855	8263.21
862.176	8261.18
862.498	8261.86
862.819	8275.19
863.14	8245.59
863.461	8261.18
863.782	8150.22
864.103	8229.77
864.424	8170.34
864.745	8205.36
865.065	8101.86
865.386	8070
865.707	8050.79
866.027	8056.21
866.348	8085.59
866.668	8074.97
866.989	8025.03
867.309	7994.3
867.63	8009.66
867.95	8042.2
868.27	7913.39
868.59	7959.04
868.91	7919.27
869.23	7959.95
869.55	7967.86
869.87	7995.65
870.19	7927.86
870.51	7909.33
870.83	7937.35
871.15	7903.68
871.469	7888.76
871.789	7877.46
872.109	7853.96
872.428	7788.43
872.748	7772.61
873.067	7824.58
873.386	7881.3
873.706	7812.61
874.025	7780.74
874.344	7719.73
874.663	7721.76
874.982	7719.27
875.301	7732.38
875.62	7729.22
875.939	7701.2
876.258	7656.9
876.577	7647.19
876.896	7663.68
877.214	7661.87
877.533	7634.98
877.852	7636.11
878.17	7597.02
878.489	7643.57
878.807	7593.4
879.125	7573.29
879.444	7602.67
879.762	7572.84
880.08	7544.36
880.398	7478.15
880.716	7545.49
881.034	7444.03
881.352	7505.27
881.67	7516.79
881.988	7534.87
882.306	7445.84
882.624	7421.2
882.941	7388.44
883.259	7373.97
883.577	7370.58
883.894	7402.9
884.212	7354.99
884.529	7374.42
884.846	7355.89
885.164	7283.81
885.481	7274.09
885.798	7289.68
886.115	7308.66
886.432	7225.5
886.75	7232.28
887.067	7221.21
887.383	7150.02
887.7	7168.55
888.017	7176.92
888.334	7150.7
888.651	7100.76
888.967	7067.99
889.284	7109.35
889.6	7070.48
889.917	7086.97
890.233	7036.81
890.55	7021.44
890.866	7010.59
891.182	6950.03
891.498	6970.59
891.815	6872.29
892.131	6943.93
892.447	6945.51
892.763	6848.56
893.079	6846.53
893.395	6776.7
893.71	6772.86
894.026	6797.04
894.342	6781.9
894.657	6763.37
894.973	6716.81
895.289	6699.87
895.604	6662.58
895.92	6623.71
896.235	6598.17
896.55	6612.41
896.865	6559.98
897.181	6558.4
897.496	6565.18
897.811	6481.79
898.126	6545.52
898.441	6488.35
898.756	6438.86
899.071	6432.3
899.386	6416.48
899.7	6350.04
900.015	6293.55
900.33	6310.27
900.644	6300.33
900.959	6307.56
901.273	6255.13
901.588	6249.93
901.902	6244.74
902.216	6208.13
902.531	6168.13
902.845	6210.61
903.159	6110.73
903.473	6143.72
903.787	6079.09
904.101	6077.74
904.415	6074.35
904.729	6046.55
905.042	6011.97
905.356	5981.02
905.67	6003.61
905.984	5972.65
906.297	5967
906.611	5875.03
906.924	5854.92
907.237	5809.27
907.551	5849.49
907.864	5816.95
908.177	5787.57
908.491	5729.5
908.804	5696.73
909.117	5699.44
909.43	5676.84
909.743	5654.92
910.056	5655.37
910.368	5651.08
910.681	5574.25
910.994	5644.3
911.307	5537.41
911.619	5488.37
911.932	5580.8
912.244	5522.04
912.557	5487.02
912.869	5438.2
913.181	5444.53
913.494	5414.48
913.806	5401.82
914.118	5418.77
914.43	5356.17
914.742	5390.3
915.054	5305.78
915.366	5248.6
915.678	5223.07
915.99	5262.84
916.302	5194.82
916.613	5174.93
916.925	5158.21
917.236	5152.11
917.548	5148.72
917.859	5157.76
918.171	5121.6
918.482	5069.4
918.794	5057.88
919.105	5035.96
919.416	5052.23
919.727	5037.99
920.038	4975.17
920.349	5007.71
920.66	4939.91
920.971	4953.25
921.282	4917.99
921.593	4904.66
921.903	4868.28
922.214	4854.72
922.525	4811.78
922.835	4806.36
923.146	4761.61
923.456	4783.08
923.767	4803.42
924.077	4789.41
924.387	4720.48
924.697	4653.14
925.008	4708.96
925.318	4675.06
925.628	4664.89
925.938	4644.78
926.248	4608.85
926.558	4588.06
926.867	4593.25
927.177	4515.52
927.487	4538.79
927.796	4514.16
928.106	4426.03
928.416	4456.08
928.725	4474.16
929.034	4419.02
929.344	4421.96
929.653	4425.35
929.962	4362.98
930.271	4383.54
930.581	4325.69
930.89	4331.11
931.199	4308.97
931.508	4333.83
931.817	4250.44
932.125	4252.47
932.434	4275.75
932.743	4197.11
933.051	4225.36
933.36	4157.33
933.669	4194.85
933.977	4190.55
934.286	4193.04
934.594	4213.38
934.902	4065.59
935.21	4056.09
935.519	4089.77
935.827	4070.78
936.135	4046.83
936.443	4063.33
936.751	3997.79
937.059	4048.41
937.367	3980.39
937.674	3979.94
937.982	3968.41
938.29	3931.35
938.597	3951.01
938.905	3900.62
939.213	3890.45
939.52	3872.6
939.827	3843.67
940.135	3843.67
940.442	3853.61
940.749	3817
941.056	3818.36
941.363	3776.33
941.67	3769.32
941.977	3774.07
942.284	3737.68
942.591	3709.21
942.898	3720.96
943.205	3674.86
943.511	3660.85
943.818	3701.98
944.125	3642.32
944.431	3638.7
944.738	3567.07
945.044	3573.62
945.35	3595.99
945.657	3550.34
945.963	3540.18
946.269	3515.77
946.575	3528.2
946.881	3486.39
947.187	3497.46
947.493	3445.04
947.799	3483.91
948.105	3443.23
948.41	3428.09
948.716	3431.03
949.022	3388.31
949.327	3417.92
949.633	3388.77
949.938	3345.15
950.244	3399.39
950.549	3350.12
950.854	3302.67
951.16	3294.53
951.465	3328.66
951.77	3331.14
952.075	3284.36
952.38	3277.81
952.685	3249.79
952.99	3284.36
953.294	3229
953.599	3189.22
953.904	3184.48
954.209	3204.14
954.513	3204.82
954.818	3135.44
955.122	3148.77
955.426	3119.17
955.731	3100.41
956.035	3121.66
956.339	3047.53
956.643	3095.44
956.948	3039.17
957.252	3048.44
957.556	3005.27
957.86	3034.2
958.163	3002.34
958.467	3015.22
958.771	2999.17
959.075	2975.22
959.378	2926.63
959.682	2923.92
959.985	2928.89
960.289	2919.4
960.592	2934.77
960.896	2902.23
961.199	2850.02
961.502	2885.73
961.805	2909.23
962.108	2843.24
962.411	2840.53
962.714	2817.71
963.017	2798.05
963.32	2824.94
963.623	2784.49
963.926	2791.95
964.228	2746.07
964.531	2766.64
964.833	2737.26
965.136	2716.47
965.438	2743.81
965.741	2711.04
966.043	2682.57
966.345	2673.76
966.648	2703.59
966.95	2673.98
967.252	2619.3
967.554	2617.49
967.856	2625.85
968.158	2610.03
968.46	2623.14
968.761	2574.55
969.063	2610.26
969.365	2570.71
969.666	2577.71
969.968	2579.3
970.269	2539.98
970.571	2550.82
970.872	2520.99
971.174	2523.7
971.475	2507.21
971.776	2496.59
972.077	2503.37
972.378	2486.87
972.679	2479.19
972.98	2472.86
973.281	2476.7
973.582	2447.55
973.883	2432.86
974.183	2375.91
974.484	2423.82
974.785	2408.45
975.085	2402.58
975.386	2380.88
975.686	2378.17
975.986	2315.12
976.287	2324.61
976.587	2326.2
976.887	2309.25
977.187	2307.21
977.487	2301.11
977.787	2273.09
978.087	2295.91
978.387	2287.1
978.687	2263.6
978.987	2262.69
979.286	2257.95
979.586	2266.99
979.885	2185.18
980.185	2183.15
980.484	2220.89
980.784	2206.2
981.083	2170.72
981.382	2189.93
981.682	2156.48
981.981	2206.2
982.28	2154.22
982.579	2146.77
982.878	2135.92
983.177	2147.44
983.475	2117.16
983.774	2122.81
984.073	2083.49
984.372	2112.64
984.67	2107.67
984.969	2095.02
985.267	2076.48
985.566	2066.77
985.864	2055.02
986.162	2077.61
986.461	2057.28
986.759	2026.09
987.057	2023.15
987.355	1991.29
987.653	1992.19
987.951	1998.97
988.249	1980.67
988.547	1982.7
988.844	1971.18
989.142	1962.82
989.44	1940.22
989.737	1930.5
990.035	1914
990.332	1913.78
990.63	1905.87
990.927	1886.66
991.224	1909.48
991.521	1893.66
991.819	1911.07
992.116	1887.34
992.413	1825.87
992.71	1854.8
993.006	1853.67
993.303	1853.21
993.6	1840.78
993.897	1833.33
994.193	1840.56
994.49	1820.45
994.787	1800.11
995.083	1798.53
995.379	1794.68
995.676	1768.92
995.972	1754.69
996.268	1759.21
996.565	1766.44
996.861	1749.49
997.157	1705.2
997.453	1732.77
997.749	1706.1
998.044	1719.43
998.34	1732.09
998.636	1708.59
998.932	1673.33
999.227	1707
999.523	1670.85
999.818	1667.68
1000.114	1670.17
1000.409	1662.03
1000.704	1628.14
1001	1636.27
1001.295	1628.36
1001.59	1598.76
1001.885	1609.6
1002.18	1605.08
1002.475	1574.8
1002.77	1567.8
1003.065	1551.98
1003.359	1573.67
1003.654	1543.39
1003.949	1530.28
1004.243	1554.46
1004.538	1508.59
1004.832	1533.9
1005.127	1506.33
1005.421	1521.92
1005.715	1497.74
1006.009	1473.79
1006.304	1458.42
1006.598	1464.3
1006.892	1471.53
1007.186	1447.12
1007.48	1448.25
1007.773	1427.69
1008.067	1438.31
1008.361	1429.27
1008.655	1400.12
1008.948	1414.36
1009.242	1438.54
1009.535	1421.36
1009.829	1382.94
1010.122	1412.55
1010.415	1361.48
1010.708	1372.55
1011.001	1375.94
1011.295	1348.37
1011.588	1339.1
1011.881	1320.12
1012.173	1319.44
1012.466	1313.57
1012.759	1313.34
1013.052	1319.89
1013.344	1316.28
1013.637	1286.9
1013.93	1283.96
1014.222	1287.35
1014.514	1248.71
1014.807	1251.2
1015.099	1259.78
1015.391	1266.11
1015.683	1227.02
1015.976	1234.47
1016.268	1212.55
1016.56	1235.15
1016.851	1259.11
1017.143	1220.91
1017.435	1211.87
1017.727	1186.56
1018.018	1221.82
1018.31	1194.93
1018.602	1177.98
1018.893	1183.63
1019.185	1149.96
1019.476	1133.68
1019.767	1143.63
1020.058	1143.85
1020.35	1144.76
1020.641	1126
1020.932	1105.89
1021.223	1130.3
1021.514	1116.96
1021.804	1098.21
1022.095	1124.42
1022.386	1071.31
1022.677	1111.31
1022.967	1079
1023.258	1075.61
1023.548	1068.38
1023.839	1049.39
1024.129	1031.77
1024.419	1059.56
1024.709	1032.22
1025	1056.4
1025.29	1033.57
1025.58	1020.47
1025.87	1027.02
1026.16	1020.92
1026.449	1015.04
1026.739	982.05
1027.029	985.89
1027.319	1012.56
1027.608	973.24
1027.898	983.18
1028.187	958.77
1028.477	984.54
1028.766	939.34
1029.055	961.49
1029.344	957.19
1029.634	948.15
1029.923	928.49
1030.212	918.78
1030.501	936.18
1030.79	928.72
1031.078	914.03
1031.367	921.49
1031.656	912.45
1031.945	898.21
1032.233	876.97
1032.522	888.72
1032.81	911.32
1033.099	886.69
1033.387	882.17
1033.675	868.61
1033.963	870.41
1034.251	867.03
1034.54	848.49
1034.828	851.66
1035.116	852.56
1035.403	857.08
1035.691	813.92
1035.979	835.61
1036.267	839
1036.554	807.82
1036.842	821.15
1037.129	820.25
1037.417	814.37
1037.704	787.71
1037.992	806.91
1038.279	777.08
1038.566	794.48
1038.853	794.48
1039.14	794.48
