Data from hue_210_FLMS001491_00029.txt Node
Date: Tue Feb 07 16:40:58 GMT 2017
User: dcchb
Spectrometer: FLMS00149
Trigger mode: 0
Integration Time (sec): 2.000000E-2
Scans to average: 10
Electric dark correction enabled: true
Nonlinearity correction enabled: false
Boxcar width: 0
XAxis mode: Wavelengths
Number of Pixels in Spectrum: 2048
>>>>>Begin Spectral Data<<<<<
341.393	-15.31
341.776	-15.31
342.16	-15.31
342.543	-58.25
342.927	-49.89
343.31	-88.75
343.693	-86.27
344.077	-76.1
344.46	-36.33
344.843	-36.55
345.226	-38.36
345.61	-22.54
345.993	-39.72
346.376	-2.43
346.759	7.97
347.142	10
347.525	32.82
347.908	66.95
348.291	87.51
348.674	106.27
349.057	115.53
349.44	122.31
349.823	126.15
350.206	178.58
350.588	193.72
350.971	216.77
351.354	227.17
351.737	229.65
352.119	247.51
352.502	248.41
352.884	259.71
353.267	261.07
353.65	291.57
354.032	310.1
354.414	299.48
354.797	301.07
355.179	327.73
355.562	334.74
355.944	303.55
356.326	321.86
356.709	334.51
357.091	330.9
357.473	317.79
357.855	320.73
358.238	345.58
358.62	331.8
359.002	339.71
359.384	348.97
359.766	325.92
360.148	323.21
360.53	355.08
360.912	338.8
361.294	329.54
361.676	319.37
362.057	335.87
362.439	332.25
362.821	330.67
363.203	327.05
363.584	327.96
363.966	327.05
364.348	327.28
364.729	339.26
365.111	327.73
365.493	305.59
365.874	310.33
366.256	324.12
366.637	315.53
367.019	308.52
367.4	310.78
367.781	328.64
368.163	311.23
368.544	296.09
368.925	313.72
369.306	319.6
369.688	310.78
370.069	325.7
370.45	293.83
370.831	291.35
371.212	311.23
371.593	327.73
371.974	312.82
372.355	300.39
372.736	303.78
373.117	308.97
373.498	299.71
373.879	308.97
374.26	316.66
374.641	317.56
375.021	325.7
375.402	307.17
375.783	316.43
376.163	326.6
376.544	315.3
376.925	326.38
377.305	325.25
377.686	323.66
378.066	329.54
378.447	332.25
378.827	305.81
379.208	329.31
379.588	319.37
379.968	330.22
380.349	329.99
380.729	310.33
381.109	328.86
381.489	337.22
381.87	328.18
382.25	323.21
382.63	328.86
383.01	352.14
383.39	330.22
383.77	341.97
384.15	340.39
384.53	353.72
384.91	329.31
385.29	337
385.67	365.92
386.049	353.04
386.429	356.43
386.809	354.4
387.189	341.74
387.568	350.78
387.948	365.7
388.328	361.85
388.707	367.96
389.087	363.66
389.466	361.4
389.846	353.27
390.225	358.47
390.605	359.82
390.984	361.18
391.363	376.77
391.743	379.26
392.122	365.92
392.501	371.35
392.881	375.87
393.26	384
393.639	353.49
394.018	384
394.397	367.96
394.776	394.4
395.155	376.54
395.534	387.16
395.913	371.12
396.292	378.13
396.671	397.33
397.05	393.49
397.429	399.59
397.808	396.2
398.186	419.48
398.565	400.5
398.944	419.48
399.323	388.29
399.701	392.81
400.08	398.46
400.458	423.1
400.837	415.64
401.215	415.86
401.594	405.7
401.972	416.32
402.351	426.03
402.729	414.96
403.107	394.17
403.486	419.93
403.864	429.42
404.242	423.1
404.62	442.98
404.999	452.02
405.377	442.98
405.755	437.11
406.133	447.05
406.511	453.38
406.889	457.67
407.267	472.36
407.645	480.72
408.023	483.43
408.401	475.52
408.779	478.01
409.156	498.57
409.534	481.85
409.912	495.41
410.29	526.6
410.667	508.07
411.045	532.92
411.422	529.99
411.8	545.13
412.178	559.36
412.555	564.79
412.933	588.74
413.31	566.14
413.687	576.09
414.065	568.4
414.442	577.89
414.819	623.09
415.197	612.02
415.574	617.67
415.951	635.97
416.328	641.62
416.705	660.6
417.082	659.25
417.46	650.89
417.837	664.22
418.214	685.69
418.591	696.31
418.967	693.6
419.344	708.96
419.721	727.72
420.098	714.39
420.475	750.32
420.852	742.86
421.228	790.09
421.605	773.6
421.982	793.48
422.358	790.77
422.735	825.57
423.111	816.53
423.488	832.58
423.864	848.17
424.241	868.73
424.617	898.11
424.994	899.69
425.37	914.83
425.746	939.24
426.123	934.5
426.499	943.31
426.875	975.85
427.251	991.89
427.627	966.36
428.003	1014.27
428.379	1028.05
428.756	1018.33
429.132	1026.02
429.507	1054.04
429.883	1061.72
430.259	1070.54
430.635	1075.28
431.011	1108.5
431.387	1099.01
431.763	1123.64
432.138	1119.35
432.514	1178.33
432.89	1186.69
433.265	1195.73
433.641	1214.71
434.016	1252.68
434.392	1256.75
434.767	1287.93
435.143	1299.23
435.518	1348.5
435.894	1369.29
436.269	1386.91
436.644	1419.91
437.02	1425.78
437.395	1459.23
437.77	1452.22
438.145	1466.91
438.52	1537.19
438.895	1516.17
439.271	1591.88
439.646	1611.54
440.021	1619.67
440.395	1613.8
440.77	1616.29
441.145	1655.61
441.52	1701.93
441.895	1691.31
442.27	1731.76
442.645	1720.01
443.019	1729.5
443.394	1789.61
443.769	1808.6
444.143	1803.17
444.518	1810.86
444.892	1805.43
445.267	1844.75
445.641	1845.21
446.016	1897.86
446.39	1886.79
446.764	1920.46
447.139	1901.48
447.513	1933.56
447.887	1932.21
448.262	1944.19
448.636	1971.53
449.01	1990.51
449.384	2000.91
449.758	2002.49
450.132	2035.03
450.506	2090.4
450.88	2054.47
451.254	2079.55
451.628	2090.62
452.002	2133.11
452.376	2139.44
452.75	2168.36
453.123	2162.03
453.497	2211.75
453.871	2248.81
454.244	2284.29
454.618	2287.23
454.992	2282.48
455.365	2336.49
455.739	2366.55
456.112	2376.27
456.486	2416.72
456.859	2438.18
457.232	2436.38
457.606	2506.66
457.979	2525.19
458.352	2569.03
458.725	2569.25
459.099	2589.59
459.472	2630.95
459.845	2649.03
460.218	2680.89
460.591	2699.65
460.964	2701.23
461.337	2791.62
461.71	2813.77
462.083	2830.49
462.456	2875.91
462.829	2856.25
463.201	2926.53
463.574	2964.5
463.947	2974.89
464.32	3040.43
464.692	3045.85
465.065	3130.37
465.438	3099.41
465.81	3178.05
466.183	3212.18
466.555	3251.5
466.928	3265.51
467.3	3224.38
467.672	3333.08
468.045	3388.89
468.417	3409.01
468.789	3447.42
469.161	3457.14
469.534	3521.55
469.906	3529.91
470.278	3631.37
470.65	3637.02
471.022	3692.39
471.394	3758.6
471.766	3792.27
472.138	3780.75
472.51	3885.83
472.882	3954.08
473.253	4025.04
473.625	4047.86
473.997	4058.71
474.369	4151.13
474.74	4174.86
475.112	4229.1
475.484	4288.98
475.855	4352.94
476.227	4421.41
476.598	4525.59
476.97	4561.97
477.341	4633.38
477.713	4664.57
478.084	4661.63
478.455	4825.69
478.827	4834.73
479.198	4978.91
479.569	5015.07
479.94	5113.14
480.311	5092.8
480.682	5246.92
481.053	5357.88
481.424	5387.49
481.795	5457.09
482.166	5484.66
482.537	5549.97
482.908	5684.2
483.279	5735.27
483.65	5773.69
484.021	5945.44
484.391	5956.51
484.762	6047.81
485.133	6096.62
485.503	6172.32
485.874	6235.82
486.244	6335.71
486.615	6351.53
486.985	6426.55
487.356	6561.92
487.726	6611.63
488.097	6728.24
488.467	6708.35
488.837	6852.98
489.207	6911.51
489.578	6994.9
489.948	7047.78
490.318	7107.21
490.688	7122.13
491.058	7264.05
491.428	7332.75
491.798	7440.54
492.168	7469.92
492.538	7437.6
492.908	7563.7
493.278	7646.86
493.648	7603.47
494.017	7760.53
494.387	7767.76
494.757	7898.61
495.126	7940.86
495.496	7990.35
495.866	7935.67
496.235	8019.28
496.605	8137.92
496.974	8193.06
497.344	8191.48
497.713	8158.71
498.082	8271.7
498.452	8378.82
498.821	8359.61
499.19	8393.51
499.559	8433.51
499.928	8396.22
500.298	8459.95
500.667	8538.82
501.036	8439.61
501.405	8567.97
501.774	8560.06
502.143	8639.83
502.512	8669.66
502.88	8682.09
503.249	8640.06
503.618	8703.56
503.987	8767.96
504.356	8793.95
504.724	8849.09
505.093	8818.81
505.462	8882.76
505.83	8937.45
506.199	8948.75
506.567	9074.17
506.936	8998.24
507.304	9098.12
507.672	9126.82
508.041	9106.48
508.409	9141.29
508.777	9180.15
509.145	9233.03
509.514	9173.37
509.882	9253.82
510.25	9230.32
510.618	9290.89
510.986	9252.47
511.354	9279.81
511.722	9365.91
512.09	9407.94
512.458	9385.57
512.826	9389.41
513.193	9435.74
513.561	9405.91
513.929	9434.38
514.297	9533.37
514.664	9532.01
515.032	9496.76
515.4	9582.18
515.767	9554.16
516.135	9505.8
516.502	9539.69
516.869	9567.49
517.237	9557.55
517.604	9538.11
517.972	9617.2
518.339	9670.99
518.706	9665.11
519.073	9553.93
519.44	9638.67
519.808	9681.84
520.175	9670.08
520.542	9727.94
520.909	9732.91
521.276	9661.72
521.643	9711.67
522.009	9750.31
522.376	9750.99
522.743	9763.64
523.11	9829.63
523.477	9784.43
523.843	9824.66
524.21	9902.39
524.577	9938.55
524.943	9878.21
525.31	9913.92
525.676	9957.76
526.043	9929.96
526.409	9933.58
526.776	9925.9
527.142	9972
527.508	9878.21
527.874	9953.47
528.241	9990.98
528.607	9979.46
528.973	9961.6
529.339	10028.72
529.705	10064.2
530.071	10048.61
530.437	9952.34
530.803	10051.09
531.169	10003.41
531.535	9934.03
531.901	9909.17
532.267	10021.26
532.632	10009.06
532.998	9958.66
533.364	10007.93
533.73	9929.29
534.095	9915.28
534.461	9926.58
534.826	9925.22
535.192	9847.71
535.557	9929.74
535.923	9838.22
536.288	9868.95
536.653	9746.47
537.019	9797.54
537.384	9765.22
537.749	9800.48
538.114	9709.63
538.479	9671.44
538.845	9682.74
539.21	9657.88
539.575	9602.52
539.94	9560.26
540.305	9602.06
540.67	9556.64
541.034	9485
541.399	9541.95
541.764	9588.96
542.129	9477.55
542.494	9389.41
542.858	9391.67
543.223	9393.26
543.587	9433.25
543.952	9297.89
544.316	9294.5
544.681	9279.81
545.045	9289.98
545.41	9295.18
545.774	9283.43
546.138	9257.21
546.503	9217.89
546.867	9132.02
547.231	9195.75
547.595	9099.48
547.959	9088.41
548.324	9047.05
548.688	9000.5
549.052	9067.84
549.416	8978.13
549.779	8920.05
550.143	8946.26
550.507	8906.04
550.871	8936.77
551.235	8865.36
551.599	8820.84
551.962	8823.78
552.326	8759.15
552.689	8847.73
553.053	8713.95
553.417	8719.83
553.78	8875.08
554.143	8737
554.507	8689.77
554.87	8675.76
555.234	8704.69
555.597	8611.58
555.96	8593.73
556.323	8598.93
556.686	8594.86
557.05	8589.21
557.413	8530.91
557.776	8573.16
558.139	8617.46
558.502	8512.83
558.865	8488.65
559.228	8568.19
559.59	8525.48
559.953	8513.96
560.316	8526.16
560.679	8538.14
561.041	8530.23
561.404	8513.05
561.767	8533.17
562.129	8481.87
562.492	8528.65
562.854	8481.42
563.217	8511.47
563.579	8536.56
563.941	8526.84
564.304	8600.28
564.666	8584.01
565.028	8538.36
565.39	8506.95
565.753	8618.36
566.115	8542.66
566.477	8544.24
566.839	8557.8
567.201	8645.48
567.563	8605.25
567.925	8595.76
568.287	8650
568.648	8620.62
569.01	8629.66
569.372	8714.18
569.734	8628.3
570.095	8652.26
570.457	8666.5
570.819	8716.21
571.18	8714.4
571.542	8715.76
571.903	8680.96
572.265	8774.97
572.626	8726.83
572.987	8788.53
573.349	8694.97
573.71	8730.45
574.071	8770.45
574.432	8781.75
574.794	8769.77
575.155	8777.23
575.516	8772.93
575.877	8823.1
576.238	8764.35
576.599	8824.01
576.96	8806.83
577.32	8882.31
577.681	8868.3
578.042	8911.69
578.403	8900.16
578.763	8901.07
579.124	8869.88
579.485	8960.95
579.845	8945.58
580.206	8969.54
580.566	8928.64
580.927	8889.54
581.287	9034.62
581.648	8994.4
582.008	9040.95
582.368	9017.9
582.728	9014.73
583.089	8970.44
583.449	8946.71
583.809	9012.02
584.169	9046.6
584.529	9034.62
584.889	9070.33
585.249	9058.12
585.609	9007.96
585.969	9046.82
586.329	8992.36
586.688	9057.9
587.048	9029.42
587.408	8964.34
587.768	9054.28
588.127	9074.17
588.487	9113.94
588.846	9148.06
589.206	9074.85
589.565	9052.47
589.925	9092.02
590.284	9003.89
590.643	9075.75
591.003	9089.31
591.362	9114.39
591.721	9055.86
592.08	9128.4
592.44	9120.27
592.799	9097.9
593.158	9163.66
593.517	9175.63
593.876	9179.7
594.235	9116.2
594.593	9088.18
594.952	9146.48
595.311	9109.2
595.67	9164.79
596.029	9192.81
596.387	9169.76
596.746	9194.84
597.104	9187.16
597.463	9156.65
597.822	9246.14
598.18	9162.98
598.538	9161.85
598.897	9178.8
599.255	9159.59
599.613	9276.87
599.972	9234.16
600.33	9168.4
600.688	9186.93
601.046	9194.17
601.404	9234.62
601.762	9242.53
602.12	9282.75
602.478	9260.38
602.836	9240.49
603.194	9224.67
603.552	9195.29
603.91	9204.33
604.268	9212.24
604.625	9204.79
604.983	9230.1
605.341	9225.35
605.698	9323.65
606.056	9257.67
606.413	9323.2
606.771	9287.72
607.128	9314.61
607.485	9285.24
607.843	9249.08
608.2	9246.37
608.557	9357.78
608.914	9243.2
609.272	9337.66
609.629	9368.17
609.986	9333.82
610.343	9358.68
610.7	9361.17
611.057	9354.84
611.414	9349.64
611.771	9342.41
612.127	9364.33
612.484	9419.7
612.841	9393.03
613.198	9393.48
613.554	9377.66
613.911	9440.03
614.267	9436.19
614.624	9431.67
614.98	9431.9
615.337	9565.23
615.693	9403.65
616.05	9434.61
616.406	9492.24
616.762	9522.74
617.118	9525
617.475	9451.33
617.831	9500.37
618.187	9486.36
618.543	9519.81
618.899	9510.77
619.255	9513.25
619.611	9489.52
619.967	9503.76
620.323	9501.95
620.678	9561.61
621.034	9500.82
621.39	9512.8
621.746	9407.49
622.101	9493.14
622.457	9448.4
622.812	9563.42
623.168	9529.75
623.523	9539.47
623.879	9632.12
624.234	9511.67
624.589	9533.37
624.945	9559.81
625.3	9569.52
625.655	9549.18
626.01	9496.3
626.365	9522.52
626.72	9491.56
627.075	9510.77
627.43	9525.91
627.785	9508.51
628.14	9504.21
628.495	9539.69
628.85	9518
629.205	9473.48
629.559	9544.89
629.914	9448.62
630.269	9461.95
630.623	9456.76
630.978	9414.72
631.332	9502.63
631.687	9538.11
632.041	9410.66
632.396	9373.82
632.75	9429.19
633.104	9374.5
633.459	9415.63
633.813	9370.66
634.167	9373.14
634.521	9289.3
634.875	9351.45
635.229	9332.69
635.583	9273.48
635.937	9329.98
636.291	9204.79
636.645	9297.21
636.999	9265.12
637.352	9229.19
637.706	9242.75
638.06	9269.87
638.413	9245.69
638.767	9220.38
639.121	9257.89
639.474	9180.61
639.828	9199.59
640.181	9193.71
640.534	9184.22
640.888	9133.15
641.241	9100.38
641.594	9152.36
641.947	9162.08
642.301	9088.63
642.654	9104.9
643.007	9141.06
643.36	9102.87
643.713	9075.07
644.066	9115.07
644.419	9056.99
644.771	9053.38
645.124	8970.44
645.477	8876.66
645.83	8917.79
646.182	8875.3
646.535	8790.33
646.888	8881.63
647.24	8746.27
647.593	8779.26
647.945	8762.09
648.298	8763.44
648.65	8698.36
649.002	8708.08
649.355	8752.37
649.707	8793.27
650.059	8831.24
650.411	8943.78
650.763	8914.62
651.115	9062.42
651.467	8988.07
651.819	9019.93
652.171	9002.31
652.523	8988.07
652.875	8975.87
653.227	8908.07
653.578	8964.11
653.93	8941.29
654.282	8959.14
654.633	8920.73
654.985	8986.49
655.337	8959.37
655.688	8977.45
656.039	8983.1
656.391	8964.11
656.742	8958.47
657.094	8909.2
657.445	8992.14
657.796	9020.38
658.147	8968.41
658.498	8969.76
658.849	9035.3
659.2	8953.27
659.551	8950.56
659.902	9047.73
660.253	8953.72
660.604	8991.46
660.955	8985.13
661.306	9024.68
661.656	9044.34
662.007	9078.01
662.358	9041.85
662.708	8990.78
663.059	9046.6
663.409	8945.81
663.76	9049.31
664.11	9087.73
664.461	9003.89
664.811	9102.64
665.161	9074.39
665.511	9055.86
665.862	9046.37
666.212	9042.98
666.562	9101.06
666.912	9064.68
667.262	9058.8
667.612	9089.54
667.962	9096.99
668.312	9071.91
668.662	9066.03
669.011	9052.7
669.361	9032.36
669.711	9073.26
670.06	9030.1
670.41	8966.6
670.76	9020.38
671.109	9037.11
671.459	9000.95
671.808	8998.01
672.157	9021.29
672.507	8946.49
672.856	8917.79
673.205	8960.5
673.554	8980.61
673.904	8914.17
674.253	9030.1
674.602	8993.27
674.951	8873.72
675.3	8840.95
675.649	8908.3
675.998	8917.11
676.346	8958.69
676.695	9003.44
677.044	8852.25
677.393	8842.99
677.741	8877.34
678.09	8838.69
678.438	8815.87
678.787	8816.1
679.135	8852.48
679.484	8793.5
679.832	8839.37
680.181	8780.84
680.529	8738.81
680.877	8765.02
681.225	8749.2
681.573	8774.29
681.922	8640.96
682.27	8640.06
682.618	8674.18
682.966	8644.35
683.314	8632.37
683.661	8679.38
684.009	8553.05
684.357	8535.43
684.705	8563.45
685.053	8587.63
685.4	8595.31
685.748	8518.02
686.095	8460.62
686.443	8422.89
686.79	8451.81
687.138	8482.55
687.485	8434.64
687.832	8396.22
688.18	8441.64
688.527	8375.88
688.874	8364.81
689.221	8323.91
689.568	8258.37
689.915	8302.66
690.262	8271.93
690.609	8266.96
690.956	8167.3
691.303	8137.24
691.65	8118.04
691.997	8118.71
692.344	8087.53
692.69	8069
693.037	8059.96
693.383	8024.25
693.73	8066.51
694.077	7950.58
694.423	7962.33
694.769	7943.35
695.116	7911.49
695.462	7886.63
695.808	7803.24
696.155	7835.56
696.501	7724.15
696.847	7711.49
697.193	7717.59
697.539	7687.54
697.885	7633.98
698.231	7610.93
698.577	7631.95
698.923	7591.04
699.269	7569.57
699.614	7549.24
699.96	7511.05
700.306	7493.19
700.651	7383.59
700.997	7488.45
701.342	7367.09
701.688	7374.1
702.033	7395.34
702.379	7355.8
702.724	7332.29
703.069	7393.76
703.415	7238.96
703.76	7205.97
704.105	7219.3
704.45	7175.24
704.795	7165.29
705.14	7090.72
705.485	7136.59
705.83	7078.97
706.175	7059.53
706.52	7044.62
706.865	7037.61
707.209	6999.87
707.554	7030.15
707.899	7023.83
708.243	6950.83
708.588	6904.96
708.932	6884.17
709.277	6836.71
709.621	6885.53
709.966	6842.14
710.31	6826.09
710.654	6770.95
710.998	6813.44
711.342	6791.29
711.687	6745.42
712.031	6726.89
712.375	6683.5
712.719	6713.1
713.063	6673.78
713.407	6716.94
713.75	6650.05
714.094	6634.91
714.438	6605.53
714.782	6575.93
715.125	6565.53
715.469	6602.37
715.812	6588.81
716.156	6614.8
716.499	6560.11
716.843	6578.41
717.186	6541.58
717.53	6579.09
717.873	6569.38
718.216	6530.05
718.559	6516.04
718.902	6463.39
719.246	6463.16
719.589	6491.64
719.932	6470.39
720.275	6470.39
720.617	6455.93
720.96	6488.25
721.303	6405.31
721.646	6426.33
721.989	6398.53
722.331	6446.21
722.674	6427.91
723.016	6436.27
723.359	6387.69
723.701	6443.05
724.044	6393.11
724.386	6289.83
724.729	6471.07
725.071	6404.63
725.413	6370.28
725.755	6350.62
726.097	6309.95
726.439	6363.28
726.782	6355.82
727.124	6357.63
727.465	6312.21
727.807	6353.11
728.149	6354.47
728.491	6328.93
728.833	6296.61
729.175	6314.01
729.516	6317.63
729.858	6292.32
730.199	6365.99
730.541	6295.48
730.882	6303.62
731.224	6351.98
731.565	6336.61
731.906	6318.99
732.248	6315.6
732.589	6237.63
732.93	6241.02
733.271	6291.87
733.612	6290.51
733.953	6318.99
734.294	6331.64
734.635	6288.7
734.976	6309.72
735.317	6301.13
735.658	6369.38
735.999	6323.28
736.339	6292.55
736.68	6328.48
737.021	6308.37
737.361	6321.25
737.702	6344.07
738.042	6326.44
738.383	6293
738.723	6352.66
739.063	6342.71
739.404	6391.53
739.744	6389.94
740.084	6406.89
740.424	6381.81
740.764	6405.76
741.104	6460.68
741.444	6413
741.784	6468.81
742.124	6496.38
742.464	6451.86
742.804	6503.39
743.143	6536.38
743.483	6519.89
743.823	6508.13
744.162	6553.1
744.502	6605.31
744.841	6592.88
745.181	6638.53
745.52	6618.41
745.86	6699.99
746.199	6736.83
746.538	6724.17
746.877	6799.2
747.216	6852.76
747.556	6859.76
747.895	6893.43
748.234	6908.58
748.573	6955.13
748.911	7058.18
749.25	7088.23
749.589	7097.95
749.928	7208.23
750.267	7269.92
750.605	7368.9
750.944	7458.39
751.283	7433.08
751.621	7596.01
751.96	7596.92
752.298	7731.38
752.636	7816.57
752.975	7859.96
753.313	7974.76
753.651	8076.68
753.989	8097.24
754.327	8231.25
754.666	8319.39
755.004	8461.08
755.342	8581.53
755.679	8691.35
756.017	8787.85
756.355	8933.61
756.693	9089.54
757.031	9192.36
757.368	9327.95
757.706	9428.28
758.044	9589.41
758.381	9679.8
758.719	9826.46
759.056	10078.44
759.394	10139.45
759.731	10297.41
760.068	10496.73
760.405	10559.55
760.743	10640.23
761.08	10971.97
761.417	11044.51
761.754	11227.78
762.091	11410.6
762.428	11540.77
762.765	11736.92
763.102	11889.24
763.438	12034.32
763.775	12078.16
764.112	12355.21
764.449	12626.39
764.785	12739.16
765.122	12903.67
765.458	12908.64
765.795	13134.17
766.131	13326.03
766.467	13457.56
766.804	13506.37
767.14	13662.3
767.476	13872.23
767.812	13950.42
768.148	14154.71
768.485	14185.45
768.821	14383.63
769.157	14516.51
769.492	14693
769.828	14842.83
770.164	14817.75
770.5	15002.83
770.836	15128.47
771.171	15232.88
771.507	15337.73
771.842	15341.35
772.178	15559.87
772.513	15591.51
772.849	15714.45
773.184	15739.53
773.519	15920.99
773.855	15933.2
774.19	15937.26
774.525	16045.51
774.86	16144.72
775.195	16278.05
775.53	16193.53
775.865	16367.31
776.2	16330.02
776.535	16272.62
776.87	16363.69
777.205	16455.89
777.539	16511.71
777.874	16621.09
778.209	16553.52
778.543	16590.81
778.878	16526.85
779.212	16694.53
779.547	16673.52
779.881	16840.74
780.215	16720.52
780.55	16907.63
780.884	16760.52
781.218	16815.66
781.552	16852.04
781.886	16912.61
782.22	16859.5
782.554	16929.1
782.888	16811.82
783.222	16883.68
783.556	16775.43
783.889	16837.81
784.223	16722.1
784.557	16835.32
784.89	16935.43
785.224	16860.63
785.557	16803.46
785.891	16828.77
786.224	16744.47
786.558	16783.57
786.891	16764.14
787.224	16731.37
787.557	16753.51
787.891	16749.67
788.224	16803.23
788.557	16720.97
788.89	16778.15
789.223	16811.37
789.556	16667.87
789.888	16721.42
790.221	16628.09
790.554	16553.75
790.887	16519.62
791.219	16632.84
791.552	16487.76
791.884	16579.51
792.217	16475.78
792.549	16398.27
792.882	16318.72
793.214	16351.04
793.546	16440.53
793.879	16282.34
794.211	16287.31
794.543	16303.58
794.875	16267.65
795.207	16385.39
795.539	16175.22
795.871	16167.09
796.203	16102.46
796.535	16069.92
796.867	16092.74
797.198	16110.37
797.53	16019.97
797.862	15926.42
798.193	15991.05
798.525	15874.89
798.856	15926.19
799.188	15687.33
799.519	15732.07
799.85	15688.01
800.182	15719.64
800.513	15759.42
800.844	15566.2
801.175	15681.9
801.506	15682.58
801.837	15575.92
802.168	15601.45
802.499	15562.81
802.83	15493.66
803.161	15389.03
803.491	15357.17
803.822	15414.11
804.153	15404.85
804.483	15243.05
804.814	15238.98
805.145	15212.99
805.475	15214.8
805.805	15161.92
806.136	15151.3
806.466	15173.22
806.796	15194.01
807.126	15006.89
807.457	15047.34
807.787	15023.84
808.117	15001.24
808.447	14872.43
808.777	14886.67
809.107	14867.91
809.436	14773.68
809.766	14899.33
810.096	14805.32
810.426	14697.75
810.755	14748.82
811.085	14683.74
811.414	14700.46
811.744	14588.6
812.073	14682.16
812.403	14622.95
812.732	14551.99
813.061	14537.08
813.39	14400.13
813.719	14410.75
814.049	14451.43
814.378	14356.74
814.707	14439.9
815.036	14368.49
815.365	14323.3
815.693	14207.82
816.022	14222.96
816.351	14159.46
816.68	14050.76
817.008	14171.21
817.337	14057.09
817.665	14081.72
817.994	14030.2
818.322	14032.46
818.651	13967.82
818.979	13899.35
819.307	13992.46
819.636	13935.96
819.964	13859.35
820.292	13968.73
820.62	13906.81
820.948	13876.75
821.276	13937.32
821.604	13866.13
821.932	13897.54
822.259	13896.64
822.587	13854.38
822.915	13846.02
823.243	13931.67
823.57	13828.85
823.898	13942.74
824.225	13821.61
824.553	13825.68
824.88	13846.92
825.207	13977.77
825.535	13880.37
825.862	13930.76
826.189	13814.38
826.516	13943.64
826.843	13974.38
827.17	13890.31
827.497	13960.37
827.824	13894.83
828.151	13947.71
828.478	13912.46
828.805	13990.42
829.131	13900.03
829.458	13899.13
829.785	13868.39
830.111	13888.73
830.438	13998.78
830.764	13941.84
831.09	14002.63
831.417	13855.51
831.743	13938.9
832.069	13906.81
832.395	13733.03
832.722	13939.8
833.048	13757.89
833.374	13819.35
833.7	13735.97
834.026	13903.42
834.351	13829.07
834.677	13775.29
835.003	13857.55
835.329	13795.17
835.654	13780.71
835.98	13818.9
836.306	13771.45
836.631	13706.81
836.956	13757.66
837.282	13752.69
837.607	13625.46
837.932	13629.98
838.258	13563.77
838.583	13655.06
838.908	13558.12
839.233	13563.32
839.558	13584.11
839.883	13451.68
840.208	13422.08
840.533	13429.08
840.858	13472.47
841.182	13471.11
841.507	13474.05
841.832	13374.39
842.156	13307.73
842.481	13369.87
842.805	13311.57
843.13	13278.35
843.454	13278.8
843.778	13182.08
844.103	13146.83
844.427	13119.26
844.751	13170.11
845.075	13109.32
845.399	13061.18
845.723	13040.62
846.047	12960.85
846.371	12880.85
846.695	12887.18
847.019	12753.17
847.343	12790.23
847.666	12752.94
847.99	12672.49
848.313	12670.01
848.637	12599.5
848.96	12529.22
849.284	12461.65
849.607	12438.15
849.931	12426.17
850.254	12310.92
850.577	12292.61
850.9	12194.99
851.223	12224.14
851.546	12076.8
851.869	12056.24
852.192	12079.06
852.515	11916.13
852.838	11941.89
853.161	11862.8
853.483	11868.44
853.806	11857.82
854.129	11783.25
854.451	11738.05
854.774	11689.01
855.096	11642.24
855.419	11632.97
855.741	11615.57
856.063	11485.63
856.385	11473.43
856.708	11437.27
857.03	11476.59
857.352	11462.35
857.674	11409.25
857.996	11382.36
858.318	11326.09
858.64	11327.67
858.961	11273.21
859.283	11188.69
859.605	11107.11
859.926	11172.87
860.248	11136.94
860.57	11097.62
860.891	11124.51
861.212	11030.05
861.534	11037.96
861.855	10976.04
862.176	10997.51
862.498	10940.33
862.819	10998.19
863.14	10922.71
863.461	10862.37
863.782	10833.22
864.103	10873.67
864.424	10784.41
864.745	10837.96
865.065	10783.5
865.386	10711.19
865.707	10755.93
866.027	10665.54
866.348	10754.8
866.668	10711.41
866.989	10747.57
867.309	10610.4
867.63	10654.47
867.95	10604.3
868.27	10565.65
868.59	10511.19
868.91	10476.62
869.23	10545.54
869.55	10491.31
869.87	10534.24
870.19	10483.85
870.51	10544.41
870.83	10437.97
871.15	10403.4
871.469	10443.62
871.789	10514.58
872.109	10350.52
872.428	10383.29
872.748	10354.13
873.067	10386.9
873.386	10355.04
873.706	10248.83
874.025	10297.64
874.344	10198.66
874.663	10266.23
874.982	10223.29
875.301	10218.77
875.62	10229.17
875.939	10195.49
876.258	10230.75
876.577	10139.68
876.896	10144.42
877.214	10072.56
877.533	10100.58
877.852	10021.71
878.17	10075.95
878.489	10115.72
878.807	10096.97
879.125	10030.3
879.444	10019.68
879.762	9979.68
880.08	9966.35
880.398	9910.3
880.716	9940.36
881.034	9923.86
881.352	9920.02
881.67	9898.1
881.988	9848.84
882.306	9790.53
882.624	9762.74
882.941	9810.42
883.259	9738.56
883.577	9725.22
883.894	9827.82
884.212	9699.91
884.529	9757.54
884.846	9579.01
885.164	9680.25
885.481	9606.13
885.798	9648.62
886.115	9534.04
886.432	9522.07
886.75	9564.1
887.067	9563.65
887.383	9508.73
887.7	9514.61
888.017	9450.88
888.334	9481.39
888.651	9358.45
888.967	9438.23
889.284	9344.44
889.6	9348.06
889.917	9238.91
890.233	9255.18
890.55	9221.28
890.866	9166.82
891.182	9185.8
891.498	9158.69
891.815	9128.4
892.131	9146.93
892.447	9031.01
892.763	9003.44
893.079	8995.98
893.395	8984.9
893.71	8912.14
894.026	8986.03
894.342	8947.17
894.657	8855.42
894.973	8842.76
895.289	8861.74
895.604	8787.62
895.92	8766.61
896.235	8715.53
896.55	8679.38
896.865	8668.53
897.181	8662.43
897.496	8701.75
897.811	8563.45
898.126	8593.73
898.441	8506.05
898.756	8537.91
899.071	8470.12
899.386	8433.73
899.7	8358.25
900.015	8311.93
900.33	8331.36
900.644	8288.88
900.959	8268.09
901.273	8309.89
901.588	8261.99
901.902	8185.38
902.216	8152.84
902.531	8123.91
902.845	8120.07
903.159	8049.56
903.473	8036
903.787	8043.91
904.101	8000.3
904.415	7964.59
904.729	7904.03
905.042	7900.19
905.356	7894.76
905.67	7819.06
905.984	7832.62
906.297	7780.87
906.611	7775.22
906.924	7726.18
907.237	7684.37
907.551	7645.51
907.864	7596.01
908.177	7624.71
908.491	7528.9
908.804	7544.49
909.117	7449.35
909.43	7432.18
909.743	7424.04
910.056	7427.66
910.368	7396.47
910.681	7284.38
910.994	7256.59
911.307	7239.41
911.619	7226.08
911.932	7222.47
912.244	7193.54
912.557	7153.09
912.869	7038.06
913.181	7113.77
913.494	7055.92
913.806	7021.79
914.118	6978.4
914.43	6964.17
914.742	7029.25
915.054	6946.99
915.366	6899.54
915.678	6879.2
915.99	6861.57
916.302	6782.48
916.613	6765.98
916.925	6750.84
917.236	6746.77
917.548	6730.5
917.859	6667.9
918.171	6601.46
918.482	6666.77
918.794	6559.88
919.105	6574.35
919.416	6504.29
919.727	6536.16
920.038	6460.45
920.349	6406.44
920.66	6453.45
920.971	6426.55
921.282	6429.94
921.593	6337.52
921.903	6262.04
922.214	6322.38
922.525	6282.15
922.835	6265.43
923.146	6192.21
923.456	6226.33
923.767	6176.84
924.077	6230.63
924.387	6091.2
924.697	6088.48
925.008	6091.2
925.318	6066.11
925.628	6069.73
925.938	6048.49
926.248	5918.54
926.558	5921.26
926.867	5977.53
927.177	5920.8
927.487	5843.29
927.796	5860.02
928.106	5871.77
928.416	5808.27
928.725	5859.56
929.034	5767.81
929.344	5765.78
929.653	5761.26
929.962	5648.95
930.271	5676.29
930.581	5643.98
930.89	5590.64
931.199	5594.26
931.508	5572.79
931.817	5561.04
932.125	5551.1
932.434	5552.45
932.743	5493.7
933.051	5476.07
933.36	5412.34
933.669	5450.53
933.977	5437.88
934.286	5379.35
934.594	5371.44
934.902	5377.99
935.21	5340.93
935.519	5300.93
935.827	5289.63
936.135	5230.43
936.443	5260.48
936.751	5190.65
937.059	5177.1
937.367	5164.21
937.674	5095.29
937.982	5111.33
938.29	5084.67
938.597	5077.44
938.905	5031.34
939.213	4997.67
939.52	5023.88
939.827	5015.74
940.135	4962.41
940.442	5015.52
940.749	4989.76
941.056	4932.58
941.363	4905.01
941.67	4851
941.977	4822.3
942.284	4818.69
942.591	4801.74
942.898	4819.36
943.205	4779.14
943.511	4750.44
943.818	4758.12
944.125	4756.32
944.431	4673.61
944.738	4676.54
945.044	4707.96
945.35	4620.05
945.657	4592.25
945.963	4614.62
946.269	4546.38
946.575	4575.3
946.881	4552.03
947.187	4507.06
947.493	4493.05
947.799	4476.55
948.105	4438.36
948.41	4429.09
948.716	4430.9
949.022	4440.84
949.327	4373.5
949.633	4373.73
949.938	4336.67
950.244	4388.19
950.549	4286.95
950.854	4307.74
951.16	4262.77
951.465	4222.77
951.77	4266.84
952.075	4234.97
952.38	4164.92
952.685	4144.13
952.99	4146.16
953.294	4155.43
953.599	4145.94
953.904	4128.54
954.209	4085.15
954.513	4074.3
954.818	4065.71
955.122	4037.01
955.426	4031.36
955.731	4036.11
956.035	4005.6
956.339	3960.63
956.643	3993.62
956.948	3932.16
957.252	3908.88
957.556	3926.05
957.86	3886.06
958.163	3878.6
958.467	3908.65
958.771	3829.11
959.075	3827.07
959.378	3785.27
959.682	3801.54
959.985	3801.76
960.289	3751.14
960.592	3765.61
960.896	3716.57
961.199	3724.7
961.502	3691.48
961.805	3684.03
962.108	3665.72
962.411	3673.18
962.714	3597.25
963.017	3607.65
963.32	3599.74
963.623	3536.69
963.926	3594.99
964.228	3571.94
964.531	3532.84
964.833	3541.43
965.136	3526.74
965.438	3492.17
965.741	3418.05
966.043	3451.49
966.345	3451.49
966.648	3443.36
966.95	3433.64
967.252	3384.37
967.554	3361.78
967.856	3364.94
968.158	3314.55
968.46	3349.35
968.761	3310.7
969.063	3293.08
969.365	3347.54
969.666	3333.75
969.968	3264.15
970.269	3253.08
970.571	3245.39
970.872	3253.76
971.174	3205.85
971.475	3183.25
971.776	3204.72
972.077	3154.1
972.378	3187.09
972.679	3145.74
972.98	3104.38
973.281	3150.03
973.582	3083.82
973.883	3082.91
974.183	3086.08
974.484	3050.6
974.785	3020.09
975.085	3003.82
975.386	3041.56
975.686	3023.25
975.986	3010.82
976.287	2992.29
976.587	2956.59
976.887	2931.73
977.187	2919.3
977.487	2906.87
977.787	2916.59
978.087	2902.58
978.387	2877.27
978.687	2899.42
978.987	2842.02
979.286	2858.29
979.586	2853.54
979.885	2820.55
980.185	2797.05
980.484	2801.79
980.784	2805.86
981.083	2798.18
981.382	2761.34
981.682	2804.73
981.981	2771.28
982.28	2746.88
982.579	2705.97
982.878	2735.13
983.177	2702.36
983.475	2660.1
983.774	2670.72
984.073	2607.22
984.372	2586.2
984.67	2599.99
984.969	2644.96
985.267	2615.81
985.566	2619.87
985.864	2583.27
986.162	2612.87
986.461	2541.46
986.759	2536.94
987.057	2556.83
987.355	2518.86
987.653	2548.69
987.951	2484.96
988.249	2497.17
988.547	2471.4
988.844	2472.08
989.142	2460.56
989.44	2426.43
989.737	2446.55
990.035	2442.48
990.332	2446.55
990.63	2403.16
990.927	2395.93
991.224	2385.98
991.521	2380.11
991.819	2380.11
992.116	2359.99
992.413	2332.2
992.71	2319.09
993.006	2339.43
993.303	2335.81
993.6	2314.35
993.897	2285.42
994.193	2302.14
994.49	2275.93
994.787	2238.42
995.083	2240.22
995.379	2231.41
995.676	2232.09
995.972	2211.52
996.268	2211.98
996.565	2184.18
996.861	2181.24
997.157	2171.98
997.453	2163.84
997.749	2129.94
998.044	2134.01
998.34	2166.55
998.636	2118.87
998.932	2123.16
999.227	2082.04
999.523	2079.1
999.818	2087.01
1000.114	2060.57
1000.409	2028.48
1000.704	2053.79
1001	2060.79
1001.295	2016.5
1001.59	2002.04
1001.885	2017.18
1002.18	1977.63
1002.475	1950.29
1002.77	1989.38
1003.065	1945.99
1003.359	1941.02
1003.654	1959.78
1003.949	1914.36
1004.243	1906.9
1004.538	1882.27
1004.832	1853.79
1005.127	1874.81
1005.421	1875.49
1005.715	1863.28
1006.009	1851.99
1006.304	1852.89
1006.598	1836.39
1006.892	1821.25
1007.186	1798.43
1007.48	1806.56
1007.773	1796.17
1008.067	1778.99
1008.361	1778.09
1008.655	1763.4
1008.948	1773.12
1009.242	1739.22
1009.535	1738.99
1009.829	1704.87
1010.122	1715.72
1010.415	1697.41
1010.708	1702.16
1011.001	1672.33
1011.295	1649.05
1011.588	1666.68
1011.881	1677.07
1012.173	1676.17
1012.466	1668.26
1012.759	1633.23
1013.052	1641.6
1013.344	1609.73
1013.637	1614.93
1013.93	1596.62
1014.222	1567.02
1014.514	1535.16
1014.807	1573.12
1015.099	1595.95
1015.391	1546
1015.683	1538.77
1015.976	1538.77
1016.268	1518.89
1016.56	1507.59
1016.851	1494.93
1017.143	1497.19
1017.435	1477.76
1017.727	1458.32
1018.018	1463.97
1018.31	1463.07
1018.602	1445.22
1018.893	1433.69
1019.185	1415.84
1019.476	1417.87
1019.767	1435.5
1020.058	1425.56
1020.35	1392.56
1020.641	1371.32
1020.932	1378.55
1021.223	1368.83
1021.514	1348.5
1021.804	1329.06
1022.095	1367.93
1022.386	1347.82
1022.677	1333.13
1022.967	1346.69
1023.258	1322.73
1023.548	1280.25
1023.839	1289.74
1024.129	1284.77
1024.419	1261.94
1024.709	1256.07
1025	1251.77
1025.29	1240.02
1025.58	1265.56
1025.87	1220.82
1026.16	1232.34
1026.449	1206.35
1026.739	1213.36
1027.029	1197.99
1027.319	1164.55
1027.608	1198.22
1027.898	1159.8
1028.187	1175.62
1028.477	1154.6
1028.766	1157.54
1029.055	1133.81
1029.344	1127.48
1029.634	1138.56
1029.923	1121.61
1030.212	1116.19
1030.501	1120.25
1030.79	1113.7
1031.078	1107.37
1031.367	1082.74
1031.656	1074.38
1031.945	1099.91
1032.233	1079.35
1032.522	1067.83
1032.81	1054.72
1033.099	1068.95
1033.387	1047.94
1033.675	1055.4
1033.963	1052.23
1034.251	1024.66
1034.54	1021.05
1034.828	1027.83
1035.116	1001.39
1035.403	998.45
1035.691	993.25
1035.979	990.09
1036.267	977.43
1036.554	986.47
1036.842	985.34
1037.129	958.22
1037.417	963.2
1037.704	942.18
1037.992	955.29
1038.279	950.99
1038.566	936.98
1038.853	936.98
1039.14	936.98
