Data from hue_70_FLMS001491_18.txt Node
Date: Mon Feb 06 15:20:12 GMT 2017
User: dcchb
Spectrometer: FLMS00149
Trigger mode: 0
Integration Time (sec): 2.000000E-2
Scans to average: 10
Electric dark correction enabled: true
Nonlinearity correction enabled: false
Boxcar width: 0
XAxis mode: Wavelengths
Number of Pixels in Spectrum: 2048
>>>>>Begin Spectral Data<<<<<
341.393	1.09
341.776	1.09
342.16	1.09
342.543	-74.84
342.927	-75.07
343.31	-61.96
343.693	-80.27
344.077	-66.93
344.46	-76.2
344.843	-58.12
345.226	-35.52
345.61	-42.53
345.993	-27.39
346.376	-17.67
346.759	33.63
347.142	27.53
347.525	31.14
347.908	70.01
348.291	77.02
348.674	113.4
349.057	113.85
349.44	123.57
349.823	139.39
350.206	160.18
350.588	174.19
350.971	213.96
351.354	224.58
351.737	240.4
352.119	227.52
352.502	264.13
352.884	286.5
353.267	294.87
353.65	311.81
354.032	288.31
354.414	302.1
354.797	306.39
355.179	305.49
355.562	345.26
355.944	333.73
356.326	324.92
356.709	340.29
357.091	350.91
357.473	335.54
357.855	373.96
358.238	358.37
358.62	340.29
359.002	350.91
359.384	342.32
359.766	335.32
360.148	343.45
360.53	335.09
360.912	340.74
361.294	314.75
361.676	340.97
362.057	315.88
362.439	361.3
362.821	319.27
363.203	327.86
363.584	328.31
363.966	321.76
364.348	329.44
364.729	323.34
365.111	323.34
365.493	326.5
365.874	319.95
366.256	327.18
366.637	328.54
367.019	305.49
367.4	318.37
367.781	315.88
368.163	329.67
368.544	330.34
368.925	321.98
369.306	312.49
369.688	299.16
370.069	304.81
370.45	329.21
370.831	307.07
371.212	326.95
371.593	314.98
371.974	312.94
372.355	310.01
372.736	330.8
373.117	343.68
373.498	324.92
373.879	317.24
374.26	322.21
374.641	309.1
375.021	308.65
375.402	329.21
375.783	336.67
376.163	317.01
376.544	325.82
376.925	337.12
377.305	317.69
377.686	321.53
378.066	324.24
378.447	317.92
378.827	325.15
379.208	330.8
379.588	334.64
379.968	341.19
380.349	335.09
380.729	327.63
381.109	347.29
381.489	317.46
381.87	331.02
382.25	337.8
382.63	331.7
383.01	340.97
383.39	338.71
383.77	339.38
384.15	347.29
384.53	361.08
384.91	345.71
385.29	344.13
385.67	357.46
386.049	355.2
386.429	350.68
386.809	361.53
387.189	351.81
387.568	343.9
387.948	341.87
388.328	366.05
388.707	360.17
389.087	352.04
389.466	347.52
389.846	342.77
390.225	346.62
390.605	357.24
390.984	372.83
391.363	348.2
391.743	383.45
392.122	359.5
392.501	364.47
392.881	375.54
393.26	379.83
393.639	373.96
394.018	354.98
394.397	368.08
394.776	381.87
395.155	376.22
395.534	375.54
395.913	362.21
396.292	382.32
396.671	388.65
397.05	359.95
397.429	363.34
397.808	378.03
398.186	390.91
398.565	378.48
398.944	386.39
399.323	390.46
399.701	364.24
400.08	392.94
400.458	372.38
400.837	388.87
401.215	372.83
401.594	390.68
401.972	395.65
402.351	375.99
402.729	395.65
403.107	405.82
403.486	413.28
403.864	379.16
404.242	386.84
404.62	386.84
404.999	413.28
405.377	414.18
405.755	394.75
406.133	389.1
406.511	391.81
406.889	400.4
407.267	429.32
407.645	395.2
408.023	397.24
408.401	408.53
408.779	399.27
409.156	451.02
409.534	430.23
409.912	434.3
410.29	419.61
410.667	425.48
411.045	433.17
411.422	438.36
411.8	428.87
412.178	423.9
412.555	453.51
412.933	438.36
413.31	435.2
413.687	461.41
414.065	442.88
414.442	460.06
414.819	460.06
415.197	447.86
415.574	453.05
415.951	463.22
416.328	454.86
416.705	463
417.082	456.67
417.46	457.57
417.837	468.42
418.214	471.36
418.591	464.13
418.967	481.3
419.344	476.33
419.721	461.41
420.098	484.46
420.475	481.3
420.852	471.81
421.228	491.02
421.605	475.65
421.982	493.96
422.358	497.35
422.735	500.96
423.111	514.52
423.488	504.58
423.864	499.38
424.241	498.7
424.617	516.1
424.994	496.89
425.37	528.31
425.746	515.42
426.123	505.03
426.499	520.62
426.875	539.15
427.251	523.33
427.627	534.86
428.003	529.89
428.379	534.86
428.756	546.61
429.132	533.5
429.507	552.26
429.883	545.48
430.259	571.02
430.635	580.06
431.011	582.77
431.387	556.33
431.763	555.2
432.138	563.56
432.514	583.67
432.89	596.55
433.265	590.22
433.641	605.59
434.016	611.92
434.392	614.4
434.767	601.75
435.143	618.25
435.518	636.33
435.894	637.23
436.269	635.42
436.644	639.49
437.02	613.5
437.395	628.87
437.77	653.05
438.145	665.7
438.52	665.02
438.895	642.2
439.271	640.84
439.646	674.29
440.021	674.06
440.395	678.36
440.77	673.39
441.145	659.83
441.52	663.67
441.895	667.96
442.27	670.45
442.645	699.15
443.019	686.04
443.394	689.43
443.769	704.57
444.143	715.42
444.518	693.5
444.892	700.28
445.267	724.91
445.641	711.8
446.016	717
446.39	732.59
446.764	727.85
447.139	729.2
447.513	729.2
447.887	715.42
448.262	720.84
448.636	750.9
449.01	764.46
449.384	773.72
449.758	754.74
450.132	769.88
450.506	753.84
450.88	757.45
451.254	795.19
451.628	770.33
452.002	782.08
452.376	779.82
452.75	796.55
453.123	813.5
453.497	790.22
453.871	806.26
454.244	814.17
454.618	829.99
454.992	839.71
455.365	872.93
455.739	852.82
456.112	875.41
456.486	874.51
456.859	892.36
457.232	884.45
457.606	894.17
457.979	877.67
458.352	930.78
458.725	940.27
459.099	929.88
459.472	941.63
459.845	955.86
460.218	946.83
460.591	973.27
460.964	963.77
461.337	957.22
461.71	972.81
462.083	1005.13
462.456	980.27
462.829	1034.28
463.201	1042.87
463.574	1064.11
463.947	1041.29
464.32	1081.29
464.692	1089.19
465.065	1117.22
465.438	1123.77
465.81	1109.08
466.183	1123.09
466.555	1159.7
466.928	1175.29
467.3	1175.97
467.672	1209.64
468.045	1224.33
468.417	1247.38
468.789	1238.12
469.161	1272.24
469.534	1318.12
469.906	1306.36
470.278	1326.48
470.65	1360.6
471.022	1414.84
471.394	1452.12
471.766	1435.4
472.138	1464.33
472.51	1493.48
472.882	1524.89
473.253	1581.61
473.625	1590.65
473.997	1636.75
474.369	1656.64
474.74	1680.82
475.112	1735.96
475.484	1759.69
475.855	1829.06
476.227	1842.17
476.598	1911.55
476.97	1957.65
477.341	1987.48
477.713	2060.47
478.084	2083.29
478.455	2153.8
478.827	2221.59
479.198	2283.51
479.569	2336.85
479.94	2398.99
480.311	2466.33
480.682	2540.91
481.053	2623.39
481.424	2675.59
481.795	2759.43
482.166	2871.75
482.537	2904.51
482.908	3001.46
483.279	3065.64
483.65	3169.82
484.021	3250.72
484.391	3365.07
484.762	3461.79
485.133	3506.76
485.503	3598.96
485.874	3743.14
486.244	3826.52
486.615	3910.14
486.985	4048.66
487.356	4162.79
487.726	4270.81
488.097	4449.11
488.467	4546.73
488.837	4647.52
489.207	4779.49
489.578	4862.88
489.948	4986.49
490.318	5185.36
490.688	5255.41
491.058	5389.19
491.428	5517.33
491.798	5599.13
492.168	5814.04
492.538	5906.69
492.908	6045.67
493.278	6167.93
493.648	6303.52
494.017	6498.77
494.387	6555.72
494.757	6747.8
495.126	6866.44
495.496	6997.06
495.866	7107.34
496.235	7257.39
496.605	7403.6
496.974	7494.45
497.344	7628.91
497.713	7777.38
498.082	7873.42
498.452	8067.77
498.821	8156.58
499.19	8268.44
499.559	8374.43
499.928	8510.92
500.298	8626.85
500.667	8787.07
501.036	8857.8
501.405	9052.6
501.774	9048.53
502.143	9209.21
502.512	9354.06
502.88	9553.38
503.249	9568.97
503.618	9707.27
503.987	9817.1
504.356	9931.22
504.724	10026.36
505.093	10098.22
505.462	10219.12
505.83	10335.73
506.199	10447.59
506.567	10689.17
506.936	10647.59
507.304	10845.55
507.672	10992.21
508.041	11029.95
508.409	11064.75
508.777	11213.45
509.145	11363.27
509.514	11405.99
509.882	11568.47
510.25	11598.3
510.618	11659.99
510.986	11819.99
511.354	11929.36
511.722	12085.52
512.09	12177.26
512.458	12318.28
512.826	12334.77
513.193	12404.83
513.561	12520.08
513.929	12686.63
514.297	12761.88
514.664	12892.05
515.032	12887.08
515.4	13083
515.767	13054.98
516.135	13146.05
516.502	13151.02
516.869	13423.79
517.237	13446.84
517.604	13446.16
517.972	13621.75
518.339	13704.68
518.706	13645.93
519.073	13837.33
519.44	13894.73
519.808	14077.33
520.175	14094.05
520.542	14210.21
520.909	14327.26
521.276	14304.67
521.643	14461.05
522.009	14445.68
522.376	14717.08
522.743	14676.41
523.11	14832.11
523.477	14988.04
523.843	15019.68
524.21	15176.73
524.577	15260.12
524.943	15314.58
525.31	15440.91
525.676	15531.07
526.043	15558.64
526.409	15599.55
526.776	15748.02
527.142	15856.04
527.508	15791.18
527.874	16008.58
528.241	16035.02
528.607	16044.96
528.973	16188.68
529.339	16163.37
529.705	16369.02
530.071	16498.28
530.437	16517.49
530.803	16527.88
531.169	16635.68
531.535	16534.66
531.901	16624.61
532.267	16709.57
532.632	16811.49
532.998	16862.34
533.364	16847.42
533.73	16913.41
534.095	17051.49
534.461	17144.14
534.826	17107.08
535.192	17192.95
535.557	17259.39
535.923	17188.21
536.288	17210.13
536.653	17366.73
537.019	17237.92
537.384	17403.12
537.749	17408.54
538.114	17374.64
538.479	17358.15
538.845	17521.76
539.21	17473.62
539.575	17522.43
539.94	17523.79
540.305	17520.4
540.67	17570.12
541.034	17598.82
541.399	17549.1
541.764	17654.63
542.129	17749.55
542.494	17717.01
542.858	17720.62
543.223	17724.01
543.587	17779.6
543.952	17740.06
544.316	17758.81
544.681	17762.65
545.045	17854.18
545.41	17958.13
545.774	17924.01
546.138	17880.17
546.503	17942.54
546.867	17943.44
547.231	17946.38
547.595	17952.03
547.959	17984.12
548.324	17995.42
548.688	18018.01
549.052	18072.02
549.416	18133.72
549.779	18060.27
550.143	18051.46
550.507	18208.29
550.871	18195.41
551.235	18117.9
551.599	18163.1
551.962	18274.05
552.326	18284.9
552.689	18416.65
553.053	18307.72
553.417	18291.23
553.78	18524.89
554.143	18393.6
554.507	18394.95
554.87	18560.6
555.234	18549.07
555.597	18505.46
555.96	18554.72
556.323	18602.86
556.686	18651.9
557.05	18714.95
557.413	18655.96
557.776	18780.93
558.139	18843.76
558.502	18765.34
558.865	18855.73
559.228	18975.05
559.59	18996.75
559.953	18886.47
560.316	19130.3
560.679	19144.99
561.041	19187.25
561.404	19305.89
561.767	19350.41
562.129	19286.46
562.492	19482.84
562.854	19426.57
563.217	19427.02
563.579	19531.65
563.941	19630.4
564.304	19555.83
564.666	19681.93
565.028	19707.91
565.39	19693.45
565.753	19807.35
566.115	19842.37
566.477	19928.25
566.839	19992.65
567.201	20073.55
567.563	19997.4
567.925	20198.52
568.287	20154.46
568.648	20200.78
569.01	20323.04
569.372	20336.15
569.734	20287.33
570.095	20418.86
570.457	20573.88
570.819	20705.85
571.18	20571.85
571.542	20640.09
571.903	20730.49
572.265	20770.26
572.626	20796.25
572.987	20793.08
573.349	20803.03
573.71	20961.67
574.071	21031.27
574.432	20976.58
574.794	21156.69
575.155	21086.86
575.516	21038.73
575.877	21092.74
576.238	21131.38
576.599	21189.23
576.96	21226.52
577.32	21181.55
577.681	21312.84
578.042	21374.08
578.403	21280.08
578.763	21334.76
579.124	21594.87
579.485	21401.88
579.845	21513.52
580.206	21501.09
580.566	21432.61
580.927	21499.51
581.287	21563.23
581.648	21372.73
582.008	21610.91
582.368	21486.62
582.728	21535.21
583.089	21553.97
583.449	21596.68
583.809	21508.09
584.169	21573.18
584.529	21484.36
584.889	21698.14
585.249	21558.49
585.609	21578.6
585.969	21678.48
586.329	21565.72
586.688	21627.41
587.048	21642.33
587.408	21585.83
587.768	21673.06
588.127	21587.19
588.487	21574.76
588.846	21772.72
589.206	21525.27
589.565	21588.54
589.925	21668.99
590.284	21585.38
590.643	21591.25
591.003	21630.35
591.362	21673.96
591.721	21691.82
592.08	21659.05
592.44	21718.71
592.799	21645.49
593.158	21576.79
593.517	21701.08
593.876	21604.81
594.235	21637.13
594.593	21678.26
594.952	21620.86
595.311	21587.64
595.67	21732.04
596.029	21734.75
596.387	21730.91
596.746	21813.62
597.104	21736.56
597.463	21607.98
597.822	21770.23
598.18	21745.15
598.538	21814.75
598.897	21815.43
599.255	21554.42
599.613	21838.93
599.972	21800.97
600.33	21864.92
600.688	21732.27
601.046	21832.83
601.404	21947.63
601.762	21908.31
602.12	22040.06
602.478	21921.64
602.836	21974.97
603.194	21904.92
603.552	21880.29
603.91	21856.33
604.268	21986.05
604.625	21853.85
604.983	22018.59
605.341	21864.47
605.698	22046.61
606.056	22066.5
606.413	21977.68
606.771	22009.1
607.128	22029.89
607.485	22010.68
607.843	22043.45
608.2	22230.11
608.557	22216.1
608.914	22163.44
609.272	22246.38
609.629	22317.11
609.986	22415.64
610.343	22353.27
610.7	22508.74
611.057	22452.93
611.414	22417
611.771	22412.02
612.127	22432.81
612.484	22611.79
612.841	22624.67
613.198	22598.46
613.554	22453.15
613.911	22606.14
614.267	22649.76
614.624	22547.39
614.98	22639.59
615.337	22786.03
615.693	22697.44
616.05	22706.93
616.406	22853.59
616.762	22794.84
617.118	22739.02
617.475	22759.13
617.831	22920.71
618.187	22915.06
618.543	22977.21
618.899	23044.32
619.255	23046.81
619.611	23038.67
619.967	23045.23
620.323	23191.89
620.678	22996.87
621.034	23009.97
621.39	23053.59
621.746	22988.96
622.101	23411.77
622.457	23085.45
622.812	23137.2
623.168	23252.68
623.523	23256.97
623.879	23245.22
624.234	23089.52
624.589	23239.12
624.945	23209.52
625.3	23242.51
625.655	23216.97
626.01	23264.88
626.365	23272.11
626.72	23169.52
627.075	23199.35
627.43	23219.91
627.785	23247.48
628.14	23156.18
628.495	23239.12
628.85	23257.43
629.205	23210.42
629.559	23273.47
629.914	23147.6
630.269	23141.95
630.623	23076.64
630.978	23162.06
631.332	23194.38
631.687	23208.16
632.041	23170.65
632.396	23111.67
632.75	22987.15
633.104	23096.3
633.459	23069.86
633.813	22990.54
634.167	22946.7
634.521	22978.11
634.875	23068.96
635.229	22990.54
635.583	22850.88
635.937	22915.97
636.291	22977.88
636.645	22874.61
636.999	22903.08
637.352	23013.36
637.706	22803.65
638.06	22892.92
638.413	22779.92
638.767	22773.82
639.121	22812.24
639.474	22697.89
639.828	22732.24
640.181	22788.74
640.534	22761.17
640.888	22683.65
641.241	22618.12
641.594	22685.91
641.947	22689.76
642.301	22548.74
642.654	22521.85
643.007	22696.99
643.36	22624
643.713	22535.86
644.066	22689.76
644.419	22577.9
644.771	22465.81
645.124	22167.06
645.477	22198.02
645.83	21979.94
646.182	21967.29
646.535	21888.87
646.888	21892.72
647.24	21804.58
647.593	21930
647.945	21897.46
648.298	21737.92
648.65	21800.51
649.002	21722.32
649.355	21767.07
649.707	21725.49
650.059	21795.99
650.411	22113.5
650.763	22142.43
651.115	22332.93
651.467	22293.83
651.819	22295.64
652.171	22247.73
652.523	22202.54
652.875	22233.05
653.227	22084.8
653.578	22349.43
653.93	22281.18
654.282	22163.67
654.633	22058.81
654.985	22200.73
655.337	22128.42
655.688	22221.29
656.039	22247.96
656.391	22131.81
656.742	22115.53
657.094	22157.57
657.445	22253.16
657.796	22150.56
658.147	22191.46
658.498	22217.68
658.849	22250.9
659.2	22210.67
659.551	22202.54
659.902	22286.38
660.253	22103.56
660.604	22244.34
660.955	22153.5
661.306	22161.86
661.656	22069.89
662.007	22158.47
662.358	22111.69
662.708	22213.38
663.059	22089.09
663.409	22059.49
663.76	22179.26
664.11	22102.43
664.461	22236.44
664.811	22156.89
665.161	22077.12
665.511	22140.84
665.862	22192.14
666.212	22224.01
666.562	22198.92
666.912	22091.13
667.262	22186.04
667.612	22197.79
667.962	22164.57
668.312	22177.91
668.662	22208.87
669.011	22013.62
669.361	22073.28
669.711	21999.61
670.06	22048.87
670.41	22078.47
670.76	22010.68
671.109	22083.9
671.459	22031.92
671.808	22101.52
672.157	22038.7
672.507	21924.8
672.856	21946.27
673.205	21960.51
673.554	22132.93
673.904	21917.8
674.253	22056.33
674.602	21975.43
674.951	21647.07
675.3	21632.38
675.649	21868.31
675.998	21840.97
676.346	21917.57
676.695	21921.42
677.044	21734.98
677.393	21823.34
677.741	21888.42
678.09	21794.64
678.438	21718.71
678.787	21827.18
679.135	21804.36
679.484	21651.59
679.832	21772.27
680.181	21584.25
680.529	21674.42
680.877	21601.42
681.225	21541.54
681.573	21633.51
681.922	21525.04
682.27	21488.21
682.618	21503.35
682.966	21414.76
683.314	21471.71
683.661	21338.83
684.009	21250.25
684.357	21098.61
684.705	21102.23
685.053	21168.67
685.4	21187.42
685.748	21057.26
686.095	20945.4
686.443	20920.09
686.79	20897.04
687.138	20953.53
687.485	20969.8
687.832	20905.4
688.18	20867.21
688.527	20758.06
688.874	20781.33
689.221	20596.48
689.568	20637.38
689.915	20541.56
690.262	20572.75
690.609	20483.71
690.956	20303.6
691.303	20338.18
691.65	20387.44
691.997	20273.32
692.344	20210.5
692.69	20125.98
693.037	20123.72
693.383	19952.88
693.73	20099.54
694.077	19913.56
694.423	19905.42
694.769	19803.5
695.116	19757.4
695.462	19744.07
695.808	19610.52
696.155	19679.44
696.501	19539.33
696.847	19541.82
697.193	19314.93
697.539	19456.62
697.885	19243.29
698.231	19260.69
698.577	19217.08
698.923	19150.41
699.269	19146.8
699.614	18983.19
699.96	18982.96
700.306	19000.59
700.651	18884.21
700.997	18841.27
701.342	18769.63
701.688	18718.34
702.033	18632.46
702.379	18671.78
702.724	18466.36
703.069	18519.92
703.415	18397.89
703.76	18426.59
704.105	18345.92
704.45	18286.26
704.795	18220.04
705.14	18146.15
705.485	18109.76
705.83	18028.18
706.175	17986.15
706.52	17923.1
706.865	17865.93
707.209	17793.39
707.554	17825.03
707.899	17802.43
708.243	17715.42
708.588	17737.8
708.932	17597.01
709.277	17607.4
709.621	17613.28
709.966	17424.13
710.31	17514.53
710.654	17388.65
710.998	17369.67
711.342	17376.9
711.687	17293.74
712.031	17210.58
712.375	17203.8
712.719	17192.5
713.063	17174.2
713.407	17286.28
713.75	17100.75
714.094	17125.61
714.438	17108.89
714.782	16997.02
715.125	16891.94
715.469	16946.86
715.812	16794.54
716.156	16792.96
716.499	16758.84
716.843	16754.55
717.186	16713.19
717.53	16733.98
717.873	16785.05
718.216	16703.93
718.559	16653.08
718.902	16470.03
719.246	16594.1
719.589	16461.67
719.932	16511.39
720.275	16517.26
720.617	16416.7
720.96	16456.47
721.303	16402.01
721.646	16338.51
721.989	16343.48
722.331	16416.7
722.674	16308.46
723.016	16346.65
723.359	16307.55
723.701	16306.2
724.044	16157.95
724.386	16196.14
724.729	16240.89
725.071	16209.93
725.413	16143.71
725.755	16105.75
726.097	16054.45
726.439	15976.26
726.782	16024.17
727.124	16123.83
727.465	15966.54
727.807	15994.79
728.149	15985.53
728.491	15919.54
728.833	16002.93
729.175	15903.04
729.516	15824.85
729.858	15842.7
730.199	15918.18
730.541	15855.13
730.882	15798.41
731.224	15807.68
731.565	15743.72
731.906	15754.12
732.248	15840.9
732.589	15736.27
732.93	15726.32
733.271	15731.3
733.612	15675.25
733.953	15737.85
734.294	15601.36
734.635	15640.68
734.976	15712.99
735.317	15644.52
735.658	15712.76
735.999	15556.84
736.339	15588.93
736.68	15629.83
737.021	15606.78
737.361	15592.77
737.702	15585.99
738.042	15566.33
738.383	15731.3
738.723	15559.77
739.063	15590.51
739.404	15583.05
739.744	15643.39
740.084	15588.7
740.424	15590.96
740.764	15556.16
741.104	15715.48
741.444	15580.11
741.784	15501.47
742.124	15605.87
742.464	15568.59
742.804	15614.46
743.143	15503.73
743.483	15649.72
743.823	15590.73
744.162	15656.95
744.502	15642.03
744.841	15661.47
745.181	15698.75
745.52	15693.56
745.86	15614.01
746.199	15651.3
746.538	15654.24
746.877	15724.06
747.216	15847
747.556	15806.32
747.895	15863.95
748.234	15820.78
748.573	15815.59
748.911	15966.32
749.25	16003.83
749.589	15899.2
749.928	15962.02
750.267	16116.82
750.605	16076.6
750.944	16144.62
751.283	16104.39
751.621	16227.55
751.96	16232.98
752.298	16331.28
752.636	16343.93
752.975	16350.04
753.313	16458.51
753.651	16513.2
753.989	16581.44
754.327	16508
754.666	16547.09
755.004	16759.29
755.342	16729.91
755.679	16897.37
756.017	16795
756.355	16947.31
756.693	17076.34
757.031	17110.69
757.368	17150.24
757.706	17070.02
758.044	17217.13
758.381	17390.01
758.719	17403.79
759.056	17497.12
759.394	17552.94
759.731	17483.57
760.068	17535.32
760.405	17523.79
760.743	17639.27
761.08	17822.31
761.417	17722.2
761.754	17800.62
762.091	17998.81
762.428	17888.75
762.765	17873.16
763.102	18057.56
763.438	17884.91
763.775	18016.89
764.112	18092.36
764.449	18262.53
764.785	18222.08
765.122	18179.59
765.458	18182.08
765.795	18261.17
766.131	18320.38
766.467	18189.31
766.804	18203.32
767.14	18249.42
767.476	18288.74
767.812	18365.12
768.148	18469.98
768.485	18357.67
768.821	18300.72
769.157	18312.47
769.492	18287.84
769.828	18387.27
770.164	18201.06
770.5	18329.65
770.836	18329.87
771.171	18233.83
771.507	18296.2
771.842	18230.44
772.178	18248.74
772.513	18245.58
772.849	18169.65
773.184	18159.03
773.519	18178.91
773.855	18201.74
774.19	18171.01
774.525	18058.47
774.86	18089.65
775.195	18085.58
775.53	18070.67
775.865	17875.19
776.2	17820.05
776.535	17788.42
776.87	17810.56
777.205	17782.09
777.539	17662.77
777.874	17785.25
778.209	17640.85
778.543	17648.76
778.878	17543.23
779.212	17614.64
779.547	17369.67
779.881	17488.09
780.215	17364.47
780.55	17500.51
780.884	17332.38
781.218	17363.79
781.552	17336
781.886	17233.4
782.22	17160.86
782.554	17152.27
782.888	16950.25
783.222	16976.23
783.556	16900.76
783.889	16842.9
784.223	16733.3
784.557	16778.95
784.89	16686.3
785.224	16729.24
785.557	16569.92
785.891	16604.94
786.224	16655.79
786.558	16576.02
786.891	16416.25
787.224	16382.13
787.557	16310.04
787.891	16290.6
788.224	16338.06
788.557	16263.48
788.89	16153.43
789.223	16227.55
789.556	16051.74
789.888	16032.98
790.221	15943.49
790.554	15891.52
790.887	15865.3
791.219	15853.1
791.552	15769.49
791.884	15744.63
792.217	15702.6
792.549	15591.64
792.882	15474.35
793.214	15481.36
793.546	15446.78
793.879	15466.67
794.211	15313.91
794.543	15426.9
794.875	15320.23
795.207	15296.5
795.539	15181.03
795.871	15238.65
796.203	15119.11
796.535	15028.26
796.867	14930.64
797.198	14921.15
797.53	14988.04
797.862	14867.36
798.193	14875.72
798.525	14790.3
798.856	14821.94
799.188	14638.44
799.519	14588.73
799.85	14502.63
800.182	14501.05
800.513	14507.6
800.844	14458.33
801.175	14490.2
801.506	14489.52
801.837	14446.81
802.168	14341.95
802.499	14287.94
802.83	14214.05
803.161	14123.43
803.491	14250.88
803.822	14169.75
804.153	14119.36
804.483	14002.98
804.814	13944.22
805.145	13971.34
805.475	13967.95
805.805	13899.25
806.136	13920.04
806.466	13861.97
806.796	13814.06
807.126	13751.46
807.457	13750.78
807.787	13662.42
808.117	13575.87
808.447	13560.05
808.777	13505.82
809.107	13524.57
809.436	13514.86
809.766	13571.8
810.096	13439.83
810.426	13332.04
810.755	13388.31
811.085	13297.46
811.414	13339.95
811.744	13186.05
812.073	13223.79
812.403	13217.24
812.732	13135.88
813.061	13062.21
813.39	13053.63
813.719	12978.15
814.049	13060.41
814.378	13001.42
814.707	12982.89
815.036	12926.62
815.365	12853.4
815.693	12763.24
816.022	12750.81
816.351	12744.03
816.68	12755.55
817.008	12796.23
817.337	12586.29
817.665	12602.56
817.994	12574.77
818.322	12643.92
818.651	12498.16
818.979	12479.18
819.307	12602.79
819.636	12499.52
819.964	12391.72
820.292	12442.57
820.62	12491.61
820.948	12383.59
821.276	12511.95
821.604	12452.51
821.932	12476.92
822.259	12440.99
822.587	12399.18
822.915	12337.49
823.243	12391.72
823.57	12313.53
823.898	12446.41
824.225	12304.27
824.553	12334.77
824.88	12376.13
825.207	12401.21
825.535	12389.24
825.862	12372.29
826.189	12329.12
826.516	12379.07
826.843	12433.3
827.17	12429.01
827.497	12370.71
827.824	12338.16
828.151	12373.19
828.478	12384.26
828.805	12410.93
829.131	12322.35
829.458	12365.96
829.785	12262.91
830.111	12283.93
830.438	12335.23
830.764	12297.94
831.09	12357.82
831.417	12307.88
831.743	12269.24
832.069	12234.66
832.395	12199.86
832.722	12299.75
833.048	12250.03
833.374	12291.16
833.7	12149.69
834.026	12210.03
834.351	12231.27
834.677	12187.21
835.003	12221.11
835.329	12203.48
835.654	12123.25
835.98	12115.57
836.306	12128
836.631	12072.86
836.956	12170.94
837.282	12089.81
837.607	12084.39
837.932	12060.66
838.258	11997.38
838.583	12065.63
838.908	11936.37
839.233	11987.44
839.558	11874.67
839.883	11870.38
840.208	11879.19
840.533	11853.43
840.858	11904.05
841.182	11832.41
841.507	11799.42
841.832	11775.24
842.156	11705.86
842.481	11805.75
842.805	11677.39
843.13	11688.69
843.454	11613.89
843.778	11643.49
844.103	11594.23
844.427	11459.09
844.751	11566.21
845.075	11481.46
845.399	11464.51
845.723	11480.33
846.047	11382.03
846.371	11279.44
846.695	11416.61
847.019	11212.09
847.343	11312.2
847.666	11176.39
847.99	11134.13
848.313	11074.92
848.637	10994.92
848.96	10997.86
849.284	10946.79
849.607	10830.18
849.931	10915.83
850.254	10797.64
850.577	10693.46
850.9	10692.78
851.223	10708.6
851.546	10619.34
851.869	10520.58
852.192	10611.66
852.515	10465.9
852.838	10483.98
853.161	10452.79
853.483	10394.26
853.806	10356.07
854.129	10224.55
854.451	10293.02
854.774	10221.61
855.096	10185.45
855.419	10210.08
855.741	10181.84
856.063	10166.47
856.385	10061.16
856.708	10020.49
857.03	10033.14
857.352	10042.41
857.674	9984.33
857.996	9930.09
858.318	9889.64
858.64	9874.73
858.961	9914.5
859.283	9873.14
859.605	9821.17
859.926	9845.35
860.248	9777.33
860.57	9692.36
860.891	9732.81
861.212	9713.83
861.534	9664.56
861.855	9642.64
862.176	9720.38
862.498	9639.93
862.819	9652.36
863.14	9559.71
863.461	9526.49
863.782	9472.93
864.103	9527.16
864.424	9510.67
864.745	9498.24
865.065	9433.61
865.386	9491.46
865.707	9464.12
866.027	9410.33
866.348	9361.52
866.668	9366.49
866.989	9387.06
867.309	9337.34
867.63	9418.24
867.95	9304.8
868.27	9227.74
868.59	9309.09
868.91	9211.47
869.23	9282.88
869.55	9206.95
869.87	9276.1
870.19	9284.69
870.51	9200.39
870.83	9277.23
871.15	9094.63
871.469	9206.72
871.789	9190
872.109	9142.09
872.428	9184.8
872.748	9167.63
873.067	9111.58
873.386	9071.36
873.706	9082.88
874.025	9037.46
874.344	8999.95
874.663	9027.06
874.982	8994.3
875.301	8991.36
875.62	8916.79
875.939	8942.1
876.258	8878.59
876.577	8891.25
876.896	8886.73
877.214	8855.09
877.533	8894.64
877.852	8884.7
878.17	8848.99
878.489	8912.04
878.807	8839.73
879.125	8772.38
879.444	8825.49
879.762	8712.5
880.08	8777.58
880.398	8736.68
880.716	8651.03
881.034	8657.13
881.352	8623.69
881.67	8666.85
881.988	8693.06
882.306	8693.29
882.624	8597.47
882.941	8577.81
883.259	8547.53
883.577	8543.91
883.894	8533.97
884.212	8486.29
884.529	8489.68
884.846	8416.01
885.164	8455.33
885.481	8411.04
885.798	8415.56
886.115	8336.01
886.432	8398.38
886.75	8359.51
887.067	8412.84
887.383	8288.55
887.7	8299.17
888.017	8245.16
888.334	8278.38
888.651	8235.45
888.967	8210.36
889.284	8223.7
889.6	8161.55
889.917	8103.02
890.233	8124.49
890.55	8016.47
890.866	8126.98
891.182	8063.93
891.498	8038.84
891.815	7937.6
892.131	7972.63
892.447	7954.32
892.763	7913.2
893.079	7902.8
893.395	7873.87
893.71	7886.53
894.026	7792.07
894.342	7809.7
894.657	7753.43
894.973	7800.66
895.289	7739.87
895.604	7766.31
895.92	7661
896.235	7609.93
896.55	7631.85
896.865	7639.98
897.181	7577.61
897.496	7562.92
897.811	7554.79
898.126	7552.98
898.441	7489.48
898.756	7511.4
899.071	7414.68
899.386	7425.98
899.7	7392.53
900.015	7310.05
900.33	7292.2
900.644	7292.2
900.959	7322.02
901.273	7265.98
901.588	7231.86
901.902	7222.59
902.216	7143.27
902.531	7207
902.845	7138.98
903.159	7081.81
903.473	7060.56
903.787	7053.78
904.101	7034.8
904.415	7007.68
904.729	6994.12
905.042	6945.76
905.356	6890.17
905.67	6913
905.984	6924.3
906.297	6868.03
906.611	6826.67
906.924	6797.52
907.237	6772.89
907.551	6756.16
907.864	6709.39
908.177	6718.65
908.491	6698.99
908.804	6676.62
909.117	6635.26
909.43	6575.83
909.743	6534.25
910.056	6530.63
910.368	6516.17
910.681	6494.25
910.994	6460.13
911.307	6421.26
911.619	6395.95
911.932	6390.98
912.244	6340.36
912.557	6338.77
912.869	6278.21
913.181	6286.12
913.494	6304.65
913.806	6201.38
914.118	6197.76
914.43	6228.72
914.742	6155.05
915.054	6102.62
915.366	6082.06
915.678	6059.01
915.99	5998.44
916.302	5975.85
916.613	6012.23
916.925	6007.48
917.236	5910.54
917.548	5945.11
917.859	5904.21
918.171	5905.57
918.482	5808.62
918.794	5797.09
919.105	5772.69
919.416	5776.98
919.727	5766.59
920.038	5732.91
920.349	5725.91
920.66	5626.7
920.971	5663.54
921.282	5616.31
921.593	5584.44
921.903	5562.75
922.214	5574.95
922.525	5543.31
922.835	5487.72
923.146	5477.55
923.456	5509.42
923.767	5468.97
924.077	5432.13
924.387	5395.97
924.697	5367.95
925.008	5393.94
925.318	5350.1
925.628	5356.88
925.938	5246.15
926.248	5289.08
926.558	5260.38
926.867	5246.6
927.177	5162.53
927.487	5196.66
927.796	5165.47
928.106	5121.18
928.416	5158.24
928.725	5119.15
929.034	5083.67
929.344	5091.12
929.653	5022.88
929.962	5076.89
930.271	5016.55
930.581	4931.35
930.89	4957.57
931.199	4979.04
931.508	4936.33
931.817	4960.73
932.125	4868.98
932.434	4864.91
932.743	4861.98
933.051	4825.82
933.36	4783.56
933.669	4759.83
933.977	4744.47
934.286	4756.67
934.594	4700.4
934.902	4708.53
935.21	4624.24
935.519	4656.56
935.827	4650.91
936.135	4599.16
936.443	4547.86
936.751	4526.17
937.059	4550.57
937.367	4485.72
937.674	4529.33
937.982	4481.42
938.29	4476
938.597	4481.42
938.905	4419.28
939.213	4428.54
939.52	4416.56
939.827	4395.77
940.135	4405.04
940.442	4347.19
940.749	4369.79
941.056	4308.09
941.363	4278.26
941.67	4287.3
941.977	4235.1
942.284	4241.88
942.591	4239.39
942.898	4205.04
943.205	4219.51
943.511	4169.57
943.818	4156.23
944.125	4117.36
944.431	4113.52
944.738	4124.82
945.044	4112.39
945.35	4059.74
945.657	4044.6
945.963	4019.96
946.269	4031.94
946.575	4031.26
946.881	4008.67
947.187	3986.29
947.493	3974.54
947.799	3954.2
948.105	3927.54
948.41	3912.17
948.716	3906.3
949.022	3851.61
949.327	3867.65
949.633	3809.57
949.938	3786.52
950.244	3823.13
950.549	3764.15
950.854	3766.86
951.16	3726.19
951.465	3799.63
951.77	3680.09
952.075	3678.73
952.38	3659.07
952.685	3669.01
952.99	3648.68
953.294	3584.95
953.599	3593.31
953.904	3577.04
954.209	3504.95
954.513	3576.81
954.818	3576.13
955.122	3546.31
955.426	3515.57
955.731	3567.55
956.035	3488.23
956.339	3482.58
956.643	3459.53
956.948	3445.74
957.252	3461.56
957.556	3451.62
957.86	3406.42
958.163	3384.28
958.467	3393.54
958.771	3372.3
959.075	3384.5
959.378	3316.03
959.682	3323.26
959.985	3337.5
960.289	3292.07
960.592	3261.79
960.896	3238.97
961.199	3255.92
961.502	3247.1
961.805	3258.18
962.108	3236.03
962.411	3171.63
962.714	3218.4
963.017	3199.2
963.32	3140.89
963.623	3176.6
963.926	3148.8
964.228	3124.4
964.531	3111.06
964.833	3079.88
965.136	3099.99
965.438	3039.43
965.741	3010.5
966.043	3022.25
966.345	3002.82
966.648	3012.99
966.95	2992.2
967.252	2961.01
967.554	2968.24
967.856	2947.9
968.158	2954
968.46	2946.32
968.761	2910.39
969.063	2918.07
969.365	2903.61
969.666	2886.21
969.968	2871.97
970.269	2853.22
970.571	2840.56
970.872	2853.67
971.174	2830.39
971.475	2811.64
971.776	2795.59
972.077	2814.8
972.378	2744.29
972.679	2795.14
972.98	2748.13
973.281	2726.21
973.582	2728.02
973.883	2737.51
974.183	2702.94
974.484	2690.73
974.785	2652.09
975.085	2696.38
975.386	2679.44
975.686	2637.63
975.986	2654.8
976.287	2643.96
976.587	2621.58
976.887	2582.49
977.187	2630.62
977.487	2587.01
977.787	2548.14
978.087	2573.68
978.387	2562.6
978.687	2546.78
978.987	2516.73
979.286	2480.12
979.586	2509.72
979.885	2495.49
980.185	2483.96
980.484	2477.63
980.784	2490.74
981.083	2455.94
981.382	2440.8
981.682	2459.1
981.981	2428.59
982.28	2435.83
982.579	2387.01
982.878	2424.3
983.177	2383.17
983.475	2385.21
983.774	2377.3
984.073	2343.85
984.372	2316.05
984.67	2361.7
984.969	2311.99
985.267	2315.6
985.566	2293.46
985.864	2300.46
986.162	2300.24
986.461	2281.71
986.759	2271.08
987.057	2227.02
987.355	2236.73
987.653	2213.91
987.951	2224.98
988.249	2222.5
988.547	2196.96
988.844	2186.34
989.142	2168.94
989.44	2183.4
989.737	2184.31
990.035	2170.52
990.332	2163.29
990.63	2140.69
990.927	2127.13
991.224	2098.89
991.521	2117.87
991.819	2148.83
992.116	2072.9
992.413	2104.31
992.71	2070.64
993.006	2067.93
993.303	2067.02
993.6	2059.34
993.897	2034.25
994.193	2033.35
994.49	1995.39
994.787	2024.31
995.083	1988.61
995.379	1987.7
995.676	1979.11
995.972	1953.58
996.268	1949.28
996.565	1938.89
996.861	1959.23
997.157	1935.73
997.453	1914.71
997.749	1918.1
998.044	1882.85
998.34	1891.21
998.636	1888.72
998.932	1892.56
999.227	1873.13
999.523	1872.22
999.818	1841.72
1000.114	1836.07
1000.409	1834.94
1000.704	1797.88
1001	1838.1
1001.295	1809.4
1001.59	1764.66
1001.885	1775.5
1002.18	1802.62
1002.475	1757.2
1002.77	1734.83
1003.065	1738.89
1003.359	1752.68
1003.654	1764.21
1003.949	1687.14
1004.243	1696.41
1004.538	1701.83
1004.832	1693.25
1005.127	1676.52
1005.421	1677.2
1005.715	1669.74
1006.009	1634.72
1006.304	1641.04
1006.598	1633.14
1006.892	1648.28
1007.186	1636.3
1007.48	1627.03
1007.773	1612.57
1008.067	1554.72
1008.361	1572.35
1008.655	1573.48
1008.948	1583.64
1009.242	1561.27
1009.535	1549.07
1009.829	1529.18
1010.122	1515.17
1010.415	1530.31
1010.708	1507.26
1011.001	1513.36
1011.295	1477.88
1011.588	1494.83
1011.881	1459.35
1012.173	1475.4
1012.466	1482.4
1012.759	1449.19
1013.052	1439.69
1013.344	1459.13
1013.637	1448.51
1013.93	1384.78
1014.222	1407.15
1014.514	1392.01
1014.807	1411.22
1015.099	1402.41
1015.391	1381.39
1015.683	1394.72
1015.976	1373.25
1016.268	1389.3
1016.56	1356.98
1016.851	1336.87
1017.143	1358.57
1017.435	1334.84
1017.727	1327.15
1018.018	1319.24
1018.31	1321.5
1018.602	1306.59
1018.893	1261.85
1019.185	1294.84
1019.476	1269.75
1019.767	1297.55
1020.058	1286.25
1020.35	1264.11
1020.641	1257.1
1020.932	1231.79
1021.223	1231.56
1021.514	1209.42
1021.804	1221.62
1022.095	1218.91
1022.386	1194.5
1022.677	1199.93
1022.967	1181.85
1023.258	1182.75
1023.548	1182.53
1023.839	1175.29
1024.129	1143.88
1024.419	1140.94
1024.709	1132.58
1025	1142.98
1025.29	1116.09
1025.58	1150.44
1025.87	1108.18
1026.16	1120.15
1026.449	1104.79
1026.739	1091
1027.029	1071.57
1027.319	1063.43
1027.608	1050.55
1027.898	1083.32
1028.187	1076.54
1028.477	1070.89
1028.766	1066.82
1029.055	1040.61
1029.344	1026.15
1029.634	1075.41
1029.923	998.35
1030.212	1013.26
1030.501	1023.89
1030.79	1008.97
1031.078	1005.13
1031.367	993.6
1031.656	988.63
1031.945	999.71
1032.233	974.62
1032.522	986.37
1032.81	942.08
1033.099	961.51
1033.387	952.7
1033.675	933.72
1033.963	929.65
1034.251	934.85
1034.54	938.92
1034.828	920.39
1035.116	919.71
1035.403	896.66
1035.691	897.79
1035.979	922.65
1036.267	906.15
1036.554	879.48
1036.842	871.57
1037.129	887.17
1037.417	873.83
1037.704	839.03
1037.992	856.21
1038.279	852.59
1038.566	866.6
1038.853	866.6
1039.14	866.6
