Data from hue_38_FLMS001491_00027.txt Node
Date: Tue Feb 07 17:31:17 GMT 2017
User: dcchb
Spectrometer: FLMS00149
Trigger mode: 0
Integration Time (sec): 2.000000E-2
Scans to average: 10
Electric dark correction enabled: true
Nonlinearity correction enabled: false
Boxcar width: 0
XAxis mode: Wavelengths
Number of Pixels in Spectrum: 2048
>>>>>Begin Spectral Data<<<<<
341.393	-6.54
341.776	-6.54
342.16	-6.54
342.543	-62.81
342.927	-68.23
343.31	-73.2
343.693	-84.28
344.077	-73.2
344.46	-69.14
344.843	-59.19
345.226	-39.08
345.61	-23.04
345.993	-12.64
346.376	-11.74
346.759	17.19
347.142	40.01
347.525	45.89
347.908	61.93
348.291	75.94
348.674	91.54
349.057	113.01
349.44	130.18
349.823	146.22
350.206	172.89
350.588	202.72
350.971	207.01
351.354	219.22
351.737	251.98
352.119	250.4
352.502	266.45
352.884	286.33
353.267	279.78
353.65	315.49
354.032	320.23
354.414	311.64
354.797	314.58
355.179	322.94
355.562	336.28
355.944	334.92
356.326	338.31
356.709	349.84
357.091	356.39
357.473	346.45
357.855	340.12
358.238	345.99
358.62	363.85
359.002	351.64
359.384	329.5
359.766	343.06
360.148	340.57
360.53	310.29
360.912	329.5
361.294	352.32
361.676	336.05
362.057	328.59
362.439	328.82
362.821	319.55
363.203	327.92
363.584	308.93
363.966	327.24
364.348	325.2
364.729	330.63
365.111	320.23
365.493	338.08
365.874	322.49
366.256	321.36
366.637	324.75
367.019	332.66
367.4	304.64
367.781	330.4
368.163	323.4
368.544	331.76
368.925	314.13
369.306	333.79
369.688	329.72
370.069	332.89
370.45	303.51
370.831	323.85
371.212	310.06
371.593	318.2
371.974	319.78
372.355	323.85
372.736	323.85
373.117	343.73
373.498	334.02
373.879	301.02
374.26	344.64
374.641	328.14
375.021	331.76
375.402	320.46
375.783	339.21
376.163	327.69
376.544	330.4
376.925	340.57
377.305	322.04
377.686	321.14
378.066	349.84
378.447	335.37
378.827	352.32
379.208	351.42
379.588	335.37
379.968	342.15
380.349	357.74
380.729	354.81
381.109	344.86
381.489	326.11
381.87	338.54
382.25	338.99
382.63	326.11
383.01	330.17
383.39	358.2
383.77	359.78
384.15	344.41
384.53	337.41
384.91	355.94
385.29	349.16
385.67	363.39
386.049	346.22
386.429	374.24
386.809	351.19
387.189	364.52
387.568	351.19
387.948	362.72
388.328	356.61
388.707	357.74
389.087	374.02
389.466	358.2
389.846	355.03
390.225	384.41
390.605	362.26
390.984	363.17
391.363	376.95
391.743	385.09
392.122	382.38
392.501	366.11
392.881	370.85
393.26	390.06
393.639	382.38
394.018	396.84
394.397	367.46
394.776	391.42
395.155	374.92
395.534	372.89
395.913	380.8
396.292	382.83
396.671	395.03
397.05	385.54
397.429	402.49
397.808	403.62
398.186	395.26
398.565	407.01
398.944	408.36
399.323	420.12
399.701	396.39
400.08	410.85
400.458	417.18
400.837	413.34
401.215	419.44
401.594	431.42
401.972	411.08
402.351	411.75
402.729	418.31
403.107	421.92
403.486	409.49
403.864	408.82
404.242	446.1
404.62	429.83
404.999	436.84
405.377	435.26
405.755	433
406.133	418.76
406.511	431.19
406.889	435.93
407.267	431.64
407.645	447.69
408.023	454.69
408.401	435.71
408.779	451.53
409.156	470.51
409.534	462.15
409.912	471.87
410.29	452.66
410.667	451.3
411.045	459.89
411.422	473.9
411.8	460.79
412.178	477.97
412.555	486.78
412.933	492.43
413.31	482.49
413.687	489.72
414.065	501.92
414.442	488.81
414.819	506.89
415.197	494.46
415.574	516.16
415.951	517.97
416.328	503.96
416.705	513.67
417.082	510.74
417.46	512.32
417.837	510.28
418.214	520
418.591	518.87
418.967	517.29
419.344	548.7
419.721	537.18
420.098	529.49
420.475	514.12
420.852	551.86
421.228	542.15
421.605	557.97
421.982	547.34
422.358	548.02
422.735	556.61
423.111	554.35
423.488	590.28
423.864	584.41
424.241	569.49
424.617	577.85
424.994	571.75
425.37	575.14
425.746	577.17
426.123	583.05
426.499	602.48
426.875	592.99
427.251	577.63
427.627	602.48
428.003	608.81
428.379	641.58
428.756	648.13
429.132	621.92
429.507	632.09
429.883	636.16
430.259	621.24
430.635	643.84
431.011	637.96
431.387	668.47
431.763	648.13
432.138	651.75
432.514	669.83
432.89	660.34
433.265	693.56
433.641	698.3
434.016	675.7
434.392	684.97
434.767	696.49
435.143	722.93
435.518	720.22
435.894	725.19
436.269	703.05
436.644	734.01
437.02	752.76
437.395	742.37
437.77	754.12
438.145	748.47
438.52	743.95
438.895	768.13
439.271	781.24
439.646	768.81
440.021	768.81
440.395	774.23
440.77	790.28
441.145	790.28
441.52	813.1
441.895	788.02
442.27	817.39
442.645	802.48
443.019	805.19
443.394	814
443.769	817.39
444.143	822.59
444.518	840.44
444.892	838.86
445.267	815.13
445.641	852.65
446.016	837.05
446.39	842.93
446.764	847.9
447.139	866.66
447.513	848.81
447.887	882.48
448.262	870.95
448.636	861.01
449.01	887.67
449.384	898.07
449.758	908.69
450.132	918.63
450.506	919.54
450.88	905.3
451.254	922.25
451.628	912.08
452.002	937.62
452.376	957.73
452.75	959.08
453.123	965.86
453.497	952.76
453.871	1000.44
454.244	989.59
454.618	987.11
454.992	1004.28
455.365	1011.51
455.739	1031.63
456.112	1039.53
456.486	1043.6
456.859	1049.25
457.232	1082.02
457.606	1037.5
457.979	1088.8
458.352	1120.89
458.725	1089.7
459.099	1119.08
459.472	1134.22
459.845	1147.1
460.218	1171.51
460.591	1134.45
460.964	1188.46
461.337	1190.94
461.71	1216.03
462.083	1193.66
462.456	1223.48
462.829	1206.99
463.201	1263.71
463.574	1236.59
463.947	1280.43
464.32	1300.09
464.692	1321.79
465.065	1333.99
465.438	1327.21
465.81	1378.96
466.183	1400.2
466.555	1415.8
466.928	1396.59
467.3	1412.63
467.672	1449.92
468.045	1479.52
468.417	1453.31
468.789	1497.38
469.161	1531.73
469.534	1576.7
469.906	1601.33
470.278	1602.68
470.65	1612.85
471.022	1642.68
471.394	1700.99
471.766	1735.34
472.138	1703.92
472.51	1792.51
472.882	1822.34
473.253	1826.41
473.625	1835.67
473.997	1907.31
474.369	1903.24
474.74	1943.69
475.112	2017.36
475.484	2051.94
475.855	2081.77
476.227	2119.73
476.598	2194.08
476.97	2182.33
477.341	2288.77
477.713	2331.93
478.084	2362.66
478.455	2444.92
478.827	2490.57
479.198	2545.48
479.569	2590.23
479.94	2675.42
480.311	2746.16
480.682	2799.49
481.053	2892.14
481.424	2992.7
481.795	2995.64
482.166	3068.18
482.537	3149.99
482.908	3257.1
483.279	3328.74
483.65	3352.47
484.021	3478.79
484.391	3538.9
484.762	3620.26
485.133	3667.26
485.503	3803.98
485.874	3889.4
486.244	3977.08
486.615	4084.43
486.985	4115.84
487.356	4300.01
487.726	4337.08
488.097	4515.83
488.467	4529.84
488.837	4687.57
489.207	4751.98
489.578	4850.06
489.948	4978.19
490.318	5048.47
490.688	5138.64
491.058	5304.73
491.428	5367.56
491.798	5464.96
492.168	5564.61
492.538	5676.93
492.908	5786.98
493.278	5900.65
493.648	5938.84
494.017	6058.16
494.387	6155.33
494.757	6261.09
495.126	6435.78
495.496	6421.09
495.866	6512.16
496.235	6631.93
496.605	6763.23
496.974	6770.01
497.344	6944.46
497.713	7049.32
498.082	7144.46
498.452	7281.86
498.821	7323.66
499.19	7348.07
499.559	7501.96
499.928	7606.82
500.298	7666.03
500.667	7815.4
501.036	7828.96
501.405	7890.43
501.774	7937.88
502.143	8060.59
502.512	8129.97
502.88	8200.25
503.249	8276.41
503.618	8406.35
503.987	8482.5
504.356	8529.28
504.724	8616.96
505.093	8677.3
505.462	8743.74
505.83	8827.58
506.199	8964.3
506.567	9054.69
506.936	9044.52
507.304	9212.88
507.672	9273.67
508.041	9294.68
508.409	9389.15
508.777	9534.23
509.145	9505.3
509.514	9582.14
509.882	9694.45
510.25	9741.23
510.618	9819.64
510.986	9890.38
511.354	9959.07
511.722	10048.11
512.09	10080.2
512.458	10156.13
512.826	10340.76
513.193	10293.75
513.561	10383.02
513.929	10435.67
514.297	10560.87
514.664	10582.56
515.032	10668.89
515.4	10763.35
515.767	10860.29
516.135	10907.75
516.502	10859.16
516.869	11112.94
517.237	11085.15
517.604	11055.32
517.972	11158.59
518.339	11248.76
518.706	11271.13
519.073	11345.7
519.44	11399.26
519.808	11576.21
520.175	11574.17
520.542	11794.73
520.909	11786.37
521.276	11703.21
521.643	11981.39
522.009	11955.63
522.376	12065.91
522.743	12089.19
523.11	12197.89
523.477	12387.71
523.843	12368.95
524.21	12435.85
524.577	12533.7
524.943	12674.71
525.31	12750.41
525.676	12808.04
526.043	12879
526.409	12927.36
526.776	13099.78
527.142	13056.62
527.508	13189.05
527.874	13327.8
528.241	13264.3
528.607	13380.23
528.973	13565.53
529.339	13578.41
529.705	13609.83
530.071	13764.62
530.437	13865.86
530.803	13900.67
531.169	13965.07
531.535	13914.9
531.901	14017.05
532.267	14109.93
532.632	14237.15
532.998	14266.31
533.364	14400.77
533.73	14343.37
534.095	14465.4
534.461	14591.27
534.826	14644.15
535.192	14621.32
535.557	14785.39
535.923	14900.41
536.288	14951.94
536.653	14906.51
537.019	14840.08
537.384	14964.37
537.749	15060.64
538.114	15120.97
538.479	15198.48
538.845	15244.81
539.21	15126.4
539.575	15356.45
539.94	15419.72
540.305	15414.3
540.67	15484.13
541.034	15562.54
541.399	15601.41
541.764	15682.54
542.129	15762.76
542.494	15834.63
542.858	15827.39
543.223	15879.6
543.587	16053.38
543.952	15990.33
544.316	16068.74
544.681	16078.91
545.045	16234.16
545.41	16228.29
545.774	16253.82
546.138	16318.23
546.503	16420.15
546.867	16415.4
547.231	16645.68
547.595	16632.35
547.959	16606.81
548.324	16604.1
548.688	16755.73
549.052	16784.88
549.416	16898.78
549.779	16905.11
550.143	16960.7
550.507	17054.71
550.871	17113.69
551.235	17074.82
551.599	17301.48
551.962	17217.19
552.326	17336.06
552.689	17438.65
553.053	17394.81
553.417	17375.15
553.78	17551.87
554.143	17578.08
554.507	17670.06
554.87	17720.23
555.234	17894.23
555.597	17830.96
555.96	17989.15
556.323	17988.47
556.686	18054.45
557.05	18078.41
557.413	18139.42
557.776	18169.48
558.139	18420.55
558.502	18357.27
558.865	18357.05
559.228	18525.18
559.59	18637.04
559.953	18591.39
560.316	18782.12
560.679	18871.83
561.041	18920.42
561.404	18962.23
561.767	19090.59
562.129	19014.66
562.492	19228.44
562.854	19170.13
563.217	19232.95
563.579	19329
563.941	19422.55
564.304	19488.32
564.666	19674.98
565.028	19702.09
565.39	19608.31
565.753	19778.03
566.115	19987.51
566.477	19918.81
566.839	19910.23
567.201	20202.87
567.563	20105.47
567.925	20229.09
568.287	20201.52
568.648	20379.59
569.01	20377.11
569.372	20690.54
569.734	20636.53
570.095	20712.69
570.457	20799.69
570.819	20855.28
571.18	20904.55
571.542	21046.24
571.903	21068.39
572.265	21226.8
572.626	21286.23
572.987	21231.55
573.349	21514.48
573.71	21524.19
574.071	21597.19
574.432	21724.87
574.794	21859.33
575.155	21890.96
575.516	21783.62
575.877	22110.17
576.238	22257.28
576.599	22406.66
576.96	22344.74
577.32	22459.76
577.681	22633.54
578.042	22808.91
578.403	22862.24
578.763	22944.72
579.124	23122.57
579.485	23289.35
579.845	23421.32
580.206	23528.66
580.566	23719.39
580.927	23765.04
581.287	24066.73
581.648	24097.91
582.008	24428.98
582.368	24429.2
582.728	24679.59
583.089	24803.66
583.449	24913.03
583.809	25052.24
584.169	25337.65
584.529	25343.08
584.889	25720.24
585.249	25792.56
585.609	25815.61
585.969	26299.66
586.329	26355.48
586.688	26574.68
587.048	26774.68
587.408	26902.58
587.768	27129.7
588.127	27371.05
588.487	27526.52
588.846	27927.87
589.206	27856
589.565	28162.44
589.925	28463.67
590.284	28606.95
590.643	28828.86
591.003	29004.68
591.362	29374.16
591.721	29496.64
592.08	29663.41
592.44	30045.78
592.799	30191.99
593.158	30263.63
593.517	30504.52
593.876	30630.4
594.235	30852.99
594.593	31132.75
594.952	31313.32
595.311	31411.17
595.67	31797.82
596.029	32069.23
596.387	32196.68
596.746	32335.21
597.104	32507.41
597.463	32744.69
597.822	32945.59
598.18	32928.41
598.538	33209.99
598.897	33659.47
599.255	33494.27
599.613	34277.08
599.972	34038.44
600.33	34353.24
600.688	34344.87
601.046	34629.84
601.404	34907.8
601.762	35010.39
602.12	35258.52
602.478	35458.74
602.836	35563.15
603.194	35565.41
603.552	35781.67
603.91	35808.34
604.268	36156.13
604.625	36130.82
604.983	36514.31
605.341	36493.52
605.698	36627.3
606.056	36860.97
606.413	36865.03
606.771	37256.89
607.128	37265.25
607.485	37417.56
607.843	37585.47
608.2	37757.67
608.557	37907.94
608.914	37816.42
609.272	38226.13
609.629	38352.45
609.986	38566.46
610.343	38493.69
610.7	38724.19
611.057	38975.03
611.414	38919.67
611.771	39016.39
612.127	39243.05
612.484	39240.11
612.841	39650.72
613.198	39532.08
613.554	39631.51
613.911	39998.74
614.267	39921.9
614.624	40007.32
614.98	40036.48
615.337	40349.69
615.693	40347.65
616.05	40539.06
616.406	40846.17
616.762	40753.52
617.118	40758.72
617.475	40746.97
617.831	40992.38
618.187	41046.39
618.543	41061.08
618.899	41309.89
619.255	41353.5
619.611	41464.23
619.967	41547.17
620.323	41623.55
620.678	41496.78
621.034	41519.37
621.39	41710.33
621.746	41698.58
622.101	42287.72
622.457	41902.19
622.812	41977.67
623.168	42161.17
623.523	42160.04
623.879	42412.68
624.234	42111.9
624.589	42348.05
624.945	42310.54
625.3	42383.53
625.655	42429.18
626.01	42412.46
626.365	42605.67
626.72	42535.84
627.075	42615.39
627.43	42591.66
627.785	42522.96
628.14	42707.59
628.495	42643.64
628.85	42703.98
629.205	42603.41
629.559	42859.45
629.914	42663.53
630.269	42714.37
630.623	42688.61
630.978	42598.89
631.332	42795.27
631.687	42844.99
632.041	42747.14
632.396	42934.7
632.75	42754.82
633.104	42700.59
633.459	42702.62
633.813	42716.18
634.167	42663.3
634.521	42685.22
634.875	42853.35
635.229	42859.68
635.583	42616.29
635.937	42668.5
636.291	42598.89
636.645	42698.55
636.999	42568.39
637.352	42630.31
637.706	42339.69
638.06	42548.95
638.413	42559.57
638.767	42464.66
639.121	42527.03
639.474	42347.6
639.828	42401.39
640.181	42468.5
640.534	42437.32
640.888	42382.85
641.241	42209.98
641.594	42254.72
641.947	42378.56
642.301	42233.03
642.654	42405.68
643.007	42437.77
643.36	42297.21
643.713	42349.41
644.066	42367.04
644.419	42146.48
644.771	41859.25
645.124	41492.71
645.477	41417
645.83	41327.97
646.182	41103.57
646.535	41186.28
646.888	41222.43
647.24	40958.26
647.593	41148.99
647.945	41077.35
648.298	40938.15
648.65	40860.63
649.002	40822.67
649.355	40860.63
649.707	40871.26
650.059	41077.13
650.411	41523.67
650.763	41658.81
651.115	41845.92
651.467	41761.63
651.819	41605.7
652.171	41758.01
652.523	41599.37
652.875	41532.03
653.227	41438.7
653.578	41737.67
653.93	41684.57
654.282	41589.88
654.633	41434.86
654.985	41460.62
655.337	41587.62
655.688	41438.7
656.039	41682.99
656.391	41297.23
656.742	41358.93
657.094	41263.11
657.445	41592.14
657.796	41529.09
658.147	41318.02
658.498	41357.57
658.849	41382.2
659.2	41317.8
659.551	41226.95
659.902	41369.32
660.253	41330.68
660.604	41542.65
660.955	41306.5
661.306	41428.3
661.656	41309.21
662.007	41383.33
662.358	41266.95
662.708	41332.26
663.059	41270.12
663.409	40933.18
663.76	41300.85
664.11	41321.41
664.461	41227.86
664.811	41294.97
665.161	41239.16
665.511	41273.05
665.862	41270.79
666.212	41375.88
666.562	41465.36
666.912	41203.45
667.262	41283.67
667.612	41249.55
667.962	41281.19
668.312	41164.13
668.662	41352.37
669.011	41181.08
669.361	41178.59
669.711	41207.29
670.06	41125.49
670.41	41004.36
670.76	40849.11
671.109	41144.24
671.459	41045.71
671.808	40920.97
672.157	40914.87
672.507	40935.66
672.856	40755.33
673.205	40917.58
673.554	40931.37
673.904	40845.95
674.253	41135.66
674.602	41023.34
674.951	40399.63
675.3	40293.19
675.649	40763.91
675.998	40817.47
676.346	40820.64
676.695	40951.71
677.044	40614.31
677.393	40767.98
677.741	40766.17
678.09	40727.53
678.438	40661.54
678.787	40564.82
679.135	40635.78
679.484	40405.05
679.832	40567.54
680.181	40332.06
680.529	40380.87
680.877	40337.26
681.225	40372.74
681.573	40540.87
681.922	40234.44
682.27	40071.28
682.618	40127.32
682.966	40088.23
683.314	40116.7
683.661	40024.27
684.009	39797.16
684.357	39686.2
684.705	39653.21
685.053	39706.99
685.4	39661.34
685.748	39530.27
686.095	39514.91
686.443	39157.85
686.79	39218.64
687.138	39288.92
687.485	39412.09
687.832	39299.55
688.18	39302.94
688.527	39150.17
688.874	38994.02
689.221	38947.01
689.568	38866.34
689.915	38762.61
690.262	38824.53
690.609	38761.03
690.956	38592.9
691.303	38577.3
691.65	38338.67
691.997	38398.1
692.344	38184.55
692.69	38050.99
693.037	38090.99
693.383	37782.75
693.73	37982.07
694.077	37710.44
694.423	37856.65
694.769	37557.67
695.116	37580.04
695.462	37540.04
695.808	37436.09
696.155	37454.85
696.501	37153.61
696.847	37131.69
697.193	36995.43
697.539	37015.76
697.885	36876.11
698.231	36706.62
698.577	36725.83
698.923	36631.14
699.269	36438.38
699.614	36311.6
699.96	36387.53
700.306	36267.08
700.651	36144.15
700.997	36029.58
701.342	35997.26
701.688	35828.45
702.033	35862.57
702.379	35680.66
702.724	35623.03
703.069	35659.19
703.415	35402.7
703.76	35369.25
704.105	35324.96
704.45	35349.59
704.795	35105.53
705.14	35155.02
705.485	35036.83
705.83	34985.08
706.175	34835.26
706.52	34858.08
706.865	34676.16
707.209	34751.19
707.554	34600.46
707.899	34641.59
708.243	34507.13
708.588	34265.55
708.932	34256.51
709.277	34073.24
709.621	34122.96
709.966	34000.02
710.31	33976.97
710.654	33668.06
710.998	33795.06
711.342	33841.38
711.687	33633.03
712.031	33556.19
712.375	33412.02
712.719	33423.54
713.063	33456.99
713.407	33364.11
713.75	33292.25
714.094	33250.21
714.438	33090.22
714.782	33173.61
715.125	32942.65
715.469	32995.3
715.812	32885.7
716.156	32723
716.499	32801.19
716.843	32919.6
717.186	32514.41
717.53	32698.36
717.873	32681.87
718.216	32582.66
718.559	32522.55
718.902	32198.72
719.246	32391.93
719.589	32090.02
719.932	31996.23
720.275	32080.07
720.617	32068.78
720.96	32089.79
721.303	31931.38
721.646	31996.91
721.989	31844.83
722.331	31891.15
722.674	31806.18
723.016	31671.27
723.359	31631.05
723.701	31758.95
724.044	31419.75
724.386	31518.96
724.729	31494.33
725.071	31488
725.413	31381.56
725.755	31311.06
726.097	31111.29
726.439	31173.21
726.782	31127.56
727.124	31177.27
727.465	31130.72
727.807	31111.74
728.149	30940.44
728.491	30943.16
728.833	30861.8
729.175	30725.31
729.516	30718.08
729.858	30618.19
730.199	30611.41
730.541	30724.4
730.882	30580.9
731.224	30556.05
731.565	30403.73
731.906	30484.86
732.248	30521.25
732.589	30351.53
732.93	30334.36
733.271	30269.05
733.612	30256.85
733.953	30301.82
734.294	30217.75
734.635	30090.75
734.976	30063.63
735.317	29944.31
735.658	30029.73
735.999	29918.1
736.339	29855.73
736.68	29908.61
737.021	29799.23
737.361	29699.8
737.702	29917.65
738.042	29878.78
738.383	29737.09
738.723	29735.73
739.063	29648.95
739.404	29606.47
739.744	29607.15
740.084	29465.91
740.424	29537.54
740.764	29357.66
741.104	29567.15
741.444	29277.66
741.784	29249.41
742.124	29294.61
742.464	29333.71
742.804	29232.47
743.143	29119.47
743.483	29096.42
743.823	29078.35
744.162	28886.26
744.502	28932.36
744.841	28909.76
745.181	29114.95
745.52	28874.51
745.86	28837.67
746.199	28775.3
746.538	28746.83
746.877	28899.37
747.216	28759.48
747.556	28629.54
747.895	28665.02
748.234	28559.49
748.573	28579.38
748.911	28415.76
749.25	28473.84
749.589	28241.76
749.928	28302.77
750.267	28357.69
750.605	28192.27
750.944	28152.72
751.283	28013.51
751.621	28245.83
751.96	27941.2
752.298	28040.18
752.636	27998.6
752.975	27817.81
753.313	27742.56
753.651	27866.85
753.989	27620.08
754.327	27656.69
754.666	27471.16
755.004	27594.32
755.342	27602.45
755.679	27530.59
756.017	27375.79
756.355	27341.22
756.693	27312.29
757.031	27338.28
757.368	27169.24
757.706	27125.85
758.044	27097.61
758.381	27045.4
758.719	26924.05
759.056	26938.51
759.394	26832.08
759.731	26646.77
760.068	26705.98
760.405	26582.14
760.743	26497.85
761.08	26567.45
761.417	26483.84
761.754	26372.43
762.091	26294.01
762.428	26238.19
762.765	26050.63
763.102	26140.8
763.438	26011.08
763.775	25879.79
764.112	25856.28
764.449	25778.09
764.785	25694.71
765.122	25652.22
765.458	25484.09
765.795	25510.53
766.131	25426.69
766.467	25280.93
766.804	25172.91
767.14	25034.38
767.476	25038.45
767.812	24954.61
768.148	24997.32
768.485	24720.27
768.821	24575.64
769.157	24659.7
769.492	24579.48
769.828	24492.03
770.164	24430.78
770.5	24281.64
770.836	24309.88
771.171	24143.79
771.507	24199.15
771.842	23992.15
772.178	23914.41
772.513	23938.37
772.849	23787.41
773.184	23693.85
773.519	23746.51
773.855	23579.51
774.19	23407.08
774.525	23406.18
774.86	23348.55
775.195	23312.62
775.53	23190.14
775.865	23101.55
776.2	22956.7
776.535	22804.16
776.87	22805.74
777.205	22715.58
777.539	22527.78
777.874	22692.07
778.209	22386.09
778.543	22446.2
778.878	22230.39
779.212	22302.48
779.547	22095.25
779.881	22146.55
780.215	22041.24
780.55	21965.31
780.884	21928.03
781.218	21827.91
781.552	21737.3
781.886	21634.02
782.22	21581.14
782.554	21412.56
782.888	21329.85
783.222	21263.18
783.556	21100.48
783.889	21022.96
784.223	20877.66
784.557	20972.12
784.89	20926.02
785.224	20835.17
785.557	20650.54
785.891	20510.66
786.224	20618.23
786.558	20508.18
786.891	20226.37
787.224	20314.96
787.557	20180.95
787.891	20304.11
788.224	20244
788.557	20060.28
788.89	20041.52
789.223	20061.41
789.556	19915.65
789.888	19796.1
790.221	19815.31
790.554	19598.14
790.887	19665.03
791.219	19579.84
791.552	19545.04
791.884	19466.85
792.217	19389.79
792.549	19276.57
792.882	19195.44
793.214	19036.12
793.546	19037.03
793.879	18936.69
794.211	19035.22
794.543	18937.14
794.875	18850.37
795.207	18885.62
795.539	18767.66
795.871	18807.43
796.203	18569.7
796.535	18510.49
796.867	18499.64
797.198	18450.38
797.53	18458.74
797.862	18266.65
798.193	18248.35
798.525	18137.16
798.856	18161.8
799.188	17952.08
799.519	17903.27
799.85	17818.08
800.182	17816.49
800.513	17814.23
800.844	17762.48
801.175	17711.64
801.506	17747.12
801.837	17691.53
802.168	17615.6
802.499	17533.79
802.83	17412.21
803.161	17505.32
803.491	17467.8
803.822	17359.33
804.153	17236.4
804.483	16994.6
804.814	17001.6
805.145	16989.4
805.475	17112.56
805.805	16935.61
806.136	16969.74
806.466	16949.17
806.796	16895.39
807.126	16695.17
807.457	16722.51
807.787	16830.98
808.117	16699.46
808.447	16526.81
808.777	16652.23
809.107	16430.09
809.436	16444.78
809.766	16499.24
810.096	16383.99
810.426	16385.8
810.755	16322.52
811.085	16318.46
811.414	16226.71
811.744	16079.82
812.073	16051.57
812.403	16128.4
812.732	15930.67
813.061	15981.74
813.39	15928.18
813.719	15911.91
814.049	15995.75
814.378	15929.54
814.707	15838.69
815.036	15758.24
815.365	15743.78
815.693	15505.37
816.022	15530.45
816.351	15467.4
816.68	15460.4
817.008	15460.85
817.337	15315.54
817.665	15316.22
817.994	15369.33
818.322	15270.35
818.651	15225.6
818.979	15195.77
819.307	15269.67
819.636	15175.21
819.964	15102.67
820.292	15127.3
820.62	15108.54
820.948	15083.91
821.276	15207.98
821.604	15003.69
821.932	15120.75
822.259	15120.52
822.587	15037.13
822.915	14956.46
823.243	15044.82
823.57	14943.8
823.898	15002.11
824.225	14961.2
824.553	14941.77
824.88	14911.94
825.207	15093.4
825.535	14911.03
825.862	15018.83
826.189	14946.29
826.516	15077.13
826.843	15082.56
827.17	14987.87
827.497	15019.51
827.824	15102.44
828.151	15050.92
828.478	14966.4
828.805	14966.63
829.131	15024.25
829.458	14928.44
829.785	14870.36
830.111	14991.26
830.438	14958.26
830.764	14860.19
831.09	14963.01
831.417	14852.28
831.743	15043.69
832.069	14892.73
832.395	14904.93
832.722	14930.47
833.048	14805.5
833.374	14830.81
833.7	14810.02
834.026	14751.04
834.351	14709.91
834.677	14765.73
835.003	14854.54
835.329	14813.64
835.654	14649.12
835.98	14734.09
836.306	14769.12
836.631	14654.77
836.956	14704.94
837.282	14696.8
837.607	14640.31
837.932	14566.41
838.258	14589.91
838.583	14555.56
838.908	14482.12
839.233	14481.89
839.558	14464.27
839.883	14458.39
840.208	14362.35
840.533	14358.73
840.858	14302.01
841.182	14330.03
841.507	14328.22
841.832	14207.78
842.156	14269.7
842.481	14204.39
842.805	14227.21
843.13	14133.43
843.454	14100.43
843.778	14010.49
844.103	14071.06
844.427	14001.68
844.751	14105.18
845.075	13938.18
845.399	13972.08
845.723	13911.51
846.047	13909.25
846.371	13748.58
846.695	13739.54
847.019	13668.81
847.343	13609.15
847.666	13581.13
847.99	13490.05
848.313	13347.46
848.637	13424.29
848.96	13274.69
849.284	13321.25
849.607	13148.82
849.931	13172.78
850.254	13084.87
850.577	12934.14
850.9	12943.85
851.223	12973.91
851.546	12831.77
851.869	12832.22
852.192	12807.59
852.515	12658.21
852.838	12637.42
853.161	12773.24
853.483	12655.95
853.806	12505.45
854.129	12549.97
854.451	12523.98
854.774	12439.46
855.096	12313.81
855.419	12371.89
855.741	12336.64
856.063	12230.65
856.385	12247.15
856.708	12183.65
857.03	12188.17
857.352	12190.65
857.674	12122.41
857.996	12070.21
858.318	11940.94
858.64	11931.45
858.961	11959.25
859.283	11876.99
859.605	11819.59
859.926	11872.02
860.248	11762.19
860.57	11787.5
860.891	11749.08
861.212	11635.64
861.534	11666.37
861.855	11634.74
862.176	11652.59
862.498	11690.1
862.819	11642.19
863.14	11571.46
863.461	11589.09
863.782	11498.92
864.103	11547.06
864.424	11508.19
864.745	11588.86
865.065	11408.75
865.386	11360.62
865.707	11332.6
866.027	11347.06
866.348	11384.12
866.668	11394.52
866.989	11283.11
867.309	11232.94
867.63	11350
867.95	11253.73
868.27	11236.1
868.59	11208.53
868.91	11208.98
869.23	11172.15
869.55	11136.9
869.87	11128.76
870.19	11112.49
870.51	11186.61
870.83	11080.63
871.15	11010.57
871.469	11070.68
871.789	11077.01
872.109	11087.41
872.428	10958.82
872.748	11029.1
873.067	11026.16
873.386	10954.08
873.706	11002.44
874.025	10877.92
874.344	10805.61
874.663	10913.63
874.982	10815.32
875.301	10855.55
875.62	10841.09
875.939	10786.85
876.258	10833.63
876.577	10769
876.896	10779.39
877.214	10765.61
877.533	10743.01
877.852	10685.83
878.17	10682.67
878.489	10743.23
878.807	10677.02
879.125	10618.72
879.444	10564.71
879.762	10557.7
880.08	10604.48
880.398	10569.23
880.716	10587.08
881.034	10511.15
881.352	10497.82
881.67	10425.05
881.988	10475.67
882.306	10456.69
882.624	10432.28
882.941	10340.76
883.259	10305.73
883.577	10305.73
883.894	10180.99
884.212	10176.47
884.529	10279.97
884.846	10177.15
885.164	10209.46
885.481	10158.39
885.798	10138.5
886.115	10098.73
886.432	10120.2
886.75	10047.43
887.067	10131.27
887.383	9959.3
887.7	10103.03
888.017	10016.02
888.334	9945.74
888.651	9866.87
888.967	9898.51
889.284	9825.97
889.6	9812.41
889.917	9741.68
890.233	9741.45
890.55	9729.25
890.866	9778.74
891.182	9693.09
891.498	9708.01
891.815	9707.33
892.131	9610.38
892.447	9565.19
892.763	9593.43
893.079	9514.57
893.395	9500.33
893.71	9470.05
894.026	9451.74
894.342	9425.53
894.657	9429.6
894.973	9360.45
895.289	9346.44
895.604	9325.87
895.92	9281.8
896.235	9199.09
896.55	9221.47
896.865	9126.33
897.181	9161.13
897.496	9093.79
897.811	9066.67
898.126	9007.46
898.441	9028.7
898.756	9004.3
899.071	8967.69
899.386	9026.44
899.7	8858.76
900.015	8897.18
900.33	8832.32
900.644	8790.52
900.959	8856.5
901.273	8727.92
901.588	8727.02
901.902	8687.92
902.216	8603.4
902.531	8612.22
902.845	8597.98
903.159	8566.34
903.473	8549.62
903.787	8565.89
904.101	8367.48
904.415	8491.99
904.729	8400.47
905.042	8373.81
905.356	8372
905.67	8276.18
905.984	8311.43
906.297	8240.02
906.611	8260.81
906.924	8174.49
907.237	8153.92
907.551	8105.79
907.864	8061.5
908.177	8091.33
908.491	7992.57
908.804	8025.79
909.117	7952.8
909.43	7931.78
909.743	7924.55
910.056	7866.25
910.368	7832.12
910.681	7822.86
910.994	7801.62
911.307	7760.71
911.619	7693.15
911.932	7758.68
912.244	7611.11
912.557	7593.26
912.869	7513.26
913.181	7532.25
913.494	7544.9
913.806	7529.53
914.118	7463.77
914.43	7423.32
914.742	7412.47
915.054	7380.16
915.366	7296.55
915.678	7288.64
915.99	7307.84
916.302	7202.08
916.613	7221.75
916.925	7173.61
917.236	7183.55
917.548	7168.87
917.859	7118.7
918.171	7056.33
918.482	7007.51
918.794	7037.34
919.105	7004.35
919.416	6933.84
919.727	6930.68
920.038	6931.36
920.349	6870.12
920.66	6812.26
920.971	6831.47
921.282	6753.96
921.593	6718.26
921.903	6649.1
922.214	6707.63
922.525	6622.44
922.835	6610.24
923.146	6630.57
923.456	6591.25
923.767	6608.88
924.077	6499.5
924.387	6511.71
924.697	6460.86
925.008	6457.7
925.318	6389.22
925.628	6342.67
925.938	6339.06
926.248	6305.61
926.558	6342.22
926.867	6313.97
927.177	6207.08
927.487	6205.27
927.796	6148.33
928.106	6149.68
928.416	6120.76
928.725	6126.86
929.034	6091.15
929.344	6095
929.653	6032.62
929.962	5996.24
930.271	5981.1
930.581	5925.51
930.89	5913.3
931.199	5848.67
931.508	5819.52
931.817	5898.16
932.125	5858.17
932.434	5804.16
932.743	5738.62
933.051	5718.06
933.36	5709.92
933.669	5728.23
933.977	5698.62
934.286	5687.77
934.594	5656.81
934.902	5581.11
935.21	5623.14
935.519	5543.37
935.827	5535.69
936.135	5501.11
936.443	5463.83
936.751	5448.23
937.059	5451.4
937.367	5434.67
937.674	5419.98
937.982	5377.73
938.29	5348.12
938.597	5386.99
938.905	5301.34
939.213	5290.95
939.52	5217.28
939.827	5281.46
940.135	5208.46
940.442	5202.82
940.749	5179.31
941.056	5151.29
941.363	5079.43
941.67	5097.51
941.977	5045.98
942.284	5033.33
942.591	5047.57
942.898	5028.36
943.205	5048.69
943.511	4980.67
943.818	5004.85
944.125	4928.25
944.431	4920.11
944.738	4956.04
945.044	4893.44
945.35	4852.99
945.657	4825.42
945.963	4794.92
946.269	4768.7
946.575	4748.59
946.881	4718.08
947.187	4767.57
947.493	4697.97
947.799	4674.24
948.105	4695.71
948.41	4688.03
948.716	4631.98
949.022	4645.09
949.327	4583.4
949.633	4568.71
949.938	4565.54
950.244	4524.87
950.549	4501.36
950.854	4478.99
951.16	4473.79
951.465	4462.04
951.77	4457.07
952.075	4412.1
952.38	4372.55
952.685	4343.18
952.99	4368.71
953.294	4285.78
953.599	4291.2
953.904	4293.23
954.209	4289.39
954.513	4251.43
954.818	4243.74
955.122	4219.79
955.426	4156.29
955.731	4176.85
956.035	4144.09
956.339	4118.1
956.643	4110.87
956.948	4121.94
957.252	4131.66
957.556	4056.86
957.86	4045.33
958.163	4056.63
958.467	4016.18
958.771	3992.23
959.075	4007.37
959.378	3958.1
959.682	4021.38
959.985	3985.67
960.289	3924.66
960.592	3877.2
960.896	3870.42
961.199	3906.58
961.502	3889.18
961.805	3831.1
962.108	3792
962.411	3795.85
962.714	3779.35
963.017	3783.42
963.32	3752.01
963.623	3764.21
963.926	3736.64
964.228	3684.89
964.531	3714.27
964.833	3695.06
965.136	3643.08
965.438	3626.59
965.741	3658.9
966.043	3584.55
966.345	3600.37
966.648	3580.71
966.95	3559.02
967.252	3488.51
967.554	3529.64
967.856	3513.37
968.158	3504.1
968.46	3491.22
968.761	3481.5
969.063	3467.04
969.365	3458
969.666	3439.7
969.968	3394.05
970.269	3387.04
970.571	3452.13
970.872	3351.34
971.174	3382.98
971.475	3368.29
971.776	3329.19
972.077	3302.3
972.378	3282.41
972.679	3307.05
972.98	3269.76
973.281	3276.54
973.582	3243.77
973.883	3199.93
974.183	3202.87
974.484	3211.91
974.785	3139.82
975.085	3182.53
975.386	3156.54
975.686	3188.86
975.986	3110.89
976.287	3105.02
976.587	3085.13
976.887	3088.97
977.187	3084.23
977.487	3057.11
977.787	3025.7
978.087	3008.3
978.387	3010.33
978.687	2984.34
978.987	3007.17
979.286	2984.12
979.586	2937.11
979.885	2950.22
980.185	2915.87
980.484	2944.57
980.784	2928.52
981.083	2903.89
981.382	2898.24
981.682	2914.51
981.981	2864.12
982.28	2822.09
982.579	2833.39
982.878	2842.2
983.177	2811.24
983.475	2823.89
983.774	2779.83
984.073	2790.68
984.372	2766.27
984.67	2779.38
984.969	2733.95
985.267	2718.59
985.566	2726.72
985.864	2693.95
986.162	2687.4
986.461	2684.01
986.759	2655.99
987.057	2644.46
987.355	2610.79
987.653	2639.04
987.951	2620.96
988.249	2605.82
988.547	2629.78
988.844	2592.94
989.142	2554.98
989.44	2573.96
989.737	2534.41
990.035	2542.09
990.332	2528.54
990.63	2500.74
990.927	2503.45
991.224	2495.09
991.521	2488.08
991.819	2462.32
992.116	2441.08
992.413	2418.03
992.71	2435.43
993.006	2418.48
993.303	2434.07
993.6	2373.51
993.897	2401.53
994.193	2368.31
994.49	2369.9
994.787	2337.35
995.083	2366.51
995.379	2350.46
995.676	2320.41
995.972	2315.43
996.268	2312.72
996.565	2297.81
996.861	2272.95
997.157	2299.16
997.453	2276.56
997.749	2244.7
998.044	2214.42
998.34	2220.29
998.636	2228.2
998.932	2190.47
999.227	2182.56
999.523	2177.81
999.818	2129.68
1000.114	2157.02
1000.409	2135.1
1000.704	2113.4
1001	2100.52
1001.295	2115.89
1001.59	2096.46
1001.885	2071.15
1002.18	2077.7
1002.475	2041.32
1002.77	2018.94
1003.065	2005.16
1003.359	2037.7
1003.654	1982.56
1003.949	2009.23
1004.243	1979.17
1004.538	1998.61
1004.832	2002.22
1005.127	1974.65
1005.421	1954.99
1005.715	1947.08
1006.009	1949.79
1006.304	1922.68
1006.598	1918.61
1006.892	1939.4
1007.186	1903.01
1007.48	1837.93
1007.773	1893.75
1008.067	1853.52
1008.361	1850.13
1008.655	1828.21
1008.948	1869.12
1009.242	1832.73
1009.535	1806.07
1009.829	1780.53
1010.122	1819.18
1010.415	1769.69
1010.708	1784.37
1011.001	1778.05
1011.295	1720.19
1011.588	1720.87
1011.881	1705.73
1012.173	1729.46
1012.466	1723.58
1012.759	1700.31
1013.052	1673.42
1013.344	1677.94
1013.637	1663.7
1013.93	1642.46
1014.222	1649.91
1014.514	1662.8
1014.807	1628.67
1015.099	1581.67
1015.391	1623.47
1015.683	1599.07
1015.976	1620.54
1016.268	1576.7
1016.56	1585.74
1016.851	1572.4
1017.143	1576.92
1017.435	1550.93
1017.727	1521.78
1018.018	1531.73
1018.31	1556.36
1018.602	1497.83
1018.893	1520.2
1019.185	1491.27
1019.476	1512.97
1019.767	1465.51
1020.058	1460.99
1020.35	1414.21
1020.641	1437.94
1020.932	1437.94
1021.223	1421.45
1021.514	1395.46
1021.804	1411.28
1022.095	1387.55
1022.386	1401.33
1022.677	1370.83
1022.967	1343.71
1023.258	1380.32
1023.548	1365.85
1023.839	1319.53
1024.129	1318.62
1024.419	1314.56
1024.709	1302.35
1025	1317.27
1025.29	1260.09
1025.58	1291.05
1025.87	1279.98
1026.16	1254.9
1026.449	1282.01
1026.739	1231.62
1027.029	1240.89
1027.319	1230.94
1027.608	1233.65
1027.898	1210.6
1028.187	1202.02
1028.477	1193.88
1028.766	1224.16
1029.055	1164.73
1029.344	1175.35
1029.634	1176.03
1029.923	1162.7
1030.212	1170.6
1030.501	1175.12
1030.79	1141.68
1031.078	1122.02
1031.367	1126.99
1031.656	1121.79
1031.945	1107.56
1032.233	1114.56
1032.522	1099.65
1032.81	1091.74
1033.099	1082.7
1033.387	1105.75
1033.675	1071.4
1033.963	1081.12
1034.251	1084.51
1034.54	1051.51
1034.828	1035.24
1035.116	1028.91
1035.403	1022.81
1035.691	1032.53
1035.979	1011.06
1036.267	1020.1
1036.554	1006.09
1036.842	985.07
1037.129	1007.45
1037.417	981.68
1037.704	978.97
1037.992	977.39
1038.279	959.76
1038.566	965.86
1038.853	965.86
1039.14	965.86
