Data from hue_100_FLMS001491_00096.txt Node
Date: Tue Feb 07 17:03:54 GMT 2017
User: dcchb
Spectrometer: FLMS00149
Trigger mode: 0
Integration Time (sec): 2.000000E-2
Scans to average: 10
Electric dark correction enabled: true
Nonlinearity correction enabled: false
Boxcar width: 0
XAxis mode: Wavelengths
Number of Pixels in Spectrum: 2048
>>>>>Begin Spectral Data<<<<<
341.393	-17.03
341.776	-17.03
342.16	-17.03
342.543	-71.72
342.927	-73.3
343.31	-68.56
343.693	-78.95
344.077	-50.93
344.46	-55.68
344.843	-35.79
345.226	-40.54
345.61	-23.13
345.993	-36.69
346.376	-5.06
346.759	22.29
347.142	29.74
347.525	38.11
347.908	46.69
348.291	73.13
348.674	82.85
349.057	102.51
349.44	124.66
349.823	155.17
350.206	171.66
350.588	209.63
350.971	198.78
351.354	212.57
351.737	243.3
352.119	233.13
352.502	257.76
352.884	262.28
353.267	275.39
353.65	319
354.032	312.68
354.414	313.58
354.797	313.35
355.179	336.4
355.562	323.97
355.944	332.34
356.326	325.33
356.709	346.57
357.091	342.05
357.473	343.64
357.855	333.92
358.238	345.22
358.62	334.37
359.002	347.02
359.384	350.87
359.766	329.62
360.148	324.65
360.53	337.08
360.912	338.89
361.294	313.58
361.676	322.39
362.057	334.6
362.439	336.4
362.821	332.34
363.203	342.28
363.584	332.34
363.966	309.06
364.348	310.87
364.729	326.46
365.111	339.34
365.493	327.36
365.874	312.9
366.256	311.77
366.637	322.62
367.019	329.17
367.4	331.66
367.781	306.12
368.163	351.77
368.544	288.04
368.925	314.71
369.306	319.23
369.688	325.56
370.069	326.01
370.45	328.72
370.831	290.76
371.212	314.94
371.593	300.92
371.974	329.85
372.355	313.81
372.736	328.72
373.117	321.26
373.498	331.21
373.879	324.65
374.26	314.48
374.641	326.69
375.021	321.49
375.402	332.11
375.783	320.36
376.163	362.17
376.544	333.01
376.925	335.95
377.305	336.63
377.686	320.36
378.066	319.45
378.447	328.04
378.827	334.82
379.208	342.51
379.588	352.67
379.968	332.34
380.349	335.5
380.729	348.15
381.109	312.45
381.489	350.64
381.87	344.54
382.25	331.21
382.63	366.46
383.01	367.82
383.39	335.27
383.77	365.1
384.15	348.38
384.53	351.54
384.91	361.94
385.29	373.92
385.67	381.15
386.049	366.01
386.429	371.2
386.809	379.11
387.189	379.57
387.568	358.78
387.948	363.52
388.328	384.76
388.707	367.14
389.087	367.82
389.466	373.69
389.846	372.56
390.225	397.19
390.605	373.46
390.984	403.97
391.363	359
391.743	399.9
392.122	389.06
392.501	379.11
392.881	392.22
393.26	400.36
393.639	368.95
394.018	391.09
394.397	408.04
394.776	412.56
395.155	384.31
395.534	402.16
395.913	391.09
396.292	415.5
396.671	392
397.05	404.2
397.429	396.97
397.808	406.91
398.186	403.97
398.565	419.34
398.944	407.36
399.323	418.21
399.701	418.21
400.08	406.46
400.458	398.1
400.837	412.79
401.215	408.94
401.594	429.28
401.972	427.7
402.351	421.83
402.729	428.83
403.107	418.21
403.486	428.83
403.864	420.24
404.242	432.22
404.62	435.61
404.999	445.78
405.377	443.75
405.755	453.24
406.133	469.96
406.511	432.67
406.889	447.14
407.267	430.19
407.645	457.98
408.023	461.15
408.401	464.08
408.779	448.04
409.156	471.32
409.534	490.52
409.912	477.64
410.29	467.7
410.667	487.81
411.045	490.75
411.422	495.27
411.8	474.71
412.178	505.66
412.555	508.83
412.933	498.43
413.31	509.51
413.687	523.52
414.065	536.4
414.442	505.44
414.819	536.17
415.197	536.17
415.574	529.62
415.951	507.47
416.328	538.21
416.705	547.7
417.082	526.91
417.46	562.39
417.837	549.28
418.214	539.34
418.591	540.92
418.967	554.02
419.344	549.51
419.721	579.79
420.098	572.1
420.475	573.46
420.852	554.48
421.228	599
421.605	578.66
421.982	583.18
422.358	610.97
422.735	603.74
423.111	595.61
423.488	589.96
423.864	594.93
424.241	608.49
424.617	613.91
424.994	610.52
425.37	615.94
425.746	610.75
426.123	629.28
426.499	625.66
426.875	637.86
427.251	639.67
427.627	656.4
428.003	652.55
428.379	651.2
428.756	662.04
429.132	672.44
429.507	673.12
429.883	700.24
430.259	706.56
430.635	706.11
431.011	697.07
431.387	719.22
431.763	716.51
432.138	714.25
432.514	747.69
432.89	731.65
433.265	754.02
433.641	763.06
434.016	756.05
434.392	775.71
434.767	760.8
435.143	786.34
435.518	773.68
435.894	785.88
436.269	786.11
436.644	777.52
437.02	809.16
437.395	814.81
437.77	819.1
438.145	806.45
438.52	835.37
438.895	843.73
439.271	841.48
439.646	860.01
440.021	864.07
440.395	874.47
440.77	860.01
441.145	883.28
441.52	887.58
441.895	883.96
442.27	918.76
442.645	894.81
443.019	907.46
443.394	907.91
443.769	928.48
444.143	933.9
444.518	906.78
444.892	946.11
445.267	968.25
445.641	955.6
446.016	944.98
446.39	954.01
446.764	974.13
447.139	966.9
447.513	972.77
447.887	980
448.262	974.8
448.636	993.79
449.01	989.72
449.384	997.18
449.758	1028.59
450.132	1019.55
450.506	1045.09
450.88	1045.76
451.254	1052.99
451.628	1053.45
452.002	1070.4
452.376	1082.15
452.75	1078.08
453.123	1077.4
453.497	1114.91
453.871	1114.46
454.244	1129.6
454.618	1126.44
454.992	1183.16
455.365	1159.43
455.739	1186.55
456.112	1228.36
456.486	1201.47
456.859	1211.86
457.232	1229.04
457.606	1252.54
457.979	1246.44
458.352	1266.32
458.725	1280.79
459.099	1323.72
459.472	1322.82
459.845	1349.26
460.218	1339.32
460.591	1356.49
460.964	1356.49
461.337	1404.85
461.71	1414.34
462.083	1436.49
462.456	1469.48
462.829	1460.89
463.201	1511.29
463.574	1507.67
463.947	1535.69
464.32	1556.48
464.692	1571.4
465.065	1570.5
465.438	1599.65
465.81	1663.6
466.183	1659.31
466.555	1687.78
466.928	1676.48
467.3	1744.95
467.672	1737.27
468.045	1796.7
468.417	1795.8
468.789	1839.19
469.161	1842.13
469.534	1898.62
469.906	1932.52
470.278	1945.63
470.65	2013.42
471.022	2025.17
471.394	2053.87
471.766	2137.03
472.138	2148.79
472.51	2170.71
472.882	2221.33
473.253	2312.62
473.625	2312.4
473.997	2378.61
474.369	2416.8
474.74	2472.62
475.112	2516.23
475.484	2579.06
475.855	2640.07
476.227	2664.7
476.598	2780.18
476.97	2835.77
477.341	2932.49
477.713	2985.37
478.084	2966.39
478.455	3125.26
478.827	3227.85
479.198	3302.88
479.569	3319.83
479.94	3465.36
480.311	3517.79
480.682	3639.37
481.053	3718.46
481.424	3848.63
481.795	3915.97
482.166	4010.21
482.537	4102.63
482.908	4188.51
483.279	4325.45
483.65	4441.83
484.021	4556.41
484.391	4682.96
484.762	4773.12
485.133	4860.8
485.503	4973.57
485.874	5167.24
486.244	5252.21
486.615	5397.97
486.985	5521.35
487.356	5705.3
487.726	5774.9
488.097	6006.76
488.467	6051.96
488.837	6260.09
489.207	6351.84
489.578	6507.77
489.948	6658.27
490.318	6875.89
490.688	6905.5
491.058	7124.25
491.428	7233.4
491.798	7339.61
492.168	7596.1
492.538	7657.57
492.908	7865.47
493.278	7977.78
493.648	8103.21
494.017	8284.9
494.387	8442.18
494.757	8516.75
495.126	8721.72
495.496	8834.26
495.866	8976.4
496.235	9060.92
496.605	9253.01
496.974	9317.41
497.344	9506.33
497.713	9583.62
498.082	9715.37
498.452	9937.96
498.821	9932.31
499.19	10130.27
499.559	10170.04
499.928	10336.59
500.298	10424.95
500.667	10618.62
501.036	10685.96
501.405	10746.53
501.774	10776.13
502.143	10935.22
502.512	11014.99
502.88	11129.11
503.249	11206.63
503.618	11333.18
503.987	11483
504.356	11523.45
504.724	11606.62
505.093	11674.86
505.462	11790.11
505.83	11951.47
506.199	11991.69
506.567	12139.26
506.936	12110.11
507.304	12335.41
507.672	12384.45
508.041	12454.5
508.409	12603.88
508.777	12661.05
509.145	12769.75
509.514	12713.93
509.882	12859.01
510.25	12926.36
510.618	12977.2
510.986	13002.51
511.354	13075.05
511.722	13244.31
512.09	13354.14
512.458	13292.67
512.826	13350.52
513.193	13460.58
513.561	13511.88
513.929	13603.63
514.297	13637.97
514.664	13730.85
515.032	13752.32
515.4	13880
515.767	13916.16
516.135	13947.12
516.502	13890.17
516.869	14054.69
517.237	14105.99
517.604	14094.69
517.972	14154.57
518.339	14155.25
518.706	14148.02
519.073	14312.53
519.44	14283.38
519.808	14376.03
520.175	14346.66
520.542	14542.13
520.909	14591.62
521.276	14446.77
521.643	14663.03
522.009	14655.8
522.376	14701.68
522.743	14802.01
523.11	14860.99
523.477	14952.52
523.843	15013.76
524.21	15100.54
524.577	15073.64
524.943	15089.46
525.31	15151.83
525.676	15306.41
526.043	15311.6
526.409	15327.87
526.776	15385.27
527.142	15337.14
527.508	15397.25
527.874	15404.93
528.241	15449.68
528.607	15446.06
528.973	15527.19
529.339	15410.36
529.705	15580.75
530.071	15740.97
530.437	15650.58
530.803	15807.64
531.169	15736.45
531.535	15587.3
531.901	15700.07
532.267	15626.17
532.632	15693.97
532.998	15782.33
533.364	15705.49
533.73	15689.9
534.095	15805.38
534.461	15713.17
534.826	15693.29
535.192	15743.91
535.557	15752.95
535.923	15617.36
536.288	15695.32
536.653	15786.17
537.019	15612.39
537.384	15674.98
537.749	15600.86
538.114	15583.69
538.479	15558.15
538.845	15545.27
539.21	15525.83
539.575	15544.82
539.94	15453.52
540.305	15515.44
540.67	15496.91
541.034	15439.51
541.399	15379.62
541.764	15405.16
542.129	15436.8
542.494	15312.06
542.858	15438.38
543.223	15342.79
543.587	15345.95
543.952	15281.32
544.316	15269.34
544.681	15179.86
545.045	15224.37
545.41	15268.67
545.774	15208.1
546.138	15141.89
546.503	15101.21
546.867	14995.68
547.231	15018.73
547.595	14972.4
547.959	15086.52
548.324	14972.63
548.688	14948.22
549.052	15001.55
549.416	14924.95
549.779	14867.32
550.143	14933.76
550.507	14892.41
550.871	14880.2
551.235	14746.65
551.599	14799.07
551.962	14816.47
552.326	14771.73
552.689	14827.77
553.053	14682.92
553.417	14744.16
553.78	14841.78
554.143	14626.65
554.507	14719.75
554.87	14738.06
555.234	14736.02
555.597	14619.19
555.96	14767.89
556.323	14695.57
556.686	14564.73
557.05	14640.43
557.413	14696.25
557.776	14666.2
558.139	14604.28
558.502	14524.28
558.865	14621.68
559.228	14649.93
559.59	14599.08
559.953	14618.29
560.316	14780.77
560.679	14677.27
561.041	14726.53
561.404	14670.26
561.767	14718.62
562.129	14741.45
562.492	14758.4
562.854	14783.48
563.217	14678.85
563.579	14702.13
563.941	14770.15
564.304	14770.37
564.666	14833.2
565.028	14892.18
565.39	14886.53
565.753	14915.46
566.115	14947.32
566.477	14915.91
566.839	14929.47
567.201	15042.23
567.563	15009.46
567.925	15075
568.287	14973.76
568.648	14955.91
569.01	15040.65
569.372	15163.13
569.734	14962.01
570.095	15023.25
570.457	15193.64
570.819	15194.32
571.18	15125.62
571.542	15154.55
571.903	15156.35
572.265	15208.33
572.626	15236.58
572.987	15226.18
573.349	15168.33
573.71	15332.39
574.071	15283.58
574.432	15236.58
574.794	15368.55
575.155	15371.26
575.516	15369.91
575.877	15338.72
576.238	15384.6
576.599	15372.84
576.96	15353.64
577.32	15333.75
577.681	15452.84
578.042	15397.25
578.403	15431.15
578.763	15378.49
579.124	15352.51
579.485	15403.58
579.845	15560.18
580.206	15433.63
580.566	15452.39
580.927	15462.79
581.287	15473.18
581.648	15470.69
582.008	15434.09
582.368	15378.95
582.728	15497.36
583.089	15410.58
583.449	15484.25
583.809	15358.16
584.169	15352.51
584.529	15340.75
584.889	15492.84
585.249	15348.44
585.609	15250.59
585.969	15395.89
586.329	15382.79
586.688	15266.63
587.048	15357.7
587.408	15250.14
587.768	15220.76
588.127	15225.5
588.487	15236.12
588.846	15325.39
589.206	15188.44
589.565	15301.43
589.925	15245.39
590.284	15277.03
590.643	15267.76
591.003	15238.38
591.362	15237.48
591.721	15250.14
592.08	15120.65
592.44	15300.53
592.799	15267.31
593.158	15235.22
593.517	15286.97
593.876	15220.53
594.235	15137.14
594.593	15104.38
594.952	15079.07
595.311	15086.3
595.67	15224.15
596.029	15252.17
596.387	15251.94
596.746	15247.2
597.104	15175.56
597.463	15088.11
597.822	15142.12
598.18	15081.1
598.538	15104.83
598.897	15253.53
599.255	15029.35
599.613	15219.4
599.972	15136.92
600.33	15257.59
600.688	15036.81
601.046	15109.8
601.404	15232.06
601.762	15275.22
602.12	15249.23
602.478	15256.46
602.836	15133.53
603.194	15027.09
603.552	15111.83
603.91	15024.6
604.268	15105.28
604.625	15093.3
604.983	15174.88
605.341	15036.58
605.698	15199.29
606.056	15225.73
606.413	15197.26
606.771	15137.37
607.128	15272.51
607.485	15119.74
607.843	15136.69
608.2	15173.75
608.557	15312.51
608.914	15135.79
609.272	15310.02
609.629	15233.64
609.986	15443.8
610.343	15241.1
610.7	15415.78
611.057	15305.05
611.414	15276.35
611.771	15163.81
612.127	15398.83
612.484	15233.41
612.841	15399.51
613.198	15298.5
613.554	15329.46
613.911	15443.8
614.267	15377.82
614.624	15386.63
614.98	15395.44
615.337	15440.19
615.693	15426.18
616.05	15471.82
616.406	15579.39
616.762	15528.09
617.118	15494.88
617.475	15511.6
617.831	15592.5
618.187	15583.01
618.543	15608.54
618.899	15691.25
619.255	15576.91
619.611	15596.57
619.967	15653.51
620.323	15710.24
620.678	15630.92
621.034	15615.78
621.39	15568.55
621.746	15527.64
622.101	15745.26
622.457	15578.49
622.812	15573.74
623.168	15648.32
623.523	15688.32
623.879	15666.85
624.234	15567.42
624.589	15577.13
624.945	15577.81
625.3	15654.19
625.655	15643.57
626.01	15623.46
626.365	15583.91
626.72	15533.74
627.075	15574.42
627.43	15556.34
627.785	15607.87
628.14	15607.64
628.495	15558.83
628.85	15553.63
629.205	15565.38
629.559	15601.99
629.914	15515.67
630.269	15527.19
630.623	15496.91
630.978	15488.1
631.332	15494.65
631.687	15519.51
632.041	15391.6
632.396	15499.17
632.75	15463.92
633.104	15514.99
633.459	15297.59
633.813	15327.42
634.167	15337.14
634.521	15387.99
634.875	15435.22
635.229	15350.47
635.583	15257.37
635.937	15205.62
636.291	15262.56
636.645	15333.3
636.999	15214.66
637.352	15281.1
637.706	15130.36
638.06	15225.05
638.413	15148.22
638.767	15110.93
639.121	15103.25
639.474	15149.35
639.828	15133.3
640.181	15102.79
640.534	15143.92
640.888	14979.41
641.241	14946.87
641.594	15001.55
641.947	15003.59
642.301	14943.25
642.654	15044.72
643.007	14974.66
643.36	14946.87
643.713	14915.68
644.066	14904.16
644.419	14813.09
644.771	14825.29
645.124	14637.72
645.477	14697.83
645.83	14506.2
646.182	14465.52
646.535	14511.62
646.888	14492.87
647.24	14388.01
647.593	14441.34
647.945	14434.79
648.298	14373.32
648.65	14399.76
649.002	14367.45
649.355	14419.88
649.707	14358.63
650.059	14512.53
650.411	14712.97
650.763	14684.73
651.115	14806.76
651.467	14766.76
651.819	14785.52
652.171	14700.55
652.523	14689.7
652.875	14678.17
653.227	14654.9
653.578	14754.33
653.93	14745.74
654.282	14659.87
654.633	14698.96
654.985	14675.91
655.337	14724.73
655.688	14707.1
656.039	14830.94
656.391	14629.59
656.742	14678.85
657.094	14750.26
657.445	14803.59
657.796	14715.91
658.147	14723.37
658.498	14774.44
658.849	14743.48
659.2	14764.27
659.551	14750.26
659.902	14780.54
660.253	14748.23
660.604	14758.17
660.955	14701
661.306	14737.61
661.656	14807.44
662.007	14762.46
662.358	14848.11
662.708	14741.9
663.059	14866.64
663.409	14776.48
663.76	14773.76
664.11	14823.71
664.461	14773.99
664.811	14795.23
665.161	14839.75
665.511	14825.74
665.862	14761.34
666.212	14777.61
666.562	14776.48
666.912	14762.24
667.262	14784.39
667.612	14743.03
667.962	14783.48
668.312	14788.45
668.662	14822.12
669.011	14803.37
669.361	14725.4
669.711	14778.28
670.06	14671.39
670.41	14734.9
670.76	14682.69
671.109	14724.73
671.459	14710.71
671.808	14699.19
672.157	14746.42
672.507	14642.02
672.856	14642.47
673.205	14622.13
673.554	14670.72
673.904	14552.98
674.253	14733.99
674.602	14671.62
674.951	14403.15
675.3	14340.33
675.649	14569.48
675.998	14569.02
676.346	14576.71
676.695	14620.55
677.044	14439.99
677.393	14552.3
677.741	14589.36
678.09	14517.5
678.438	14518.18
678.787	14436.6
679.135	14425.52
679.484	14272.31
679.832	14326.32
680.181	14370.16
680.529	14344.17
680.877	14247.68
681.225	14260.56
681.573	14330.84
681.922	14267.34
682.27	14204.29
682.618	14184.63
682.966	14163.61
683.314	14184.4
683.661	14145.53
684.009	14080.45
684.357	14009.49
684.705	14021.92
685.053	14058.75
685.4	13985.99
685.748	13884.97
686.095	13866.44
686.443	13747.8
686.79	13848.82
687.138	13852.21
687.485	13856.27
687.832	13759.33
688.18	13705.77
688.527	13678.2
688.874	13653.57
689.221	13611.08
689.568	13586.22
689.915	13560.01
690.262	13627.35
690.609	13499
690.956	13470.3
691.303	13438.88
691.65	13335.16
691.997	13331.09
692.344	13223.3
692.69	13252.45
693.037	13226.69
693.383	13115.95
693.73	13169.51
694.077	13077.99
694.423	13023.75
694.769	13021.72
695.116	12962.29
695.462	12951.89
695.808	12937.88
696.155	12906.69
696.501	12820.37
696.847	12790.31
697.193	12662.41
697.539	12672.12
697.885	12525.24
698.231	12543.77
698.577	12504.22
698.923	12479.59
699.269	12366.82
699.614	12314.62
699.96	12322.76
700.306	12317.78
700.651	12236.88
700.997	12222.64
701.342	12207.28
701.688	12159.14
702.033	12079.15
702.379	12085.47
702.724	12021.75
703.069	11986.49
703.415	11890.9
703.76	11882.09
704.105	11839.15
704.45	11885.93
704.795	11789.66
705.14	11691.36
705.485	11707.4
705.83	11678.48
706.175	11646.84
706.52	11641.64
706.865	11612.94
707.209	11564.58
707.554	11473.06
707.899	11557.8
708.243	11470.35
708.588	11394.64
708.932	11351.26
709.277	11335.21
709.621	11279.39
709.966	11275.78
710.31	11231.26
710.654	11134.09
710.998	11140.64
711.342	11125.5
711.687	11091.15
712.031	11014.77
712.375	11066.97
712.719	11069.91
713.063	11011.15
713.407	11023.81
713.75	11000.08
714.094	11007.76
714.438	10952.85
714.782	10960.98
715.125	10942
715.469	10882.79
715.812	10840.53
716.156	10770.93
716.499	10803.7
716.843	10828.56
717.186	10712.85
717.53	10899.52
717.873	10810.48
718.216	10758.28
718.559	10677.6
718.902	10601.22
719.246	10655.45
719.589	10641.22
719.932	10591.95
720.275	10612.52
720.617	10583.59
720.96	10577.04
721.303	10587.43
721.646	10530.03
721.989	10485.06
722.331	10557.6
722.674	10465.85
723.016	10483.71
723.359	10462.69
723.701	10513.76
724.044	10433.54
724.386	10406.65
724.729	10474.89
725.071	10466.08
725.413	10467.89
725.755	10459.08
726.097	10410.94
726.439	10374.78
726.782	10343.82
727.124	10383.6
727.465	10317.61
727.807	10347.67
728.149	10271.51
728.491	10279.42
728.833	10265.18
729.175	10193.77
729.516	10309.02
729.858	10274.9
730.199	10320.1
730.541	10298.4
730.882	10222.02
731.224	10310.15
731.565	10230.15
731.906	10249.14
732.248	10266.31
732.589	10252.75
732.93	10138.18
733.271	10269.02
733.612	10270.38
733.953	10301.11
734.294	10160.55
734.635	10237.61
734.976	10177.05
735.317	10174.34
735.658	10188.12
735.999	10186.09
736.339	10130.95
736.68	10259.08
737.021	10165.75
737.361	10229.02
737.702	10208.69
738.042	10219.08
738.383	10231.51
738.723	10215.69
739.063	10250.04
739.404	10252.3
739.744	10251.85
740.084	10235.13
740.424	10324.39
740.764	10288.46
741.104	10364.84
741.444	10278.29
741.784	10338.17
742.124	10331.17
742.464	10400.77
742.804	10364.61
743.143	10433.31
743.483	10426.76
743.823	10404.16
744.162	10424.05
744.502	10477.38
744.841	10462.47
745.181	10544.5
745.52	10537.94
745.86	10568
746.199	10559.41
746.538	10619.52
746.877	10755.34
747.216	10823.59
747.556	10843.92
747.895	10922.79
748.234	10822.23
748.573	10956.46
748.911	11045.95
749.25	11044.6
749.589	11150.13
749.928	11254.76
750.267	11314.65
750.605	11381.31
750.944	11437.58
751.283	11354.87
751.621	11592.15
751.96	11660.63
752.298	11735.2
752.636	11864.24
752.975	11805.71
753.313	11957.34
753.651	12166.38
753.989	12201.4
754.327	12311.68
754.666	12393.94
755.004	12484.78
755.342	12676.87
755.679	12858.79
756.017	12923.42
756.355	13064.66
756.693	13239.79
757.031	13334.48
757.368	13430.97
757.706	13536.51
758.044	13734.47
758.381	13883.17
758.719	14005.87
759.056	14242.48
759.394	14368.58
759.731	14355.92
760.068	14672.52
760.405	14724.05
760.743	14926.75
761.08	15034.77
761.417	15160.42
761.754	15306.63
762.091	15459.17
762.428	15671.82
762.765	15765.83
763.102	16057.12
763.438	16106.84
763.775	16253.95
764.112	16418.47
764.449	16618.01
764.785	16808.29
765.122	16843.54
765.458	16975.74
765.795	17092.57
766.131	17390.42
766.467	17463.41
766.804	17560.13
767.14	17587.93
767.476	17760.58
767.812	17912.44
768.148	18056.39
768.485	18094.13
768.821	18181.36
769.157	18401.47
769.492	18396.27
769.828	18664.06
770.164	18585.19
770.5	18648.01
770.836	18891.4
771.171	18827.44
771.507	18961
771.842	18976.59
772.178	19102.01
772.513	19187.43
772.849	19285.06
773.184	19366.19
773.519	19404.6
773.855	19399.18
774.19	19412.96
774.525	19603.92
774.86	19570.25
775.195	19641.21
775.53	19662
775.865	19651.38
776.2	19669.91
776.535	19782.22
776.87	19760.53
777.205	19692.05
777.539	19769.11
777.874	19959.16
778.209	19819.96
778.543	19885.95
778.878	19762.79
779.212	19890.69
779.547	19888.88
779.881	19956
780.215	19905.61
780.55	19931.82
780.884	19789.9
781.218	19866.74
781.552	19833.74
781.886	19892.73
782.22	19775.89
782.554	19802.78
782.888	19675.1
783.222	19752.84
783.556	19778.6
783.889	19799.17
784.223	19763.69
784.557	19620.64
784.89	19691.6
785.224	19646.63
785.557	19590.81
785.891	19483.92
786.224	19509.23
786.558	19573.86
786.891	19492.96
787.224	19375
787.557	19477.82
787.891	19378.39
788.224	19461.78
788.557	19466.07
788.89	19319.63
789.223	19390.82
789.556	19292.06
789.888	19322.57
790.221	19218.62
790.554	19091.84
790.887	19059.53
791.219	19000.32
791.552	19018.17
791.884	19009.36
792.217	19048
792.549	18794.45
792.882	18930.94
793.214	18843.94
793.546	18774.56
793.879	18721.46
794.211	18630.39
794.543	18643.04
794.875	18697.5
795.207	18694.79
795.539	18605.53
795.871	18593.32
796.203	18521.46
796.535	18405.31
796.867	18398.98
797.198	18425.42
797.53	18313.56
797.862	18203.73
798.193	18285.08
798.525	18158.53
798.856	18232.66
799.188	17988.14
799.519	17980.23
799.85	17898.65
800.182	17865.43
800.513	17883.06
800.844	17706.57
801.175	17804.42
801.506	17797.64
801.837	17732.78
802.168	17773.01
802.499	17694.59
802.83	17622.95
803.161	17534.14
803.491	17521.94
803.822	17580.02
804.153	17413.69
804.483	17271.1
804.814	17230.2
805.145	17243.76
805.475	17281.04
805.805	17198.11
806.136	17185.45
806.466	17166.92
806.796	17107.49
807.126	17068.84
807.457	16968.73
807.787	17006.47
808.117	16827.5
808.447	16843.77
808.777	16840.15
809.107	16795.41
809.436	16736.42
809.766	16747.5
810.096	16683.77
810.426	16641.06
810.755	16646.71
811.085	16557.67
811.414	16655.07
811.744	16462.31
812.073	16486.26
812.403	16420.27
812.732	16449.65
813.061	16409.43
813.39	16280.17
813.719	16308.41
814.049	16388.41
814.378	16279.71
814.707	16183.67
815.036	16212.14
815.365	16111.58
815.693	15995.65
816.022	16040.17
816.351	16007.63
816.68	15950.46
817.008	15997.23
817.337	15839.05
817.665	15825.04
817.994	15795.21
818.322	15848.99
818.651	15717.92
818.979	15706.17
819.307	15746.85
819.636	15656.68
819.964	15637.47
820.292	15663.68
820.62	15660.07
820.948	15554.53
821.276	15648.54
821.604	15628.43
821.932	15641.99
822.259	15655.1
822.587	15593.18
822.915	15515.89
823.243	15562.67
823.57	15552.95
823.898	15524.93
824.225	15522.22
824.553	15481.99
824.88	15533.74
825.207	15528.09
825.535	15483.35
825.862	15637.02
826.189	15492.84
826.516	15575.1
826.843	15607.87
827.17	15601.31
827.497	15601.31
827.824	15634.08
828.151	15605.15
828.478	15536.46
828.805	15702.1
829.131	15530.13
829.458	15587.53
829.785	15494.2
830.111	15544.37
830.438	15603.8
830.764	15539.85
831.09	15664.59
831.417	15530.13
831.743	15561.09
832.069	15607.41
832.395	15458.04
832.722	15520.86
833.048	15488.1
833.374	15487.42
833.7	15421.88
834.026	15460.53
834.351	15450.36
834.677	15456.23
835.003	15477.02
835.329	15436.57
835.654	15314.09
835.98	15282
836.306	15277.71
836.631	15312.06
836.956	15350.02
837.282	15380.53
837.607	15170.59
837.932	15211.72
838.258	15200.42
838.583	15136.69
838.908	15104.6
839.233	15215.56
839.558	15081.33
839.883	15038.16
840.208	15035
840.533	15057.6
840.858	15083.81
841.182	15062.57
841.507	14989.35
841.832	14905.74
842.156	14859.41
842.481	14832.29
842.805	14930.82
843.13	14826.87
843.454	14849.02
843.778	14767.66
844.103	14724.73
844.427	14714.33
844.751	14663.03
845.075	14626.42
845.399	14571.96
845.723	14567.67
846.047	14488.57
846.371	14421.91
846.695	14464.39
847.019	14271.63
847.343	14299.43
847.666	14118.64
847.99	14080.9
848.313	14127
848.637	14028.92
848.96	14014.46
849.284	13899.89
849.607	13800.46
849.931	13902.15
850.254	13763.62
850.577	13669.16
850.9	13543.51
851.223	13542.61
851.546	13540.35
851.869	13452.44
852.192	13495.83
852.515	13382.61
852.838	13343.75
853.161	13231.66
853.483	13157.08
853.806	13208.38
854.129	13172
854.451	13113.69
854.774	13007.93
855.096	13052.68
855.419	12952.12
855.741	12912.34
856.063	12851.55
856.385	12809.75
856.708	12773.14
857.03	12769.52
857.352	12740.15
857.674	12714.84
857.996	12661.96
858.318	12546.93
858.64	12617.44
858.961	12534.95
859.283	12552.13
859.605	12430.32
859.926	12473.94
860.248	12465.35
860.57	12268.07
860.891	12375.86
861.212	12286.6
861.534	12255.41
861.855	12294.96
862.176	12264
862.498	12267.39
862.819	12235.75
863.14	12200.72
863.461	12182.65
863.782	12094.06
864.103	12074.85
864.424	12042.08
864.745	12071.46
865.065	12056.1
865.386	11903.56
865.707	11923.9
866.027	11948.53
866.348	11949.66
866.668	11948.98
866.989	11859.94
867.309	11858.13
867.63	11864.46
867.95	11846.38
868.27	11786.5
868.59	11811.13
868.91	11777.68
869.23	11798.93
869.55	11692.94
869.87	11685.48
870.19	11679.61
870.51	11614.75
870.83	11704.69
871.15	11667.63
871.469	11636.67
871.789	11640.74
872.109	11570.91
872.428	11562.78
872.748	11570.46
873.067	11559.84
873.386	11540.85
873.706	11571.81
874.025	11434.64
874.344	11400.97
874.663	11514.19
874.982	11485.26
875.301	11438.48
875.62	11324.82
875.939	11330.69
876.258	11399.62
876.577	11330.01
876.896	11284.59
877.214	11303.57
877.533	11323.46
877.852	11241.43
878.17	11237.36
878.489	11227.42
878.807	11255.89
879.125	11199.17
879.444	11150.13
879.762	11089.57
880.08	11136.12
880.398	11062
880.716	11083.47
881.034	11077.14
881.352	11062
881.67	11039.85
881.988	10979.97
882.306	10937.48
882.624	10959.18
882.941	10839.4
883.259	10856.13
883.577	10830.14
883.894	10833.08
884.212	10769.58
884.529	10831.95
884.846	10771.84
885.164	10724.83
885.481	10694.1
885.798	10713.76
886.115	10614.1
886.432	10631.95
886.75	10629.69
887.067	10562.12
887.383	10535.68
887.7	10510.6
888.017	10447.32
888.334	10437.61
888.651	10478.51
888.967	10438.06
889.284	10396.25
889.6	10332.98
889.917	10262.7
890.233	10294.33
890.55	10289.14
890.866	10244.62
891.182	10186.99
891.498	10175.01
891.815	10078.07
892.131	10087.79
892.447	10088.69
892.763	10064.06
893.079	10029.93
893.395	9994
893.71	10016.83
894.026	9932.31
894.342	9874.91
894.657	9835.81
894.973	9824.74
895.289	9783.61
895.604	9738.87
895.92	9699.32
896.235	9683.5
896.55	9732.54
896.865	9657.06
897.181	9659.55
897.496	9611.87
897.811	9534.58
898.126	9512.66
898.441	9460.23
898.756	9441.7
899.071	9413.23
899.386	9400.8
899.7	9330.74
900.015	9343.4
900.33	9252.78
900.644	9222.95
900.959	9254.81
901.273	9132.1
901.588	9156.51
901.902	9072.67
902.216	9055.5
902.531	9040.36
902.845	8989.28
903.159	8959
903.473	8942.5
903.787	8824.32
904.101	8857.99
904.415	8823.19
904.729	8839.46
905.042	8743.19
905.356	8785.45
905.67	8739.8
905.984	8673.13
906.297	8700.48
906.611	8640.82
906.924	8629.97
907.237	8514.27
907.551	8546.36
907.864	8493.7
908.177	8441.28
908.491	8393.37
908.804	8363.09
909.117	8332.13
909.43	8298
909.743	8218.23
910.056	8191.11
910.368	8237.66
910.681	8083.32
910.994	8093.94
911.307	8098.23
911.619	8094.84
911.932	8095.52
912.244	7985.92
912.557	7974.17
912.869	7940.05
913.181	7848.75
913.494	7891.23
913.806	7824.12
914.118	7829.77
914.43	7767.85
914.742	7719.71
915.054	7702.54
915.366	7663.67
915.678	7662.09
915.99	7613.05
916.302	7542.32
916.613	7514.52
916.925	7484.01
917.236	7511.36
917.548	7441.75
917.859	7476.33
918.171	7401.53
918.482	7356.33
918.794	7334.19
919.105	7300.74
919.416	7222.32
919.727	7261.19
920.038	7208.99
920.349	7193.17
920.66	7145.26
920.971	7145.04
921.282	7119.28
921.593	7049.22
921.903	7057.58
922.214	7004.25
922.525	6964.93
922.835	6984.14
923.146	6905.72
923.456	6890.36
923.767	6785.05
924.077	6890.36
924.387	6791.15
924.697	6790.25
925.008	6755.9
925.318	6648.33
925.628	6728.55
925.938	6673.64
926.248	6591.15
926.558	6634.54
926.867	6570.14
927.177	6572.62
927.487	6497.15
927.796	6473.64
928.106	6460.08
928.416	6510.25
928.725	6416.24
929.034	6408.11
929.344	6427.09
929.653	6330.37
929.962	6313.42
930.271	6300.31
930.581	6304.16
930.89	6262.8
931.199	6177.61
931.508	6174.44
931.817	6188.45
932.125	6187.78
932.434	6088.12
932.743	6067.1
933.051	6056.03
933.36	6003.83
933.669	5955.92
933.977	5997.5
934.286	5961.79
934.594	5930.38
934.902	5883.6
935.21	5930.61
935.519	5898.52
935.827	5842.47
936.135	5813.55
936.443	5759.76
936.751	5810.61
937.059	5725.19
937.367	5672.53
937.674	5734.91
937.982	5657.39
938.29	5621.46
938.597	5647.9
938.905	5567.9
939.213	5542.82
939.52	5524.52
939.827	5499.21
940.135	5506.44
940.442	5461.92
940.749	5484.74
941.056	5515.25
941.363	5415.14
941.67	5371.98
941.977	5353.9
942.284	5319.32
942.591	5347.57
942.898	5255.37
943.205	5227.8
943.511	5228.48
943.818	5248.36
944.125	5186.22
944.431	5225.31
944.738	5216.95
945.044	5149.16
945.35	5117.75
945.657	5074.13
945.963	5036.17
946.269	5044.3
946.575	5075.49
946.881	5034.59
947.187	4963.17
947.493	4930.41
947.799	4952.78
948.105	4896.74
948.41	4878.66
948.716	4873.91
949.022	4826.91
949.327	4865.32
949.633	4830.97
949.938	4820.35
950.244	4819
950.549	4760.69
950.854	4718.44
951.16	4727.47
951.465	4755.27
951.77	4647.48
952.075	4660.13
952.38	4618.1
952.685	4609.06
952.99	4582.17
953.294	4619
953.599	4584.88
953.904	4576.29
954.209	4497.42
954.513	4460.81
954.818	4500.59
955.122	4471.89
955.426	4413.13
955.731	4374.72
956.035	4366.58
956.339	4355.51
956.643	4311.89
956.948	4350.76
957.252	4307.82
957.556	4306.47
957.86	4283.42
958.163	4247.04
958.467	4242.97
958.771	4240.26
959.075	4197.09
959.378	4176.53
959.682	4182.18
959.985	4167.94
960.289	4130.2
960.592	4150.77
960.896	4122.29
961.199	4068.73
961.502	4039.81
961.805	4072.8
962.108	4035.29
962.411	4008.62
962.714	4021.96
963.017	3988.74
963.32	3971.34
963.623	3965.46
963.926	3970.21
964.228	3908.97
964.531	3890.89
964.833	3911.45
965.136	3887.04
965.438	3829.19
965.741	3833.71
966.043	3802.3
966.345	3771.34
966.648	3804.33
966.95	3803.43
967.252	3730.66
967.554	3721.4
967.856	3734.51
968.158	3708.97
968.46	3653.83
968.761	3618.8
969.063	3653.6
969.365	3638.46
969.666	3628.29
969.968	3572.93
970.269	3612.02
970.571	3591.23
970.872	3561.4
971.174	3513.5
971.475	3473.72
971.776	3468.52
972.077	3464
972.378	3495.87
972.679	3470.78
972.98	3463.33
973.281	3451.58
973.582	3413.38
973.883	3428.53
974.183	3389.88
974.484	3372.71
974.785	3359.83
975.085	3339.71
975.386	3303.33
975.686	3322.09
975.986	3327.29
976.287	3289.32
976.587	3240.73
976.887	3257.91
977.187	3282.09
977.487	3195.54
977.787	3177.68
978.087	3189.89
978.387	3196.44
978.687	3152.6
978.987	3188.08
979.286	3146.5
979.586	3142.66
979.885	3134.3
980.185	3071.02
980.484	3091.81
980.784	3089.78
981.083	3074.64
981.382	3045.71
981.682	3044.81
981.981	3019.27
982.28	2990.8
982.579	3005.26
982.878	2976.56
983.177	2997.8
983.475	2987.18
983.774	2917.8
984.073	2934.08
984.372	2920.29
984.67	2864.47
984.969	2890.23
985.267	2880.07
985.566	2866.73
985.864	2874.64
986.162	2831.03
986.461	2803.91
986.759	2839.16
987.057	2762.1
987.355	2772.05
987.653	2760.52
987.951	2770.92
988.249	2752.16
988.547	2739.5
988.844	2747.19
989.142	2708.77
989.44	2720.52
989.737	2664.03
990.035	2653.86
990.332	2629.45
990.63	2624.03
990.927	2626.74
991.224	2638.49
991.521	2624.03
991.819	2582.45
992.116	2551.26
992.413	2563.24
992.71	2567.31
993.006	2574.31
993.303	2526.63
993.6	2528.44
993.897	2522.56
994.193	2516.91
994.49	2476.91
994.787	2479.85
995.083	2467.87
995.379	2440.76
995.676	2431.49
995.972	2450.92
996.268	2406.63
996.565	2419.06
996.861	2384.26
997.157	2359.85
997.453	2340.19
997.749	2364.15
998.044	2323.92
998.34	2309.01
998.636	2342
998.932	2288.89
999.227	2307.43
999.523	2262
999.818	2253.87
1000.114	2247.54
1000.409	2235.11
1000.704	2254.09
1001	2201.89
1001.295	2198.95
1001.59	2178.62
1001.885	2184.26
1002.18	2162.12
1002.475	2146.07
1002.77	2127.54
1003.065	2148.79
1003.359	2099.07
1003.654	2118.05
1003.949	2094.55
1004.243	2099.52
1004.538	2106.3
1004.832	2094.78
1005.127	2051.84
1005.421	2051.61
1005.715	2034.89
1006.009	2030.14
1006.304	2031.27
1006.598	1959.86
1006.892	1972.52
1007.186	2009.13
1007.48	1946.98
1007.773	1934.33
1008.067	1926.64
1008.361	1951.95
1008.655	1902.46
1008.948	1899.53
1009.242	1888.91
1009.535	1887.1
1009.829	1876.02
1010.122	1885.97
1010.415	1885.06
1010.708	1844.39
1011.001	1840.32
1011.295	1826.99
1011.588	1810.72
1011.881	1826.76
1012.173	1800.77
1012.466	1799.64
1012.759	1785.63
1013.052	1784.28
1013.344	1755.58
1013.637	1763.94
1013.93	1732.53
1014.222	1695.46
1014.514	1710.83
1014.807	1717.38
1015.099	1679.19
1015.391	1678.52
1015.683	1682.81
1015.976	1670.83
1016.268	1658.18
1016.56	1620.89
1016.851	1597.39
1017.143	1629.25
1017.435	1589.03
1017.727	1574.79
1018.018	1615.47
1018.31	1585.86
1018.602	1570.95
1018.893	1540.89
1019.185	1560.55
1019.476	1538.63
1019.767	1525.98
1020.058	1528.91
1020.35	1525.98
1020.641	1489.14
1020.932	1483.04
1021.223	1496.15
1021.514	1471.97
1021.804	1462.7
1022.095	1458.63
1022.386	1421.57
1022.677	1434.91
1022.967	1433.55
1023.258	1422.48
1023.548	1382.48
1023.839	1409.37
1024.129	1392.42
1024.419	1377.73
1024.709	1362.59
1025	1351.07
1025.29	1362.59
1025.58	1355.81
1025.87	1321.24
1026.16	1301.12
1026.449	1302.93
1026.739	1337.73
1027.029	1308.13
1027.319	1298.19
1027.608	1275.81
1027.898	1311.97
1028.187	1267.23
1028.477	1283.5
1028.766	1254.8
1029.055	1227.68
1029.344	1230.84
1029.634	1233.33
1029.923	1230.17
1030.212	1224.97
1030.501	1221.8
1030.79	1181.13
1031.078	1163.5
1031.367	1208.7
1031.656	1164.4
1031.945	1150.17
1032.233	1161.92
1032.522	1126.67
1032.81	1150.62
1033.099	1112.88
1033.387	1150.85
1033.675	1114.69
1033.963	1112.2
1034.251	1116.04
1034.54	1094.8
1034.828	1102.26
1035.116	1083.5
1035.403	1074.01
1035.691	1077.18
1035.979	1047.8
1036.267	1069.49
1036.554	1029.49
1036.842	1030.17
1037.129	1027.01
1037.417	1035.82
1037.704	1020.91
1037.992	1017.29
1038.279	979.1
1038.566	975.93
1038.853	975.93
1039.14	975.93
