Data from hue_290_FLMS001491_00048.txt Node
Date: Tue Feb 07 15:52:48 GMT 2017
User: dcchb
Spectrometer: FLMS00149
Trigger mode: 0
Integration Time (sec): 2.000000E-2
Scans to average: 10
Electric dark correction enabled: true
Nonlinearity correction enabled: false
Boxcar width: 0
XAxis mode: Wavelengths
Number of Pixels in Spectrum: 2048
>>>>>Begin Spectral Data<<<<<
341.393	6.1
341.776	6.1
342.16	6.1
342.543	-50.85
342.927	-79.09
343.31	-55.82
343.693	-57.85
344.077	-60.34
344.46	-85.42
344.843	-29.83
345.226	-46.33
345.61	-25.31
345.993	-27.8
346.376	-10.4
346.759	0.23
347.142	18.53
347.525	44.97
347.908	56.72
348.291	80
348.674	88.59
349.057	110.05
349.44	141.47
349.823	136.49
350.206	176.27
350.588	186.89
350.971	206.77
351.354	197.28
351.737	228.47
352.119	267.11
352.502	245.87
352.884	271.18
353.267	250.16
353.65	283.16
354.032	320.67
354.414	307.79
354.797	304.17
355.179	317.73
355.562	303.72
355.944	338.52
356.326	313.44
356.709	334.23
357.091	326.32
357.473	352.31
357.855	331.52
358.238	320.22
358.62	335.36
359.002	331.74
359.384	326.77
359.766	339.88
360.148	320.22
360.53	328.13
360.912	324.96
361.294	329.48
361.676	315.92
362.057	334.45
362.439	344.4
362.821	311.4
363.203	323.16
363.584	321.8
363.966	314.79
364.348	326.55
364.729	323.16
365.111	315.92
365.493	307.56
365.874	301.24
366.256	302.59
366.637	314.12
367.019	287.9
367.4	300.56
367.781	300.56
368.163	304.4
368.544	321.8
368.925	316.15
369.306	316.6
369.688	319.99
370.069	295.81
370.45	324.29
370.831	324.29
371.212	304.85
371.593	308.47
371.974	324.74
372.355	324.96
372.736	323.16
373.117	322.93
373.498	311.4
373.879	304.85
374.26	312.76
374.641	309.14
375.021	313.21
375.402	323.16
375.783	318.64
376.163	327.9
376.544	315.02
376.925	324.29
377.305	334
377.686	317.51
378.066	328.35
378.447	333.78
378.827	321.12
379.208	336.26
379.588	295.81
379.968	332.42
380.349	326.55
380.729	330.84
381.109	343.04
381.489	344.62
381.87	324.74
382.25	319.54
382.63	337.17
383.01	354.57
383.39	355.24
383.77	358.63
384.15	346.88
384.53	354.79
384.91	366.32
385.29	338.97
385.67	356.15
386.049	347.11
386.429	341.46
386.809	374.68
387.189	357.73
387.568	346.66
387.948	373.55
388.328	375.36
388.707	365.19
389.087	357.05
389.466	362.48
389.846	389.37
390.225	352.53
390.605	380.33
390.984	367
391.363	369.48
391.743	377.17
392.122	371.06
392.501	373.55
392.881	399.76
393.26	345.53
393.639	377.84
394.018	378.97
394.397	375.58
394.776	413.55
395.155	389.82
395.534	399.99
395.913	362.48
396.292	392.76
396.671	397.96
397.05	418.75
397.429	394.57
397.808	400.89
398.186	399.54
398.565	409.25
398.944	393.21
399.323	414
399.701	433.43
400.08	406.09
400.458	435.47
400.837	432.31
401.215	441.8
401.594	455.58
401.972	452.42
402.351	448.12
402.729	424.85
403.107	442.7
403.486	445.41
403.864	442.7
404.242	484.73
404.62	455.58
404.999	450.16
405.377	469.59
405.755	463.04
406.133	466.43
406.511	473.66
406.889	475.47
407.267	483.38
407.645	480.67
408.023	505.3
408.401	503.94
408.779	499.42
409.156	515.69
409.534	510.5
409.912	527.44
410.29	541.45
410.667	557.5
411.045	543.49
411.422	570.38
411.8	541.68
412.178	573.54
412.555	584.17
412.933	602.02
413.31	568.57
413.687	581.68
414.065	606.09
414.442	602.24
414.819	618.97
415.197	618.29
415.574	634.11
415.951	649.47
416.328	644.28
416.705	642.24
417.082	652.19
417.46	667.78
417.837	687.89
418.214	679.08
418.591	688.12
418.967	683.15
419.344	693.32
419.721	712.07
420.098	692.64
420.475	731.28
420.852	738.06
421.228	763.82
421.605	763.6
421.982	772.86
422.358	792.07
422.735	781.45
423.111	796.36
423.488	816.48
423.864	801.79
424.241	825.29
424.617	869.58
424.994	836.81
425.37	837.27
425.746	870.26
426.123	895.12
426.499	898.51
426.875	893.76
427.251	903.48
427.627	900.32
428.003	942.12
428.379	923.59
428.756	942.57
429.132	967.21
429.507	962.69
429.883	992.06
430.259	987.32
430.635	1005.62
431.011	1021.44
431.387	1013.98
431.763	1049.24
432.138	1037.03
432.514	1091.72
432.89	1079.75
433.265	1087.88
433.641	1105.96
434.016	1102.34
434.392	1152.74
434.767	1171.49
435.143	1178.95
435.518	1222.57
435.894	1212.4
436.269	1224.15
436.644	1233.41
437.02	1226.18
437.395	1255.11
437.77	1270.93
438.145	1279.51
438.52	1295.33
438.895	1279.74
439.271	1300.98
439.646	1314.99
440.021	1363.58
440.395	1354.09
440.77	1331.26
441.145	1377.14
441.52	1393.41
441.895	1393.86
442.27	1383.69
442.645	1400.19
443.019	1420.75
443.394	1436.8
443.769	1413.75
444.143	1397.93
444.518	1426.63
444.892	1442.45
445.267	1466.63
445.641	1465.27
446.016	1507.53
446.39	1480.87
446.764	1513.86
447.139	1476.12
447.513	1463.92
447.887	1484.71
448.262	1499.62
448.636	1532.16
449.01	1543.24
449.384	1537.81
449.758	1546.4
450.132	1539.85
450.506	1584.59
450.88	1577.13
451.254	1568.32
451.628	1607.64
452.002	1601.99
452.376	1602.22
452.75	1631.6
453.123	1635.21
453.497	1664.81
453.871	1679.96
454.244	1721.76
454.618	1700.75
454.992	1745.04
455.365	1707.98
455.739	1759.5
456.112	1762.67
456.486	1748.43
456.859	1757.47
457.232	1813.74
457.606	1797.92
457.979	1837.24
458.352	1862.1
458.725	1867.07
459.099	1882.21
459.472	1914.3
459.845	1926.5
460.218	1950.01
460.591	1930.12
460.964	1925.15
461.337	1972.83
461.71	2004.02
462.083	2015.54
462.456	2040.62
462.829	2018.48
463.201	2054.41
463.574	2028.87
463.947	2103.67
464.32	2125.82
464.692	2159.04
465.065	2160.4
465.438	2146.16
465.81	2181.64
466.183	2219.15
466.555	2228.42
466.928	2254.63
467.3	2259.38
467.672	2314.06
468.045	2317.23
468.417	2344.12
468.789	2329.2
469.161	2341.41
469.534	2380.5
469.906	2458.24
470.278	2439.94
470.65	2440.84
471.022	2468.86
471.394	2503.21
471.766	2496.88
472.138	2596.54
472.51	2641.06
472.882	2615.75
473.253	2675.18
473.625	2686.26
473.997	2722.41
474.369	2731
474.74	2753.15
475.112	2758.35
475.484	2867.5
475.855	2864.56
476.227	2864.11
476.598	2969.41
476.97	2987.49
477.341	3027.27
477.713	3039.92
478.084	3076.98
478.455	3107.49
478.827	3132.12
479.198	3223.42
479.569	3247.15
479.94	3354.71
480.311	3295.28
480.682	3385.45
481.053	3440.14
481.424	3443.3
481.795	3509.74
482.166	3534.6
482.537	3515.39
482.908	3610.07
483.279	3632.9
483.65	3634.93
484.021	3721.48
484.391	3775.04
484.762	3800.13
485.133	3866.79
485.503	3850.52
485.874	3936.39
486.244	3921.48
486.615	4010.29
486.985	4068.37
487.356	4126.22
487.726	4121.7
488.097	4163.05
488.467	4230.17
488.837	4280.34
489.207	4293.9
489.578	4316.27
489.948	4360.79
490.318	4431.75
490.688	4449.15
491.058	4467
491.428	4542.25
491.798	4552.65
492.168	4646.66
492.538	4619.09
492.908	4663.83
493.278	4727.56
493.648	4735.02
494.017	4832.87
494.387	4843.04
494.757	4836.93
495.126	4857.95
495.496	4893.66
495.866	4936.82
496.235	4964.84
496.605	5032.41
496.974	5003.03
497.344	5051.17
497.713	5089.58
498.082	5074.89
498.452	5102.46
498.821	5173.42
499.19	5152.18
499.559	5194.44
499.928	5221.78
500.298	5224.72
500.667	5312.18
501.036	5259.75
501.405	5316.24
501.774	5360.76
502.143	5340.2
502.512	5363.93
502.88	5402.34
503.249	5424.94
503.618	5472.62
503.987	5464.49
504.356	5483.7
504.724	5535.9
505.093	5538.84
505.462	5591.04
505.83	5523.02
506.199	5607.76
506.567	5706.06
506.936	5699.74
507.304	5746.52
507.672	5720.98
508.041	5723.92
508.409	5746.29
508.777	5783.35
509.145	5800.75
509.514	5809.11
509.882	5829.9
510.25	5832.84
510.618	5897.7
510.986	5902.9
511.354	5918.94
511.722	5951.48
512.09	5946.96
512.458	6002.33
512.826	6025.83
513.193	6025.15
513.561	6042.78
513.929	6064.02
514.297	6119.16
514.664	6171.59
515.032	6160.06
515.4	6132.49
515.767	6156
516.135	6208.65
516.502	6195.09
516.869	6234.64
517.237	6289.78
517.604	6258.14
517.972	6317.35
518.339	6345.82
518.706	6383.33
519.073	6358.7
519.44	6419.27
519.808	6454.75
520.175	6429.66
520.542	6463.11
520.909	6495.2
521.276	6467.4
521.643	6559.83
522.009	6565.25
522.376	6623.78
522.743	6656.77
523.11	6667.4
523.477	6707.62
523.843	6767.28
524.21	6831.01
524.577	6817.45
524.943	6862.87
525.31	6822.87
525.676	6891.57
526.043	6932.47
526.409	6925.69
526.776	7049.98
527.142	7042.07
527.508	7034.39
527.874	7069.42
528.241	7115.97
528.607	7139.93
528.973	7222.86
529.339	7249.53
529.705	7274.61
530.071	7262.41
530.437	7390.77
530.803	7319.58
531.169	7382.18
531.535	7342.18
531.901	7406.81
532.267	7459.46
532.632	7506.02
532.998	7496.75
533.364	7473.02
533.73	7586.92
534.095	7637.99
534.461	7630.99
534.826	7610.2
535.192	7630.99
535.557	7707.82
535.923	7673.7
536.288	7683.41
536.653	7749.4
537.019	7769.74
537.384	7786.01
537.749	7804.31
538.114	7858.32
538.479	7858.32
538.845	7909.4
539.21	7964.76
539.575	7885.89
539.94	7978.32
540.305	8020.35
540.67	7950.07
541.034	8069.62
541.399	8044.31
541.764	8054.25
542.129	8093.35
542.494	8116.4
542.858	8192.33
543.223	8144.42
543.587	8236.39
543.952	8201.82
544.316	8180.35
544.681	8264.87
545.045	8215.38
545.41	8330.4
545.774	8291.76
546.138	8326.33
546.503	8387.35
546.867	8402.49
547.231	8432.77
547.595	8422.6
547.959	8452.66
548.324	8450.63
548.688	8499.89
549.052	8418.08
549.416	8514.35
549.779	8489.72
550.143	8463.51
550.507	8573.79
550.871	8597.29
551.235	8596.61
551.599	8684.97
551.962	8665.76
552.326	8680.45
552.689	8718.64
553.053	8663.05
553.417	8732.65
553.78	8802.48
554.143	8812.42
554.507	8809.03
554.87	8863.27
555.234	8829.6
555.597	8840.67
555.96	8866.89
556.323	8895.13
556.686	8913.89
557.05	8941.69
557.413	8997.05
557.776	8983.72
558.139	8981.01
558.502	8978.75
558.865	9037.28
559.228	9103.94
559.59	9115.92
559.953	9156.37
560.316	9208.35
560.679	9205.63
561.041	9279.98
561.404	9282.02
561.767	9321.79
562.129	9264.84
562.492	9374.44
562.854	9372.86
563.217	9411.5
563.579	9420.54
563.941	9433.2
564.304	9527.21
564.666	9551.16
565.028	9537.38
565.39	9594.32
565.753	9575.34
566.115	9691.27
566.477	9731.27
566.839	9694.66
567.201	9733.76
567.563	9723.13
567.925	9842
568.287	9766.3
568.648	9822.11
569.01	9911.6
569.372	9994.54
569.734	9981.88
570.095	10003.35
570.457	10063.01
570.819	10071.83
571.18	10117.7
571.542	10175.78
571.903	10159.28
572.265	10187.98
572.626	10298.26
572.987	10255.1
573.349	10308.88
573.71	10340.52
574.071	10350.91
574.432	10487.18
574.794	10571.25
575.155	10598.37
575.516	10612.83
575.877	10658.02
576.238	10693.73
576.599	10819.83
576.96	10780.06
577.32	10803.11
577.681	10903.67
578.042	10985.7
578.403	11009.43
578.763	11071.12
579.124	11106.83
579.485	11185.69
579.845	11395.41
580.206	11380.04
580.566	11414.62
580.927	11478.79
581.287	11604.21
581.648	11602.41
582.008	11722.4
582.368	11799.46
582.728	11947.26
583.089	11915.17
583.449	12074.48
583.809	12134.14
584.169	12262.5
584.529	12364.19
584.889	12625.43
585.249	12505.66
585.609	12565.09
585.969	12831.98
586.329	12865.65
586.688	13017.96
587.048	13126.66
587.408	13244.62
587.768	13314
588.127	13500.66
588.487	13574.78
588.846	13741.56
589.206	13794.67
589.565	13932.29
589.925	14173.86
590.284	14266.97
590.643	14435.55
591.003	14529.79
591.362	14763.45
591.721	14752.61
592.08	14956.44
592.44	15180.84
592.799	15303.33
593.158	15322.76
593.517	15558.91
593.876	15662.19
594.235	15746.93
594.593	15982.18
594.952	16078.9
595.311	16115.73
595.67	16424.65
596.029	16630.52
596.387	16765.21
596.746	16856.28
597.104	16902.61
597.463	17038.42
597.822	17183.73
598.18	17295.59
598.538	17407
598.897	17565.19
599.255	17548.92
599.613	17872.52
599.972	17923.82
600.33	18013.54
600.688	18096.25
601.046	18216.47
601.404	18469.12
601.762	18499.17
602.12	18682.45
602.478	18766.96
602.836	18853.97
603.194	18859.84
603.552	18924.47
603.91	19051.25
604.268	19155.88
604.625	19194.3
604.983	19475.87
605.341	19324.24
605.698	19588.64
606.056	19760.84
606.413	19856.2
606.771	19892.58
607.128	19974.16
607.485	19966.25
607.843	20029.3
608.2	20305.23
608.557	20400.59
608.914	20403.08
609.272	20518.56
609.629	20647.14
609.986	20702.51
610.343	20742.28
610.7	20961.48
611.057	20940.92
611.414	20954.93
611.771	20958.09
612.127	21192.89
612.484	21201.02
612.841	21261.81
613.198	21323.73
613.554	21399.66
613.911	21453.45
614.267	21587.91
614.624	21519.43
614.98	21697.73
615.337	21797.39
615.693	21814.57
616.05	21908.12
616.406	21983.83
616.762	21936.37
617.118	22013.21
617.475	22059.08
617.831	22087.1
618.187	22155.12
618.543	22266.08
618.899	22446.87
619.255	22416.59
619.611	22380.43
619.967	22498.39
620.323	22508.33
620.678	22560.99
621.034	22415.23
621.39	22523.7
621.746	22624.26
622.101	22835.11
622.457	22652.29
622.812	22682.79
623.168	22823.35
623.523	22842.11
623.879	22941.32
624.234	22766.41
624.589	22882.11
624.945	22920.53
625.3	22946.29
625.655	22943.13
626.01	23035.1
626.365	22916.69
626.72	22832.62
627.075	22958.94
627.43	23044.14
627.785	22977.7
628.14	22855.67
628.495	23066.06
628.85	22945.61
629.205	23025.16
629.559	23096.12
629.914	22971.83
630.269	23069.68
630.623	22907.42
630.978	22985.84
631.332	23119.62
631.687	23125.04
632.041	22969.11
632.396	23117.13
632.75	22975.44
633.104	23031.94
633.459	22960.53
633.813	22948.55
634.167	22952.62
634.521	23021.32
634.875	23108.54
635.229	22937.93
635.583	22805.95
635.937	22938.61
636.291	22941.77
636.645	22953.29
636.999	22894.09
637.352	22902
637.706	22809.12
638.06	22841.89
638.413	22814.77
638.767	22867.42
639.121	22834.2
639.474	22682.79
639.828	22698.39
640.181	22748.78
640.534	22806.86
640.888	22692.96
641.241	22584.26
641.594	22673.3
641.947	22732.06
642.301	22744.26
642.654	22739.06
643.007	22744.71
643.36	22680.53
643.713	22679.86
644.066	22723.92
644.419	22645.51
644.771	22445.96
645.124	22270.37
645.477	22254.56
645.83	22083.49
646.182	22047.56
646.535	21941.8
646.888	21987.9
647.24	21828.8
647.593	21976.6
647.945	21975.24
648.298	21840.33
648.65	21901.57
649.002	21816.15
649.355	21811.86
649.707	21897.73
650.059	22012.3
650.411	22238.51
650.763	22323.25
651.115	22546.07
651.467	22421.33
651.819	22433.99
652.171	22428.79
652.523	22336.14
652.875	22414.33
653.227	22153.77
653.578	22568.22
653.93	22400.54
654.282	22369.36
654.633	22305.85
654.985	22297.49
655.337	22364.84
655.688	22443.93
656.039	22444.16
656.391	22339.98
656.742	22407.32
657.094	22322.8
657.445	22477.15
657.796	22478.73
658.147	22351.28
658.498	22440.99
658.849	22408.68
659.2	22400.31
659.551	22381.56
659.902	22405.29
660.253	22375
660.604	22389.92
660.955	22289.58
661.306	22532.74
661.656	22428.34
662.007	22417.72
662.358	22441.9
662.708	22433.53
663.059	22418.17
663.409	22266.99
663.76	22540.88
664.11	22368.45
664.461	22498.17
664.811	22451.84
665.161	22480.31
665.511	22514.89
665.862	22447.55
666.212	22452.52
666.562	22478.73
666.912	22488
667.262	22389.47
667.612	22542.23
667.962	22484.15
668.312	22472.18
668.662	22575.9
669.011	22442.12
669.361	22428.11
669.711	22465.85
670.06	22423.59
670.41	22297.27
670.76	22350.37
671.109	22429.47
671.459	22356.02
671.808	22330.94
672.157	22306.76
672.507	22127.55
672.856	22287.78
673.205	22328.68
673.554	22382.69
673.904	22240.32
674.253	22335.46
674.602	22337.49
674.951	22042.36
675.3	21877.84
675.649	22269.24
675.998	22122.58
676.346	22217.72
676.695	22198.96
677.044	22019.76
677.393	22106.09
677.741	22128.91
678.09	22001.23
678.438	21999.87
678.787	21979.31
679.135	22023.6
679.484	21912.87
679.832	21961.46
680.181	21815.92
680.529	21952.42
680.877	21780.22
681.225	21735.93
681.573	21968.01
681.922	21690.96
682.27	21741.58
682.618	21667.45
682.966	21633.78
683.314	21647.11
683.661	21545.65
684.009	21538.64
684.357	21594.01
684.705	21520.34
685.053	21465.88
685.4	21421.13
685.748	21342.49
686.095	21376.84
686.443	21136.39
686.79	21138.88
687.138	21113.57
687.485	21178.65
687.832	21039.9
688.18	21171.42
688.527	20977.75
688.874	20930.75
689.221	20843.29
689.568	20840.58
689.915	20787.7
690.262	20720.13
690.609	20686.01
690.956	20570.53
691.303	20631.32
691.65	20448.73
691.997	20394.04
692.344	20352.69
692.69	20274.5
693.037	20220.49
693.383	20088.51
693.73	20232.01
694.077	20091
694.423	20116.53
694.769	20008.51
695.116	19976.88
695.462	19967.16
695.808	19851
696.155	19870.21
696.501	19652.82
696.847	19757.45
697.193	19577.34
697.539	19610.78
697.885	19419.6
698.231	19379.6
698.577	19398.81
698.923	19242.43
699.269	19150
699.614	19068.88
699.96	19010.12
700.306	18995.21
700.651	18969.67
700.997	18868.2
701.342	18867.98
701.688	18731.71
702.033	18753.18
702.379	18690.58
702.724	18616.01
703.069	18677.02
703.415	18370.59
703.76	18452.17
704.105	18408.1
704.45	18430.48
704.795	18240.65
705.14	18180.54
705.485	18183.48
705.83	18125.17
706.175	18160.2
706.52	18071.16
706.865	18002.92
707.209	17911.17
707.554	17821.68
707.899	17999.98
708.243	17744.17
708.588	17738.06
708.932	17681.79
709.277	17567
709.621	17653.32
709.966	17534.45
710.31	17562.7
710.654	17372.2
710.998	17424.4
711.342	17375.81
711.687	17310.96
712.031	17269.6
712.375	17065.54
712.719	17152.54
713.063	17175.14
713.407	17175.59
713.75	17082.26
714.094	17055.37
714.438	17038.65
714.782	17075.48
715.125	17004.07
715.469	16987.58
715.812	16971.31
716.156	16827.35
716.499	16813.8
716.843	16835.94
717.186	16763.4
717.53	16838.2
717.873	16753.91
718.216	16756.4
718.559	16636.4
718.902	16639.11
719.246	16632.33
719.589	16382.85
719.932	16469.62
720.275	16441.15
720.617	16487.48
720.96	16494.93
721.303	16413.58
721.646	16385.33
721.989	16296.29
722.331	16403.41
722.674	16339.91
723.016	16392.11
723.359	16387.82
723.701	16321.15
724.044	16173.13
724.386	16140.59
724.729	16171.78
725.071	16215.39
725.413	16150.99
725.755	16194.83
726.097	16101.72
726.439	16100.14
726.782	16102.63
727.124	16182.4
727.465	16107.37
727.807	16041.84
728.149	15974.27
728.491	16060.37
728.833	16020.14
729.175	15881.39
729.516	15942.63
729.858	15978.79
730.199	15936.76
730.541	15880.03
730.882	15967.04
731.224	16024.44
731.565	15898.34
731.906	15887.27
732.248	15948.51
732.589	15822.86
732.93	15781.96
733.271	15838.45
733.612	15939.47
733.953	15835.97
734.294	15757.55
734.635	15824.22
734.976	15825.35
735.317	15717.1
735.658	15746.03
735.999	15828.96
736.339	15786.48
736.68	15840.04
737.021	15803.88
737.361	15708.06
737.702	15826.48
738.042	15831.9
738.383	15711.45
738.723	15829.41
739.063	15779.02
739.404	15880.26
739.744	15850.66
740.084	15843.43
740.424	15841.17
740.764	15841.84
741.104	15972.24
741.444	15824.67
741.784	15847.49
742.124	15861.5
742.464	15898.79
742.804	15923.65
743.143	15851.56
743.483	15896.31
743.823	15869.87
744.162	15908.96
744.502	16004.55
744.841	15906.02
745.181	16035.51
745.52	15999.35
745.86	16053.36
746.199	16052.91
746.538	16042.29
746.877	16162.74
747.216	16154.38
747.556	16301.49
747.895	16288.84
748.234	16297.42
748.573	16277.76
748.911	16371.09
749.25	16459.68
749.589	16562.05
749.928	16580.13
750.267	16763.4
750.605	16696.74
750.944	16686.11
751.283	16733.8
751.621	16984.64
751.96	16924.75
752.298	17150.51
752.636	17232.32
752.975	17143.05
753.313	17358.41
753.651	17455.36
753.989	17482.7
754.327	17530.16
754.666	17576.49
755.004	17805.18
755.342	17855.12
755.679	17933.09
756.017	18074.1
756.355	18215.79
756.693	18249.24
757.031	18410.14
757.368	18478.16
757.706	18590.92
758.044	18636.12
758.381	18809.45
758.719	18884.93
759.056	18960.63
759.394	19080.4
759.731	19059.16
760.068	19144.13
760.405	19301.41
760.743	19457.34
761.08	19542.54
761.417	19644.23
761.754	19683.32
762.091	19859.59
762.428	19871.12
762.765	19948.18
763.102	20115.4
763.438	20112.24
763.775	20154.27
764.112	20210.54
764.449	20427.49
764.785	20417.09
765.122	20442.17
765.458	20456.64
765.795	20644.65
766.131	20746.12
766.467	20791.09
766.804	20773.69
767.14	20731.66
767.476	20828.6
767.812	20824.54
768.148	20860.24
768.485	20846.46
768.821	20901.15
769.157	20939.79
769.492	21079.22
769.828	21196.96
770.164	20984.98
770.5	21050.97
770.836	21098.65
771.171	20955.61
771.507	21069.73
771.842	20996.96
772.178	21113.12
772.513	21039.45
772.849	21140.24
773.184	21019.56
773.519	21158.77
773.855	21141.82
774.19	21088.26
774.525	20970.52
774.86	21053.23
775.195	21002.84
775.53	21066.11
775.865	20951.77
776.2	20972.1
776.535	20834.03
776.87	20797.87
777.205	20888.49
777.539	20752.22
777.874	20877.19
778.209	20666.58
778.543	20606.24
778.878	20559.46
779.212	20666.35
779.547	20645.33
779.881	20552
780.215	20611.66
780.55	20560.14
780.884	20429.07
781.218	20493.47
781.552	20450.76
781.886	20265.23
782.22	20226.59
782.554	20199.02
782.888	20089.87
783.222	20148.62
783.556	20013.26
783.889	20075.86
784.223	19881.51
784.557	19938.23
784.89	19918.35
785.224	19814.62
785.557	19762.42
785.891	19660.73
786.224	19653.04
786.558	19740.05
786.891	19483.33
787.224	19399.26
787.557	19439.26
787.891	19422.31
788.224	19305.93
788.557	19268.19
788.89	19356.55
789.223	19312.03
789.556	19203.11
789.888	19046.5
790.221	19198.37
790.554	18916.56
790.887	18947.07
791.219	18874.76
791.552	18856.68
791.884	18769.9
792.217	18815.32
792.549	18656.46
792.882	18507.76
793.214	18485.16
793.546	18596.57
793.879	18335.79
794.211	18360.65
794.543	18349.35
794.875	18336.24
795.207	18305.73
795.539	18260.31
795.871	18258.5
796.203	18009.02
796.535	18127.88
796.867	17908.91
797.198	17922.92
797.53	17940.77
797.862	17654
798.193	17750.27
798.525	17751.17
798.856	17694.45
799.188	17536.49
799.519	17549.82
799.85	17408.13
800.182	17500.33
800.513	17439.09
800.844	17195.48
801.175	17415.59
801.506	17390.73
801.837	17254.91
802.168	17223.28
802.499	17218.08
802.83	17120.23
803.161	17060.12
803.491	17025.09
803.822	17117.52
804.153	16872.32
804.483	16799.11
804.814	16756.85
805.145	16754.59
805.475	16722.95
805.805	16712.78
806.136	16672.1
806.466	16703.52
806.796	16578.55
807.126	16490.87
807.457	16433.24
807.787	16429.62
808.117	16343.53
808.447	16227.37
808.777	16383.98
809.107	16238.67
809.436	16244.09
809.766	16112.8
810.096	16196.41
810.426	15970.88
810.755	16021.95
811.085	15915.29
811.414	16020.37
811.744	15894.95
812.073	15856.08
812.403	15846.36
812.732	15833.71
813.061	15848.62
813.39	15749.19
813.719	15587.16
814.049	15709.19
814.378	15564.11
814.707	15604.34
815.036	15621.74
815.365	15555.07
815.693	15389.43
816.022	15367.96
816.351	15337.22
816.68	15332.25
817.008	15253.61
817.337	15206.83
817.665	15162.09
817.994	15254.51
818.322	15179.49
818.651	15067.17
818.979	15095.42
819.307	15086.38
819.636	15010
819.964	14891.36
820.292	15011.58
820.62	15049.32
820.948	14867.41
821.276	14965.93
821.604	14913.51
821.932	14889.78
822.259	14957.35
822.587	14925.94
822.915	14884.58
823.243	14889.1
823.57	14964.35
823.898	14830.8
824.225	14804.81
824.553	14789.67
824.88	14833.51
825.207	14857.69
825.535	14847.97
825.862	14877.57
826.189	14766.39
826.516	14850.91
826.843	14869.21
827.17	14996.67
827.497	14890.91
827.824	15003.67
828.151	14918.7
828.478	14830.12
828.805	14999.38
829.131	14857.01
829.458	14779.5
829.785	14852.49
830.111	14873.28
830.438	14904.24
830.764	14793.96
831.09	14836.9
831.417	14757.58
831.743	14857.01
832.069	14891.59
832.395	14821.53
832.722	14807.07
833.048	14778.37
833.374	14748.76
833.7	14650.01
834.026	14688.43
834.351	14821.76
834.677	14697.92
835.003	14681.2
835.329	14647.75
835.654	14679.84
835.98	14561.43
836.306	14652.72
836.631	14617.24
836.956	14592.38
837.282	14591.03
837.607	14573.4
837.932	14478.26
838.258	14494.08
838.583	14545.61
838.908	14444.37
839.233	14402.11
839.558	14348.55
839.883	14322.34
840.208	14238.72
840.533	14274.65
840.858	14332.73
841.182	14238.5
841.507	14285.27
841.832	14248.89
842.156	14076.24
842.481	14107.88
842.805	14113.3
843.13	14106.97
843.454	14060.87
843.778	13977.94
844.103	13952.63
844.427	13894.78
844.751	13960.99
845.075	13932.29
845.399	13835.12
845.723	13754.21
846.047	13824.95
846.371	13699.53
846.695	13748.57
847.019	13618.85
847.343	13495.69
847.666	13515.58
847.99	13415.47
848.313	13432.87
848.637	13357.84
848.96	13295.92
849.284	13256.37
849.607	13123.72
849.931	13064.29
850.254	12987.91
850.577	12904.75
850.9	12864.75
851.223	12879.21
851.546	12806.89
851.869	12660.46
852.192	12858.19
852.515	12660.23
852.838	12589.5
853.161	12613
853.483	12563.51
853.806	12532.1
854.129	12459.11
854.451	12389.96
854.774	12401.03
855.096	12331.65
855.419	12353.8
855.741	12219.11
856.063	12197.19
856.385	12149.74
856.708	12127.82
857.03	12102.28
857.352	12064.99
857.674	11994.26
857.996	12018.67
858.318	11883.98
858.64	11954.94
858.961	11914.04
859.283	11871.33
859.605	11801.72
859.926	11803.76
860.248	11798.56
860.57	11701.16
860.891	11659.13
861.212	11709.97
861.534	11581.39
861.855	11654.16
862.176	11675.4
862.498	11575.97
862.819	11573.48
863.14	11542.75
863.461	11486.7
863.782	11526.7
864.103	11490.55
864.424	11432.92
864.745	11498.91
865.065	11491
865.386	11322.64
865.707	11362.64
866.027	11408.06
866.348	11296.2
866.668	11274.96
866.989	11251.46
867.309	11202.64
867.63	11196.54
867.95	11197.22
868.27	11137.56
868.59	11171.91
868.91	11136.66
869.23	11120.61
869.55	11014.63
869.87	11100.27
870.19	11082.19
870.51	11056.88
870.83	11099.37
871.15	10984.57
871.469	10985.7
871.789	10900.5
872.109	10980.28
872.428	10937.79
872.748	10995.87
873.067	10898.7
873.386	10937.57
873.706	10960.84
874.025	10892.37
874.344	10791.35
874.663	10891.47
874.982	10841.07
875.301	10787.29
875.62	10780.28
875.939	10742.09
876.258	10720.17
876.577	10646.73
876.896	10681.75
877.214	10656.22
877.533	10718.81
877.852	10706.39
878.17	10595.65
878.489	10661.87
878.807	10652.15
879.125	10646.95
879.444	10550.01
879.762	10542.32
880.08	10561.08
880.398	10495.09
880.716	10520.4
881.034	10536.45
881.352	10454.41
881.67	10460.74
881.988	10475.66
882.306	10408.09
882.624	10378.26
882.941	10342.1
883.259	10275.89
883.577	10246.96
883.894	10308.43
884.212	10254.65
884.529	10200.86
884.846	10223.46
885.164	10188.88
885.481	10117.02
885.798	10171.71
886.115	10074.76
886.432	10036.8
886.75	10016.69
887.067	9991.38
887.383	9987.99
887.7	9979.4
888.017	9959.96
888.334	9985.95
888.651	9878.84
888.967	9861.44
889.284	9793.19
889.6	9840.65
889.917	9692.4
890.233	9738.95
890.55	9740.31
890.866	9744.38
891.182	9695.34
891.498	9634.77
891.815	9595.45
892.131	9571.27
892.447	9597.04
892.763	9527.89
893.079	9438.85
893.395	9469.13
893.71	9415.12
894.026	9436.14
894.342	9380.77
894.657	9367.44
894.973	9258.97
895.289	9295.57
895.604	9218.74
895.92	9205.86
896.235	9193.43
896.55	9179.87
896.865	9135.35
897.181	9128.57
897.496	9105.07
897.811	9063.49
898.126	9016.26
898.441	9024.85
898.756	8957.5
899.071	8971.52
899.386	8921.8
899.7	8844.51
900.015	8808.13
900.33	8722.71
900.644	8718.87
900.959	8729.94
901.273	8706.66
901.588	8674.12
901.902	8599.32
902.216	8607.68
902.531	8526.56
902.845	8556.16
903.159	8510.74
903.473	8430.29
903.787	8422.15
904.101	8433.22
904.415	8399.78
904.729	8367.01
905.042	8234.81
905.356	8238.43
905.67	8277.3
905.984	8283.4
906.297	8174.47
906.611	8128.83
906.924	8132.67
907.237	8136.74
907.551	8147.81
907.864	8033.46
908.177	7998.43
908.491	7926.35
908.804	7986.46
909.117	7909.17
909.43	7842.51
909.743	7905.33
910.056	7841.15
910.368	7778.55
910.681	7752.56
910.994	7831.66
911.307	7708.27
911.619	7659.69
911.932	7621.72
912.244	7647.93
912.557	7615.17
912.869	7481.84
913.181	7461.05
913.494	7407.71
913.806	7463.76
914.118	7383.76
914.43	7318.45
914.742	7302.41
915.054	7310.77
915.366	7310.32
915.678	7293.59
915.99	7221.05
916.302	7179.92
916.613	7132.92
916.925	7152.81
917.236	7155.07
917.548	7040.04
917.859	7070.32
918.171	6990.1
918.482	6982.87
918.794	6953.94
919.105	6942.19
919.416	6886.6
919.727	6858.12
920.038	6889.76
920.349	6768.86
920.66	6764.79
920.971	6782.42
921.282	6728.86
921.593	6690.22
921.903	6670.56
922.214	6642.31
922.525	6630.33
922.835	6550.34
923.146	6535.42
923.456	6599.6
923.767	6498.59
924.077	6469.21
924.387	6488.42
924.697	6386.27
925.008	6389.21
925.318	6352.38
925.628	6358.25
925.938	6307.86
926.248	6287.97
926.558	6207.52
926.867	6245.03
927.177	6178.37
927.487	6128.65
927.796	6179.27
928.106	6189.22
928.416	6085.94
928.725	6062.21
929.034	6031.93
929.344	5990.8
929.653	6038.94
929.962	5956.91
930.271	5931.82
930.581	5952.84
930.89	5900.41
931.199	5922.33
931.508	5861.99
931.817	5889.79
932.125	5803.01
932.434	5807.98
932.743	5761.88
933.051	5702.45
933.36	5726.4
933.669	5693.64
933.977	5655.44
934.286	5631.94
934.594	5590.36
934.902	5532.28
935.21	5571.83
935.519	5534.54
935.827	5565.73
936.135	5449.8
936.443	5433.98
936.751	5413.87
937.059	5440.76
937.367	5429.01
937.674	5454.55
937.982	5429.69
938.29	5298.62
938.597	5327.32
938.905	5245.74
939.213	5237.38
939.52	5242.57
939.827	5226.53
940.135	5203.03
940.442	5117.83
940.749	5185.63
941.056	5166.64
941.363	5093.65
941.67	5081.9
941.977	5059.98
942.284	5001.9
942.591	4996.25
942.898	4982.69
943.205	5006.87
943.511	4948.34
943.818	4949.7
944.125	4883.71
944.431	4885.07
944.738	4899.31
945.044	4882.13
945.35	4857.73
945.657	4831.74
945.963	4786.77
946.269	4734.34
946.575	4753.77
946.881	4720.55
947.187	4705.19
947.493	4645.75
947.799	4665.64
948.105	4643.04
948.41	4596.49
948.716	4609.37
949.022	4604.4
949.327	4556.26
949.633	4523.04
949.938	4508.58
950.244	4495.93
950.549	4469.26
950.854	4468.58
951.16	4446.21
951.465	4433.33
951.77	4395.82
952.075	4371.86
952.38	4364.18
952.685	4403.27
952.99	4321.02
953.294	4296.84
953.599	4296.38
953.904	4305.42
954.209	4231.53
954.513	4215.03
954.818	4214.58
955.122	4211.19
955.426	4135.48
955.731	4166.67
956.035	4116.28
956.339	4120.8
956.643	4146.56
956.948	4085.32
957.252	4099.55
957.556	4083.51
957.86	4059.33
958.163	4013.91
958.467	4008.71
958.771	4012.55
959.075	3945.88
959.378	3961.48
959.682	3982.27
959.985	3924.19
960.289	3913.57
960.592	3905.43
960.896	3843.51
961.199	3817.07
961.502	3803.97
961.805	3832.44
962.108	3791.76
962.411	3808.49
962.714	3783.18
963.017	3746.79
963.32	3727.81
963.623	3743.18
963.926	3695.04
964.228	3676.29
964.531	3652.33
964.833	3709.73
965.136	3606.23
965.438	3605.33
965.741	3569.62
966.043	3571.88
966.345	3556.29
966.648	3575.27
966.95	3532.34
967.252	3506.57
967.554	3510.42
967.856	3512.22
968.158	3461.6
968.46	3490.08
968.761	3425.22
969.063	3424.77
969.365	3424.32
969.666	3382.96
969.968	3348.16
970.269	3365.34
970.571	3321.95
970.872	3364.21
971.174	3316.75
971.475	3304.77
971.776	3274.26
972.077	3286.02
972.378	3283.3
972.679	3270.65
972.98	3236.07
973.281	3246.47
973.582	3232.46
973.883	3175.28
974.183	3186.81
974.484	3176.41
974.785	3157.43
975.085	3099.35
975.386	3138.9
975.686	3086.02
975.986	3134.83
976.287	3077.89
976.587	3031.33
976.887	3050.77
977.187	3034.72
977.487	3017.77
977.787	2985.68
978.087	2986.81
978.387	2996.31
978.687	2993.59
978.987	2952.69
979.286	2945.23
979.586	2968.06
979.885	2890.77
980.185	2923.76
980.484	2908.4
980.784	2885.57
981.083	2881.96
981.382	2895.74
981.682	2848.29
981.981	2829.98
982.28	2834.5
982.579	2845.57
982.878	2774.84
983.177	2801.06
983.475	2799.25
983.774	2787.27
984.073	2710.66
984.372	2713.83
984.67	2706.14
984.969	2739.36
985.267	2739.36
985.566	2653.04
985.864	2648.29
986.162	2665.69
986.461	2627.05
986.759	2645.81
987.057	2589.99
987.355	2612.36
987.653	2587.95
987.951	2584.56
988.249	2573.94
988.547	2570.55
988.844	2519.26
989.142	2535.3
989.44	2522.19
989.737	2533.04
990.035	2498.92
990.332	2490.33
990.63	2473.38
990.927	2465.25
991.224	2445.13
991.521	2456.43
991.819	2441.07
992.116	2446.49
992.413	2446.49
992.71	2409.2
993.006	2425.25
993.303	2384.12
993.6	2388.19
993.897	2359.71
994.193	2368.53
994.49	2367.17
994.787	2357.23
995.083	2278.81
995.379	2294.63
995.676	2311.35
995.972	2271.8
996.268	2275.19
996.565	2254.86
996.861	2233.16
997.157	2226.16
997.453	2243.1
997.749	2254.63
998.044	2175.76
998.34	2188.42
998.636	2166.95
998.932	2161.07
999.227	2158.14
999.523	2146.61
999.818	2140.73
1000.114	2125.14
1000.409	2101.41
1000.704	2074.52
1001	2098.48
1001.295	2087.18
1001.59	2075.88
1001.885	2049.66
1002.18	2060.96
1002.475	2028.87
1002.77	2044.01
1003.065	2006.95
1003.359	2000.85
1003.654	1989.1
1003.949	2000.63
1004.243	1958.82
1004.538	1977.8
1004.832	1954.07
1005.127	1967.63
1005.421	1912.72
1005.715	1909.33
1006.009	1898.48
1006.304	1892.15
1006.598	1887.63
1006.892	1873.17
1007.186	1875.66
1007.48	1868.2
1007.773	1849.89
1008.067	1831.14
1008.361	1813.06
1008.655	1796.79
1008.948	1789.56
1009.242	1807.41
1009.535	1787.07
1009.829	1766.06
1010.122	1755.89
1010.415	1751.59
1010.708	1735.77
1011.001	1728.54
1011.295	1707.3
1011.588	1682.22
1011.881	1679.73
1012.173	1696.45
1012.466	1681.54
1012.759	1655.55
1013.052	1674.76
1013.344	1653.06
1013.637	1660.97
1013.93	1625.49
1014.222	1617.13
1014.514	1638.83
1014.807	1594.31
1015.099	1590.92
1015.391	1587.98
1015.683	1592.27
1015.976	1563.8
1016.268	1510.24
1016.56	1536.91
1016.851	1526.29
1017.143	1541.88
1017.435	1507.76
1017.727	1487.19
1018.018	1514.54
1018.31	1504.37
1018.602	1499.85
1018.893	1458.94
1019.185	1472.05
1019.476	1496.23
1019.767	1458.27
1020.058	1422.56
1020.35	1417.14
1020.641	1387.53
1020.932	1399.51
1021.223	1404.93
1021.514	1377.82
1021.804	1389.79
1022.095	1373.07
1022.386	1379.17
1022.677	1353.41
1022.967	1378.04
1023.258	1348.89
1023.548	1285.16
1023.839	1294.88
1024.129	1322.45
1024.419	1307.99
1024.709	1289.01
1025	1291.49
1025.29	1257.14
1025.58	1255.11
1025.87	1258.5
1026.16	1251.94
1026.449	1244.71
1026.739	1233.64
1027.029	1222.57
1027.319	1229.12
1027.608	1231.38
1027.898	1226.18
1028.187	1211.72
1028.477	1193.64
1028.766	1160.42
1029.055	1156.13
1029.344	1161.78
1029.634	1150.48
1029.923	1164.49
1030.212	1131.95
1030.501	1147.54
1030.79	1133.53
1031.078	1124.26
1031.367	1105.06
1031.656	1085.17
1031.945	1085.85
1032.233	1107.99
1032.522	1067.99
1032.81	1086.75
1033.099	1060.54
1033.387	1079.07
1033.675	1033.65
1033.963	1029.8
1034.251	1063.7
1034.54	1061.22
1034.828	1049.46
1035.116	1003.82
1035.403	1023.93
1035.691	1012.85
1035.979	1003.59
1036.267	979.41
1036.554	1012.63
1036.842	972.18
1037.129	991.16
1037.417	968.79
1037.704	958.39
1037.992	974.66
1038.279	943.03
1038.566	947.32
1038.853	947.32
1039.14	947.32
