Data from hue_260_FLMS001491_00046.txt Node
Date: Tue Feb 07 15:59:03 GMT 2017
User: dcchb
Spectrometer: FLMS00149
Trigger mode: 0
Integration Time (sec): 2.000000E-2
Scans to average: 10
Electric dark correction enabled: true
Nonlinearity correction enabled: false
Boxcar width: 0
XAxis mode: Wavelengths
Number of Pixels in Spectrum: 2048
>>>>>Begin Spectral Data<<<<<
341.393	-7.32
341.776	-7.32
342.16	-7.32
342.543	-46.86
342.927	-72.63
343.31	-67.2
343.693	-68.33
344.077	-47.32
344.46	-51.83
344.843	-43.93
345.226	-38.73
345.61	-45.96
345.993	-21.33
346.376	7.37
346.759	15.73
347.142	25.68
347.525	25.23
347.908	58.67
348.291	66.13
348.674	86.69
349.057	99.12
349.44	130.08
349.823	123.98
350.206	169.63
350.588	210.76
350.971	210.76
351.354	232.23
351.737	223.64
352.119	230.19
352.502	253.47
352.884	264.32
353.267	288.72
353.65	285.56
354.032	277.87
354.414	300.02
354.797	301.83
355.179	311.55
355.562	324.88
355.944	315.16
356.326	313.58
356.709	296.18
357.091	329.4
357.473	334.6
357.855	316.97
358.238	335.05
358.62	340.7
359.002	299.34
359.384	336.18
359.766	331.88
360.148	307.48
360.53	335.27
360.912	322.62
361.294	313.13
361.676	343.64
362.057	316.74
362.439	334.37
362.821	328.04
363.203	327.14
363.584	329.17
363.966	322.62
364.348	308.38
364.729	310.19
365.111	298.89
365.493	320.13
365.874	297.53
366.256	304.99
366.637	310.64
367.019	306.12
367.4	317.2
367.781	320.13
368.163	317.87
368.544	303.18
368.925	311.77
369.306	310.19
369.688	298.89
370.069	297.53
370.45	317.2
370.831	315.39
371.212	297.53
371.593	314.03
371.974	304.77
372.355	322.17
372.736	305.67
373.117	289.63
373.498	297.99
373.879	286.46
374.26	324.43
374.641	324.2
375.021	304.09
375.402	304.09
375.783	326.69
376.163	329.4
376.544	311.77
376.925	311.77
377.305	304.77
377.686	322.17
378.066	308.38
378.447	334.14
378.827	340.02
379.208	312.45
379.588	313.13
379.968	319.91
380.349	336.86
380.729	329.62
381.109	322.39
381.489	337.76
381.87	335.05
382.25	338.21
382.63	332.11
383.01	328.04
383.39	336.18
383.77	320.36
384.15	332.34
384.53	352
384.91	313.58
385.29	343.86
385.67	355.84
386.049	344.31
386.429	346.35
386.809	328.04
387.189	354.03
387.568	348.83
387.948	355.39
388.328	340.02
388.707	349.74
389.087	354.03
389.466	351.32
389.846	361.04
390.225	365.56
390.605	354.71
390.984	373.01
391.363	354.48
391.743	366.23
392.122	359.23
392.501	373.92
392.881	373.24
393.26	365.56
393.639	369.4
394.018	382.5
394.397	365.1
394.776	383.41
395.155	375.27
395.534	392.9
395.913	369.4
396.292	378.44
396.671	402.62
397.05	384.09
397.429	396.74
397.808	385.89
398.186	389.51
398.565	403.75
398.944	398.32
399.323	406.46
399.701	382.5
400.08	388.38
400.458	413.69
400.837	408.49
401.215	408.72
401.594	408.04
401.972	414.37
402.351	411.43
402.729	419.79
403.107	407.59
403.486	436.97
403.864	434.93
404.242	431.54
404.62	431.54
404.999	429.96
405.377	444.42
405.755	426.8
406.133	429.73
406.511	450.52
406.889	448.94
407.267	452.56
407.645	460.69
408.023	475.38
408.401	463.63
408.779	492.11
409.156	481.94
409.534	489.85
409.912	483.74
410.29	513.8
410.667	504.31
411.045	514.25
411.422	522.84
411.8	505.44
412.178	535.72
412.555	525.55
412.933	564.42
413.31	539.11
413.687	554.7
414.065	539.34
414.442	575.49
414.819	579.11
415.197	573.91
415.574	596.28
415.951	617.07
416.328	603.52
416.705	615.72
417.082	602.61
417.46	600.35
417.837	642.61
418.214	635.6
418.591	655.04
418.967	643.06
419.344	652.78
419.721	676.96
420.098	678.54
420.475	680.35
420.852	685.09
421.228	685.32
421.605	712.44
421.982	725.09
422.358	718.77
422.735	726.9
423.111	739.78
423.488	759.9
423.864	752.89
424.241	782.27
424.617	793.34
424.994	787.69
425.37	803.06
425.746	819.78
426.123	816.84
426.499	850.06
426.875	846.9
427.251	876.73
427.627	868.59
428.003	889.16
428.379	888.71
428.756	888.93
429.132	911.98
429.507	916.95
429.883	905.2
430.259	955.14
430.635	948.59
431.011	941.81
431.387	954.24
431.763	983.39
432.138	1004.86
432.514	1020.45
432.89	1018.19
433.265	1061.13
433.641	1057.06
434.016	1070.85
434.392	1092.54
434.767	1105.87
435.143	1131.64
435.518	1117.85
435.894	1182.71
436.269	1145.87
436.644	1196.95
437.02	1210.28
437.395	1221.8
437.77	1237.62
438.145	1245.53
438.52	1286.89
438.895	1278.07
439.271	1272.2
439.646	1288.92
440.021	1308.36
440.395	1344.29
440.77	1328.47
441.145	1325.98
441.52	1397.17
441.895	1406.88
442.27	1433.32
442.645	1396.71
443.019	1414.12
443.394	1453.21
443.769	1439.88
444.143	1445.75
444.518	1490.72
444.892	1460.22
445.267	1470.16
445.641	1507.67
446.016	1550.16
446.39	1522.14
446.764	1531.63
447.139	1525.07
447.513	1558.29
447.887	1553.09
448.262	1577.27
448.636	1587.9
449.01	1607.33
449.384	1618.4
449.758	1626.09
450.132	1637.61
450.506	1674.22
450.88	1672.19
451.254	1645.07
451.628	1674.45
452.002	1691.4
452.376	1716.48
452.75	1721
453.123	1738.17
453.497	1768.91
453.871	1764.16
454.244	1823.14
454.618	1805.97
454.992	1819.98
455.365	1821.56
455.739	1914.89
456.112	1890.71
456.486	1900.2
456.859	1934.1
457.232	1964.61
457.606	1949.69
457.979	1958.96
458.352	2022.46
458.725	2021.33
459.099	2055
459.472	2077.83
459.845	2103.59
460.218	2108.11
460.591	2133.64
460.964	2102.91
461.337	2155.11
461.71	2227.2
462.083	2261.32
462.456	2278.27
462.829	2258.39
463.201	2276.24
463.574	2281.66
463.947	2271.04
464.32	2371.6
464.692	2372.73
465.065	2418.16
465.438	2423.58
465.81	2464.26
466.183	2496.57
466.555	2546.29
466.928	2527.98
467.3	2528.44
467.672	2556.01
468.045	2617.25
468.417	2623.35
468.789	2638.72
469.161	2645.95
469.534	2722.1
469.906	2777.7
470.278	2779.73
470.65	2809.11
471.022	2860.41
471.394	2898.37
471.766	2913.96
472.138	2967.52
472.51	3004.13
472.882	3009.78
473.253	3067.63
473.625	3079.16
473.997	3189.66
474.369	3184.24
474.74	3209.1
475.112	3277.57
475.484	3313.95
475.855	3344.69
476.227	3387.62
476.598	3475.08
476.97	3468.3
477.341	3550.33
477.713	3549.43
478.084	3596.43
478.455	3700.61
478.827	3713.49
479.198	3812.24
479.569	3800.72
479.94	3943.31
480.311	3900.83
480.682	3993.03
481.053	4060.37
481.424	4134.27
481.795	4155.74
482.166	4187.38
482.537	4252.91
482.908	4343.98
483.279	4349.41
483.65	4415.62
484.021	4531.77
484.391	4544.65
484.762	4518.44
485.133	4623.75
485.503	4664.65
485.874	4779.22
486.244	4826.23
486.615	4829.39
486.985	4894.7
487.356	4931.54
487.726	4996.17
488.097	5061.25
488.467	5096.73
488.837	5221.25
489.207	5212.43
489.578	5301.7
489.948	5386.89
490.318	5404.52
490.688	5417.4
491.058	5500.11
491.428	5546.66
491.798	5547.34
492.168	5670.5
492.538	5695.58
492.908	5726.54
493.278	5854
493.648	5755.92
494.017	5814.45
494.387	5865.07
494.757	5930.83
495.126	6009.02
495.496	5989.81
495.866	6064.84
496.235	6136.03
496.605	6144.16
496.974	6165.18
497.344	6188.45
497.713	6214.22
498.082	6274.78
498.452	6320.65
498.821	6352.74
499.19	6326.75
499.559	6399.52
499.928	6406.75
500.298	6440.88
500.667	6475.45
501.036	6450.14
501.405	6467.09
501.774	6522.91
502.143	6555.9
502.512	6586.18
502.88	6636.58
503.249	6616.92
503.618	6674.54
503.987	6664.37
504.356	6718.83
504.724	6760.19
505.093	6755.9
505.462	6768.55
505.83	6804.26
506.199	6842
506.567	6898.49
506.936	6868.21
507.304	6887.42
507.672	6985.72
508.041	6923.8
508.409	7001.54
508.777	7035.66
509.145	7074.08
509.514	7073.63
509.882	7092.61
510.25	7140.07
510.618	7102.33
510.986	7116.34
511.354	7145.94
511.722	7204.02
512.09	7178.26
512.458	7209.44
512.826	7205.83
513.193	7255.09
513.561	7309.1
513.929	7274.53
514.297	7438.59
514.664	7359.5
515.032	7322.43
515.4	7394.3
515.767	7390
516.135	7440.17
516.502	7354.07
516.869	7506.38
517.237	7485.14
517.604	7417.8
517.972	7492.15
518.339	7518.36
518.706	7524.46
519.073	7565.59
519.44	7496.22
519.808	7573.95
520.175	7543.22
520.542	7620.28
520.909	7592.94
521.276	7588.87
521.643	7622.99
522.009	7632.71
522.376	7700.05
522.743	7699.83
523.11	7705.48
523.477	7765.13
523.843	7774.4
524.21	7810.11
524.577	7825.25
524.943	7822.76
525.31	7878.35
525.676	7870.44
526.043	7871.12
526.409	7900.05
526.776	7897.56
527.142	7898.24
527.508	7935.53
527.874	8017.11
528.241	7949.76
528.607	7975.98
528.973	8006.48
529.339	8002.42
529.705	8030.44
530.071	8038.57
530.437	8085.58
530.803	8118.12
531.169	8074.28
531.535	8072.92
531.901	8006.48
532.267	8007.16
532.632	8117.22
532.998	8091.91
533.364	8035.86
533.73	8029.53
534.095	8100.04
534.461	8094.62
534.826	8144.79
535.192	8097.33
535.557	8116.54
535.923	8080.38
536.288	8140.27
536.653	8121.06
537.019	8011.68
537.384	8002.64
537.749	8132.36
538.114	8029.08
538.479	8039.48
538.845	8020.04
539.21	8031.79
539.575	8040.83
539.94	7974.85
540.305	8062.3
540.67	8038.57
541.034	8013.26
541.399	7986.82
541.764	7984.34
542.129	7993.83
542.494	7982.53
542.858	7977.11
543.223	7970.33
543.587	7976.88
543.952	7971.91
544.316	7949.54
544.681	7949.99
545.045	7943.66
545.41	7967.84
545.774	7916.54
546.138	7891.01
546.503	7871.57
546.867	7868.41
547.231	7912.48
547.595	7877.67
547.959	7858.24
548.324	7887.84
548.688	7876.77
549.052	7830.22
549.416	7801.74
549.779	7806.26
550.143	7837.9
550.507	7830.44
550.871	7804
551.235	7796.32
551.599	7835.87
551.962	7814.17
552.326	7801.29
552.689	7854.4
553.053	7743.21
553.417	7760.84
553.78	7863.66
554.143	7822.76
554.507	7804.46
554.87	7764.91
555.234	7833.16
555.597	7735.08
555.96	7803.33
556.323	7785.7
556.686	7789.09
557.05	7805.81
557.413	7816.88
557.776	7748.86
558.139	7787.73
558.502	7889.65
558.865	7830.22
559.228	7835.19
559.59	7835.19
559.953	7811.91
560.316	7861.4
560.679	7906.6
561.041	7947.73
561.404	7832.7
561.767	7951.12
562.129	7835.19
562.492	7945.24
562.854	7949.31
563.217	7897.56
563.579	7934.4
563.941	7921.97
564.304	8023.21
564.666	8003.55
565.028	7980.04
565.39	8007.39
565.753	8078.35
566.115	8080.61
566.477	8068.4
566.839	8118.57
567.201	8148.4
567.563	8085.35
567.925	8158.57
568.287	8125.35
568.648	8188.63
569.01	8164.45
569.372	8183.88
569.734	8157.67
570.095	8255.07
570.457	8266.36
570.819	8320.6
571.18	8227.5
571.542	8340.49
571.903	8303.2
572.265	8398.79
572.626	8365.8
572.987	8338.45
573.349	8396.08
573.71	8421.16
574.071	8419.35
574.432	8398.79
574.794	8518.11
575.155	8509.97
575.516	8463.2
575.877	8494.83
576.238	8557.43
576.599	8567.6
576.96	8590.42
577.32	8579.35
577.681	8550.88
578.042	8621.84
578.403	8598.33
578.763	8617.77
579.124	8685.79
579.485	8700.7
579.845	8730.76
580.206	8673.59
580.566	8757.2
580.927	8763.07
581.287	8862.06
581.648	8751.55
582.008	8849.4
582.368	8850.3
582.728	8821.6
583.089	8862.73
583.449	8860.47
583.809	8904.31
584.169	8913.13
584.529	8816.41
584.889	9016.85
585.249	8930.53
585.609	8964.65
585.969	9013.69
586.329	8935.73
586.688	8988.15
587.048	8986.12
587.408	9043.52
587.768	8981.83
588.127	9023.86
588.487	9051.88
588.846	8996.97
589.206	9071.32
589.565	9066.12
589.925	9137.3
590.284	9085.78
590.643	9089.85
591.003	9127.58
591.362	9269.05
591.721	9102.05
592.08	9183.63
592.44	9156.96
592.799	9218.2
593.158	9219.79
593.517	9253.91
593.876	9305.89
594.235	9180.46
594.593	9255.27
594.952	9304.08
595.311	9229.73
595.67	9337.07
596.029	9365.77
596.387	9344.53
596.746	9323.74
597.104	9276.06
597.463	9310.63
597.822	9313.79
598.18	9323.51
598.538	9283.96
598.897	9368.03
599.255	9255.49
599.613	9393.11
599.972	9334.36
600.33	9385.43
600.688	9304.08
601.046	9385.43
601.404	9403.74
601.762	9365.54
602.12	9469.95
602.478	9430.63
602.836	9427.92
603.194	9400.8
603.552	9483.51
603.91	9376.62
604.268	9482.15
604.625	9452.1
604.983	9510.4
605.341	9487.12
605.698	9416.16
606.056	9444.19
606.413	9441.47
606.771	9501.13
607.128	9532.55
607.485	9517.63
607.843	9544.75
608.2	9495.03
608.557	9540.91
608.914	9524.18
609.272	9565.99
609.629	9545.43
609.986	9647.12
610.343	9536.16
610.7	9667.01
611.057	9647.12
611.414	9625.88
611.771	9599.44
612.127	9681.02
612.484	9602.6
612.841	9631.3
613.198	9662.94
613.554	9760.79
613.911	9693.9
614.267	9693.67
614.624	9685.99
614.98	9707.46
615.337	9794.23
615.693	9701.58
616.05	9682.82
616.406	9760.79
616.762	9728.25
617.118	9725.31
617.475	9728.47
617.831	9747.91
618.187	9819.77
618.543	9751.52
618.899	9875.81
619.255	9809.15
619.611	9810.5
619.967	9844.18
620.323	9847.11
620.678	9777.51
621.034	9797.62
621.39	9780
621.746	9861.12
622.101	9835.14
622.457	9870.62
622.812	9864.06
623.168	9818.64
623.523	9769.83
623.879	9893.67
624.234	9831.97
624.589	9902.03
624.945	9850.96
625.3	9817.28
625.655	9792.43
626.01	9849.15
626.365	9828.81
626.72	9899.77
627.075	9850.28
627.43	9827.68
627.785	9875.81
628.14	9776.83
628.495	9798.53
628.85	9769.6
629.205	9801.92
629.559	9841.46
629.914	9770.51
630.269	9744.97
630.623	9737.74
630.978	9684.86
631.332	9775.03
631.687	9731.41
632.041	9723.28
632.396	9780.22
632.75	9722.37
633.104	9683.05
633.459	9643.73
633.813	9673.33
634.167	9707.91
634.521	9627.01
634.875	9663.62
635.229	9640.11
635.583	9517.86
635.937	9634.24
636.291	9634.24
636.645	9648.48
636.999	9629.27
637.352	9552.21
637.706	9507.01
638.06	9570.74
638.413	9568.25
638.767	9581.36
639.121	9547.01
639.474	9507.01
639.828	9499.33
640.181	9519.44
640.534	9497.07
640.888	9484.86
641.241	9404.87
641.594	9423.62
641.947	9408.48
642.301	9482.6
642.654	9416.84
643.007	9452.77
643.36	9452.55
643.713	9394.92
644.066	9498.42
644.419	9385.43
644.771	9319.9
645.124	9302.5
645.477	9274.25
645.83	9189.5
646.182	9110.41
646.535	9029.06
646.888	9070.64
647.24	9056.63
647.593	9123.97
647.945	9046.46
648.298	9058.21
648.65	9074.93
649.002	8996.97
649.355	9061.6
649.707	9012.56
650.059	9096.63
650.411	9163.97
650.763	9213.68
651.115	9280.35
651.467	9260.01
651.819	9286.9
652.171	9269.5
652.523	9260.69
652.875	9234.7
653.227	9202.84
653.578	9297.52
653.93	9269.28
654.282	9249.16
654.633	9228.15
654.985	9250.75
655.337	9202.39
655.688	9236.06
656.039	9303.85
656.391	9188.6
656.742	9227.02
657.094	9193.57
657.445	9256.17
657.796	9257.3
658.147	9240.58
658.498	9189.28
658.849	9242.84
659.2	9279.45
659.551	9253.46
659.902	9240.8
660.253	9222.95
660.604	9308.82
660.955	9244.19
661.306	9293.91
661.656	9222.5
662.007	9256.85
662.358	9284.87
662.708	9276.06
663.059	9295.72
663.409	9188.15
663.76	9273.12
664.11	9248.71
664.461	9219.11
664.811	9224.08
665.161	9294.36
665.511	9243.51
665.862	9234.02
666.212	9317.18
666.562	9255.27
666.912	9242.61
667.262	9305.43
667.612	9282.16
667.962	9243.06
668.312	9244.64
668.662	9278.54
669.011	9169.84
669.361	9241.25
669.711	9238.99
670.06	9188.83
670.41	9184.98
670.76	9236.28
671.109	9254.36
671.459	9225.21
671.808	9215.04
672.157	9246.45
672.507	9146.12
672.856	9167.13
673.205	9178.43
673.554	9204.64
673.904	9180.92
674.253	9218.2
674.602	9160.8
674.951	9074.48
675.3	9034.03
675.649	9140.92
675.998	9111.77
676.346	9078.55
676.695	9123.29
677.044	9071.54
677.393	9129.39
677.741	9078.09
678.09	9098.66
678.438	9040.13
678.787	9083.52
679.135	9081.71
679.484	9025.21
679.832	9043.07
680.181	9052.33
680.529	8959.68
680.877	8974.82
681.225	8998.32
681.573	9040.36
681.922	8941.6
682.27	8887.82
682.618	8914.71
682.966	8868.61
683.314	8880.59
683.661	8824.32
684.009	8841.94
684.357	8759.46
684.705	8788.38
685.053	8796.75
685.4	8787.03
685.748	8776.18
686.095	8735.28
686.443	8726.47
686.79	8719.01
687.138	8644.66
687.485	8634.04
687.832	8629.74
688.18	8637.43
688.527	8593.14
688.874	8535.06
689.221	8572.12
689.568	8538.22
689.915	8470.88
690.262	8481.05
690.609	8458.68
690.956	8442.18
691.303	8433.59
691.65	8380.71
691.997	8327.83
692.344	8332.58
692.69	8294.84
693.037	8266.82
693.383	8203.99
693.73	8248.74
694.077	8212.58
694.423	8222.75
694.769	8127.39
695.116	8101.62
695.462	8121.06
695.808	8142.98
696.155	8110.21
696.501	8004
696.847	7979.59
697.193	7933.94
697.539	7938.24
697.885	7892.82
698.231	7825.25
698.577	7862.08
698.923	7830.67
699.269	7780.73
699.614	7758.81
699.96	7758.58
700.306	7710.9
700.651	7728.98
700.997	7605.36
701.342	7708.64
701.688	7653.5
702.033	7596.78
702.379	7553.84
702.724	7551.13
703.069	7559.49
703.415	7442.21
703.76	7471.36
704.105	7466.84
704.45	7470.23
704.795	7432.49
705.14	7387.07
705.485	7398.59
705.83	7322.89
706.175	7326.5
706.52	7317.91
706.865	7288.09
707.209	7264.13
707.554	7248.76
707.899	7275.88
708.243	7197.92
708.588	7136.45
708.932	7134.64
709.277	7133.29
709.621	7157.24
709.966	7087.41
710.31	7144.81
710.654	7001.54
710.998	7051.48
711.342	7068.88
711.687	6993.63
712.031	6971.48
712.375	6913.18
712.719	6997.47
713.063	6968.09
713.407	6970.81
713.75	6866.63
714.094	6922.9
714.438	6880.64
714.782	6901.43
715.125	6871.6
715.469	6907.76
715.812	6912.95
716.156	6777.36
716.499	6809
716.843	6857.14
717.186	6797.02
717.53	6809.45
717.873	6794.54
718.216	6716.35
718.559	6716.35
718.902	6720.19
719.246	6704.6
719.589	6698.04
719.932	6668.89
720.275	6677.03
720.617	6686.07
720.96	6666.18
721.303	6682.9
721.646	6716.57
721.989	6651.27
722.331	6646.07
722.674	6635.9
723.016	6664.15
723.359	6646.75
723.701	6634.54
724.044	6649.01
724.386	6577.6
724.729	6592.51
725.071	6606.75
725.413	6558.16
725.755	6597.03
726.097	6613.98
726.439	6572.62
726.782	6599.97
727.124	6596.58
727.465	6541.89
727.807	6554.77
728.149	6529.24
728.491	6501.44
728.833	6536.24
729.175	6489.91
729.516	6484.26
729.858	6449.24
730.199	6557.26
730.541	6473.64
730.882	6506.64
731.224	6528.11
731.565	6476.36
731.906	6533.53
732.248	6465.73
732.589	6475
732.93	6471.61
733.271	6503.25
733.612	6470.71
733.953	6519.07
734.294	6438.84
734.635	6457.37
734.976	6493.3
735.317	6526.75
735.658	6538.5
735.999	6461.89
736.339	6483.36
736.68	6544.38
737.021	6464.38
737.361	6482.23
737.702	6510.48
738.042	6512.96
738.383	6449.01
738.723	6456.47
739.063	6506.41
739.404	6531.49
739.744	6539.4
740.084	6496.47
740.424	6594.54
740.764	6522.68
741.104	6590.7
741.444	6543.02
741.784	6584.37
742.124	6569.91
742.464	6559.29
742.804	6599.74
743.143	6607.43
743.483	6604.26
743.823	6646.07
744.162	6603.58
744.502	6707.76
744.841	6658.5
745.181	6718.83
745.52	6724.03
745.86	6766.97
746.199	6758.38
746.538	6860.53
746.877	6868.66
747.216	6906.63
747.556	6893.75
747.895	6931.03
748.234	6925.83
748.573	6960.41
748.911	7043.35
749.25	7074.31
749.589	7088.99
749.928	7167.64
750.267	7192.95
750.605	7304.58
750.944	7307.52
751.283	7412.38
751.621	7510.9
751.96	7460.51
752.298	7596.33
752.636	7634.06
752.975	7736.66
753.313	7725.81
753.651	7838.13
753.989	7936.43
754.327	7979.82
754.666	8083.32
755.004	8189.3
755.342	8285.8
755.679	8382.75
756.017	8486.25
756.355	8503.87
756.693	8675.62
757.031	8807.14
757.368	8850.76
757.706	8982.5
758.044	9112.9
758.381	9231.54
758.719	9287.13
759.056	9421.81
759.394	9608.02
759.731	9670.17
760.068	9828.58
760.405	9871.75
760.743	10016.6
761.08	10160.33
761.417	10210.72
761.754	10383.82
762.091	10503.82
762.428	10661.56
762.765	10744.04
763.102	10927.31
763.438	10997.59
763.775	11086.86
764.112	11230.35
764.449	11366.4
764.785	11474.64
765.122	11502.89
765.458	11608.42
765.795	11791.02
766.131	11901.07
766.467	11952.82
766.804	12067.85
767.14	12222.64
767.476	12198.92
767.812	12372.25
768.148	12431
768.485	12549.64
768.821	12609.75
769.157	12691.78
769.492	12788.73
769.828	12917.32
770.164	12939.69
770.5	13045.45
770.836	13106.24
771.171	13173.58
771.507	13214.71
771.842	13183.75
772.178	13313.92
772.513	13424.2
772.849	13470.97
773.184	13434.14
773.519	13609.05
773.855	13607.69
774.19	13645.88
774.525	13723.62
774.86	13781.93
775.195	13762.04
775.53	13840
775.865	13852.66
776.2	13866.9
776.535	13803.85
776.87	13921.81
777.205	13823.96
777.539	13866.44
777.874	14090.39
778.209	13966.1
778.543	13997.51
778.878	13967.23
779.212	13992.54
779.547	14016.5
779.881	14091.07
780.215	13993.45
780.55	14060.11
780.884	13996.84
781.218	14112.31
781.552	14124.06
781.886	13997.97
782.22	14040.9
782.554	13999.55
782.888	14027.34
783.222	13948.7
783.556	13898.76
783.889	13925.88
784.223	13845.88
784.557	13923.16
784.89	14029.15
785.224	13844.07
785.557	13787.35
785.891	13854.92
786.224	13894.92
786.558	13899.89
786.891	13733.79
787.224	13815.6
787.557	13721.59
787.891	13780.57
788.224	13757.07
788.557	13741.93
788.89	13723.17
789.223	13752.1
789.556	13610.86
789.888	13693.34
790.221	13642.49
790.554	13662.83
790.887	13625.32
791.219	13549.62
791.552	13458.32
791.884	13510.97
792.217	13480.92
792.549	13426
792.882	13382.39
793.214	13329.96
793.546	13364.31
793.879	13440.01
794.211	13218.55
794.543	13300.13
794.875	13289.28
795.207	13298.77
795.539	13242.73
795.871	13172.9
796.203	13132.68
796.535	13053.58
796.867	13147.59
797.198	13029.18
797.53	13058.78
797.862	13010.65
798.193	12977.43
798.525	12878.9
798.856	12936.75
799.188	12793.25
799.519	12861.05
799.85	12731.56
800.182	12740.6
800.513	12779.69
800.844	12672.35
801.175	12657.44
801.506	12712.58
801.837	12636.42
802.168	12655.63
802.499	12575.18
802.83	12554.16
803.161	12558.46
803.491	12467.16
803.822	12548.96
804.153	12494.5
804.483	12387.84
804.814	12297.22
805.145	12356.2
805.475	12238.46
805.805	12298.35
806.136	12249.31
806.466	12266.03
806.796	12199.14
807.126	12091.8
807.457	12114.62
807.787	12195.3
808.117	12123.89
808.447	12059.71
808.777	12084.34
809.107	11943.78
809.436	11995.08
809.766	11912.37
810.096	11987.85
810.426	11964.35
810.755	11858.13
811.085	11879.6
811.414	11875.99
811.744	11824.92
812.073	11705.82
812.403	11736.1
812.732	11709.21
813.061	11700.17
813.39	11639.61
813.719	11615.88
814.049	11701.98
814.378	11655.43
814.707	11612.72
815.036	11585.37
815.365	11584.24
815.693	11428.54
816.022	11454.3
816.351	11472.83
816.68	11469.44
817.008	11421.31
817.337	11378.83
817.665	11353.74
817.994	11350.58
818.322	11303.8
818.651	11327.75
818.979	11226.51
819.307	11312.39
819.636	11260.86
819.964	11235.33
820.292	11217.93
820.62	11238.26
820.948	11165.05
821.276	11251.6
821.604	11224.48
821.932	11252.5
822.259	11151.71
822.587	11167.31
822.915	11185.84
823.243	11204.14
823.57	11158.72
823.898	11199.39
824.225	11126.85
824.553	11145.84
824.88	11155.78
825.207	11193.97
825.535	11172.95
825.862	11195.78
826.189	11142
826.516	11168.89
826.843	11293.63
827.17	11146.97
827.497	11261.09
827.824	11173.86
828.151	11244.59
828.478	11215.21
828.805	11287.08
829.131	11199.85
829.458	11182.9
829.785	11107.65
830.111	11165.5
830.438	11238.94
830.764	11196.46
831.09	11162.56
831.417	11170.24
831.743	11192.62
832.069	11165.95
832.395	11110.81
832.722	11138.15
833.048	11111.26
833.374	11100.19
833.7	11118.72
834.026	11098.61
834.351	11164.37
834.677	11143.13
835.003	11116.01
835.329	11125.95
835.654	11090.02
835.98	10991.49
836.306	11000.76
836.631	11005.95
836.956	11111.94
837.282	10990.36
837.607	10982.23
837.932	11009.57
838.258	10930.93
838.583	10962.34
838.908	10873.08
839.233	10869.91
839.558	10886.63
839.883	10834.66
840.208	10805.96
840.533	10784.04
840.858	10715.11
841.182	10780.65
841.507	10775.23
841.832	10717.83
842.156	10740.65
842.481	10642.35
842.805	10740.65
843.13	10652.97
843.454	10639.64
843.778	10593.08
844.103	10612.74
844.427	10587.21
844.751	10545.85
845.075	10429.7
845.399	10469.02
845.723	10474.22
846.047	10448.45
846.371	10273.09
846.695	10380.89
847.019	10303.37
847.343	10236.71
847.666	10203.94
847.99	10149.93
848.313	10218.4
848.637	10042.82
848.96	10090.05
849.284	10021.57
849.607	9992.87
849.931	9941.57
850.254	9855.48
850.577	9848.7
850.9	9750.39
851.223	9733.44
851.546	9780.45
851.869	9693.9
852.192	9669.27
852.515	9674.92
852.838	9570.96
853.161	9634.24
853.483	9551.98
853.806	9496.84
854.129	9487.12
854.451	9498.2
854.774	9381.59
855.096	9375.26
855.419	9334.59
855.741	9333.68
856.063	9260.46
856.385	9281.71
856.708	9203.06
857.03	9184.53
857.352	9249.16
857.674	9211.42
857.996	9131.43
858.318	9094.37
858.64	9146.79
858.961	9035.16
859.283	9088.49
859.605	8942.28
859.926	8995.84
860.248	9014.14
860.57	8945.22
860.891	8907.7
861.212	8861.83
861.534	8869.29
861.855	8890.08
862.176	8857.76
862.498	8832.68
862.819	8853.92
863.14	8770.76
863.461	8742.74
863.782	8815.05
864.103	8751.78
864.424	8719.23
864.745	8791.77
865.065	8748.39
865.386	8726.69
865.707	8731.44
866.027	8671.33
866.348	8674.04
866.668	8644.89
866.989	8669.52
867.309	8566.24
867.63	8596.07
867.95	8566.47
868.27	8514.04
868.59	8543.42
868.91	8521.73
869.23	8490.09
869.55	8498.22
869.87	8542.97
870.19	8505.68
870.51	8394.72
870.83	8463.42
871.15	8403.31
871.469	8401.05
871.789	8501.16
872.109	8434.27
872.428	8388.62
872.748	8401.28
873.067	8394.04
873.386	8317.21
873.706	8365.57
874.025	8313.82
874.344	8316.31
874.663	8317.89
874.982	8330.09
875.301	8261.62
875.62	8258.91
875.939	8256.87
876.258	8233.37
876.577	8168.29
876.896	8241.05
877.214	8192.02
877.533	8288.96
877.852	8225.69
878.17	8173.94
878.489	8147.5
878.807	8154.05
879.125	8072.25
879.444	8137.33
879.762	8154.28
880.08	8081.51
880.398	8057.1
880.716	8055.3
881.034	8014.85
881.352	8084.22
881.67	7954.73
881.988	8025.47
882.306	8015.52
882.624	8000.38
882.941	7892.14
883.259	7896.43
883.577	7899.59
883.894	7881.29
884.212	7852.59
884.529	7873.15
884.846	7805.36
885.164	7794.96
885.481	7738.47
885.798	7787.96
886.115	7728.07
886.432	7704.35
886.75	7733.27
887.067	7733.27
887.383	7652.37
887.7	7680.62
888.017	7619.38
888.334	7615.99
888.651	7528.53
888.967	7604.01
889.284	7540.96
889.6	7557.23
889.917	7419.38
890.233	7453.96
890.55	7403.56
890.866	7497.12
891.182	7439.72
891.498	7311.59
891.815	7364.69
892.131	7321.53
892.447	7333.06
892.763	7317.91
893.079	7283.79
893.395	7262.78
893.71	7225.49
894.026	7298.93
894.342	7212.83
894.657	7167.41
894.973	7166.28
895.289	7132.61
895.604	7129.9
895.92	7055.55
896.235	7040.18
896.55	7074.76
896.865	7027.3
897.181	6964.93
897.496	6976
897.811	6961.99
898.126	6906.17
898.441	6910.24
898.756	6910.47
899.071	6865.95
899.386	6847.42
899.7	6830.7
900.015	6785.95
900.33	6705.5
900.644	6785.5
900.959	6688.78
901.273	6666.63
901.588	6681.1
901.902	6634.09
902.216	6602.91
902.531	6577.37
902.845	6556.58
903.159	6532.4
903.473	6546.18
903.787	6497.15
904.101	6429.35
904.415	6466.41
904.729	6424.83
905.042	6391.61
905.356	6318.62
905.67	6388
905.984	6386.64
906.297	6305.74
906.611	6300.99
906.924	6303.48
907.237	6271.84
907.551	6225.29
907.864	6169.7
908.177	6208.57
908.491	6158.85
908.804	6122.69
909.117	6086.99
909.43	6076.82
909.743	6057.38
910.056	6025.97
910.368	6004.28
910.681	5997.72
910.994	5964.96
911.307	5961.57
911.619	5882.25
911.932	5888.8
912.244	5806.77
912.557	5859.42
912.869	5767.9
913.181	5786.66
913.494	5803.83
913.806	5717.28
914.118	5682.03
914.43	5689.94
914.742	5682.48
915.054	5686.09
915.366	5601.12
915.678	5589.37
915.99	5564.06
916.302	5537.17
916.613	5509.15
916.925	5483.61
917.236	5505.99
917.548	5465.53
917.859	5470.96
918.171	5441.81
918.482	5382.15
918.794	5365.42
919.105	5368.59
919.416	5324.3
919.727	5278.19
920.038	5309.83
920.349	5277.52
920.66	5276.61
920.971	5232.09
921.282	5235.94
921.593	5219.67
921.903	5112.1
922.214	5192.77
922.525	5164.53
922.835	5083.62
923.146	5071.19
923.456	5072.1
923.767	5058.31
924.077	5055.15
924.387	5012.44
924.697	5009.05
925.008	5014.92
925.318	4974.93
925.628	4927.02
925.938	4934.47
926.248	4872.1
926.558	4913.68
926.867	4873.46
927.177	4844.31
927.487	4821.26
927.796	4727.02
928.106	4786.68
928.416	4747.81
928.725	4762.5
929.034	4681.15
929.344	4676.4
929.653	4687.7
929.962	4640.25
930.271	4627.36
930.581	4614.03
930.89	4614.71
931.199	4543.07
931.508	4587.82
931.817	4561.15
932.125	4548.04
932.434	4504.88
932.743	4520.02
933.051	4423.98
933.36	4467.37
933.669	4427.82
933.977	4386.92
934.286	4387.82
934.594	4389.4
934.902	4366.13
935.21	4317.32
935.519	4328.16
935.827	4367.03
936.135	4327.94
936.443	4255.85
936.751	4247.71
937.059	4225.57
937.367	4218.56
937.674	4254.04
937.982	4229.63
938.29	4203.19
938.597	4186.7
938.905	4153.03
939.213	4130.65
939.52	4117.77
939.827	4090.43
940.135	4079.36
940.442	4062.63
940.749	4020.15
941.056	4022.86
941.363	4007.49
941.67	3962.3
941.977	4006.14
942.284	3962.97
942.591	3996.19
942.898	3934.95
943.205	3885.01
943.511	3904.9
943.818	3898.34
944.125	3856.76
944.431	3843.88
944.738	3815.41
945.044	3829.87
945.35	3828.97
945.657	3786.71
945.963	3754.62
946.269	3726.6
946.575	3721.63
946.881	3678.24
947.187	3689.31
947.493	3700.38
947.799	3658.12
948.105	3647.28
948.41	3619.71
948.716	3666.26
949.022	3595.53
949.327	3619.71
949.633	3592.82
949.938	3522.31
950.244	3517.11
950.549	3537.45
950.854	3544.45
951.16	3490.9
951.465	3485.25
951.77	3475.76
952.075	3431.24
952.38	3454.51
952.685	3435.98
952.99	3384.46
953.294	3403.67
953.599	3375.65
953.904	3380.84
954.209	3327.29
954.513	3349.21
954.818	3328.19
955.122	3321.18
955.426	3289.77
955.731	3250.68
956.035	3325.03
956.339	3282.31
956.643	3254.52
956.948	3236.44
957.252	3254.29
957.556	3236.44
957.86	3187.18
958.163	3187.4
958.467	3158.25
958.771	3157.35
959.075	3144.69
959.378	3133.84
959.682	3152.15
959.985	3086.16
960.289	3056.33
960.592	3107.63
960.896	3036.22
961.199	3054.98
961.502	3050.46
961.805	3013.85
962.108	3007.97
962.411	3009.78
962.714	2996.67
963.017	2964.58
963.32	2987.63
963.623	2925.94
963.926	2927.3
964.228	2950.8
964.531	2945.83
964.833	2905.6
965.136	2919.61
965.438	2868.54
965.741	2872.38
966.043	2860.41
966.345	2811.82
966.648	2868.77
966.95	2828.99
967.252	2814.08
967.554	2796.9
967.856	2795.32
968.158	2746.74
968.46	2776.11
968.761	2734.31
969.063	2727.98
969.365	2717.13
969.666	2716.23
969.968	2712.61
970.269	2705.15
970.571	2667.19
970.872	2680.75
971.174	2628.55
971.475	2618.15
971.776	2613.18
972.077	2618.15
972.378	2630.58
972.679	2573.86
972.98	2622.9
973.281	2553.07
973.582	2560.53
973.883	2573.41
974.183	2532.73
974.484	2537.93
974.785	2520.53
975.085	2502.45
975.386	2482.56
975.686	2501.32
975.986	2483.24
976.287	2487.08
976.587	2428.78
976.887	2470.13
977.187	2441.66
977.487	2423.58
977.787	2419.51
978.087	2412.73
978.387	2381.55
978.687	2408.44
978.987	2393.75
979.286	2346.52
979.586	2364.82
979.885	2339.51
980.185	2336.8
980.484	2351.72
980.784	2310.81
981.083	2281.89
981.382	2323.47
981.682	2329.35
981.981	2280.76
982.28	2252.74
982.579	2229.69
982.878	2227.2
983.177	2259.97
983.475	2243.92
983.774	2207.99
984.073	2210.7
984.372	2188.78
984.67	2190.59
984.969	2194.21
985.267	2179.07
985.566	2190.14
985.864	2137.94
986.162	2161.89
986.461	2158.05
986.759	2132.51
987.057	2081.22
987.355	2068.34
987.653	2114.44
987.951	2055.23
988.249	2055.45
988.547	2061.1
988.844	2038.96
989.142	2049.35
989.44	2067.88
989.737	2026.08
990.035	2020.43
990.332	1998.73
990.63	2039.18
990.927	1980.43
991.224	1980.2
991.521	1956.25
991.819	1945.85
992.116	1974.55
992.413	1973.42
992.71	1937.04
993.006	1923.03
993.303	1903.59
993.6	1926.42
993.897	1910.6
994.193	1918.96
994.49	1903.37
994.787	1869.92
995.083	1868.34
995.379	1848.91
995.676	1844.61
995.972	1830.83
996.268	1831.05
996.565	1842.13
996.861	1813.2
997.157	1831.28
997.453	1811.17
997.749	1812.75
998.044	1815.23
998.34	1785.41
998.636	1770.94
998.932	1774.33
999.227	1736.14
999.523	1767.55
999.818	1776.82
1000.114	1713.54
1000.409	1709.47
1000.704	1716.03
1001	1710.6
1001.295	1679.42
1001.59	1694.79
1001.885	1686.42
1002.18	1641
1002.475	1662.7
1002.77	1678.74
1003.065	1642.58
1003.359	1630.15
1003.654	1617.73
1003.949	1592.42
1004.243	1590.83
1004.538	1567.56
1004.832	1603.94
1005.127	1612.3
1005.421	1554.45
1005.715	1564.62
1006.009	1577.05
1006.304	1570.72
1006.598	1518.97
1006.892	1526.43
1007.186	1515.13
1007.48	1517.39
1007.773	1521.46
1008.067	1505.86
1008.361	1481.68
1008.655	1469.71
1008.948	1462.02
1009.242	1462.02
1009.535	1459.09
1009.829	1450.27
1010.122	1424.51
1010.415	1405.53
1010.708	1439.88
1011.001	1446.2
1011.295	1410.73
1011.588	1384.51
1011.881	1410.5
1012.173	1395.13
1012.466	1403.72
1012.759	1344.06
1013.052	1394.23
1013.344	1363.5
1013.637	1345.87
1013.93	1354.68
1014.222	1316.49
1014.514	1307.68
1014.807	1325.53
1015.099	1312.65
1015.391	1308.36
1015.683	1316.26
1015.976	1298.19
1016.268	1318.3
1016.56	1274.91
1016.851	1281.92
1017.143	1275.81
1017.435	1264.06
1017.727	1245.31
1018.018	1216.83
1018.31	1235.59
1018.602	1234.91
1018.893	1206.89
1019.185	1202.6
1019.476	1212.54
1019.767	1182.71
1020.058	1191.3
1020.35	1199.21
1020.641	1141.13
1020.932	1182.93
1021.223	1177.06
1021.514	1157.17
1021.804	1140.45
1022.095	1170.73
1022.386	1127.12
1022.677	1119.43
1022.967	1117.85
1023.258	1106.78
1023.548	1109.94
1023.839	1109.49
1024.129	1093.67
1024.419	1087.12
1024.709	1086.89
1025	1080.11
1025.29	1068.81
1025.58	1041.7
1025.87	1035.59
1026.16	1027.91
1026.449	1036.27
1026.739	1025.65
1027.029	1066.1
1027.319	1016.16
1027.608	1024.97
1027.898	980
1028.187	980.23
1028.477	997.86
1028.766	985.88
1029.055	992.21
1029.344	988.36
1029.634	973.45
1029.923	972.09
1030.212	971.42
1030.501	952.21
1030.79	956.05
1031.078	933.68
1031.367	957.63
1031.656	945.2
1031.945	925.54
1032.233	933
1032.522	911.76
1032.81	902.94
1033.099	930.51
1033.387	895.03
1033.675	918.99
1033.963	910.85
1034.251	913.11
1034.54	889.61
1034.828	874.47
1035.116	860.01
1035.403	876.05
1035.691	855.94
1035.979	823.17
1036.267	847.58
1036.554	851.19
1036.842	841.02
1037.129	815.04
1037.417	823.17
1037.704	841.93
1037.992	827.01
1038.279	814.36
1038.566	803.28
1038.853	803.28
1039.14	803.28
