Data from hue_22_FLMS001491_00002.txt Node
Date: Tue Feb 07 17:09:24 GMT 2017
User: dcchb
Spectrometer: FLMS00149
Trigger mode: 0
Integration Time (sec): 2.000000E-2
Scans to average: 10
Electric dark correction enabled: true
Nonlinearity correction enabled: false
Boxcar width: 0
XAxis mode: Wavelengths
Number of Pixels in Spectrum: 2048
>>>>>Begin Spectral Data<<<<<
341.393	-22.1
341.776	-22.1
342.16	-22.1
342.543	-82.44
342.927	-65.27
343.31	-72.72
343.693	-68.88
344.077	-52.84
344.46	-58.49
344.843	-55.55
345.226	-50.13
345.61	-33.86
345.993	-15.32
346.376	-13.74
346.759	18.12
347.142	23.54
347.525	28.52
347.908	61.96
348.291	79.36
348.674	87.95
349.057	122.07
349.44	125.46
349.823	143.32
350.206	152.81
350.588	197.1
350.971	203.43
351.354	215.18
351.737	229.64
352.119	226.7
352.502	259.02
352.884	266.25
353.267	284.78
353.65	287.72
354.032	301.96
354.414	303.54
354.797	314.61
355.179	311.67
355.562	303.54
355.944	326.81
356.326	325.68
356.709	344.44
357.091	337.66
357.473	341.5
357.855	337.89
358.238	325.91
358.62	337.43
359.002	360.26
359.384	355.51
359.766	350.54
360.148	322.07
360.53	322.75
360.912	318
361.294	337.43
361.676	333.14
362.057	337.21
362.439	314.38
362.821	332.24
363.203	335.85
363.584	313.71
363.966	318.45
364.348	313.93
364.729	327.04
365.111	310.99
365.493	326.14
365.874	322.97
366.256	337.21
366.637	318
367.019	336.53
367.4	287.94
367.781	315.51
368.163	317.55
368.544	312.35
368.925	294.72
369.306	322.52
369.688	308.96
370.069	313.48
370.45	302.41
370.831	312.12
371.212	298.11
371.593	323.88
371.974	324.55
372.355	308.28
372.736	323.2
373.117	333.59
373.498	335.4
373.879	336.08
374.26	335.63
374.641	304.44
375.021	310.77
375.402	327.49
375.783	327.94
376.163	317.32
376.544	330.66
376.925	317.55
377.305	341.05
377.686	328.85
378.066	336.3
378.447	338.11
378.827	328.17
379.208	325.68
379.588	322.07
379.968	315.97
380.349	338.56
380.729	337.21
381.109	325.46
381.489	340.6
381.87	335.17
382.25	320.03
382.63	334.5
383.01	337.21
383.39	333.37
383.77	329.3
384.15	343.76
384.53	343.99
384.91	323.42
385.29	353.71
385.67	332.24
386.049	373.14
386.429	337.21
386.809	349.41
387.189	349.41
387.568	355.29
387.948	350.32
388.328	341.5
388.707	356.19
389.087	366.13
389.466	375.4
389.846	348.06
390.225	378.34
390.605	363.2
390.984	350.32
391.363	362.52
391.743	362.52
392.122	367.94
392.501	373.37
392.881	372.91
393.26	356.42
393.639	364.1
394.018	370.43
394.397	368.62
394.776	365.68
395.155	382.18
395.534	408.17
395.913	372.24
396.292	367.26
396.671	372.01
397.05	367.26
397.429	378.11
397.808	370.43
398.186	371.33
398.565	389.86
398.944	369.98
399.323	387.15
399.701	375.85
400.08	376.08
400.458	380.82
400.837	392.12
401.215	412.91
401.594	400.48
401.972	380.15
402.351	388.73
402.729	403.42
403.107	409.07
403.486	408.39
403.864	394.16
404.242	407.26
404.62	417.88
404.999	423.31
405.377	405.68
405.755	421.95
406.133	411.78
406.511	422.4
406.889	419.69
407.267	429.18
407.645	436.87
408.023	427.38
408.401	449.3
408.779	428.28
409.156	425.57
409.534	424.44
409.912	409.07
410.29	432.57
410.667	432.57
411.045	446.13
411.422	449.07
411.8	448.39
412.178	464.21
412.555	474.38
412.933	462.18
413.31	477.77
413.687	455.62
414.065	461.27
414.442	455.62
414.819	492.46
415.197	459.01
415.574	467.37
415.951	472.12
416.328	482.97
416.705	482.29
417.082	478
417.46	482.97
417.837	474.83
418.214	495.4
418.591	476.41
418.967	502.4
419.344	487.94
419.721	498.11
420.098	475.28
420.475	508.73
420.852	505.11
421.228	504.44
421.605	513.25
421.982	510.31
422.358	532.23
422.735	500.59
423.111	524.77
423.488	513.7
423.864	520.93
424.241	528.62
424.617	547.15
424.994	531.78
425.37	540.37
425.746	541.72
426.123	541.05
426.499	543.3
426.875	564.55
427.251	562.51
427.627	529.29
428.003	575.17
428.379	585.56
428.756	572
429.132	573.59
429.507	567.26
429.883	572.46
430.259	593.02
430.635	588.5
431.011	640.25
431.387	605.9
431.763	612.23
432.138	622.17
432.514	612
432.89	626.69
433.265	625.79
433.641	673.7
434.016	633.92
434.392	643.64
434.767	649.06
435.143	636.86
435.518	676.63
435.894	678.67
436.269	673.02
436.644	664.21
437.02	677.54
437.395	682.96
437.77	679.8
438.145	675.5
438.52	680.48
438.895	708.05
439.271	677.31
439.646	715.96
440.021	728.16
440.395	716.63
440.77	699.23
441.145	695.84
441.52	699.91
441.895	720.93
442.27	721.61
442.645	725
443.019	748.5
443.394	742.17
443.769	752.79
444.143	725.9
444.518	758.21
444.892	775.16
445.267	768.38
445.641	751.89
446.016	765.67
446.39	760.7
446.764	752.56
447.139	791.43
447.513	773.13
447.887	778.33
448.262	774.26
448.636	801.15
449.01	812.45
449.384	818.1
449.758	791.21
450.132	803.86
450.506	807.93
450.88	833.47
451.254	812.9
451.628	857.87
452.002	828.95
452.376	821.04
452.75	846.12
453.123	852
453.497	844.09
453.871	852.22
454.244	895.61
454.618	853.58
454.992	908.95
455.365	907.82
455.739	934.26
456.112	926.8
456.486	912.79
456.859	942.16
457.232	933.8
457.606	964.31
457.979	968.83
458.352	971.99
458.725	975.38
459.099	978.55
459.472	987.36
459.845	1010.64
460.218	1012.22
460.591	1012.22
460.964	1035.27
461.337	1029.85
461.71	1028.04
462.083	1073.46
462.456	1077.08
462.829	1055.16
463.201	1082.05
463.574	1101.71
463.947	1122.72
464.32	1130.86
464.692	1142.84
465.065	1117.75
465.438	1152.1
465.81	1155.04
466.183	1173.57
466.555	1205.89
466.928	1198.2
467.3	1206.34
467.672	1220.58
468.045	1224.19
468.417	1264.19
468.789	1259.9
469.161	1255.6
469.534	1273.91
469.906	1305.54
470.278	1313.45
470.65	1327.01
471.022	1353.91
471.394	1393.68
471.766	1399.33
472.138	1412.43
472.51	1448.37
472.882	1458.76
473.253	1501.25
473.625	1502.6
473.997	1541.02
474.369	1530.85
474.74	1527.46
475.112	1587.35
475.484	1656.04
475.855	1613.11
476.227	1653.33
476.598	1687.91
476.97	1717.74
477.341	1747.79
477.713	1767.68
478.084	1789.15
478.455	1844.29
478.827	1893.33
479.198	1912.99
479.569	1910.05
479.94	1954.12
480.311	1971.52
480.682	2001.57
481.053	2060.1
481.424	2094
481.795	2102.36
482.166	2179.65
482.537	2192.98
482.908	2283.6
483.279	2289.25
483.65	2295.8
484.021	2366.99
484.391	2402.47
484.762	2439.75
485.133	2442.92
485.503	2507.77
485.874	2550.48
486.244	2567.43
486.615	2615.57
486.985	2649.24
487.356	2719.74
487.726	2734.43
488.097	2776.92
488.467	2857.37
488.837	2831.61
489.207	2908.44
489.578	2980.98
489.948	3043.35
490.318	3023.69
490.688	3072.28
491.058	3134.2
491.428	3152.95
491.798	3190.92
492.168	3258.26
492.538	3307.98
492.908	3322.89
493.278	3362.89
493.648	3418.94
494.017	3454.19
494.387	3491.48
494.757	3511.81
495.126	3556.56
495.496	3587.07
495.866	3615.09
496.235	3652.38
496.605	3672.71
496.974	3729.89
497.344	3734.41
497.713	3751.81
498.082	3805.14
498.452	3858.7
498.821	3866.38
499.19	3852.37
499.559	3939.6
499.928	3972.82
500.298	4008.98
500.667	4024.12
501.036	4022.76
501.405	4104.79
501.774	4110.22
502.143	4140.95
502.512	4163.55
502.88	4201.06
503.249	4178.92
503.618	4187.95
503.987	4266.14
504.356	4228.41
504.724	4259.82
505.093	4286.71
505.462	4343.43
505.83	4354.5
506.199	4376.88
506.567	4416.88
506.936	4446.48
507.304	4484.44
507.672	4515.86
508.041	4507.04
508.409	4572.13
508.777	4610.32
509.145	4627.72
509.514	4606.25
509.882	4597.89
510.25	4627.72
510.618	4658.22
510.986	4695.29
511.354	4731.44
511.722	4799.24
512.09	4768.5
512.458	4769.18
512.826	4860.25
513.193	4850.99
513.561	4867.71
513.929	4908.84
514.297	4917.43
514.664	4921.95
515.032	4944.55
515.4	5012.11
515.767	4998.1
516.135	5057.76
516.502	4993.13
516.869	5084.88
517.237	5100.7
517.604	5071.55
517.972	5198.1
518.339	5129.17
518.706	5156.29
519.073	5203.97
519.44	5232.9
519.808	5286.01
520.175	5249.4
520.542	5332.33
520.909	5343.86
521.276	5315.16
521.643	5374.14
522.009	5339.11
522.376	5386.79
522.743	5483.06
523.11	5541.37
523.477	5547.02
523.843	5507.24
524.21	5600.8
524.577	5620.46
524.943	5688.71
525.31	5707.24
525.676	5711.53
526.043	5724.64
526.409	5776.84
526.776	5810.51
527.142	5838.31
527.508	5841.24
527.874	5883.5
528.241	5957.4
528.607	5966.67
528.973	5935.93
529.339	6017.96
529.705	6067.68
530.071	6109.71
530.437	6108.36
530.803	6168.24
531.169	6189.26
531.535	6175.7
531.901	6160.33
532.267	6262.02
532.632	6278.75
532.998	6289.59
533.364	6317.16
533.73	6289.14
534.095	6392.19
534.461	6432.19
534.826	6453.43
535.192	6396.26
535.557	6556.71
535.923	6503.37
536.288	6536.82
536.653	6568.46
537.019	6543.37
537.384	6617.5
537.749	6572.07
538.114	6629.47
538.479	6686.19
538.845	6717.15
539.21	6751.28
539.575	6778.85
539.94	6733.88
540.305	6765.74
540.67	6812.29
541.034	6784.72
541.399	6838.51
541.764	6871.05
542.129	6889.13
542.494	6946.75
542.858	7016.81
543.223	7044.15
543.587	7089.57
543.952	7034.43
544.316	7096.58
544.681	7069.46
545.045	7193.07
545.41	7169.57
545.774	7192.4
546.138	7211.15
546.503	7224.03
546.867	7241.21
547.231	7287.99
547.595	7326.18
547.959	7384.03
548.324	7340.64
548.688	7400.75
549.052	7465.16
549.416	7492.95
549.779	7467.64
550.143	7497.47
550.507	7574.98
550.871	7542.44
551.235	7535.44
551.599	7600.52
551.962	7652.5
552.326	7653.85
552.689	7704.25
553.053	7617.24
553.417	7684.81
553.78	7803
554.143	7783.57
554.507	7808.2
554.87	7825.6
555.234	7947.63
555.597	7868.08
555.96	7848.2
556.323	7945.6
556.686	8010
557.05	8006.61
557.413	8001.41
557.776	8037.12
558.139	8078.02
558.502	8106.04
558.865	8120.96
559.228	8222.43
559.59	8199.15
559.953	8239.83
560.316	8316.43
560.679	8280.95
561.041	8304.23
561.404	8350.11
561.767	8412.02
562.129	8405.02
562.492	8477.33
562.854	8480.05
563.217	8517.11
563.579	8585.13
563.941	8576.77
564.304	8586.03
564.666	8581.74
565.028	8580.16
565.39	8638.91
565.753	8744.9
566.115	8775.63
566.477	8773.6
566.839	8844.56
567.201	8905.57
567.563	8861.05
567.925	8982.18
568.287	9006.13
568.648	8974.5
569.01	9067.83
569.372	9080.48
569.734	9062.18
570.095	9153.93
570.457	9238.67
570.819	9226.01
571.18	9288.61
571.542	9301.04
571.903	9346.01
572.265	9319.12
572.626	9437.53
572.987	9462.84
573.349	9435.5
573.71	9498.78
574.071	9620.13
574.432	9678.21
574.794	9704.19
575.155	9780.58
575.516	9751.65
575.877	9819.45
576.238	9951.87
576.599	9993.68
576.96	10039.1
577.32	10076.16
577.681	10208.81
578.042	10285.42
578.403	10335.82
578.763	10391.63
579.124	10524.74
579.485	10621.01
579.845	10717.5
580.206	10758.63
580.566	10856.03
580.927	10962.92
581.287	11176.25
581.648	11198.84
582.008	11378.95
582.368	11429.57
582.728	11600.64
583.089	11647.42
583.449	11879.5
583.809	12002.21
584.169	12228.2
584.529	12298.48
584.889	12518.81
585.249	12704.57
585.609	12886.26
585.969	13186.36
586.329	13222.75
586.688	13446.92
587.048	13666.12
587.408	13908.15
587.768	14064.53
588.127	14392.43
588.487	14550.85
588.846	14925.07
589.206	14946.32
589.565	15322.58
589.925	15560.76
590.284	15802.56
590.643	16063.12
591.003	16387.63
591.362	16651.36
591.721	16884.12
592.08	17107.62
592.44	17489.98
592.799	17769.74
593.158	18053.13
593.517	18291.99
593.876	18579.21
594.235	18849.72
594.593	19227.11
594.952	19518.17
595.311	19766.75
595.67	20087.65
596.029	20595.43
596.387	20845.82
596.746	21239.94
597.104	21415.98
597.463	21688.96
597.822	22144.54
598.18	22355.16
598.538	22631.76
598.897	23144.29
599.255	23259.77
599.613	23885.52
599.972	23967.1
600.33	24385.39
600.688	24566.18
601.046	24978.59
601.404	25447.51
601.762	25622.19
602.12	25959.13
602.478	26326.36
602.836	26661.49
603.194	26707.81
603.552	27064.87
603.91	27217.86
604.268	27757.5
604.625	28055.35
604.983	28289.47
605.341	28452.18
605.698	29017.13
606.056	29260.06
606.413	29466.16
606.771	29815.08
607.128	30127.16
607.485	30306.36
607.843	30585.9
608.2	30942.05
608.557	31255.04
608.914	31401.93
609.272	31692.09
609.629	32022.25
609.986	32302.92
610.343	32262.7
610.7	32832.63
611.057	32829.46
611.414	33075.56
611.771	33342.67
612.127	33675.54
612.484	33947.17
612.841	34189.65
613.198	34219.03
613.554	34344.68
613.911	34769.3
614.267	35030.08
614.624	35042.28
614.98	35231.21
615.337	35710.52
615.693	35697.18
616.05	35934.69
616.406	36247.9
616.762	36285.19
617.118	36390.5
617.475	36547.78
617.831	36975.79
618.187	37159.74
618.543	37158.16
618.899	37483.58
619.255	37561.09
619.611	37757.24
619.967	37886.73
620.323	38070
620.678	38011.02
621.034	38138.7
621.39	38248.53
621.746	38335.31
622.101	38746.59
622.457	38651.23
622.812	38750.44
623.168	39041.73
623.523	39077.66
623.879	39373.92
624.234	39154.95
624.589	39359.69
624.945	39440.81
625.3	39506.8
625.655	39584.76
626.01	39864.98
626.365	39880.58
626.72	39879.22
627.075	39833.8
627.43	40058.2
627.785	39973
628.14	40245.54
628.495	40195.6
628.85	40254.8
629.205	40198.99
629.559	40469.49
629.914	40401.47
630.269	40494.57
630.623	40466.32
630.978	40401.01
631.332	40670.16
631.687	40750.61
632.041	40562.59
632.396	40725.53
632.75	40655.47
633.104	40879.42
633.459	40652.76
633.813	40666.09
634.167	40732.3
634.521	40782.25
634.875	40904.05
635.229	40852.53
635.583	40552.2
635.937	40688.92
636.291	40696.15
636.645	40794
636.999	40780.21
637.352	40840.32
637.706	40610.05
638.06	40941.11
638.413	40731.85
638.767	40744.06
639.121	40806.2
639.474	40555.59
639.828	40649.37
640.181	40675.58
640.534	40749.25
640.888	40657.73
641.241	40580.9
641.594	40634.45
641.947	40877.61
642.301	40746.54
642.654	40712.64
643.007	40781.12
643.36	40742.7
643.713	40618.86
644.066	40795.58
644.419	40502.71
644.771	40158.76
645.124	39935.04
645.477	39859.11
645.83	39779.11
646.182	39598.32
646.535	39692.56
646.888	39690.3
647.24	39533.24
647.593	39667.7
647.945	39515.61
648.298	39416.86
648.65	39360.36
649.002	39291.66
649.355	39444.2
649.707	39612.56
650.059	39473.81
650.411	40019.1
650.763	40071.31
651.115	40425.65
651.467	40224.97
651.819	40352.2
652.171	40239.66
652.523	40188.14
652.875	40214.35
653.227	40151.53
653.578	40354.01
653.93	40175.94
654.282	40164.41
654.633	40157.18
654.985	40178.65
655.337	40197.63
655.688	40304.97
656.039	40295.48
656.391	40001.02
656.742	40033.79
657.094	39946.11
657.445	40273.56
657.796	40032.21
658.147	40006.9
658.498	40050.74
658.849	40115.37
659.2	40100.68
659.551	39834.48
659.902	40087.58
660.253	39916.28
660.604	40082.38
660.955	39795.38
661.306	40097.29
661.656	39804.87
662.007	39871.99
662.358	39988.6
662.708	39989.27
663.059	39898.65
663.409	39729.85
663.76	40048.25
664.11	39990.63
664.461	40054.81
664.811	39949.95
665.161	39973.45
665.511	39925.77
665.862	39843.97
666.212	39962.16
666.562	39891.2
666.912	39917.64
667.262	39730.52
667.612	39817.3
667.962	39922.83
668.312	39744.08
668.662	39939.33
669.011	39857.98
669.361	39855.49
669.711	39697.98
670.06	39643.75
670.41	39728.49
670.76	39684.2
671.109	39809.62
671.459	39609.4
671.808	39706.12
672.157	39701.37
672.507	39490.98
672.856	39550.87
673.205	39571.88
673.554	39600.81
673.904	39570.3
674.253	39780.69
674.602	39626.35
674.951	39140.26
675.3	38846.93
675.649	39558.78
675.998	39474.48
676.346	39547.7
676.695	39524.88
677.044	39393.81
677.393	39375.96
677.741	39403.07
678.09	39179.8
678.438	39227.03
678.787	39369.63
679.135	39297.99
679.484	39161.05
679.832	39241.5
680.181	39009.41
680.529	39208.05
680.877	39053.93
681.225	38968.74
681.573	39299.57
681.922	38951.56
682.27	38751.57
682.618	38831.11
682.966	38881.51
683.314	38853.26
683.661	38679.25
684.009	38672.47
684.357	38476.09
684.705	38569.88
685.053	38468.86
685.4	38459.14
685.748	38234.52
686.095	38244.46
686.443	37987.52
686.79	38103
687.138	38104.58
687.485	37991.36
687.832	37912.27
688.18	38009.21
688.527	37692.84
688.874	37844.25
689.221	37646.06
689.568	37556.57
689.915	37445.39
690.262	37543.91
690.609	37486.29
690.956	37274.77
691.303	37246.29
691.65	37100.54
691.997	37186.41
692.344	36844.5
692.69	36959.97
693.037	36882.69
693.383	36641.11
693.73	36720.88
694.077	36583.04
694.423	36582.36
694.769	36377.84
695.116	36394.11
695.462	36274.12
695.808	36065.31
696.155	36218.75
696.501	35962.94
696.847	36028.02
697.193	35741.93
697.539	35924.07
697.885	35502.61
698.231	35507.81
698.577	35503.29
698.923	35553.01
699.269	35396.17
699.614	35154.37
699.96	35054.71
700.306	35116.18
700.651	34784.89
700.997	34743.31
701.342	34725.68
701.688	34781.27
702.033	34499.25
702.379	34438.23
702.724	34501.06
703.069	34657.44
703.415	34127.51
703.76	34177.45
704.105	34184.45
704.45	34070.11
704.795	33908.98
705.14	33830.79
705.485	33748.31
705.83	33647.75
706.175	33803.67
706.52	33580.63
706.865	33550.12
707.209	33551.48
707.554	33419.73
707.899	33472.61
708.243	33230.36
708.588	33225.16
708.932	32958.95
709.277	32979.74
709.621	32940.42
709.966	32897.93
710.31	32833.3
710.654	32621.78
710.998	32617.94
711.342	32639.86
711.687	32557.83
712.031	32423.37
712.375	32302.24
712.719	32495.91
713.063	32309.02
713.407	32439.19
713.75	32113.32
714.094	32274.67
714.438	32036.49
714.782	32087.11
715.125	31953.78
715.469	31953.1
715.812	31745.2
716.156	31652.09
716.499	31770.51
716.843	31724.41
717.186	31460.68
717.53	31622.49
717.873	31584.97
718.216	31573.68
718.559	31424.3
718.902	31200.35
719.246	31356.96
719.589	31150.86
719.932	31057.98
720.275	31071.54
720.617	31034.03
720.96	30855.5
721.303	30935.27
721.646	31072.45
721.989	30785.9
722.331	30817.54
722.674	30702.74
723.016	30726.92
723.359	30621.61
723.701	30502.29
724.044	30527.83
724.386	30328.51
724.729	30473.37
725.071	30309.75
725.413	30383.88
725.755	30263.88
726.097	30229.76
726.439	30001.74
726.782	30077.9
727.124	30183.88
727.465	30013.04
727.807	30067.95
728.149	29798.13
728.491	29905.02
728.833	29809.88
729.175	29837.22
729.516	29626.61
729.858	29729.88
730.199	29796.1
730.541	29662.99
730.882	29629.55
731.224	29614.18
731.565	29423.45
731.906	29521.07
732.248	29405.14
732.589	29357.46
732.93	29332.6
733.271	29201.08
733.612	29310.23
733.953	29383.22
734.294	29131.48
734.635	29112.5
734.976	29185.94
735.317	28975.33
735.658	28998.15
735.999	28999.28
736.339	28898.04
736.68	29147.3
737.021	28900.75
737.361	28899.4
737.702	28925.16
738.042	28776.23
738.383	28766.52
738.723	28692.17
739.063	28731.72
739.404	28509.8
739.744	28666.86
740.084	28554.55
740.424	28523.36
740.764	28500.08
741.104	28565.17
741.444	28407.66
741.784	28291.5
742.124	28459.41
742.464	28287.66
742.804	28305.29
743.143	28210.15
743.483	28162.69
743.823	28154.1
744.162	28002.7
744.502	28113.43
744.841	28021.23
745.181	27984.84
745.52	27920.21
745.86	28001.79
746.199	28010.61
746.538	27915.69
746.877	27910.49
747.216	27853.55
747.556	27807.45
747.895	27780.33
748.234	27664.17
748.573	27597.96
748.911	27485.2
749.25	27614.23
749.589	27487.46
749.928	27576.27
750.267	27518.41
750.605	27550.96
750.944	27345.76
751.283	27219.21
751.621	27385.76
751.96	27172.89
752.298	27336.05
752.636	27252.66
752.975	27075.04
753.313	26937.41
753.651	27100.57
753.989	26835.72
754.327	26805.89
754.666	26767.25
755.004	26838.21
755.342	26827.59
755.679	26687.48
756.017	26609.06
756.355	26639.57
756.693	26487.48
757.031	26578.33
757.368	26369.97
757.706	26375.62
758.044	26384.43
758.381	26328.16
758.719	26251.33
759.056	26190.09
759.394	26066.7
759.731	25881.4
760.068	25975.86
760.405	25768.4
760.743	25676.88
761.08	25833.49
761.417	25703.32
761.754	25645.24
762.091	25539.71
762.428	25491.35
762.765	25380.39
763.102	25315.99
763.438	25187.4
763.775	25200.51
764.112	25244.12
764.449	25192.83
764.785	25078.7
765.122	24820.18
765.458	24862.89
765.795	24867.19
766.131	24732.27
766.467	24656.8
766.804	24551.71
767.14	24436.01
767.476	24460.64
767.812	24241.44
768.148	24327.99
768.485	24185.85
768.821	24090.48
769.157	23989.24
769.492	23972.52
769.828	23892.52
770.164	23669.7
770.5	23629.03
770.836	23621.57
771.171	23572.98
771.507	23447.79
771.842	23276.94
772.178	23387.45
772.513	23211.86
772.849	23167.12
773.184	23007.57
773.519	23111.75
773.855	22939.78
774.19	22926.67
774.525	22808.48
774.86	22793.79
775.195	22673.34
775.53	22664.08
775.865	22504.99
776.2	22299.34
776.535	22209.63
776.87	22175.5
777.205	22105.45
777.539	21880.82
777.874	22002.85
778.209	21900.03
778.543	21709.08
778.878	21650.32
779.212	21573.26
779.547	21579.59
779.881	21546.37
780.215	21390.89
780.55	21425.92
780.884	21359.48
781.218	21314.51
781.552	21148.19
781.886	21194.74
782.22	21025.7
782.554	20984.35
782.888	20648.54
783.222	20792.04
783.556	20564.02
783.889	20560.86
784.223	20533.51
784.557	20369.9
784.89	20443.35
785.224	20267.76
785.557	20192.51
785.891	20147.08
786.224	20198.61
786.558	20025.5
786.891	19791.61
787.224	19797.26
787.557	19750.03
787.891	19729.02
788.224	19689.02
788.557	19578.96
788.89	19665.51
789.223	19586.87
789.556	19490.38
789.888	19331.51
790.221	19346.88
790.554	19081.8
790.887	19040.22
791.219	19070.05
791.552	19028.47
791.884	19003.84
792.217	18776.72
792.549	18760.45
792.882	18752.54
793.214	18723.62
793.546	18699.89
793.879	18614.24
794.211	18379.22
794.543	18470.74
794.875	18447.47
795.207	18491.76
795.539	18368.82
795.871	18228.72
796.203	18184.87
796.535	18029.62
796.867	17950.08
797.198	17954.6
797.53	18005.67
797.862	17761.16
798.193	17895.62
798.525	17652.46
798.856	17761.16
799.188	17519.13
799.519	17549.64
799.85	17430.32
800.182	17490.88
800.513	17404.78
800.844	17239.59
801.175	17265.8
801.506	17286.14
801.837	17064.68
802.168	17162.3
802.499	17095.41
802.83	17013.38
803.161	16864.91
803.491	16977
803.822	16919.37
804.153	16858.36
804.483	16722.31
804.814	16671.92
805.145	16712.6
805.475	16705.59
805.805	16538.36
806.136	16642.54
806.466	16517.8
806.796	16547.86
807.126	16363.68
807.457	16311.48
807.787	16307.86
808.117	16321.65
808.447	16295.43
808.777	16219.28
809.107	16166.17
809.436	16025.16
809.766	16121.43
810.096	15963.92
810.426	15984.93
810.755	15933.41
811.085	15974.09
811.414	15931.37
811.744	15713.08
812.073	15758.27
812.403	15716.69
812.732	15638.28
813.061	15562.57
813.39	15568.22
813.719	15421.56
814.049	15575.9
814.378	15515.34
814.707	15480.31
815.036	15392.41
815.365	15338.62
815.693	15244.39
816.022	15249.13
816.351	15106.31
816.68	15121.23
817.008	15164.39
817.337	14945.19
817.665	14951.29
817.994	14994.68
818.322	14894.57
818.651	14832.19
818.979	14817.73
819.307	14930.27
819.636	14895.24
819.964	14715.14
820.292	14794
820.62	14802.82
820.948	14703.84
821.276	14699.77
821.604	14680.56
821.932	14677.85
822.259	14744.74
822.587	14676.04
822.915	14602.82
823.243	14615.48
823.57	14643.5
823.898	14662.71
824.225	14523.95
824.553	14634.69
824.88	14598.3
825.207	14680.33
825.535	14607.34
825.862	14626.1
826.189	14614.8
826.516	14688.7
826.843	14776.15
827.17	14619.09
827.497	14643.73
827.824	14596.27
828.151	14652.54
828.478	14688.47
828.805	14677.17
829.131	14687.11
829.458	14618.87
829.785	14441.92
830.111	14677.4
830.438	14672.42
830.764	14633.56
831.09	14660
831.417	14532.54
831.743	14580.45
832.069	14547.46
832.395	14478.08
832.722	14560.11
833.048	14456.61
833.374	14507.91
833.7	14440.11
834.026	14396.73
834.351	14471.53
834.677	14441.7
835.003	14429.27
835.329	14439.21
835.654	14337.07
835.98	14291.42
836.306	14403.28
836.631	14336.61
836.956	14384.75
837.282	14284.41
837.607	14272.66
837.932	14161.7
838.258	14260.46
838.583	14205.77
838.908	14076.96
839.233	14143.63
839.558	14070.18
839.883	14078.99
840.208	14010.3
840.533	13993.57
840.858	13996.96
841.182	14082.84
841.507	14006.45
841.832	13928.72
842.156	13889.17
842.481	13858.66
842.805	13902.5
843.13	13821.83
843.454	13773.24
843.778	13757.65
844.103	13759.23
844.427	13617.09
844.751	13647.59
845.075	13643.07
845.399	13558.78
845.723	13513.13
846.047	13431.1
846.371	13436.98
846.695	13395.62
847.019	13291.9
847.343	13226.59
847.666	13252.58
847.99	13106.59
848.313	13135.97
848.637	13055.52
848.96	12956.76
849.284	12991.34
849.607	12901.62
849.931	12881.29
850.254	12760.61
850.577	12734.4
850.9	12677.22
851.223	12653.27
851.546	12548.41
851.869	12419.6
852.192	12541.86
852.515	12380.96
852.838	12354.97
853.161	12345.25
853.483	12309.32
853.806	12259.83
854.129	12189.78
854.451	12155.2
854.774	12155.2
855.096	12134.64
855.419	12027.3
855.741	11980.52
856.063	11900.29
856.385	11897.81
856.708	11869.11
857.03	11783.01
857.352	11830.24
857.674	11791.6
857.996	11738.49
858.318	11695.1
858.64	11687.42
858.961	11625.27
859.283	11648.1
859.605	11591.15
859.926	11584.6
860.248	11527.65
860.57	11470.02
860.891	11501.21
861.212	11448.55
861.534	11422.34
861.855	11314.55
862.176	11378.5
862.498	11358.16
862.819	11315.45
863.14	11269.35
863.461	11255.34
863.782	11307.77
864.103	11293.76
864.424	11215.11
864.745	11192.06
865.065	11169.01
865.386	11106.42
865.707	11142.35
866.027	11084.95
866.348	11132.18
866.668	11111.84
866.989	11182.8
867.309	11047.44
867.63	11039.98
867.95	10996.82
868.27	10929.7
868.59	10962.92
868.91	10932.86
869.23	10936.48
869.55	10821.68
869.87	10870.49
870.19	10835.46
870.51	10854.9
870.83	10810.38
871.15	10789.59
871.469	10852.86
871.789	10793.66
872.109	10753.43
872.428	10798.4
872.748	10746.65
873.067	10705.07
873.386	10672.98
873.706	10651.51
874.025	10651.51
874.344	10649.71
874.663	10650.38
874.982	10576.04
875.301	10597.73
875.62	10570.16
875.939	10468.47
876.258	10517.51
876.577	10458.52
876.896	10514.79
877.214	10477.06
877.533	10457.62
877.852	10421.69
878.17	10395.25
878.489	10396.61
878.807	10350.73
879.125	10349.37
879.444	10340.56
879.762	10324.52
880.08	10320.45
880.398	10244.29
880.716	10390.73
881.034	10240.68
881.352	10218.98
881.67	10199.55
881.988	10209.27
882.306	10154.13
882.624	10120
882.941	10085.43
883.259	10047.24
883.577	10055.6
883.894	10055.37
884.212	10063.96
884.529	10020.8
884.846	9981.47
885.164	9955.26
885.481	9921.36
885.798	9935.83
886.115	9870.97
886.432	9862.16
886.75	9854.47
887.067	9854.47
887.383	9837.75
887.7	9754.81
888.017	9738.54
888.334	9760.92
888.651	9685.44
888.967	9663.07
889.284	9640.92
889.6	9596.4
889.917	9558.89
890.233	9605.67
890.55	9514.82
890.866	9580.81
891.182	9492.45
891.498	9470.75
891.815	9412.22
892.131	9355.28
892.447	9399.34
892.763	9371.77
893.079	9305.56
893.395	9313.02
893.71	9316.18
894.026	9271.21
894.342	9182.85
894.657	9146.92
894.973	9161.84
895.289	9172.91
895.604	9094.04
895.92	9063.08
896.235	8990.99
896.55	9048.62
896.865	8967.94
897.181	8982.18
897.496	8934.95
897.811	8950.32
898.126	8903.31
898.441	8798.46
898.756	8759.36
899.071	8804.78
899.386	8745.35
899.7	8647.5
900.015	8686.59
900.33	8617.44
900.644	8641.4
900.959	8656.31
901.273	8548.74
901.588	8552.13
901.902	8511.68
902.216	8481.85
902.531	8445.24
902.845	8461.29
903.159	8330.22
903.473	8332.03
903.787	8295.42
904.101	8234.85
904.415	8215.87
904.729	8222.88
905.042	8179.26
905.356	8197.57
905.67	8148.98
905.984	8136.1
906.297	8093.84
906.611	7928.42
906.924	7959.16
907.237	8018.14
907.551	8007.06
907.864	7900.17
908.177	7931.81
908.491	7909.89
908.804	7829.67
909.117	7726.62
909.43	7774.75
909.743	7678.94
910.056	7660.41
910.368	7654.08
910.681	7648.43
910.994	7604.14
911.307	7594.19
911.619	7479.62
911.932	7557.13
912.244	7456.12
912.557	7471.94
912.869	7387.87
913.181	7423.12
913.494	7327.08
913.806	7318.27
914.118	7298.83
914.43	7275.11
914.742	7221.55
915.054	7173.87
915.366	7199.63
915.678	7108.33
915.99	7079.86
916.302	7081.21
916.613	7021.78
916.925	7015
917.236	7007.54
917.548	6937.71
917.859	6920.99
918.171	6902.91
918.482	6899.3
918.794	6848
919.105	6855.46
919.416	6758.51
919.727	6800.77
920.038	6768.45
920.349	6713.09
920.66	6704.27
920.971	6640.09
921.282	6627.89
921.593	6581.79
921.903	6568.01
922.214	6542.02
922.525	6504.28
922.835	6487.78
923.146	6465.18
923.456	6436.94
923.767	6412.53
924.077	6375.69
924.387	6371.17
924.697	6255.92
925.008	6318.07
925.318	6311.97
925.628	6284.62
925.938	6177.28
926.248	6163.5
926.558	6148.58
926.867	6146.32
927.177	6135.93
927.487	6089.37
927.796	6035.82
928.106	6009.38
928.416	6029.94
928.725	5925.31
929.034	5910.62
929.344	5988.59
929.653	5908.14
929.962	5857.74
930.271	5873.11
930.581	5851.64
930.89	5756.5
931.199	5740.91
931.508	5746.78
931.817	5770.29
932.125	5724.86
932.434	5687.58
932.743	5608.48
933.051	5616.62
933.36	5596.05
933.669	5551.99
933.977	5572.55
934.286	5557.64
934.594	5536.62
934.902	5472.67
935.21	5407.36
935.519	5426.34
935.827	5439.9
936.135	5362.16
936.443	5357.42
936.751	5353.35
937.059	5314.7
937.367	5370.52
937.674	5314.93
937.982	5253.24
938.29	5234.03
938.597	5228.38
938.905	5145.22
939.213	5208.27
939.52	5125.56
939.827	5136.18
940.135	5086.91
940.442	5049.63
940.749	5079.23
941.056	5086.24
941.363	4980.93
941.67	5048.72
941.977	4920.14
942.284	4950.65
942.591	4942.29
942.898	4905.45
943.205	4918.33
943.511	4856.86
943.818	4870.2
944.125	4854.38
944.431	4823.19
944.738	4852.57
945.044	4753.14
945.35	4748.39
945.657	4701.61
945.963	4748.62
946.269	4663.42
946.575	4652.8
946.881	4620.03
947.187	4632.01
947.493	4637.43
947.799	4596.98
948.105	4554.27
948.41	4548.62
948.716	4553.59
949.022	4517.21
949.327	4515.63
949.633	4468.17
949.938	4496.2
950.244	4415.07
950.549	4411
950.854	4402.64
951.16	4418.01
951.465	4426.82
951.77	4344.11
952.075	4307.73
952.38	4314.73
952.685	4279.03
952.99	4234.73
953.294	4274.96
953.599	4213.72
953.904	4228.18
954.209	4163.32
954.513	4139.82
954.818	4126.71
955.122	4115.64
955.426	4076.09
955.731	4054.85
956.035	4058.92
956.339	4066.15
956.643	4084.91
956.948	4013.04
957.252	4003.55
957.556	3983.44
957.86	3924.91
958.163	3946.38
958.467	3935.76
958.771	3950.9
959.075	3931.01
959.378	3889.43
959.682	3880.62
959.985	3856.89
960.289	3844.91
960.592	3839.49
960.896	3808.53
961.199	3801.07
961.502	3789.77
961.805	3755.88
962.108	3746.61
962.411	3710
962.714	3680.85
963.017	3694.63
963.32	3686.73
963.623	3655.54
963.926	3693.96
964.228	3621.19
964.531	3584.81
964.833	3609.89
965.136	3566.95
965.438	3579.16
965.741	3563.56
966.043	3501.87
966.345	3514.53
966.648	3519.27
966.95	3509.55
967.252	3455.54
967.554	3436.56
967.856	3421.2
968.158	3385.49
968.46	3439.5
968.761	3392.5
969.063	3355.89
969.365	3349.78
969.666	3362.89
969.968	3294.42
970.269	3298.26
970.571	3329.22
970.872	3306.85
971.174	3255.55
971.475	3241.31
971.776	3239.05
972.077	3208.55
972.378	3223.91
972.679	3216
972.98	3215.55
973.281	3183.91
973.582	3170.81
973.883	3144.37
974.183	3127.87
974.484	3138.94
974.785	3090.81
975.085	3078.83
975.386	3091.03
975.686	3070.24
975.986	3071.6
976.287	3035.89
976.587	3018.49
976.887	3016.23
977.187	3020.53
977.487	3006.52
977.787	2978.04
978.087	2936.01
978.387	2946.18
978.687	2944.37
978.987	2909.8
979.286	2870.25
979.586	2907.54
979.885	2886.75
980.185	2869.35
980.484	2865.5
980.784	2855.79
981.083	2858.27
981.382	2839.29
981.682	2828.44
981.981	2788.44
982.28	2782.34
982.579	2784.38
982.878	2780.31
983.177	2769.24
983.475	2729.91
983.774	2703.02
984.073	2692.85
984.372	2685.17
984.67	2684.94
984.969	2672.06
985.267	2656.7
985.566	2660.99
985.864	2631.16
986.162	2658.5
986.461	2573.31
986.759	2606.75
987.057	2593.19
987.355	2572.18
987.653	2569.92
987.951	2592.74
988.249	2549.58
988.547	2523.82
988.844	2524.95
989.142	2501.22
989.44	2502.8
989.737	2444.5
990.035	2452.41
990.332	2498.73
990.63	2431.84
990.927	2418.74
991.224	2448.11
991.521	2417.83
991.819	2394.78
992.116	2404.72
992.413	2389.58
992.71	2378.06
993.006	2378.51
993.303	2356.36
993.6	2348.91
993.897	2326.76
994.193	2311.85
994.49	2310.26
994.787	2320.66
995.083	2286.76
995.379	2269.59
995.676	2252.86
995.972	2258.51
996.268	2265.07
996.565	2204.5
996.861	2215.8
997.157	2226.2
997.453	2214.67
997.749	2182.81
998.044	2148.01
998.34	2170.15
998.636	2114.11
998.932	2108.01
999.227	2133.09
999.523	2123.6
999.818	2107.11
1000.114	2101.23
1000.409	2076.82
1000.704	2076.37
1001	2091.74
1001.295	2046.09
1001.59	2058.29
1001.885	2019.2
1002.18	2046.32
1002.475	2018.07
1002.77	2003.83
1003.065	1997.5
1003.359	1958.41
1003.654	1991.63
1003.949	1950.27
1004.243	1944.62
1004.538	1941.01
1004.832	1930.84
1005.127	1915.7
1005.421	1911.86
1005.715	1903.5
1006.009	1902.14
1006.304	1857.39
1006.598	1875.25
1006.892	1856.26
1007.186	1851.97
1007.48	1835.25
1007.773	1826.21
1008.067	1835.7
1008.361	1809.26
1008.655	1792.99
1008.948	1777.85
1009.242	1767
1009.535	1777.4
1009.829	1765.65
1010.122	1756.61
1010.415	1716.61
1010.708	1713.9
1011.001	1729.04
1011.295	1703.27
1011.588	1721.35
1011.881	1697.17
1012.173	1689.04
1012.466	1655.37
1012.759	1660.56
1013.052	1664.63
1013.344	1621.69
1013.637	1631.86
1013.93	1619.89
1014.222	1630.73
1014.514	1588.02
1014.807	1588.25
1015.099	1588.25
1015.391	1579.89
1015.683	1578.76
1015.976	1591.86
1016.268	1548.7
1016.56	1557.74
1016.851	1535.82
1017.143	1506.44
1017.435	1513.9
1017.727	1515.93
1018.018	1493.34
1018.31	1484.75
1018.602	1463.51
1018.893	1490.4
1019.185	1440.68
1019.476	1445.2
1019.767	1459.89
1020.058	1413.34
1020.35	1427.12
1020.641	1363.85
1020.932	1398.2
1021.223	1391.42
1021.514	1380.12
1021.804	1372.44
1022.095	1349.39
1022.386	1344.41
1022.677	1383.28
1022.967	1352.78
1023.258	1323.17
1023.548	1296.28
1023.839	1330.4
1024.129	1298.31
1024.419	1314.58
1024.709	1305.32
1025	1277.52
1025.29	1288.6
1025.58	1251.08
1025.87	1257.86
1026.16	1259.22
1026.449	1227.58
1026.739	1228.26
1027.029	1214.47
1027.319	1202.72
1027.608	1235.49
1027.898	1185.32
1028.187	1206.11
1028.477	1186.23
1028.766	1172.21
1029.055	1179.45
1029.344	1158.43
1029.634	1163.63
1029.923	1140.35
1030.212	1167.92
1030.501	1115.72
1030.79	1112.33
1031.078	1103.74
1031.367	1115.27
1031.656	1112.33
1031.945	1104.42
1032.233	1076.62
1032.522	1085.44
1032.81	1085.44
1033.099	1077.53
1033.387	1068.26
1033.675	1063.29
1033.963	1028.94
1034.251	1044.53
1034.54	1061.71
1034.828	1033.91
1035.116	1024.42
1035.403	1019.9
1035.691	997.08
1035.979	999.11
1036.267	978.1
1036.554	987.81
1036.842	1002.28
1037.129	958.89
1037.417	955.72
1037.704	973.8
1037.992	963.41
1038.279	965.44
1038.566	945.1
1038.853	945.1
1039.14	945.1
