Data from hue_32_FLMS001491_00048.txt Node
Date: Tue Feb 07 17:23:27 GMT 2017
User: dcchb
Spectrometer: FLMS00149
Trigger mode: 0
Integration Time (sec): 2.000000E-2
Scans to average: 10
Electric dark correction enabled: true
Nonlinearity correction enabled: false
Boxcar width: 0
XAxis mode: Wavelengths
Number of Pixels in Spectrum: 2048
>>>>>Begin Spectral Data<<<<<
341.393	-19.87
341.776	-19.87
342.16	-19.87
342.543	-60.78
342.927	-72.07
343.31	-49.02
343.693	-90.15
344.077	-65.29
344.46	-58.97
344.843	-60.55
345.226	-39.53
345.61	-37.27
345.993	-14.22
346.376	-3.6
346.759	11.54
347.142	16.74
347.525	33.69
347.908	74.36
348.291	74.59
348.674	87.02
349.057	120.69
349.44	134.93
349.823	142.16
350.206	157.98
350.588	207.92
350.971	209.5
351.354	219.67
351.737	256.96
352.119	261.25
352.502	263.96
352.884	282.04
353.267	278.2
353.65	312.32
354.032	312.77
354.414	294.47
354.797	344.19
355.179	325.88
355.562	339.67
355.944	325.66
356.326	327.24
356.709	353
357.091	338.08
357.473	346.45
357.855	355.49
358.238	349.84
358.62	347.8
359.002	329.72
359.384	343.06
359.766	333.34
360.148	319.33
360.53	343.73
360.912	339.89
361.294	333.34
361.676	345.99
362.057	323.62
362.439	348.93
362.821	331.3
363.203	335.15
363.584	329.05
363.966	346.67
364.348	316.84
364.729	322.27
365.111	331.98
365.493	320.68
365.874	343.28
366.256	331.08
366.637	323.17
367.019	306.9
367.4	316.39
367.781	316.84
368.163	330.85
368.544	329.95
368.925	331.98
369.306	324.3
369.688	308.25
370.069	329.95
370.45	326.33
370.831	317.07
371.212	325.2
371.593	320.23
371.974	308.25
372.355	318.2
372.736	348.25
373.117	311.42
373.498	319.78
373.879	314.81
374.26	311.64
374.641	320.46
375.021	329.72
375.402	333.79
375.783	333.79
376.163	329.5
376.544	333.11
376.925	305.54
377.305	331.98
377.686	316.62
378.066	346.22
378.447	321.59
378.827	355.94
379.208	338.76
379.588	329.72
379.968	338.76
380.349	331.53
380.729	332.43
381.109	331.3
381.489	348.48
381.87	329.72
382.25	336.28
382.63	344.19
383.01	358.2
383.39	353.9
383.77	362.04
384.15	353.68
384.53	343.73
384.91	364.98
385.29	346.9
385.67	363.62
386.049	378.08
386.429	336.73
386.809	342.6
387.189	367.01
387.568	380.8
387.948	345.32
388.328	357.97
388.707	348.93
389.087	386.44
389.466	364.52
389.846	361.36
390.225	360.23
390.605	366.11
390.984	364.52
391.363	366.56
391.743	363.85
392.122	357.74
392.501	368.82
392.881	398.87
393.26	365.88
393.639	391.87
394.018	382.38
394.397	399.1
394.776	397.07
395.155	393
395.534	391.64
395.913	402.04
396.292	401.36
396.671	405.43
397.05	381.25
397.429	408.59
397.808	395.26
398.186	406.11
398.565	370.63
398.944	414.24
399.323	404.52
399.701	401.81
400.08	391.87
400.458	404.98
400.837	386.44
401.215	433.22
401.594	423.51
401.972	410.4
402.351	434.13
402.729	419.21
403.107	423.73
403.486	431.42
403.864	414.24
404.242	428.48
404.62	425.99
404.999	423.73
405.377	441.58
405.755	442.94
406.133	445.88
406.511	456.5
406.889	442.94
407.267	415.37
407.645	447.69
408.023	457.86
408.401	452.66
408.779	437.97
409.156	456.05
409.534	462.15
409.912	468.25
410.29	459.21
410.667	480.91
411.045	434.13
411.422	475.71
411.8	468.7
412.178	459.66
412.555	491.98
412.933	463.73
413.31	463.73
413.687	506.67
414.065	491.98
414.442	520.23
414.819	474.58
415.197	487.68
415.574	507.35
415.951	516.84
416.328	512.99
416.705	521.81
417.082	506.44
417.46	527.46
417.837	545.08
418.214	507.57
418.591	526.1
418.967	505.99
419.344	533.56
419.721	529.94
420.098	539.21
420.475	540.34
420.852	543.73
421.228	535.14
421.605	547.34
421.982	535.82
422.358	540.79
422.735	553.22
423.111	541.47
423.488	585.54
423.864	566.1
424.241	553.9
424.617	565.87
424.994	569.49
425.37	577.17
425.746	583.05
426.123	579.21
426.499	578.3
426.875	593.9
427.251	607.23
427.627	589.6
428.003	624.4
428.379	609.04
428.756	587.12
429.132	632.54
429.507	625.99
429.883	641.58
430.259	638.42
430.635	654.23
431.011	653.56
431.387	656.04
431.763	678.87
432.138	694.91
432.514	661.92
432.89	672.76
433.265	661.47
433.641	684.97
434.016	696.04
434.392	713.44
434.767	719.32
435.143	717.28
435.518	718.19
435.894	698.3
436.269	728.36
436.644	772.42
437.02	741.01
437.395	736.72
437.77	747.79
438.145	763.16
438.52	767.9
438.895	761.8
439.271	768.13
439.646	757.96
440.021	770.84
440.395	789.37
440.77	781.46
441.145	787.56
441.52	779.65
441.895	804.06
442.27	807.45
442.645	810.39
443.019	822.14
443.394	808.13
443.769	822.82
444.143	813.78
444.518	835.92
444.892	816.26
445.267	833.21
445.641	830.95
446.016	841.35
446.39	874.12
446.764	845.19
447.139	871.86
447.513	828.47
447.887	838.86
448.262	892.19
448.636	884.51
449.01	878.64
449.384	903.49
449.758	901.46
450.132	897.17
450.506	907.11
450.88	908.46
451.254	901.23
451.628	894.23
452.002	925.41
452.376	955.7
452.75	948.92
453.123	953.89
453.497	956.37
453.871	957.73
454.244	1008.12
454.618	985.52
454.992	986.88
455.365	1001.8
455.739	1031.4
456.112	1019.65
456.486	1058.07
456.859	1077.5
457.232	1054
457.606	1063.04
457.979	1085.41
458.352	1099.65
458.725	1106.43
459.099	1107.1
459.472	1151.62
459.845	1161.79
460.218	1162.7
460.591	1154.56
460.964	1122.24
461.337	1193.66
461.71	1210.6
462.083	1212.86
462.456	1208.12
462.829	1227.33
463.201	1250.38
463.574	1252.41
463.947	1272.07
464.32	1286.08
464.692	1303.26
465.065	1306.19
465.438	1332.86
465.81	1362.24
466.183	1379.64
466.555	1396.59
466.928	1386.19
467.3	1398.85
467.672	1450.82
468.045	1456.92
468.417	1443.14
468.789	1479.52
469.161	1512.06
469.534	1555.91
469.906	1559.75
470.278	1582.57
470.65	1593.64
471.022	1637.49
471.394	1675.9
471.766	1690.82
472.138	1718.84
472.51	1743.7
472.882	1753.41
473.253	1804.03
473.625	1820.76
473.997	1907.08
474.369	1909.79
474.74	1925.84
475.112	1971.04
475.484	2021.88
475.855	2063.24
476.227	2119.96
476.598	2125.61
476.97	2133.52
477.341	2211.03
477.713	2260.52
478.084	2309.33
478.455	2370.57
478.827	2411.48
479.198	2463.68
479.569	2504.58
479.94	2592.94
480.311	2631.81
480.682	2689.66
481.053	2768.08
481.424	2808.75
481.795	2878.81
482.166	2923.78
482.537	3018.69
482.908	3108.86
483.279	3128.75
483.65	3209.87
484.021	3349.08
484.391	3385.01
484.762	3435.18
485.133	3486.25
485.503	3627.26
485.874	3726.7
486.244	3768.05
486.615	3843.08
486.985	3901.38
487.356	4027.25
487.726	4060.25
488.097	4171.43
488.467	4271.54
488.837	4347.24
489.207	4414.14
489.578	4567.8
489.948	4581.81
490.318	4693.9
490.688	4721.02
491.058	4913.78
491.428	4966.44
491.798	5067.9
492.168	5155.81
492.538	5237.84
492.908	5280.55
493.278	5414.79
493.648	5473.77
494.017	5531.62
494.387	5643.48
494.757	5765.51
495.126	5832.4
495.496	5910.14
495.866	5982.91
496.235	6043.47
496.605	6159.17
496.974	6192.85
497.344	6258.83
497.713	6366.17
498.082	6406.17
498.452	6478.49
498.821	6599.61
499.19	6709.67
499.559	6732.49
499.928	6805.94
500.298	6890.91
500.667	6960.96
501.036	7016.1
501.405	7066.49
501.774	7139.26
502.143	7210.45
502.512	7269.88
502.88	7402.08
503.249	7342.87
503.618	7420.84
503.987	7499.48
504.356	7571.79
504.724	7632.81
505.093	7707.16
505.462	7730.66
505.83	7839.81
506.199	7904.44
506.567	7988.96
506.936	8003.19
507.304	8084.55
507.672	8145.79
508.041	8233.7
508.409	8323.86
508.777	8348.5
509.145	8372.68
509.514	8399.12
509.882	8524.31
510.25	8474.82
510.618	8531.77
510.986	8635.04
511.354	8716.62
511.722	8740.58
512.09	8856.05
512.458	8850.18
512.826	8909.16
513.193	9009.72
513.561	9037.29
513.929	9108.48
514.297	9172.88
514.664	9191.41
515.032	9295.81
515.4	9311.63
515.767	9415.81
516.135	9422.14
516.502	9355.93
516.869	9584.62
517.237	9612.19
517.604	9551.18
517.972	9665.75
518.339	9767.44
518.706	9647.9
519.073	9792.75
519.44	9766.09
519.808	9925.63
520.175	9994.78
520.542	10045.17
520.909	10080.65
521.276	10097.83
521.643	10148.9
522.009	10250.59
522.376	10286.75
522.743	10359.97
523.11	10498.04
523.477	10494.65
523.843	10606.97
524.21	10657.14
524.577	10759.05
524.943	10750.69
525.31	10782.33
525.676	10913.17
526.043	11011.02
526.409	10973.51
526.776	11120.17
527.142	11161.3
527.508	11264.8
527.874	11330.11
528.241	11325.82
528.607	11410.56
528.973	11567.17
529.339	11488.07
529.705	11566.94
530.071	11703.66
530.437	11695.98
530.803	11868.63
531.169	11836.77
531.535	11903.88
531.901	11919.02
532.267	11996.99
532.632	12063.43
532.998	12098.23
533.364	12179.58
533.73	12244.66
534.095	12266.36
534.461	12286.7
534.826	12405.56
535.192	12526.92
535.557	12498.89
535.923	12444.21
536.288	12579.12
536.653	12635.84
537.019	12563.53
537.384	12715.61
537.749	12818.66
538.114	12803.29
538.479	12908.6
538.845	12920.13
539.21	12992.44
539.575	12970.97
539.94	13071.99
540.305	13147.47
540.67	13114.25
541.034	13215.26
541.399	13227.69
541.764	13276.95
542.129	13379.55
542.494	13376.39
542.858	13445.08
543.223	13494.12
543.587	13610.73
543.952	13530.73
544.316	13687.56
544.681	13740.22
545.045	13689.6
545.41	13793.55
545.774	13916.26
546.138	13938.86
546.503	13948.12
546.867	13951.51
547.231	14134.11
547.595	14096.37
547.959	14175.91
548.324	14187.66
548.688	14197.15
549.052	14287.1
549.416	14318.06
549.779	14415
550.143	14379.07
550.507	14458.39
550.871	14581.78
551.235	14532.74
551.599	14626.3
551.962	14713.53
552.326	14725.5
552.689	14688.22
553.053	14708.55
553.417	14765.95
553.78	14978.83
554.143	14920.98
554.507	15013.4
554.87	15134.53
555.234	15219.5
555.597	15084.82
555.96	15184.93
556.323	15264.47
556.686	15329.33
557.05	15350.12
557.413	15461.98
557.776	15434.64
558.139	15507.63
558.502	15491.81
558.865	15613.16
559.228	15737
559.59	15740.84
559.953	15781.07
560.316	15921.18
560.679	15967.5
561.041	16015.41
561.404	16075.75
561.767	16259.47
562.129	16128.4
562.492	16365.46
562.854	16225.35
563.217	16306.25
563.579	16372.92
563.941	16449.53
564.304	16483.87
564.666	16617.88
565.028	16586.02
565.39	16658.11
565.753	16790.99
566.115	16715.73
566.477	16782.4
566.839	16917.54
567.201	16974.71
567.563	17076.63
567.925	17130.19
568.287	17221.48
568.648	17202.95
569.01	17294.25
569.372	17471.65
569.734	17383.51
570.095	17550.29
570.457	17559.33
570.819	17785.99
571.18	17734.01
571.542	17833.9
571.903	17862.14
572.265	18008.58
572.626	18008.58
572.987	18075.02
573.349	18182.81
573.71	18334.45
574.071	18438.85
574.432	18403.15
574.794	18585.74
575.155	18638.17
575.516	18623.71
575.877	18757.71
576.238	18838.84
576.599	19085.39
576.96	19139.4
577.32	19189.79
577.681	19432.5
578.042	19538.26
578.403	19500.07
578.763	19695.09
579.124	19884.01
579.485	20120.39
579.845	20193.16
580.206	20296.66
580.566	20382.98
580.927	20616.87
581.287	20786.59
581.648	20940.03
582.008	21245.56
582.368	21327.59
582.728	21588.15
583.089	21733.68
583.449	21924.41
583.809	22100
584.169	22342.93
584.529	22375.7
584.889	22880.09
585.249	22887.32
585.609	23057.94
585.969	23367.31
586.329	23431.04
586.688	23786.06
587.048	24006.16
587.408	24185.82
587.768	24533.15
588.127	24664.22
588.487	24844.11
588.846	25195.96
589.206	25421.27
589.565	25625.33
589.925	26082.49
590.284	26202.71
590.643	26536.72
591.003	26796.6
591.362	27019.19
591.721	27303.03
592.08	27557.71
592.44	27916.34
592.799	28092.38
593.158	28239.05
593.517	28545.93
593.876	28860.72
594.235	29042.41
594.593	29300.49
594.952	29721.04
595.311	29821.15
595.67	30155.61
596.029	30496.84
596.387	30736.16
596.746	31084.62
597.104	31218.63
597.463	31529.81
597.822	31722.8
598.18	31908.78
598.538	32119.17
598.897	32689.32
599.255	32558.03
599.613	33330.44
599.972	33322.53
600.33	33646.14
600.688	33626.02
601.046	34050.87
601.404	34251.32
601.762	34361.6
602.12	34779.44
602.478	34964.29
602.836	35134.68
603.194	35152.54
603.552	35467.1
603.91	35539.64
604.268	35971.72
604.625	36014.66
604.983	36289.23
605.341	36397.25
605.698	36802.66
606.056	37121.75
606.413	37145.25
606.771	37391.35
607.128	37551.34
607.485	37509.08
607.843	37734.16
608.2	38069.75
608.557	38367.82
608.914	38290.31
609.272	38610.98
609.629	38826.34
609.986	39208.02
610.343	39017.07
610.7	39402.14
611.057	39613.66
611.414	39555.36
611.771	39786.99
612.127	40084.16
612.484	40085.06
612.841	40365.73
613.198	40321.89
613.554	40415
613.911	40791.71
614.267	40778.15
614.624	40814.53
614.98	41005.26
615.337	41326.39
615.693	41401.19
616.05	41471.47
616.406	41725.92
616.762	41614.06
617.118	41696.77
617.475	41930.44
617.831	41988.29
618.187	42229.64
618.543	42274.61
618.899	42601.15
619.255	42612.23
619.611	42564.54
619.967	42858.1
620.323	42894.71
620.678	42861.49
621.034	42779.91
621.39	42900.58
621.746	43058.54
622.101	43509.15
622.457	43186.22
622.812	43434.58
623.168	43490.4
623.523	43536.5
623.879	43681.35
624.234	43456.5
624.589	43816.26
624.945	43774.46
625.3	43869.82
625.655	43811.29
626.01	43967.67
626.365	44122.92
626.72	44058.06
627.075	44035.69
627.43	43986.43
627.785	44103.04
628.14	44118.18
628.495	44201.79
628.85	44166.99
629.205	44021.91
629.559	44335.57
629.914	44096.26
630.269	44313.43
630.623	44347.32
630.978	44258.06
631.332	44354.55
631.687	44462.12
632.041	44293.99
632.396	44334.22
632.75	44302.58
633.104	44335.35
633.459	44218.96
633.813	44354.78
634.167	44281.34
634.521	44346.42
634.875	44476.36
635.229	44213.99
635.583	44182.13
635.937	44231.85
636.291	44222.35
636.645	44225.52
636.999	44173.77
637.352	44347.32
637.706	44099.42
638.06	44256.03
638.413	44070.72
638.767	44039.53
639.121	44204.95
639.474	43912.53
639.828	44083.15
640.181	44045.86
640.534	43993.43
640.888	43986.88
641.241	43844.74
641.594	43871.63
641.947	43996.37
642.301	44005.18
642.654	43961.8
643.007	43889.93
643.36	43920.44
643.713	43848.8
644.066	43987.33
644.419	43758.41
644.771	43467.57
645.124	43122.27
645.477	43064.19
645.83	42887.47
646.182	42700.81
646.535	42619.23
646.888	42691.32
647.24	42506.02
647.593	42871.88
647.945	42667.82
648.298	42488.39
648.65	42435.96
649.002	42262.41
649.355	42589.85
649.707	42492.46
650.059	42661.49
650.411	43102.38
650.763	43084.31
651.115	43509.6
651.467	43435.26
651.819	43329.27
652.171	43321.13
652.523	43277.75
652.875	43242.72
653.227	43016.28
653.578	43513.67
653.93	43289.5
654.282	43089.73
654.633	43034.36
654.985	43171.31
655.337	43147.81
655.688	43116.17
656.039	43253.57
656.391	42916.17
656.742	43118.88
657.094	43027.36
657.445	43152.33
657.796	43120.24
658.147	43003.63
658.498	43014.7
658.849	42995.72
659.2	42938.77
659.551	42800.24
659.902	42976.96
660.253	42900.81
660.604	42865.1
660.955	42787.82
661.306	42887.47
661.656	42821.26
662.007	42730.42
662.358	42909.39
662.708	42773.8
663.059	42717.31
663.409	42681.83
663.76	42872.11
664.11	42823.07
664.461	42945.33
664.811	42922.05
665.161	42920.69
665.511	42911.88
665.862	42748.49
666.212	43024.19
666.562	42783.75
666.912	42775.61
667.262	42748.49
667.612	42710.98
667.962	42819.23
668.312	42682.06
668.662	42838.89
669.011	42659.01
669.361	42769.96
669.711	42661.04
670.06	42655.84
670.41	42541.72
670.76	42558.44
671.109	42593.02
671.459	42403.64
671.808	42494.72
672.157	42453.14
672.507	42287.49
672.856	42315.74
673.205	42452.23
673.554	42494.72
673.904	42440.03
674.253	42549.63
674.602	42431.44
674.951	41938.35
675.3	41759.82
675.649	42530.2
675.998	42197.77
676.346	42357.32
676.695	42531.1
677.044	42165.91
677.393	42354.83
677.741	42330.2
678.09	42167.49
678.438	42034.62
678.787	42266.02
679.135	42170.88
679.484	41954.62
679.832	42019.47
680.181	41861.06
680.529	42025.12
680.877	41814.51
681.225	41755.07
681.573	42002.53
681.922	41783.1
682.27	41489.54
682.618	41713.72
682.966	41445.48
683.314	41708.52
683.661	41629.2
684.009	41285.26
684.357	41303.79
684.705	41202.77
685.053	41232.15
685.4	41064.47
685.748	40990.35
686.095	40990.35
686.443	40869.45
686.79	40890.46
687.138	40832.84
687.485	40884.14
687.832	40713.75
688.18	40778.15
688.527	40568.66
688.874	40626.52
689.221	40394.43
689.568	40269.01
689.915	40157.38
690.262	40264.72
690.609	40171.61
690.956	39997.83
691.303	39991.73
691.65	39832.87
691.997	39844.16
692.344	39546.77
692.69	39572.98
693.037	39520.56
693.383	39248.7
693.73	39316.95
694.077	39167.12
694.423	39170.51
694.769	39002.6
695.116	38926.22
695.462	38885.77
695.808	38817.07
696.155	38889.39
696.501	38507.93
696.847	38600.58
697.193	38217.77
697.539	38482.17
697.885	38056.87
698.231	38171.44
698.577	38153.59
698.923	37966.47
699.269	37875.85
699.614	37815.97
699.96	37683.77
700.306	37731.9
700.651	37545.69
700.997	37473.15
701.342	37442.87
701.688	37313.38
702.033	37186.83
702.379	37189.77
702.724	37011.47
703.069	37062.54
703.415	36617.58
703.76	36730.57
704.105	36631.37
704.45	36596.57
704.795	36488.09
705.14	36317.7
705.485	36306.4
705.83	36022.34
706.175	36191.15
706.52	35971.95
706.865	35982.8
707.209	35966.53
707.554	35682.47
707.899	35776.02
708.243	35685.86
708.588	35591.39
708.932	35479.08
709.277	35371.29
709.621	35325.86
709.966	35111.86
710.31	35180.56
710.654	34859.21
710.998	34926.55
711.342	34938.53
711.687	34880.9
712.031	34673.23
712.375	34680.01
712.719	34691.98
713.063	34649.5
713.407	34710.74
713.75	34347.59
714.094	34339.9
714.438	34299.9
714.782	34449.28
715.125	34411.99
715.469	34237.53
715.812	34064.2
716.156	33955.05
716.499	33971.55
716.843	33981.95
717.186	33786.02
717.53	34018.78
717.873	33950.31
718.216	33872.34
718.559	33637.1
718.902	33364.33
719.246	33523.2
719.589	33402.3
719.932	33283.21
720.275	33261.51
720.617	33374.73
720.96	33114.62
721.303	33129.99
721.646	33086.15
721.989	32947.4
722.331	33014.29
722.674	32973.38
723.016	32916.21
723.359	32859.26
723.701	32897.23
724.044	32608.65
724.386	32657.23
724.729	32663.56
725.071	32554.86
725.413	32500.85
725.755	32411.82
726.097	32373.17
726.439	32371.82
726.782	32209.11
727.124	32345.15
727.465	32246.62
727.807	32172.73
728.149	32212.05
728.491	32029
728.833	32195.78
729.175	32016.57
729.516	31933.19
729.858	31807.09
730.199	31995.78
730.541	31798.05
730.882	31915.56
731.224	31773.87
731.565	31518.96
731.906	31696.81
732.248	31607.77
732.589	31459.98
732.93	31364.61
733.271	31401.67
733.612	31413.43
733.953	31488.68
734.294	31293.88
734.635	31292.75
734.976	31307.21
735.317	31168.23
735.658	31151.96
735.999	31068.8
736.339	30999.43
736.68	31108.12
737.021	30974.57
737.361	30850.28
737.702	30989.93
738.042	30923.49
738.383	30849.82
738.723	30933.44
739.063	30749.26
739.404	30830.84
739.744	30649.83
740.084	30567.12
740.424	30594.01
740.764	30514.01
741.104	30626.1
741.444	30434.69
741.784	30347.01
742.124	30415.49
742.464	30423.85
742.804	30280.35
743.143	30163.51
743.483	30246.68
743.823	30041.94
744.162	29987.02
744.502	30055.04
744.841	29901.6
745.181	30064.99
745.52	29915.16
745.86	29826.12
746.199	29888.04
746.538	29828.16
746.877	29781.38
747.216	29942.05
747.556	29705.9
747.895	29880.36
748.234	29619.8
748.573	29578.67
748.911	29531.22
749.25	29510.88
749.589	29430.2
749.928	29510.2
750.267	29384.33
750.605	29288.51
750.944	29285.12
751.283	29130.32
751.621	29330.54
751.96	29091.68
752.298	29024.11
752.636	29114.05
752.975	28943.21
753.313	28881.51
753.651	28957.67
753.989	28904.34
754.327	28768.52
754.666	28536.89
755.004	28711.35
755.342	28577.79
755.679	28565.14
756.017	28388.65
756.355	28485.37
756.693	28316.11
757.031	28351.59
757.368	28144.58
757.706	28232.94
758.044	28216.45
758.381	28083.34
758.719	28089.22
759.056	28155.21
759.394	27895.78
759.731	27801.77
760.068	27717.25
760.405	27593.19
760.743	27593.19
761.08	27591.61
761.417	27378.28
761.754	27372.4
762.091	27381.44
762.428	27195.23
762.765	27183.93
763.102	27168.79
763.438	27006.76
763.775	26957.72
764.112	26915.46
764.449	26923.15
764.785	26805.19
765.122	26643.83
765.458	26489.26
765.795	26557.73
766.131	26510.5
766.467	26437.96
766.804	26190.51
767.14	25995.26
767.476	26075.71
767.812	26050.63
768.148	26054.7
768.485	25841.59
768.821	25758.21
769.157	25659.68
769.492	25521.6
769.828	25636.4
770.164	25296.98
770.5	25348.27
770.836	25330.87
771.171	25212.23
771.507	25137.21
771.842	25046.59
772.178	24936.99
772.513	24917.78
772.849	24759.59
773.184	24705.13
773.519	24689.99
773.855	24479.14
774.19	24517.11
774.525	24334.29
774.86	24289.32
775.195	24206.61
775.53	24165.03
775.865	24105.59
776.2	23945.6
776.535	23749.9
776.87	23743.57
777.205	23700.86
777.539	23542.67
777.874	23662.89
778.209	23267.65
778.543	23301.32
778.878	23151.95
779.212	23246.41
779.547	22929.58
779.881	23047.32
780.215	22906.98
780.55	22926.42
780.884	22825.18
781.218	22755.35
781.552	22616.37
781.886	22578.4
782.22	22435.58
782.554	22340.67
782.888	22202.14
783.222	22147.91
783.556	22022.26
783.889	22015.03
784.223	21820.46
784.557	21886.67
784.89	21794.47
785.224	21741.14
785.557	21667.47
785.891	21607.58
786.224	21424.31
786.558	21465.21
786.891	21226.35
787.224	21139.57
787.557	21132.57
787.891	21072.45
788.224	21022.96
788.557	21074.49
788.89	21030.42
789.223	20921.95
789.556	20762.63
789.888	20799.47
790.221	20574.16
790.554	20463.88
790.887	20660.49
791.219	20331.68
791.552	20343.66
791.884	20274.28
792.217	20268.86
792.549	20155.64
792.882	20031.58
793.214	19967.62
793.546	20024.8
793.879	19768.76
794.211	19743.9
794.543	19647.86
794.875	19578.26
795.207	19641.31
795.539	19487.41
795.871	19537.81
796.203	19426.85
796.535	19244.93
796.867	19259.17
797.198	19166.52
797.53	19188.44
797.862	18991.61
798.193	19168.55
798.525	18930.36
798.856	18920.65
799.188	18769.92
799.519	18660.77
799.85	18605.17
800.182	18596.59
800.513	18652.86
800.844	18529.47
801.175	18566.98
801.506	18506.19
801.837	18407.67
802.168	18357.27
802.499	18337.61
802.83	18196.15
803.161	18108.24
803.491	18159.31
803.822	18061.23
804.153	17988.02
804.483	17849.49
804.814	17885.65
805.145	17732.88
805.475	17802.26
805.805	17666.44
806.136	17769.94
806.466	17613.11
806.796	17637.29
807.126	17448.59
807.457	17474.58
807.787	17500.34
808.117	17448.37
808.447	17274.36
808.777	17428.48
809.107	17249.5
809.436	17148.04
809.766	17192.78
810.096	17116.4
810.426	17059
810.755	17137.87
811.085	17010.41
811.414	17032.33
811.744	16812.45
812.073	16801.15
812.403	16779.01
812.732	16793.92
813.061	16696.98
813.39	16706.47
813.719	16507.38
814.049	16617.2
814.378	16451.56
814.707	16457.66
815.036	16421.28
815.365	16389.41
815.693	16246.82
816.022	16217.44
816.351	16181.28
816.68	16120.49
817.008	16120.49
817.337	16015.64
817.665	15924.57
817.994	16026.49
818.322	15997.11
818.651	15968.41
818.979	15792.14
819.307	15913.27
819.636	15847.96
819.964	15782.65
820.292	15871.01
820.62	15788.75
820.948	15737.91
821.276	15696.1
821.604	15654.74
821.932	15761.86
822.259	15672.14
822.587	15772.93
822.915	15668.53
823.243	15712.6
823.57	15644.12
823.898	15706.49
824.225	15669.43
824.553	15605.25
824.88	15507.18
825.207	15590.11
825.535	15623.11
825.862	15709.43
826.189	15596.67
826.516	15622.43
826.843	15657.68
827.17	15599.15
827.497	15605.25
827.824	15583.79
828.151	15637.57
828.478	15613.16
828.805	15670.79
829.131	15581.53
829.458	15582.43
829.785	15551.92
830.111	15597.12
830.438	15733.61
830.764	15586.5
831.09	15636.67
831.417	15508.53
831.743	15520.96
832.069	15518.7
832.395	15410.91
832.722	15598.47
833.048	15373.85
833.374	15513.96
833.7	15406.84
834.026	15457.91
834.351	15489.55
834.677	15422.89
835.003	15489.1
835.329	15378.59
835.654	15434.86
835.98	15327.75
836.306	15405.71
836.631	15327.07
836.956	15402.1
837.282	15352.6
837.607	15091.82
837.932	15247.3
838.258	15180.41
838.583	15184.25
838.908	15121.42
839.233	15059.51
839.558	15093.85
839.883	15046.17
840.208	14977.93
840.533	15004.82
840.858	14997.59
841.182	14892.28
841.507	14920.3
841.832	14853.18
842.156	14816.35
842.481	14845.95
842.805	14791.72
843.13	14824.94
843.454	14769.8
843.778	14702.23
844.103	14692.74
844.427	14554.43
844.751	14607.31
845.075	14490.25
845.399	14529.8
845.723	14445.96
846.047	14490.71
846.371	14403.93
846.695	14303.37
847.019	14235.8
847.343	14161.68
847.666	14156.48
847.99	14015.69
848.313	13995.35
848.637	13962.58
848.96	13862.47
849.284	13859.08
849.607	13744.51
849.931	13695.02
850.254	13650.28
850.577	13495.03
850.9	13502.03
851.223	13385.65
851.546	13434.46
851.869	13327.12
852.192	13395.82
852.515	13297.52
852.838	13159.89
853.161	13211.42
853.483	13112.66
853.806	13058.88
854.129	13083.06
854.451	12972.78
854.774	12983.18
855.096	12926.23
855.419	12888.71
855.741	12851.65
856.063	12750.87
856.385	12799
856.708	12703.18
857.03	12686.46
857.352	12670.42
857.674	12682.17
857.996	12624.77
858.318	12511.55
858.64	12508.61
858.961	12440.36
859.283	12395.85
859.605	12389.74
859.926	12449.4
860.248	12397.88
860.57	12274.95
860.891	12345.23
861.212	12229.75
861.534	12151.33
861.855	12203.31
862.176	12173.25
862.498	12119.47
862.819	12131.67
863.14	12043.99
863.461	12054.16
863.782	12031.11
864.103	11997.21
864.424	12021.17
864.745	11957.89
865.065	11871.57
865.386	11873.37
865.707	11886.26
866.027	11869.98
866.348	11820.27
866.668	11862.75
866.989	11752.02
867.309	11762.64
867.63	11791.34
867.95	11763.09
868.27	11675.64
868.59	11655.98
868.91	11639.48
869.23	11585.25
869.55	11548.86
869.87	11645.58
870.19	11613.27
870.51	11639.71
870.83	11604.45
871.15	11574.63
871.469	11548.64
871.789	11526.49
872.109	11420.73
872.428	11422.99
872.748	11435.87
873.067	11340.51
873.386	11340.05
873.706	11437.45
874.025	11347.51
874.344	11347.74
874.663	11368.3
874.982	11243.33
875.301	11325.14
875.62	11237.01
875.939	11182.32
876.258	11188.42
876.577	11158.59
876.896	11170.12
877.214	11144.58
877.533	11165.37
877.852	11194.75
878.17	11067.97
878.489	11073.4
878.807	11096.45
879.125	11049.89
879.444	11079.5
879.762	11015.54
880.08	10957.24
880.398	10944.59
880.716	10924.7
881.034	10919.28
881.352	10945.26
881.67	10817.36
881.988	10876.34
882.306	10822.78
882.624	10855.1
882.941	10789.79
883.259	10748.43
883.577	10701.88
883.894	10669.11
884.212	10662.78
884.529	10681.32
884.846	10653.07
885.164	10629.57
885.481	10559.96
885.798	10573.52
886.115	10527.65
886.432	10525.16
886.75	10466.63
887.067	10451.72
887.383	10333.08
887.7	10484.71
888.017	10343.7
888.334	10383.7
888.651	10335.34
888.967	10326.52
889.284	10289.46
889.6	10251.72
889.917	10240.42
890.233	10256.24
890.55	10049.47
890.866	10209.46
891.182	10064.16
891.498	10067.32
891.815	10065.51
892.131	10045.17
892.447	10046.53
892.763	9960.43
893.079	9904.16
893.395	9927.44
893.71	9927.21
894.026	9821.68
894.342	9830.26
894.657	9795.91
894.973	9727.67
895.289	9733.54
895.604	9706.2
895.92	9603.38
896.235	9659.65
896.55	9593.43
896.865	9637.95
897.181	9558.86
897.496	9504.17
897.811	9502.82
898.126	9407.68
898.441	9402.03
898.756	9361.35
899.071	9223.73
899.386	9292.88
899.7	9261.47
900.015	9199.77
900.33	9194.57
900.644	9198.19
900.959	9160.68
901.273	9145.08
901.588	9118.64
901.902	9032.09
902.216	9009.04
902.531	9001.59
902.845	8930.85
903.159	8882.72
903.473	8896.73
903.787	8852.44
904.101	8751.87
904.415	8777.41
904.729	8813.79
905.042	8742.61
905.356	8660.13
905.67	8714.36
905.984	8663.74
906.297	8667.58
906.611	8579.22
906.924	8498.32
907.237	8510.75
907.551	8410.64
907.864	8457.42
908.177	8466.46
908.491	8393.92
908.804	8350.3
909.117	8346.01
909.43	8254.71
909.743	8223.07
910.056	8199.35
910.368	8241.61
910.681	8125.68
910.994	8085
911.307	8094.26
911.619	8009.97
911.932	8022.18
912.244	7970.2
912.557	7971.33
912.869	7925.91
913.181	7902.41
913.494	7871.9
913.806	7786.93
914.118	7771.11
914.43	7704.67
914.742	7703.54
915.054	7696.08
915.366	7640.94
915.678	7607.5
915.99	7585.13
916.302	7477.33
916.613	7531.34
916.925	7507.39
917.236	7464.68
917.548	7478.91
917.859	7437.56
918.171	7377.9
918.482	7300.61
918.794	7307.39
919.105	7234.85
919.416	7233.5
919.727	7228.3
920.038	7221.97
920.349	7146.04
920.66	7123.22
920.971	7049.55
921.282	7047.96
921.593	7034.63
921.903	6982.43
922.214	6950.79
922.525	6885.48
922.835	6892.71
923.146	6831.92
923.456	6819.5
923.767	6788.99
924.077	6817.01
924.387	6783.11
924.697	6720.52
925.008	6705.83
925.318	6658.14
925.628	6653.85
925.938	6666.28
926.248	6623.79
926.558	6545.83
926.867	6540.18
927.177	6496.79
927.487	6409.56
927.796	6415.89
928.106	6404.37
928.416	6397.59
928.725	6366.63
929.034	6374.99
929.344	6357.81
929.653	6307.42
929.962	6218.16
930.271	6246.63
930.581	6188.55
930.89	6186.97
931.199	6150.13
931.508	6095.9
931.817	6086.63
932.125	6018.16
932.434	6003.25
932.743	6008.67
933.051	5996.69
933.36	5944.26
933.669	5932.06
933.977	5938.39
934.286	5845.06
934.594	5930.25
934.902	5886.19
935.21	5810.71
935.519	5755.79
935.827	5770.71
936.135	5769.35
936.443	5669.92
936.751	5646.42
937.059	5671.28
937.367	5645.52
937.674	5655.91
937.982	5578.4
938.29	5621.56
938.597	5587.66
938.905	5515.8
939.213	5500.89
939.52	5488.91
939.827	5430.61
940.135	5420.21
940.442	5399.87
940.749	5365.3
941.056	5398.06
941.363	5308.35
941.67	5274.68
941.977	5283.04
942.284	5265.41
942.591	5224.96
942.898	5220.89
943.205	5196.71
943.511	5166.43
943.818	5142.03
944.125	5160.1
944.431	5131.18
944.738	5044.18
945.044	5069.26
945.35	5052.54
945.657	5006.21
945.963	5000.56
946.269	4976.83
946.575	4933.44
946.881	4933.44
947.187	4894.8
947.493	4881.47
947.799	4881.24
948.105	4833.56
948.41	4834.92
948.716	4798.31
949.022	4767.8
949.327	4754.24
949.633	4681.25
949.938	4723.05
950.244	4706.56
950.549	4666.78
950.854	4666.56
951.16	4627.24
951.465	4660
951.77	4581.59
952.075	4563.96
952.38	4642.6
952.685	4537.3
952.99	4551.53
953.294	4507.92
953.599	4490.52
953.904	4457.52
954.209	4455.94
954.513	4435.38
954.818	4383.85
955.122	4384.98
955.426	4372.55
955.731	4379.33
956.035	4329.17
956.339	4316.74
956.643	4273.8
956.948	4265.89
957.252	4254.82
957.556	4205.55
957.86	4231.09
958.163	4180.7
958.467	4176.63
958.771	4149.51
959.075	4156.52
959.378	4121.94
959.682	4090.98
959.985	4105.22
960.289	4085.1
960.592	4060.92
960.896	4011.66
961.199	4026.12
961.502	4003.52
961.805	3995.39
962.108	3989.97
962.411	3945.22
962.714	3867.71
963.017	3955.39
963.32	3929.63
963.623	3920.81
963.926	3871.55
964.228	3825
964.531	3846.69
964.833	3807.37
965.136	3806.47
965.438	3783.19
965.741	3763.76
966.043	3745.45
966.345	3766.02
966.648	3712.68
966.95	3710.88
967.252	3659.35
967.554	3674.49
967.856	3626.36
968.158	3658.67
968.46	3606.25
968.761	3646.02
969.063	3598.11
969.365	3582.97
969.666	3612.35
969.968	3530.09
970.269	3539.58
970.571	3516.53
970.872	3506.14
971.174	3470.21
971.475	3453.03
971.776	3434.05
972.077	3428.4
972.378	3382.3
972.679	3430.43
972.98	3391.56
973.281	3387.95
973.582	3371.45
973.883	3383.88
974.183	3294.62
974.484	3341.4
974.785	3304.56
975.085	3286.71
975.386	3245.35
975.686	3245.13
975.986	3244
976.287	3250.32
976.587	3234.96
976.887	3226.14
977.187	3203.55
977.487	3191.34
977.787	3172.59
978.087	3150.44
978.387	3178.91
978.687	3119.71
978.987	3108.41
979.286	3061.63
979.586	3088.97
979.885	3022.53
980.185	3029.31
980.484	3032.7
980.784	3007.17
981.083	2954.74
981.382	2995.42
981.682	2982.31
981.981	2981.4
982.28	2958.81
982.579	2920.39
982.878	2893.5
983.177	2881.97
983.475	2913.61
983.774	2897.34
984.073	2873.84
984.372	2853.95
984.67	2846.27
984.969	2850.33
985.267	2830.22
985.566	2821.63
985.864	2813.73
986.162	2801.75
986.461	2770.11
986.759	2775.76
987.057	2756.33
987.355	2715.87
987.653	2726.72
987.951	2728.76
988.249	2667.51
988.547	2707.74
988.844	2682.88
989.142	2721.3
989.44	2647.4
989.737	2621.87
990.035	2629.55
990.332	2608.08
990.63	2604.69
990.927	2597.46
991.224	2575.77
991.521	2572.15
991.819	2546.61
992.116	2532.6
992.413	2522.89
992.71	2576.22
993.006	2527.41
993.303	2506.16
993.6	2495.99
993.897	2489.89
994.193	2464.81
994.49	2450.57
994.787	2439.27
995.083	2454.19
995.379	2411.02
995.676	2399.05
995.972	2386.62
996.268	2372.83
996.565	2331.25
996.861	2362.44
997.157	2340.74
997.453	2357.92
997.749	2314.76
998.044	2319.95
998.34	2284.02
998.636	2279.05
998.932	2270.69
999.227	2248.77
999.523	2253.29
999.818	2252.16
1000.114	2239.28
1000.409	2242.67
1000.704	2201.76
1001	2224.36
1001.295	2164.03
1001.59	2164.7
1001.885	2178.26
1002.18	2159.05
1002.475	2130.81
1002.77	2124.93
1003.065	2094.42
1003.359	2089.22
1003.654	2118.38
1003.949	2087.64
1004.243	2066.63
1004.538	2062.33
1004.832	2066.63
1005.127	2030.7
1005.421	2037.02
1005.715	2012.16
1006.009	1973.3
1006.304	1992.28
1006.598	1961.54
1006.892	1916.12
1007.186	1981.2
1007.48	1951.15
1007.773	1936.69
1008.067	1920.87
1008.361	1899.63
1008.655	1877.93
1008.948	1906.4
1009.242	1905.95
1009.535	1865.73
1009.829	1827.31
1010.122	1857.82
1010.415	1834.09
1010.708	1825.05
1011.001	1825.05
1011.295	1826.63
1011.588	1801.32
1011.881	1783.92
1012.173	1787.31
1012.466	1764.04
1012.759	1780.31
1013.052	1725.17
1013.344	1729.91
1013.637	1738.5
1013.93	1724.71
1014.222	1711.83
1014.514	1679.29
1014.807	1650.59
1015.099	1657.82
1015.391	1660.54
1015.683	1667.77
1015.976	1656.92
1016.268	1651.04
1016.56	1625.06
1016.851	1618.5
1017.143	1601.78
1017.435	1573.98
1017.727	1583.48
1018.018	1607.43
1018.31	1574.66
1018.602	1554.78
1018.893	1536.47
1019.185	1538.96
1019.476	1527.43
1019.767	1488.11
1020.058	1501.22
1020.35	1507.77
1020.641	1472.07
1020.932	1472.97
1021.223	1464.38
1021.514	1467.32
1021.804	1423.48
1022.095	1404.72
1022.386	1441.33
1022.677	1434.55
1022.967	1404.05
1023.258	1391.62
1023.548	1396.59
1023.839	1379.41
1024.129	1349.81
1024.419	1347.55
1024.709	1369.24
1025	1310.94
1025.29	1325.63
1025.58	1326.53
1025.87	1340.77
1026.16	1301.67
1026.449	1306.42
1026.739	1293.31
1027.029	1296.03
1027.319	1272.52
1027.608	1278.62
1027.898	1262.13
1028.187	1214.67
1028.477	1237.95
1028.766	1246.31
1029.055	1217.84
1029.344	1196.14
1029.634	1203.15
1029.923	1211.28
1030.212	1172.64
1030.501	1183.94
1030.79	1172.19
1031.078	1177.61
1031.367	1154.33
1031.656	1141
1031.945	1161.79
1032.233	1145.29
1032.522	1139.87
1032.81	1127.44
1033.099	1122.24
1033.387	1096.26
1033.675	1123.6
1033.963	1103.49
1034.251	1086.54
1034.54	1117.72
1034.828	1102.36
1035.116	1052.64
1035.403	1082.92
1035.691	1055.58
1035.979	1057.39
1036.267	1041.12
1036.554	1058.52
1036.842	1045.64
1037.129	1018.97
1037.417	1017.84
1037.704	1016.71
1037.992	975.81
1038.279	1019.65
1038.566	997.5
1038.853	997.5
1039.14	997.5
