Data from hue_190_FLMS001491_00023.txt Node
Date: Tue Feb 07 16:45:03 GMT 2017
User: dcchb
Spectrometer: FLMS00149
Trigger mode: 0
Integration Time (sec): 2.000000E-2
Scans to average: 10
Electric dark correction enabled: true
Nonlinearity correction enabled: false
Boxcar width: 0
XAxis mode: Wavelengths
Number of Pixels in Spectrum: 2048
>>>>>Begin Spectral Data<<<<<
341.393	-26.86
341.776	-26.86
342.16	-26.86
342.543	-58.5
342.927	-62.79
343.31	-67.31
343.693	-67.54
344.077	-70.03
344.46	-51.04
344.843	-54.43
345.226	-56.47
345.61	-41.1
345.993	-23.47
346.376	1.61
346.759	-0.42
347.142	20.37
347.525	43.87
347.908	66.24
348.291	75.05
348.674	113.7
349.057	110.99
349.44	105.11
349.823	142.4
350.206	152.57
350.588	182.4
350.971	199.35
351.354	204.54
351.737	230.98
352.119	257.2
352.502	244.99
352.884	277.08
353.267	289.74
353.65	283.41
354.032	306.46
354.414	307.14
354.797	298.55
355.179	305.56
355.562	316.4
355.944	322.05
356.326	314.37
356.709	326.8
357.091	308.04
357.473	337.19
357.855	341.94
358.238	337.42
358.62	317.76
359.002	324.09
359.384	323.64
359.766	320.02
360.148	339.23
360.53	319.57
360.912	353.69
361.294	335.84
361.676	322.73
362.057	334.03
362.439	317.31
362.821	314.82
363.203	323.41
363.584	310.08
363.966	308.04
364.348	334.03
364.729	308.04
365.111	317.31
365.493	318.21
365.874	295.39
366.256	303.07
366.637	300.59
367.019	305.1
367.4	289.06
367.781	298.55
368.163	308.72
368.544	300.36
368.925	306.91
369.306	307.59
369.688	315.27
370.069	296.52
370.45	301.26
370.831	283.86
371.212	317.53
371.593	301.72
371.974	301.04
372.355	274.37
372.736	296.29
373.117	307.14
373.498	319.34
373.879	323.18
374.26	287.48
374.641	309.4
375.021	292.45
375.402	305.33
375.783	298.78
376.163	299
376.544	292
376.925	289.74
377.305	305.78
377.686	322.05
378.066	296.97
378.447	318.66
378.827	315.5
379.208	322.05
379.588	324.31
379.968	319.12
380.349	315.5
380.729	289.51
381.109	322.73
381.489	341.49
381.87	331.09
382.25	327.93
382.63	317.08
383.01	310.98
383.39	327.25
383.77	329.29
384.15	335.16
384.53	341.49
384.91	332.45
385.29	340.81
385.67	341.71
386.049	340.13
386.429	339.91
386.809	336.97
387.189	326.57
387.568	332.9
387.948	325.67
388.328	325.44
388.707	327.93
389.087	344.88
389.466	365.22
389.846	360.47
390.225	351.21
390.605	367.25
390.984	351.66
391.363	357.31
391.743	339.23
392.122	353.47
392.501	367.7
392.881	362.28
393.26	358.89
393.639	374.48
394.018	364.99
394.397	372.45
394.776	364.31
395.155	368.15
395.534	359.79
395.913	367.25
396.292	376.06
396.671	371.77
397.05	365.22
397.429	392.56
397.808	368.38
398.186	361.15
398.565	392.33
398.944	383.97
399.323	398.89
399.701	386.23
400.08	383.3
400.458	406.35
400.837	414.93
401.215	382.39
401.594	406.8
401.972	386.91
402.351	423.07
402.729	428.49
403.107	404.76
403.486	396.4
403.864	414.03
404.242	387.59
404.62	440.02
404.999	421.49
405.377	449.96
405.755	432.33
406.133	432.79
406.511	449.73
406.889	435.95
407.267	438.21
407.645	443.63
408.023	449.06
408.401	444.54
408.779	488.83
409.156	462.61
409.534	463.74
409.912	479.11
410.29	494.48
410.667	521.14
411.045	500.35
411.422	525.89
411.8	520.24
412.178	533.8
412.555	527.92
412.933	559.34
413.31	540.35
413.687	560.01
414.065	569.96
414.442	567.7
414.819	593.68
415.197	595.27
415.574	569.96
415.951	618.54
416.328	635.04
416.705	620.12
417.082	644.53
417.46	620.12
417.837	640.69
418.214	631.2
418.591	651.99
418.967	674.36
419.344	679.33
419.721	666.45
420.098	692.44
420.475	719.11
420.852	705.32
421.228	714.81
421.605	756.39
421.982	741.25
422.358	769.95
422.735	760.46
423.111	801.14
423.488	794.13
423.864	814.02
424.241	831.64
424.617	851.53
424.994	860.12
425.37	867.12
425.746	880.91
426.123	888.37
426.499	904.19
426.875	920.46
427.251	920.91
427.627	967.01
428.003	941.02
428.379	969.49
428.756	987.12
429.132	1012.88
429.507	1014.92
429.883	1019.89
430.259	1011.3
430.635	1065.31
431.011	1041.36
431.387	1072.77
431.763	1079.1
432.138	1083.16
432.514	1103.5
432.89	1129.49
433.265	1160.68
433.641	1146.89
434.016	1200.9
434.392	1211.97
434.767	1230.73
435.143	1260.33
435.518	1254.23
435.894	1301.69
436.269	1315.47
436.644	1324.06
437.02	1324.06
437.395	1343.27
437.77	1397.28
438.145	1422.59
438.52	1471.4
438.895	1475.92
439.271	1437.05
439.646	1510.5
440.021	1514.34
440.395	1567.67
440.77	1557.05
441.145	1563.15
441.52	1610.16
441.895	1606.77
442.27	1659.19
442.645	1666.65
443.019	1704.62
443.394	1670.27
443.769	1713.2
444.143	1717.05
444.518	1762.24
444.892	1782.81
445.267	1776.93
445.641	1814.9
446.016	1783.03
446.39	1835.01
446.764	1856.93
447.139	1823.26
447.513	1863.03
447.887	1890.37
448.262	1907.77
448.636	1928.57
449.01	1953.42
449.384	1945.74
449.758	1973.31
450.132	1976.02
450.506	2002.01
450.88	2046.08
451.254	1997.04
451.628	2039.52
452.002	2051.5
452.376	2103.7
452.75	2109.58
453.123	2122.46
453.497	2161.55
453.871	2166.52
454.244	2212.63
454.618	2253.3
454.992	2259.4
455.365	2290.59
455.739	2360.64
456.112	2352.96
456.486	2358.38
456.859	2368.78
457.232	2459.85
457.606	2410.81
457.979	2451.94
458.352	2542.79
458.725	2560.19
459.099	2549.11
459.472	2615.33
459.845	2620.07
460.218	2668.43
460.591	2696.91
460.964	2723.12
461.337	2758.83
461.71	2837.47
462.083	2824.36
462.456	2809.67
462.829	2850.57
463.201	2923.57
463.574	2955.66
463.947	2949.33
464.32	3056.67
464.692	3060.29
465.065	3129.89
465.438	3150.45
465.81	3164.24
466.183	3249.66
466.555	3299.6
466.928	3295.08
467.3	3296.21
467.672	3352.93
468.045	3474.97
468.417	3469.77
468.789	3479.48
469.161	3589.09
469.534	3652.36
469.906	3697.56
470.278	3716.54
470.65	3742.08
471.022	3822.3
471.394	3869.53
471.766	3899.59
472.138	3937.33
472.51	4029.07
472.882	4091.45
473.253	4140.71
473.625	4262.74
473.997	4259.8
474.369	4306.81
474.74	4393.13
475.112	4493.24
475.484	4550.42
475.855	4653.92
476.227	4656.63
476.598	4804.42
476.97	4822.5
477.341	4928.49
477.713	5035.83
478.084	5074.47
478.455	5189.04
478.827	5258.87
479.198	5409.6
479.569	5395.82
479.94	5560.79
480.311	5627.22
480.682	5731.85
481.053	5850.04
481.424	5929.82
481.795	6008.46
482.166	6114.44
482.537	6190.83
482.908	6299.3
483.279	6372.06
483.65	6503.36
484.021	6604.15
484.391	6707.87
484.762	6760.53
485.133	6845.95
485.503	6905.84
485.874	7063.8
486.244	7095.21
486.615	7266.5
486.985	7292.72
487.356	7398.93
487.726	7525.93
488.097	7718.24
488.467	7671.92
488.837	7916.88
489.207	8024.22
489.578	8038.46
489.948	8183.32
490.318	8205.46
490.688	8262.64
491.058	8402.29
491.428	8509.64
491.798	8590.76
492.168	8729.52
492.538	8746.01
492.908	8814.71
493.278	8946.23
493.648	8968.83
494.017	9131.54
494.387	9147.13
494.757	9190.75
495.126	9355.94
495.496	9351.19
495.866	9376.96
496.235	9494.24
496.605	9571.3
496.974	9551.87
497.344	9691.52
497.713	9700.11
498.082	9784.86
498.452	9808.58
498.821	9808.13
499.19	9881.58
499.559	10001.12
499.928	10001.57
500.298	10022.82
500.667	10094.23
501.036	10092.64
501.405	10249.93
501.774	10105.53
502.143	10141.68
502.512	10216.93
502.88	10331.51
503.249	10211.96
503.618	10366.08
503.987	10404.73
504.356	10357.27
504.724	10471.62
505.093	10499.64
505.462	10515.23
505.83	10496.93
506.199	10614.66
506.567	10648.79
506.936	10655.12
507.304	10737.37
507.672	10731.05
508.041	10780.76
508.409	10804.49
508.777	10829.57
509.145	10902.57
509.514	10877.26
509.882	10889.23
510.25	10860.99
510.618	10926.29
510.986	10965.62
511.354	11044.48
511.722	11038.38
512.09	11160.86
512.458	11021.43
512.826	11024.6
513.193	11010.36
513.561	11129.45
513.929	11017.59
514.297	11156.57
514.664	11153.41
515.032	11153.18
515.4	11251.94
515.767	11207.42
516.135	11180.75
516.502	11118.61
516.869	11229.56
517.237	11190.02
517.604	11155.44
517.972	11226.85
518.339	11192.95
518.706	11182.79
519.073	11219.17
519.44	11246.74
519.808	11292.39
520.175	11263.91
520.542	11296
520.909	11267.3
521.276	11205.16
521.643	11281.99
522.009	11243.35
522.376	11262.33
522.743	11310.92
523.11	11320.41
523.477	11367.86
523.843	11374.42
524.21	11413.97
524.577	11372.38
524.943	11355.66
525.31	11394.3
525.676	11475.21
526.043	11393.18
526.409	11419.16
526.776	11346.85
527.142	11379.62
527.508	11335.78
527.874	11364.02
528.241	11357.47
528.607	11229.11
528.973	11325.15
529.339	11243.57
529.705	11254.42
530.071	11342.55
530.437	11253.29
530.803	11295.1
531.169	11225.72
531.535	11124.93
531.901	11110.02
532.267	11102.11
532.632	11075.44
532.998	11089.23
533.364	11073.41
533.73	10959.06
534.095	11021.21
534.461	10940.76
534.826	10964.26
535.192	10924.03
535.557	10847.88
535.923	10792.96
536.288	10749.58
536.653	10721.1
537.019	10583.25
537.384	10624.83
537.749	10559.3
538.114	10536.47
538.479	10426.65
538.845	10455.8
539.21	10286.99
539.575	10327.89
539.94	10252.19
540.305	10289.7
540.67	10102.14
541.034	10077.05
541.399	10097.16
541.764	9986.43
542.129	9980.1
542.494	9945.3
542.858	9894.23
543.223	9806.78
543.587	9819.21
543.952	9651.3
544.316	9676.16
544.681	9617.63
545.045	9606.1
545.41	9596.61
545.774	9428.03
546.138	9419.22
546.503	9364.98
546.867	9337.64
547.231	9379.22
547.595	9279.11
547.959	9203.63
548.324	9087.25
548.688	9013.35
549.052	9060.35
549.416	9016.29
549.779	8906.46
550.143	8890.87
550.507	8908.72
550.871	8881.15
551.235	8761.61
551.599	8680.48
551.962	8728.16
552.326	8605.45
552.689	8624.89
553.053	8548.05
553.417	8495.17
553.78	8572.68
554.143	8411.78
554.507	8401.39
554.87	8397.1
555.234	8392.8
555.597	8286.36
555.96	8297.44
556.323	8207.27
556.686	8216.76
557.05	8198.23
557.413	8080.27
557.776	8155.07
558.139	8070.32
558.502	8079.36
558.865	8058.57
559.228	8050.44
559.59	7963.21
559.953	7946.26
560.316	8030.33
560.679	7947.39
561.041	7950.78
561.404	7891.8
561.767	7903.78
562.129	7836.88
562.492	7836.88
562.854	7775.42
563.217	7860.61
563.579	7793.5
563.941	7797.56
564.304	7731.12
564.666	7803.66
565.028	7770.45
565.39	7702.42
565.753	7709.43
566.115	7692.93
566.477	7785.13
566.839	7734.29
567.201	7729.54
567.563	7686.61
567.925	7733.84
568.287	7630.79
568.648	7633.27
569.01	7688.87
569.372	7644.8
569.734	7592.37
570.095	7653.61
570.457	7657.91
570.819	7603.44
571.18	7618.13
571.542	7588.08
571.903	7628.75
572.265	7594.18
572.626	7624.91
572.987	7629.66
573.349	7582.88
573.71	7644.35
574.071	7550.34
574.432	7599.38
574.794	7600.73
575.155	7611.13
575.516	7515.76
575.877	7551.92
576.238	7559.83
576.599	7547.85
576.96	7542.2
577.32	7559.15
577.681	7526.38
578.042	7555.54
578.403	7504.92
578.763	7481.19
579.124	7454.07
579.485	7556.67
579.845	7547.85
580.206	7508.98
580.566	7491.13
580.927	7490
581.287	7537.01
581.648	7452.04
582.008	7520.06
582.368	7505.14
582.728	7389.44
583.089	7425.14
583.449	7404.13
583.809	7395.54
584.169	7367.29
584.529	7403.22
584.889	7446.39
585.249	7326.16
585.609	7331.59
585.969	7408.42
586.329	7361.19
586.688	7356.22
587.048	7341.53
587.408	7263.34
587.768	7337.91
588.127	7299.5
588.487	7254.07
588.846	7312.38
589.206	7260.4
589.565	7254.75
589.925	7248.43
590.284	7213.17
590.643	7209.1
591.003	7241.42
591.362	7185.6
591.721	7212.27
592.08	7187.18
592.44	7196.68
592.799	7182.89
593.158	7188.09
593.517	7164.81
593.876	7174.08
594.235	7133.63
594.593	7143.12
594.952	7186.73
595.311	7150.35
595.67	7078.49
596.029	7157.35
596.387	7134.53
596.746	7175.21
597.104	7037.81
597.463	7146.73
597.822	7069.45
598.18	7074.87
598.538	7112.61
598.897	7103.34
599.255	6997.36
599.613	7119.84
599.972	7085.49
600.33	7054.98
600.688	7009.11
601.046	7055.66
601.404	6999.84
601.762	7048.66
602.12	7041.43
602.478	7021.31
602.836	7015.44
603.194	7007.75
603.552	7037.58
603.91	6985.61
604.268	6998.71
604.625	6985.16
604.983	6963.23
605.341	6969.34
605.698	7000.07
606.056	6974.76
606.413	6966.85
606.771	7043.01
607.128	7005.27
607.485	6976.12
607.843	6955.55
608.2	7052.27
608.557	7035.78
608.914	6956.68
609.272	7015.89
609.629	7007.08
609.986	6993.97
610.343	7020.18
610.7	7020.18
611.057	6997.13
611.414	7036.23
611.771	7010.47
612.127	6993.29
612.484	6972.95
612.841	7045.04
613.198	7028.54
613.554	7004.59
613.911	7054.53
614.267	7062.22
614.624	6993.29
614.98	7063.12
615.337	7099.73
615.693	7046.4
616.05	7097.69
616.406	7087.3
616.762	7076.23
617.118	7053.63
617.475	7061.31
617.831	7056.34
618.187	7132.27
618.543	7113.51
618.899	7109.9
619.255	7092.95
619.611	7068.99
619.967	7108.32
620.323	7118.49
620.678	7056.34
621.034	7086.85
621.39	7087.3
621.746	7119.39
622.101	7165.72
622.457	7067.87
622.812	7090.46
623.168	7093.63
623.523	7101.99
623.879	7134.08
624.234	7049.11
624.589	7127.52
624.945	7059.5
625.3	7119.16
625.655	7081.42
626.01	7061.99
626.365	7104.7
626.72	7089.79
627.075	7082.78
627.43	7060.86
627.785	7092.95
628.14	7038.26
628.495	7060.63
628.85	7055.44
629.205	7011.82
629.559	7059.5
629.914	7054.98
630.269	6991.93
630.623	6997.81
630.978	6975.89
631.332	7046.85
631.687	7042.78
632.041	6998.49
632.396	7007.53
632.75	6961.65
633.104	6996.91
633.459	6940.41
633.813	6965.95
634.167	6915.1
634.521	6984.93
634.875	6937.25
635.229	6895.21
635.583	6945.83
635.937	6900.86
636.291	6876.91
636.645	6872.16
636.999	6869.23
637.352	6871.94
637.706	6789.91
638.06	6856.35
638.413	6845.27
638.767	6862.67
639.121	6833.97
639.474	6795.1
639.828	6800.75
640.181	6820.19
640.534	6796.01
640.888	6796.46
641.241	6736.8
641.594	6783.35
641.947	6812.96
642.301	6755.33
642.654	6759.4
643.007	6773.64
643.36	6818.15
643.713	6691.15
644.066	6748.55
644.419	6737.93
644.771	6704.94
645.124	6628.1
645.477	6670.59
645.83	6641.44
646.182	6573.87
646.535	6528.22
646.888	6618.84
647.24	6497.48
647.593	6556.69
647.945	6501.78
648.298	6513.76
648.65	6581.78
649.002	6526.18
649.355	6583.81
649.707	6479.18
650.059	6590.14
650.411	6615.9
650.763	6641.21
651.115	6671.04
651.467	6702.68
651.819	6730.02
652.171	6734.09
652.523	6680.3
652.875	6688.89
653.227	6637.59
653.578	6729.12
653.93	6686.41
654.282	6675.11
654.633	6704.94
654.985	6704.48
655.337	6662.45
655.688	6732.96
656.039	6731.6
656.391	6702.9
656.742	6702.68
657.094	6718.5
657.445	6713.98
657.796	6737.7
658.147	6732.05
658.498	6729.12
658.849	6748.33
659.2	6756.46
659.551	6704.71
659.902	6724.6
660.253	6726.41
660.604	6734.31
660.955	6730.92
661.306	6758.27
661.656	6762.11
662.007	6786.29
662.358	6766.18
662.708	6812.5
663.059	6796.69
663.409	6779.96
663.76	6826.06
664.11	6781.54
664.461	6788.55
664.811	6812.05
665.161	6805.95
665.511	6807.76
665.862	6784.93
666.212	6840.75
666.562	6820.87
666.912	6842.33
667.262	6848.21
667.612	6792.39
667.962	6805.5
668.312	6805.5
668.662	6856.8
669.011	6799.62
669.361	6795.56
669.711	6813.63
670.06	6859.28
670.41	6747.65
670.76	6735.22
671.109	6789.68
671.459	6797.14
671.808	6787.42
672.157	6797.14
672.507	6780.87
672.856	6801.66
673.205	6743.58
673.554	6824.26
673.904	6751.94
674.253	6809.34
674.602	6738.38
674.951	6650.47
675.3	6669.68
675.649	6755.33
675.998	6734.54
676.346	6674.43
676.695	6704.03
677.044	6751.49
677.393	6701.55
677.741	6660.64
678.09	6691.83
678.438	6643.7
678.787	6690.47
679.135	6685.28
679.484	6636.92
679.832	6617.48
680.181	6596.01
680.529	6570.93
680.877	6621.55
681.225	6547.2
681.573	6676.01
681.922	6573.19
682.27	6589.23
682.618	6551.04
682.966	6522.79
683.314	6598.95
683.661	6506.07
684.009	6499.52
684.357	6425.4
684.705	6466.98
685.053	6442.34
685.4	6445.06
685.748	6408
686.095	6390.82
686.443	6350.14
686.79	6334.1
687.138	6345.17
687.485	6376.58
687.832	6311.95
688.18	6379.52
688.527	6253.42
688.874	6256.59
689.221	6250.03
689.568	6265.63
689.915	6249.36
690.262	6203.48
690.609	6169.58
690.956	6162.35
691.303	6137.49
691.65	6129.36
691.997	6128.23
692.344	6125.29
692.69	6110.83
693.037	6063.82
693.383	5995.58
693.73	6006.65
694.077	5986.31
694.423	5914.22
694.769	5932.53
695.116	5878.07
695.462	5933.43
695.808	5840.78
696.155	5864.96
696.501	5783.15
696.847	5806.66
697.193	5754.91
697.539	5845.3
697.885	5720.56
698.231	5662.03
698.577	5694.57
698.923	5650.5
699.269	5698.41
699.614	5629.03
699.96	5589.94
700.306	5646.89
700.651	5561.24
700.997	5527.11
701.342	5516.95
701.688	5491.64
702.033	5518.98
702.379	5472.88
702.724	5471.75
703.069	5439.21
703.415	5416.38
703.76	5353.11
704.105	5338.42
704.45	5315.37
704.795	5285.99
705.14	5294.58
705.485	5282.38
705.83	5258.42
706.175	5284.18
706.52	5299.32
706.865	5248.03
707.209	5216.16
707.554	5195.37
707.899	5206.67
708.243	5181.36
708.588	5128.03
708.932	5150.85
709.277	5139.78
709.621	5096.39
709.966	5135.49
710.31	5060.69
710.654	5048.26
710.998	5062.04
711.342	5017.98
711.687	5022.27
712.031	4991.76
712.375	5022.5
712.719	5042.16
713.063	4987.92
713.407	4985.66
713.75	4949.95
714.094	4945.21
714.438	4978.43
714.782	4936.17
715.125	4872.67
715.469	4945.66
715.812	4907.47
716.156	4903.4
716.499	4918.09
716.843	4868.15
717.186	4875.38
717.53	4882.16
717.873	4873.12
718.216	4895.04
718.559	4839.45
718.902	4844.42
719.246	4840.8
719.589	4852.1
719.932	4783.18
720.275	4807.59
720.617	4809.62
720.96	4818.66
721.303	4831.99
721.646	4793.35
721.989	4726.23
722.331	4795.61
722.674	4817.3
723.016	4781.15
723.359	4750.41
723.701	4788.6
724.044	4766
724.386	4725.33
724.729	4742.05
725.071	4778.89
725.413	4728.94
725.755	4688.49
726.097	4708.83
726.439	4734.14
726.782	4704.09
727.124	4757.87
727.465	4730.53
727.807	4756.29
728.149	4728.49
728.491	4687.59
728.833	4771.43
729.175	4737.53
729.516	4746.34
729.858	4757.19
730.199	4742.5
730.541	4802.84
730.882	4729.85
731.224	4735.04
731.565	4722.84
731.906	4766.68
732.248	4760.13
732.589	4693.92
732.93	4724.88
733.271	4729.17
733.612	4765.55
733.953	4737.76
734.294	4724.2
734.635	4746.34
734.976	4767.81
735.317	4745.89
735.658	4775.04
735.999	4743.86
736.339	4777.98
736.68	4769.62
737.021	4800.81
737.361	4834.03
737.702	4852.33
738.042	4821.14
738.383	4777.08
738.723	4832.22
739.063	4811.2
739.404	4836.29
739.744	4841.71
740.084	4873.12
740.424	4909.05
740.764	4930.29
741.104	4930.75
741.444	4947.47
741.784	4955.83
742.124	4956.96
742.464	5036.05
742.804	5041.25
743.143	5050.52
743.483	5074.25
743.823	5074.25
744.162	5096.39
744.502	5132.1
744.841	5114.02
745.181	5213
745.52	5161.47
745.86	5253.68
746.199	5253.45
746.538	5292.09
746.877	5393.33
747.216	5413.67
747.556	5503.16
747.895	5531.63
748.234	5535.25
748.573	5594.68
748.911	5655.92
749.25	5687.79
749.589	5773.44
749.928	5872.87
750.267	5940.66
750.605	5935.24
750.944	6057.5
751.283	6100.21
751.621	6142.01
751.96	6262.46
752.298	6331.61
752.636	6435.57
752.975	6534.09
753.313	6640.31
753.651	6738.16
753.989	6809.34
754.327	6970.69
754.666	7047.3
755.004	7193.51
755.342	7271.7
755.679	7429.44
756.017	7537.68
756.355	7767.96
756.693	7796.66
757.031	8005.92
757.368	8193.26
757.706	8324.56
758.044	8399.36
758.381	8555.06
758.719	8774.49
759.056	8889.96
759.394	9078.43
759.731	9269.39
760.068	9473.45
760.405	9653.11
760.743	9692.88
761.08	9881.12
761.417	10041.35
761.754	10248.8
762.091	10499.64
762.428	10568.34
762.765	10772.63
763.102	10985.73
763.438	11099.17
763.775	11307.3
764.112	11524.02
764.449	11723.56
764.785	11865.03
765.122	12026.83
765.458	12089.88
765.795	12324.9
766.131	12540.04
766.467	12693.25
766.804	12837.66
767.14	12934.83
767.476	13166.69
767.812	13265.44
768.148	13468.6
768.485	13575.26
768.821	13697.75
769.157	13858.19
769.492	13923.05
769.828	14148.36
770.164	14270.84
770.5	14321.69
770.836	14553.09
771.171	14510.83
771.507	14647.33
771.842	14700.88
772.178	14924.38
772.513	15020.88
772.849	15103.59
773.184	15143.36
773.519	15252.28
773.855	15296.8
774.19	15522.11
774.525	15574.99
774.86	15677.13
775.195	15687.07
775.53	15774.08
775.865	15868.54
776.2	15821.31
776.535	15829.67
776.87	16017.46
777.205	15940.85
777.539	16047.52
777.874	16166.83
778.209	16042.77
778.543	16130.68
778.878	16180.17
779.212	16292.03
779.547	16253.16
779.881	16369.99
780.215	16341.75
780.55	16385.36
780.884	16344.01
781.218	16500.61
781.552	16488.18
781.886	16483.21
782.22	16440.05
782.554	16507.16
782.888	16381.74
783.222	16389.88
783.556	16355.3
783.889	16372.48
784.223	16438.69
784.557	16456.77
784.89	16437.56
785.224	16402.08
785.557	16385.81
785.891	16421.29
786.224	16493.83
786.558	16395.76
786.891	16302.88
787.224	16254.52
787.557	16314.18
787.891	16443.21
788.224	16362.76
788.557	16377.22
788.89	16322.54
789.223	16337.23
789.556	16265.82
789.888	16352.59
790.221	16268.3
790.554	16237.34
790.887	16138.81
791.219	16114.63
791.552	16174.52
791.884	16127.74
792.217	16047.06
792.549	16113.5
792.882	15997.35
793.214	15976.11
793.546	15929.1
793.879	15843.68
794.211	15835.54
794.543	15947.41
794.875	15987.63
795.207	16026.05
795.539	15867.41
795.871	15890.01
796.203	15778.6
796.535	15661.76
796.867	15692.5
797.198	15633.29
797.53	15658.15
797.862	15598.71
798.193	15680.07
798.525	15508.77
798.856	15574.31
799.188	15438.49
799.519	15400.98
799.85	15327.99
800.182	15393.75
800.513	15375.9
800.844	15268.33
801.175	15345.16
801.506	15364.14
801.837	15197.14
802.168	15146.07
802.499	15206.63
802.83	15067.2
803.161	15049.12
803.491	15066.98
803.822	15059.97
804.153	14965.06
804.483	14899.75
804.814	14838.96
805.145	14835.12
805.475	14844.61
805.805	14772.75
806.136	14835.8
806.466	14720.77
806.796	14753.31
807.126	14674.44
807.457	14632.41
807.787	14615.01
808.117	14557.84
808.447	14531.4
808.777	14596.71
809.107	14441
809.436	14483.94
809.766	14401.23
810.096	14351.52
810.426	14378.18
810.755	14378.41
811.085	14320.56
811.414	14360.78
811.744	14274
812.073	14210.73
812.403	14172.99
812.732	14082.37
813.061	14191.52
813.39	14035.14
813.719	14092.77
814.049	14075.59
814.378	14018.19
814.707	14008.47
815.036	13967.57
815.365	13911.98
815.693	13837.18
816.022	13923.05
816.351	13773.45
816.68	13788.59
817.008	13844.41
817.337	13744.75
817.665	13654.36
817.994	13731.87
818.322	13743.62
818.651	13592.67
818.979	13684.64
819.307	13712.21
819.636	13653.68
819.964	13576.17
820.292	13655.49
820.62	13593.34
820.948	13582.04
821.276	13617.07
821.604	13592.21
821.932	13545.21
822.259	13601.03
822.587	13634.02
822.915	13606.45
823.243	13577.75
823.57	13448.04
823.898	13553.34
824.225	13576.17
824.553	13499.56
824.88	13574.36
825.207	13653
825.535	13546.56
825.862	13557.86
826.189	13552.89
826.516	13620.24
826.843	13627.69
827.17	13644.87
827.497	13591.76
827.824	13618.43
828.151	13645.77
828.478	13655.71
828.805	13659.56
829.131	13594.93
829.458	13540.69
829.785	13524.42
830.111	13596.28
830.438	13630.18
830.764	13642.83
831.09	13598.99
831.417	13587.24
831.743	13588.37
832.069	13573.68
832.395	13571.2
832.722	13626.34
833.048	13592.67
833.374	13489.62
833.7	13530.52
834.026	13535.72
834.351	13617.98
834.677	13471.76
835.003	13553.34
835.329	13452.78
835.654	13460.24
835.98	13465.44
836.306	13479.22
836.631	13444.42
836.956	13533.23
837.282	13493.91
837.607	13385.89
837.932	13342.5
838.258	13304.09
838.583	13318.55
838.908	13250.53
839.233	13304.09
839.558	13337.3
839.883	13191.09
840.208	13188.38
840.533	13131.66
840.858	13116.97
841.182	13212.34
841.507	13146.35
841.832	13154.03
842.156	13086.24
842.481	13072
842.805	12993.81
843.13	12977.09
843.454	12964.43
843.778	12947.94
844.103	12970.53
844.427	12840.14
844.751	12888.5
845.075	12818.67
845.399	12807.38
845.723	12716.53
846.047	12770.54
846.371	12610.32
846.695	12554.95
847.019	12535.97
847.343	12505.46
847.666	12458.91
847.99	12339.14
848.313	12380.27
848.637	12322.64
848.96	12312.02
849.284	12222.53
849.607	12153.16
849.931	12126.94
850.254	12111.12
850.577	11922.88
850.9	11876.55
851.223	11895.99
851.546	11905.25
851.869	11835.88
852.192	11804.46
852.515	11739.15
852.838	11634.75
853.161	11715.2
853.483	11637.69
853.806	11543.45
854.129	11520.63
854.451	11419.84
854.774	11399.28
855.096	11388.88
855.419	11396.79
855.741	11336.91
856.063	11338.49
856.385	11224.14
856.708	11261.65
857.03	11168.77
857.352	11229.79
857.674	11171.49
857.996	11149.11
858.318	11046.97
858.64	11069.12
858.961	11077.25
859.283	11010.59
859.605	10941.89
859.926	10938.05
860.248	10922.45
860.57	10890.82
860.891	10876.58
861.212	10821.66
861.534	10781.21
861.855	10698.96
862.176	10748.9
862.498	10756.81
862.819	10709.8
863.14	10734.89
863.461	10720.65
863.782	10698.73
864.103	10619.18
864.424	10592.07
864.745	10597.49
865.065	10564.95
865.386	10564.95
865.707	10498.06
866.027	10507.77
866.348	10556.81
866.668	10536.02
866.989	10433.2
867.309	10405.63
867.63	10432.3
867.95	10412.41
868.27	10319.76
868.59	10404.95
868.91	10304.84
869.23	10308.46
869.55	10230.27
869.87	10310.27
870.19	10344.62
870.51	10293.09
870.83	10267.1
871.15	10237.5
871.469	10226.43
871.789	10279.98
872.109	10181
872.428	10121.34
872.748	10162.92
873.067	10165.86
873.386	10144.39
873.706	10151.63
874.025	10071.63
874.344	10004.06
874.663	10053.32
874.982	10058.52
875.301	10025.53
875.62	10040.67
875.939	10024.17
876.258	10054.91
876.577	9937.62
876.896	9978.97
877.214	9946.43
877.533	9944.63
877.852	9935.81
878.17	9886.32
878.489	9912.31
878.807	9921.8
879.125	9852.88
879.444	9826.44
879.762	9758.87
880.08	9822.82
880.398	9795.02
880.716	9782.37
881.034	9687.68
881.352	9748.7
881.67	9722.48
881.988	9738.98
882.306	9675.03
882.624	9609.72
882.941	9599.32
883.259	9550.96
883.577	9538.31
883.894	9630.06
884.212	9553.68
884.529	9494.69
884.846	9481.59
885.164	9451.98
885.481	9418.76
885.798	9450.63
886.115	9365.21
886.432	9345.32
886.75	9344.19
887.067	9321.59
887.383	9289.05
887.7	9328.6
888.017	9240.92
888.334	9188.26
888.651	9189.62
888.967	9202.72
889.284	9134.25
889.6	9124.99
889.917	9111.65
890.233	9023.75
890.55	9043.41
890.866	9070.07
891.182	8968.83
891.498	8938.78
891.815	8995.72
892.131	8910.53
892.447	8944.43
892.763	8881.38
893.079	8806.12
893.395	8760.7
893.71	8793.24
894.026	8817.2
894.342	8738.56
894.657	8648.16
894.973	8673.47
895.289	8684.55
895.604	8620.59
895.92	8586.24
896.235	8518.45
896.55	8560.26
896.865	8579.01
897.181	8443.42
897.496	8557.77
897.811	8428.73
898.126	8461.05
898.441	8375.63
898.756	8381.95
899.071	8295.86
899.386	8320.94
899.7	8118.68
900.015	8251.11
900.33	8152.81
900.644	8172.02
900.959	8149.19
901.273	8135.86
901.588	8021.06
901.902	8041.85
902.216	8014.51
902.531	8008.41
902.845	7936.99
903.159	7924.57
903.473	7910.1
903.787	7903.55
904.101	7791.01
904.415	7811.57
904.729	7776.32
905.042	7737.23
905.356	7669.43
905.67	7710.79
905.984	7669.66
906.297	7611.13
906.611	7548.98
906.924	7562.32
907.237	7521.19
907.551	7470.57
907.864	7448.65
908.177	7440.96
908.491	7383.34
908.804	7314.86
909.117	7294.07
909.43	7278.03
909.743	7304.69
910.056	7239.16
910.368	7223.12
910.681	7188.99
910.994	7127.75
911.307	7163.23
911.619	7013.4
911.932	7054.31
912.244	7016.11
912.557	7017.24
912.869	7038.26
913.181	6909.68
913.494	6944.93
913.806	6878.27
914.118	6873.52
914.43	6819.96
914.742	6845.72
915.054	6722.79
915.366	6765.05
915.678	6715.33
915.99	6668.33
916.302	6648.89
916.613	6653.64
916.925	6663.58
917.236	6624.26
917.548	6652.51
917.859	6571.83
918.171	6536.58
918.482	6512.63
918.794	6488.67
919.105	6490.93
919.416	6386.98
919.727	6391.05
920.038	6407.77
920.349	6379.07
920.66	6285.06
920.971	6328
921.282	6250.49
921.593	6215.46
921.903	6193.99
922.214	6184.05
922.525	6189.47
922.835	6132.97
923.146	6106.99
923.456	6119.87
923.767	6132.97
924.077	6077.83
924.387	6068.34
924.697	5988.57
925.008	5968.23
925.318	5941.34
925.628	5935.24
925.938	5919.42
926.248	5881.91
926.558	5835.36
926.867	5851.17
927.177	5814.79
927.487	5784.96
927.796	5746.54
928.106	5697.28
928.416	5687.56
928.725	5677.39
929.034	5669.48
929.344	5623.16
929.653	5630.16
929.962	5612.31
930.271	5532.09
930.581	5571.41
930.89	5539.09
931.199	5483.27
931.508	5497.06
931.817	5469.94
932.125	5470.17
932.434	5427.23
932.743	5414.58
933.051	5366.89
933.36	5372.54
933.669	5302.49
933.977	5290.96
934.286	5302.26
934.594	5331.19
934.902	5227.91
935.21	5244.86
935.519	5213.9
935.827	5146.79
936.135	5139.1
936.443	5162.15
936.751	5097.52
937.059	5120.12
937.367	5031.31
937.674	5062.04
937.982	5050.74
938.29	5015.72
938.597	4996.06
938.905	4978.43
939.213	4952.89
939.52	4890.52
939.827	4936.17
940.135	4850.97
940.442	4838.32
940.749	4785.89
941.056	4848.49
941.363	4773.01
941.67	4804.2
941.977	4766
942.284	4749.96
942.591	4716.06
942.898	4701.37
943.205	4712.45
943.511	4701.37
943.818	4659.34
944.125	4599
944.431	4594.94
944.738	4571.89
945.044	4580.02
945.35	4487.59
945.657	4510.19
945.963	4477.65
946.269	4490.08
946.575	4431.78
946.881	4440.82
947.187	4392.46
947.493	4367.6
947.799	4440.36
948.105	4346.35
948.41	4368.05
948.716	4364.43
949.022	4318.56
949.327	4314.04
949.633	4265.68
949.938	4212.8
950.244	4269.07
950.549	4222.29
950.854	4215.06
951.16	4157.43
951.465	4153.37
951.77	4196.08
952.075	4110.88
952.38	4089.19
952.685	4105.91
952.99	4075.63
953.294	4044.89
953.599	4079.69
953.904	4041.05
954.209	3992.24
954.513	4047.38
954.818	4001.28
955.122	3964.67
955.426	3972.35
955.731	3916.99
956.035	3915.18
956.339	3903.43
956.643	3911.79
956.948	3809.42
957.252	3848.97
957.556	3828.63
957.86	3807.39
958.163	3814.39
958.467	3775.3
958.771	3769.87
959.075	3749.99
959.378	3715.86
959.682	3754.51
959.985	3688.07
960.289	3691.23
960.592	3697.33
960.896	3659.82
961.199	3658.01
961.502	3644.23
961.805	3618.46
962.108	3575.98
962.411	3571.69
962.714	3558.58
963.017	3559.48
963.32	3529.65
963.623	3498.24
963.926	3511.57
964.228	3484.68
964.531	3465.02
964.833	3481.74
965.136	3438.13
965.438	3449.88
965.741	3416.66
966.043	3386.83
966.345	3381.63
966.648	3347.28
966.95	3366.95
967.252	3269.32
967.554	3281.98
967.856	3324.91
968.158	3302.31
968.46	3262.09
968.761	3222.32
969.063	3217.34
969.365	3262.99
969.666	3250.34
969.968	3187.29
970.269	3204.69
970.571	3175.09
970.872	3168.53
971.174	3139.15
971.475	3126.27
971.776	3082.89
972.077	3116.1
972.378	3124.92
972.679	3103.9
972.98	3077.01
973.281	3098.03
973.582	3058.93
973.883	3069.55
974.183	3020.74
974.484	3025.03
974.785	3000.18
975.085	2986.16
975.386	2974.87
975.686	2938.71
975.986	2976.22
976.287	2887.64
976.587	2929.89
976.887	2906.17
977.187	2900.97
977.487	2887.41
977.787	2880.86
978.087	2866.85
978.387	2860.74
978.687	2861.42
978.987	2831.59
979.286	2764.93
979.586	2802.44
979.885	2788.88
980.185	2738.26
980.484	2759.05
980.784	2722.22
981.083	2766.51
981.382	2729.67
981.682	2667.75
981.981	2700.52
982.28	2692.39
982.579	2709.56
982.878	2679.28
983.177	2632.05
983.475	2649.9
983.774	2609.9
984.073	2613.29
984.372	2631.82
984.67	2594.54
984.969	2593.41
985.267	2558.15
985.566	2558.61
985.864	2528.32
986.162	2519.06
986.461	2533.97
986.759	2490.36
987.057	2497.14
987.355	2479.74
987.653	2499.62
987.951	2469.12
988.249	2473.86
988.547	2442.9
988.844	2430.92
989.142	2426.86
989.44	2393.19
989.737	2413.75
990.035	2386.86
990.332	2397.03
990.63	2364.49
990.927	2363.81
991.224	2314.09
991.521	2348.89
991.819	2353.41
992.116	2334.66
992.413	2338.5
992.71	2287.2
993.006	2309.35
993.303	2290.14
993.6	2263.7
993.897	2268.44
994.193	2265.51
994.49	2237.26
994.787	2202.46
995.083	2188.22
995.379	2177.37
995.676	2193.42
995.972	2191.61
996.268	2172.63
996.565	2139.86
996.861	2146.64
997.157	2118.39
997.453	2129.24
997.749	2128.56
998.044	2120.42
998.34	2080.88
998.636	2086.08
998.932	2047.88
999.227	2077.94
999.523	2084.04
999.818	2034.33
1000.114	2019.41
1000.409	2031.84
1000.704	1972.18
1001	1985.74
1001.295	1969.69
1001.59	1979.19
1001.885	1990.71
1002.18	1964.27
1002.475	1960.43
1002.77	1930.6
1003.065	1917.49
1003.359	1919.75
1003.654	1905.06
1003.949	1889.92
1004.243	1881.11
1004.538	1868.23
1004.832	1867.55
1005.127	1844.5
1005.421	1826.65
1005.715	1834.33
1006.009	1829.81
1006.304	1809.7
1006.598	1769.7
1006.892	1773.31
1007.186	1794.56
1007.48	1787.33
1007.773	1744.39
1008.067	1739.42
1008.361	1734.67
1008.655	1700.32
1008.948	1707.78
1009.242	1717.5
1009.535	1715.46
1009.829	1701.68
1010.122	1695.58
1010.415	1661.91
1010.708	1669.81
1011.001	1665.75
1011.295	1650.83
1011.588	1636.6
1011.881	1615.35
1012.173	1613.77
1012.466	1612.42
1012.759	1600.66
1013.052	1599.99
1013.344	1623.49
1013.637	1548.24
1013.93	1575.13
1014.222	1585.52
1014.514	1571.06
1014.807	1524.28
1015.099	1536.49
1015.391	1543.04
1015.683	1538.52
1015.976	1508.01
1016.268	1475.47
1016.56	1492.64
1016.851	1469.14
1017.143	1501.23
1017.435	1462.14
1017.727	1448.35
1018.018	1431.18
1018.31	1423.04
1018.602	1423.72
1018.893	1397.73
1019.185	1378.75
1019.476	1390.95
1019.767	1390.95
1020.058	1392.08
1020.35	1397.05
1020.641	1329.26
1020.932	1326.32
1021.223	1348.02
1021.514	1337.17
1021.804	1324.74
1022.095	1310.5
1022.386	1292.65
1022.677	1308.69
1022.967	1300.11
1023.258	1290.84
1023.548	1269.15
1023.839	1263.95
1024.129	1280.9
1024.419	1237.51
1024.709	1247.23
1025	1226.89
1025.29	1244.74
1025.58	1214.01
1025.87	1180.79
1026.16	1217.17
1026.449	1201.13
1026.739	1187.57
1027.029	1168.13
1027.319	1150.51
1027.608	1161.35
1027.898	1164.97
1028.187	1183.95
1028.477	1119.55
1028.766	1109.83
1029.055	1128.81
1029.344	1138.98
1029.634	1122.71
1029.923	1112.99
1030.212	1117.29
1030.501	1086.1
1030.79	1100.11
1031.078	1092.88
1031.367	1083.16
1031.656	1084.29
1031.945	1057.4
1032.233	1048.14
1032.522	1049.94
1032.81	1059.21
1033.099	1021.47
1033.387	1033.9
1033.675	1009.72
1033.963	1008.82
1034.251	985.77
1034.54	1003.39
1034.828	963.84
1035.116	972.21
1035.403	993.45
1035.691	954.58
1035.979	967.01
1036.267	957.29
1036.554	936.95
1036.842	939.66
1037.129	953.9
1037.417	933.34
1037.704	943.96
1037.992	916.16
1038.279	913.22
1038.566	927.69
1038.853	927.69
1039.14	927.69
