Data from hue_190_FLMS001491_00047.txt Node
Date: Tue Feb 07 16:45:20 GMT 2017
User: dcchb
Spectrometer: FLMS00149
Trigger mode: 0
Integration Time (sec): 2.000000E-2
Scans to average: 10
Electric dark correction enabled: true
Nonlinearity correction enabled: false
Boxcar width: 0
XAxis mode: Wavelengths
Number of Pixels in Spectrum: 2048
>>>>>Begin Spectral Data<<<<<
341.393	-25.3
341.776	-25.3
342.16	-25.3
342.543	-70.27
342.927	-78.85
343.31	-78.18
343.693	-77.95
344.077	-75.24
344.46	-75.01
344.843	-42.7
345.226	-22.58
345.61	-37.72
345.993	-2.92
346.376	7.7
346.759	23.06
347.142	12.9
347.525	35.95
347.908	66
348.291	70.75
348.674	70.29
349.057	125.66
349.44	116.85
349.823	141.48
350.206	161.14
350.588	200.69
350.971	205.21
351.354	212.89
351.737	233.45
352.119	237.52
352.502	251.98
352.884	268.26
353.267	294.47
353.65	291.98
354.032	284.75
354.414	292.66
354.797	311.19
355.179	315.49
355.562	321.14
355.944	334.02
356.326	325.66
356.709	322.04
357.091	333.79
357.473	357.29
357.855	334.69
358.238	318.65
358.62	339.89
359.002	334.47
359.384	324.3
359.766	348.48
360.148	331.76
360.53	335.82
360.912	324.07
361.294	342.83
361.676	325.2
362.057	340.34
362.439	323.17
362.821	314.36
363.203	310.51
363.584	317.07
363.966	314.81
364.348	314.13
364.729	325.43
365.111	323.85
365.493	305.54
365.874	307.58
366.256	312.1
366.637	334.92
367.019	320.46
367.4	317.75
367.781	298.76
368.163	316.16
368.544	323.4
368.925	314.13
369.306	325.2
369.688	315.03
370.069	297.86
370.45	321.14
370.831	316.84
371.212	307.58
371.593	289.05
371.974	312.32
372.355	314.36
372.736	299.44
373.117	327.69
373.498	287.24
373.879	320.23
374.26	312.77
374.641	301.7
375.021	311.64
375.402	313.23
375.783	302.38
376.163	316.62
376.544	315.94
376.925	321.36
377.305	324.3
377.686	313.9
378.066	320.91
378.447	333.79
378.827	328.82
379.208	332.43
379.588	316.84
379.968	337.86
380.349	302.61
380.729	325.66
381.109	328.82
381.489	314.81
381.87	337.41
382.25	330.63
382.63	328.37
383.01	335.15
383.39	358.2
383.77	333.79
384.15	343.96
384.53	331.08
384.91	330.63
385.29	326.11
385.67	338.31
386.049	338.99
386.429	341.47
386.809	343.73
387.189	328.82
387.568	342.6
387.948	337.63
388.328	332.43
388.707	343.73
389.087	352.1
389.466	364.52
389.846	361.36
390.225	343.73
390.605	339.67
390.984	348.25
391.363	356.39
391.743	344.64
392.122	367.24
392.501	369.72
392.881	362.72
393.26	376.73
393.639	379.67
394.018	379.89
394.397	349.84
394.776	350.97
395.155	368.14
395.534	364.75
395.913	371.98
396.292	364.75
396.671	371.3
397.05	400.91
397.429	372.66
397.808	372.21
398.186	381.25
398.565	386.44
398.944	396.61
399.323	405.2
399.701	410.62
400.08	387.12
400.458	378.99
400.837	409.49
401.215	395.71
401.594	410.17
401.972	400.23
402.351	405.65
402.729	421.7
403.107	392.32
403.486	419.21
403.864	410.62
404.242	434.35
404.62	410.85
404.999	411.75
405.377	433.22
405.755	426.22
406.133	456.27
406.511	454.24
406.889	461.02
407.267	463.96
407.645	454.92
408.023	456.05
408.401	470.28
408.779	444.52
409.156	485.43
409.534	470.28
409.912	490.17
410.29	506.67
410.667	502.83
411.045	496.72
411.422	495.82
411.8	518.19
412.178	534.24
412.555	564.75
412.933	543.28
413.31	551.41
413.687	555.48
414.065	582.82
414.442	577.63
414.819	597.96
415.197	583.73
415.574	606.33
415.951	611.07
416.328	619.43
416.705	629.83
417.082	635.25
417.46	646.1
417.837	661.01
418.214	650.62
418.591	661.47
418.967	644.74
419.344	671.63
419.721	686.78
420.098	704.4
420.475	686.32
420.852	717.28
421.228	721.8
421.605	732.88
421.982	732.65
422.358	760.67
422.735	745.53
423.111	769.94
423.488	772.65
423.864	827.11
424.241	823.72
424.617	864.85
424.994	836.83
425.37	845.64
425.746	855.36
426.123	877.51
426.499	876.6
426.875	908.69
427.251	925.87
427.627	940.1
428.003	933.1
428.379	940.33
428.756	942.81
429.132	957.28
429.507	978.07
429.883	987.33
430.259	992.76
430.635	1032.98
431.011	1022.59
431.387	1073.43
431.763	1084.73
432.138	1097.84
432.514	1073.21
432.89	1110.72
433.265	1125.86
433.641	1125.86
434.016	1173.09
434.392	1183.03
434.767	1225.74
435.143	1252.18
435.518	1229.59
435.894	1273.2
436.269	1282.92
436.644	1287.89
437.02	1329.92
437.395	1339.19
437.77	1375.8
438.145	1378.96
438.52	1389.81
438.895	1465.29
439.271	1464.61
439.646	1493.76
440.021	1490.6
440.395	1500.09
440.77	1528.11
441.145	1549.35
441.52	1579.86
441.895	1587.77
442.27	1579.86
442.645	1595.45
443.019	1651.27
443.394	1650.37
443.769	1656.24
444.143	1670.7
444.518	1701.89
444.892	1703.7
445.267	1734.21
445.641	1727.43
446.016	1750.48
446.39	1791.15
446.764	1792.28
447.139	1769.23
447.513	1821.44
447.887	1838.38
448.262	1857.82
448.636	1873.41
449.01	1895.33
449.384	1884.94
449.758	1910.92
450.132	1916.57
450.506	1951.15
450.88	1934.88
451.254	1974.65
451.628	2014.2
452.002	2004.48
452.376	2057.14
452.75	2066.63
453.123	2096
453.497	2134.2
453.871	2135.55
454.244	2179.84
454.618	2199.96
454.992	2231.82
455.365	2211.48
455.739	2268.2
456.112	2319.28
456.486	2288.54
456.859	2298.94
457.232	2371.7
457.606	2347.75
457.979	2416.45
458.352	2467.97
458.725	2495.32
459.099	2521.76
459.472	2550.46
459.845	2564.47
460.218	2589.1
460.591	2575.31
460.964	2623.9
461.337	2704.58
461.71	2736.67
462.083	2775.99
462.456	2750.22
462.829	2797.68
463.201	2838.58
463.574	2830.9
463.947	2930.78
464.32	2965.81
464.692	3017.79
465.065	3009.88
465.438	3051.91
465.81	3121.06
466.183	3130.1
466.555	3205.58
466.928	3221.17
467.3	3208.74
467.672	3296.2
468.045	3394.5
468.417	3408.96
468.789	3424.78
469.161	3466.14
469.534	3532.12
469.906	3599.24
470.278	3638.34
470.65	3640.37
471.022	3714.94
471.394	3778.45
471.766	3846.24
472.138	3872.91
472.51	3926.24
472.882	4027.93
473.253	4016.41
473.625	4107.93
473.997	4202.39
474.369	4238.77
474.74	4286.23
475.112	4355.61
475.484	4507.69
475.855	4523.74
476.227	4572.1
476.598	4676.28
476.97	4699.1
477.341	4774.13
477.713	4910.62
478.084	4932.54
478.455	5114.23
478.827	5121.69
479.198	5280.55
479.569	5256.6
479.94	5452.07
480.311	5452.07
480.682	5604.61
481.053	5682.35
481.424	5800.99
481.795	5878.5
482.166	5996.92
482.537	6002.79
482.908	6117.82
483.279	6276.23
483.65	6311.49
484.021	6486.62
484.391	6517.13
484.762	6588.09
485.133	6678.03
485.503	6740.4
485.874	6912.37
486.244	6937.23
486.615	7052.03
486.985	7196.44
487.356	7334.74
487.726	7378.58
488.097	7562.53
488.467	7538.8
488.837	7712.13
489.207	7791.9
489.578	7870.77
489.948	7922.74
490.318	8002.74
490.688	8126.81
491.058	8177.43
491.428	8357.99
491.798	8378.32
492.168	8518.89
492.538	8637.75
492.908	8707.36
493.278	8755.04
493.648	8792.33
494.017	8846.79
494.387	8925.43
494.757	9004.98
495.126	9120.68
495.496	9174.46
495.866	9203.84
496.235	9338.3
496.605	9330.39
496.974	9456.26
497.344	9508.46
497.713	9477.28
498.082	9581.01
498.452	9643.15
498.821	9673.43
499.19	9641.79
499.559	9722.47
499.928	9757.05
500.298	9833.43
500.667	9895.12
501.036	9910.04
501.405	9995.68
501.774	9985.97
502.143	9996.14
502.512	9996.36
502.88	10148.9
503.249	10140.09
503.618	10191.61
503.987	10138.73
504.356	10278.16
504.724	10278.84
505.093	10313.42
505.462	10286.75
505.83	10353.87
506.199	10362
506.567	10542.79
506.936	10447.88
507.304	10568.32
507.672	10507.76
508.041	10574.88
508.409	10598.38
508.777	10661.65
509.145	10661.88
509.514	10658.04
509.882	10723.12
510.25	10680.86
510.618	10695.78
510.986	10700.75
511.354	10758.15
511.722	10792.72
512.09	10894.19
512.458	10867.52
512.826	10886.28
513.193	10932.61
513.561	10988.43
513.929	10926.96
514.297	11084.02
514.664	10987.3
515.032	11063.9
515.4	11079.95
515.767	11042.44
516.135	11070.68
516.502	10934.87
516.869	11146.84
517.237	11103.9
517.604	11069.78
517.972	11133.51
518.339	11225.26
518.706	11138.25
519.073	11107.97
519.44	11138.93
519.808	11198.82
520.175	11194.52
520.542	11270.9
520.909	11169.21
521.276	11117.69
521.643	11203.34
522.009	11250.11
522.376	11252.83
522.743	11282.88
523.11	11270
523.477	11352.71
523.843	11290.79
524.21	11357.23
524.577	11364.46
524.943	11295.31
525.31	11374.18
525.676	11425.25
526.043	11310
526.409	11382.31
526.776	11367.4
527.142	11325.82
527.508	11338.7
527.874	11427.28
528.241	11329.43
528.607	11335.08
528.973	11357
529.339	11309.32
529.705	11363.78
530.071	11274.07
530.437	11314.29
530.803	11275.88
531.169	11329.66
531.535	11190
531.901	11216.44
532.267	11182.32
532.632	11218.48
532.998	11153.39
533.364	11124.24
533.73	11078.14
534.095	11084.47
534.461	10999.27
534.826	10997.47
535.192	10979.39
535.557	10964.25
535.923	10905.94
536.288	10877.69
536.653	10815.77
537.019	10804.25
537.384	10769
537.749	10764.93
538.114	10745.49
538.479	10654.42
538.845	10651.49
539.21	10493.52
539.575	10482.68
539.94	10473.86
540.305	10477.7
540.67	10442
541.034	10352.74
541.399	10357.26
541.764	10279.07
542.129	10232.51
542.494	10159.3
542.858	10135.79
543.223	10129.47
543.587	10070.71
543.952	10002.01
544.316	9989.13
544.681	9868.23
545.045	9819.19
545.41	9849.25
545.774	9834.78
546.138	9664.62
546.503	9687.44
546.867	9592.3
547.231	9582.14
547.595	9574.68
547.959	9496.04
548.324	9460.78
548.688	9437.73
549.052	9448.13
549.416	9419.43
549.779	9346.66
550.143	9302.59
550.507	9280.9
550.871	9243.39
551.235	9163.84
551.599	9131.3
551.962	9115.93
552.326	9127.46
552.689	9013.79
553.053	8973.79
553.417	8869.84
553.78	8992.55
554.143	8866.9
554.507	8917.52
554.87	8794.36
555.234	8861.25
555.597	8701.25
555.96	8732.21
556.323	8765.43
556.686	8728.6
557.05	8679.79
557.413	8620.8
557.776	8578.32
558.139	8560.47
558.502	8558.89
558.865	8507.36
559.228	8580.81
559.59	8502.16
559.953	8488.6
560.316	8491.54
560.679	8470.07
561.041	8399.34
561.404	8527.47
561.767	8479.57
562.129	8369.06
562.492	8430.53
562.854	8407.48
563.217	8313.47
563.579	8284.99
563.941	8368.16
564.304	8401.83
564.666	8379.91
565.028	8347.14
565.39	8430.3
565.753	8400.7
566.115	8321.83
566.477	8297.42
566.839	8307.37
567.201	8309.63
567.563	8299
567.925	8329.74
568.287	8330.19
568.648	8334.94
569.01	8308.04
569.372	8397.53
569.734	8325.9
570.095	8381.94
570.457	8329.29
570.819	8347.82
571.18	8309.63
571.542	8318.67
571.903	8274.37
572.265	8284.09
572.626	8307.82
572.987	8283.19
573.349	8301.94
573.71	8274.82
574.071	8283.86
574.432	8260.81
574.794	8323.86
575.155	8309.17
575.516	8276.86
575.877	8261.04
576.238	8278.21
576.599	8326.57
576.96	8257.2
577.32	8322.73
577.681	8316.41
578.042	8261.49
578.403	8268.95
578.763	8275.5
579.124	8270.31
579.485	8335.16
579.845	8275.95
580.206	8247.03
580.566	8254.49
580.927	8275.05
581.287	8253.81
581.648	8200.25
582.008	8192.79
582.368	8184.43
582.728	8286.8
583.089	8185.79
583.449	8195.96
583.809	8183.08
584.169	8210.42
584.529	8157.31
584.889	8224.43
585.249	8133.59
585.609	8137.65
585.969	8115.05
586.329	8116.64
586.688	8124.09
587.048	8098.78
587.408	8061.72
587.768	8081.84
588.127	8087.03
588.487	7984.89
588.846	8113.47
589.206	8036.19
589.565	8071.89
589.925	8052.91
590.284	8028.28
590.643	8006.58
591.003	8045
591.362	8030.99
591.721	7988.96
592.08	7964.55
592.44	8058.56
592.799	8049.97
593.158	7959.8
593.517	7945.12
593.876	7932.69
594.235	7935.62
594.593	7910.54
594.952	7913.7
595.311	7923.87
595.67	7910.77
596.029	7955.74
596.387	7944.89
596.746	7943.53
597.104	7871.45
597.463	7897.66
597.822	7893.37
598.18	7869.64
598.538	7857.89
598.897	7868.73
599.255	7848.62
599.613	7941.27
599.972	7904.67
600.33	7888.39
600.688	7851.33
601.046	7891.78
601.404	7906.02
601.762	7880.48
602.12	7844.78
602.478	7894.95
602.836	7868.51
603.194	7807.04
603.552	7867.38
603.91	7788.06
604.268	7872.8
604.625	7788.74
604.983	7780.15
605.341	7792.35
605.698	7826.48
606.056	7837.77
606.413	7832.8
606.771	7855.63
607.128	7827.6
607.485	7814.95
607.843	7792.35
608.2	7832.8
608.557	7860.37
608.914	7817.66
609.272	7783.99
609.629	7878.23
609.986	7899.69
610.343	7903.08
610.7	7918
611.057	7896.76
611.414	7910.09
611.771	7895.63
612.127	7951.44
612.484	7987.83
612.841	7917.09
613.198	7901.5
613.554	7874.16
613.911	7882.74
614.267	7919.81
614.624	7892.69
614.98	7918.45
615.337	7950.54
615.693	7883.87
616.05	7898.56
616.406	7955.96
616.762	7894.27
617.118	7866.25
617.475	7927.94
617.831	7947.38
618.187	7957.32
618.543	7977.88
618.899	7950.54
619.255	7980.82
619.611	7952.35
619.967	7960.26
620.323	8060.14
620.678	7995.74
621.034	7929.75
621.39	7887.26
621.746	7897.43
622.101	8024.66
622.457	7954.38
622.812	7970.65
623.168	8000.03
623.523	7958.22
623.879	7981.5
624.234	8003.19
624.589	7958.9
624.945	7974.95
625.3	7944.89
625.655	7967.71
626.01	7968.62
626.365	7961.39
626.72	7932.23
627.075	7919.58
627.43	7921.16
627.785	7879.58
628.14	7960.48
628.495	7903.31
628.85	7959.58
629.205	7907.15
629.559	7922.52
629.914	7892.46
630.269	7880.48
630.623	7916.87
630.978	7858.79
631.332	7899.47
631.687	7920.94
632.041	7864.89
632.396	7836.19
632.75	7818.57
633.104	7859.92
633.459	7780.15
633.813	7847.27
634.167	7794.61
634.521	7815.4
634.875	7802.29
635.229	7759.58
635.583	7718.23
635.937	7725.01
636.291	7773.82
636.645	7762.3
636.999	7693.15
637.352	7694.28
637.706	7696.53
638.06	7733.82
638.413	7699.25
638.767	7694.28
639.121	7681.39
639.474	7625.8
639.828	7613.37
640.181	7645.69
640.534	7670.77
640.888	7680.49
641.241	7596.88
641.594	7612.92
641.947	7604.33
642.301	7612.7
642.654	7596.65
643.007	7593.94
643.36	7564.79
643.713	7576.09
644.066	7593.94
644.419	7583.54
644.771	7522.98
645.124	7449.08
645.477	7457.45
645.83	7406.6
646.182	7356.43
646.535	7331.57
646.888	7317.56
647.24	7333.15
647.593	7369.09
647.945	7324.34
648.298	7345.81
648.65	7311.91
649.002	7279.14
649.355	7323.44
649.707	7307.84
650.059	7300.84
650.411	7445.47
650.763	7460.83
651.115	7548.52
651.467	7450.67
651.819	7511.46
652.171	7506.26
652.523	7503.09
652.875	7466.03
653.227	7409.31
653.578	7528.86
653.93	7496.54
654.282	7475.98
654.633	7409.31
654.985	7474.17
655.337	7482.53
655.688	7501.96
656.039	7513.71
656.391	7470.1
656.742	7471.68
657.094	7515.75
657.445	7571.11
657.796	7531.34
658.147	7578.8
658.498	7477.78
658.849	7512.36
659.2	7473.72
659.551	7464.45
659.902	7507.16
660.253	7473.49
660.604	7530.21
660.955	7542.41
661.306	7572.47
661.656	7559.14
662.007	7575.41
662.358	7543.32
662.708	7499.03
663.059	7582.19
663.409	7534.05
663.76	7576.76
664.11	7531.57
664.461	7515.97
664.811	7573.6
665.161	7598.91
665.511	7576.54
665.862	7522.08
666.212	7620.6
666.562	7599.14
666.912	7584.45
667.262	7585.35
667.612	7545.58
667.962	7610.66
668.312	7585.35
668.662	7614.05
669.011	7516.88
669.361	7582.87
669.711	7594.62
670.06	7522.53
670.41	7523.21
670.76	7511.46
671.109	7636.42
671.459	7533.15
671.808	7581.06
672.157	7538.57
672.507	7489.76
672.856	7518.69
673.205	7521.85
673.554	7537.22
673.904	7510.1
674.253	7591.45
674.602	7553.49
674.951	7384
675.3	7418.58
675.649	7484.79
675.998	7450.89
676.346	7528.4
676.695	7466.48
677.044	7405.02
677.393	7480.72
677.741	7442.98
678.09	7366.83
678.438	7424.68
678.787	7420.61
679.135	7401.63
679.484	7316.66
679.832	7414.96
680.181	7382.19
680.529	7384.9
680.877	7289.99
681.225	7285.47
681.573	7345.58
681.922	7346.49
682.27	7285.47
682.618	7229.88
682.966	7278.01
683.314	7301.29
683.661	7238.02
684.009	7224.46
684.357	7166.83
684.705	7169.09
685.053	7170.9
685.4	7148.98
685.748	7119.37
686.095	7125.48
686.443	7028.98
686.79	7069.88
687.138	7072.6
687.485	7056.55
687.832	7015.65
688.18	7055.87
688.527	6976.1
688.874	6937.46
689.221	6979.94
689.568	6919.38
689.915	6894.52
690.262	6828.54
690.609	6868.99
690.956	6833.51
691.303	6866.95
691.65	6820.17
691.997	6793.06
692.344	6771.36
692.69	6758.71
693.037	6744.24
693.383	6688.43
693.73	6683.23
694.077	6658.82
694.423	6647.97
694.769	6588.54
695.116	6573.63
695.462	6609.33
695.808	6542.89
696.155	6567.75
696.501	6531.59
696.847	6460.18
697.193	6375.44
697.539	6442.56
697.885	6399.62
698.231	6366.85
698.577	6357.59
698.923	6349.45
699.269	6347.19
699.614	6275.1
699.96	6284.14
700.306	6301.09
700.651	6264.93
700.997	6175.22
701.342	6181.77
701.688	6152.85
702.033	6165.28
702.379	6132.73
702.724	6104.71
703.069	6075.33
703.415	6032.62
703.76	6033.08
704.105	6005.51
704.45	6008.67
704.795	6010.7
705.14	5939.97
705.485	5971.16
705.83	5905.62
706.175	5913.76
706.52	5850.48
706.865	5830.82
707.209	5817.71
707.554	5818.17
707.899	5840.09
708.243	5798.28
708.588	5778.62
708.932	5758.73
709.277	5696.81
709.621	5785.85
709.966	5705.63
710.31	5693.88
710.654	5676.93
710.998	5626.08
711.342	5647.32
711.687	5618.85
712.031	5624.95
712.375	5562.81
712.719	5566.65
713.063	5598.74
713.407	5626.98
713.75	5584.73
714.094	5533.65
714.438	5556.48
714.782	5513.99
715.125	5496.37
715.469	5509.02
715.812	5530.04
716.156	5475.58
716.499	5530.94
716.843	5474.22
717.186	5494.33
717.53	5484.62
717.873	5523.94
718.216	5434.22
718.559	5432.41
718.902	5393.54
719.246	5467.44
719.589	5413.21
719.932	5426.99
720.275	5429.02
720.617	5440.1
720.96	5361
721.303	5371.4
721.646	5441
721.989	5335.69
722.331	5371.62
722.674	5346.77
723.016	5370.49
723.359	5359.87
723.701	5385.86
724.044	5297.95
724.386	5321
724.729	5329.14
725.071	5302.47
725.413	5321.68
725.755	5353.32
726.097	5296.15
726.439	5277.16
726.782	5299.31
727.124	5346.31
727.465	5273.77
727.807	5259.31
728.149	5261.8
728.491	5317.61
728.833	5274
729.175	5270.61
729.516	5249.37
729.858	5292.53
730.199	5283.49
730.541	5283.72
730.882	5308.12
731.224	5269.03
731.565	5262.25
731.906	5323.94
732.248	5288.01
732.589	5251.63
732.93	5283.94
733.271	5257.28
733.612	5283.72
733.953	5284.39
734.294	5284.85
734.635	5264.73
734.976	5308.8
735.317	5294.79
735.658	5280.1
735.999	5325.75
736.339	5300.21
736.68	5340.89
737.021	5307.67
737.361	5323.04
737.702	5360.33
738.042	5332.08
738.383	5351.29
738.723	5351.51
739.063	5348.12
739.404	5344.73
739.744	5381.79
740.084	5365.3
740.424	5396.93
740.764	5403.94
741.104	5468.57
741.444	5431.06
741.784	5418.4
742.124	5465.41
742.464	5558.06
742.804	5502.02
743.143	5502.47
743.483	5523.03
743.823	5490.27
744.162	5541.11
744.502	5553.54
744.841	5632.41
745.181	5627.21
745.52	5692.75
745.86	5700.66
746.199	5675.8
746.538	5777.94
746.877	5805.06
747.216	5817.04
747.556	5850.93
747.895	5933.42
748.234	5980.65
748.573	5976.35
748.911	6076.24
749.25	6108.55
749.589	6105.84
749.928	6179.51
750.267	6255.44
750.605	6348.55
750.944	6388.09
751.283	6439.84
751.621	6554.87
751.96	6639.84
752.298	6699.05
752.636	6828.31
752.975	6840.74
753.313	6887.29
753.651	7023.11
753.989	7162.76
754.327	7254.29
754.666	7351.69
755.004	7498.57
755.342	7595.52
755.679	7709.87
756.017	7835.74
756.355	8002.74
756.693	8051.55
757.031	8266.01
757.368	8383.52
757.706	8516.17
758.044	8701.93
758.381	8799.78
758.719	8971.3
759.056	9061.92
759.394	9310.73
759.731	9470.95
760.068	9505.07
760.405	9677.95
760.743	9896.25
761.08	10034.78
761.417	10133.53
761.754	10373.75
762.091	10515.22
762.428	10717.25
762.765	10801.31
763.102	11078.14
763.438	11174.18
763.775	11323.33
764.112	11553.83
764.449	11762.64
764.785	11886.26
765.122	11989.53
765.458	12138
765.795	12291.44
766.131	12510.19
766.467	12578.67
766.804	12672.22
767.14	12885.1
767.476	13101.59
767.812	13142.72
768.148	13369.83
768.485	13451.64
768.821	13568.7
769.157	13752.42
769.492	13892.3
769.828	14006.88
770.164	14089.36
770.5	14170.49
770.836	14444.15
771.171	14431.95
771.507	14483.7
771.842	14593.75
772.178	14764.82
772.513	14870.36
772.849	14913.07
773.184	15012.5
773.519	15151.03
773.855	15274.87
774.19	15222.21
774.525	15346.96
774.86	15559.15
775.195	15434.41
775.53	15536.33
775.865	15620.39
776.2	15563.45
776.535	15597.8
776.87	15749.88
777.205	15737
777.539	15784.01
777.874	15939.03
778.209	15880.27
778.543	15973.61
778.878	15941.52
779.212	16033.72
779.547	16022.64
779.881	16194.84
780.215	16134.28
780.55	16165.69
780.884	16181.96
781.218	16210.21
781.552	16237.55
781.886	16163.2
782.22	16206.37
782.554	16292.92
782.888	16213.6
783.222	16162.75
783.556	16212.92
783.889	16255.18
784.223	16242.3
784.557	16213.15
784.89	16285.46
785.224	16264.45
785.557	16184.67
785.891	16148.74
786.224	16257.21
786.558	16222.41
786.891	16154.62
787.224	16108.52
787.557	16082.3
787.891	16164.11
788.224	16132.02
788.557	16160.27
788.89	16144.9
789.223	16196.2
789.556	16108.97
789.888	16084.56
790.221	16052.93
790.554	15945.36
790.887	15969.99
791.219	15931.12
791.552	15981.29
791.884	15857.22
792.217	15862.42
792.549	15860.16
792.882	15812.71
793.214	15902.42
793.546	15831.24
793.879	15755.53
794.211	15698.81
794.543	15726.38
794.875	15832.14
795.207	15761.63
795.539	15765.25
795.871	15783.1
796.203	15565.71
796.535	15499.49
796.867	15559.38
797.198	15524.58
797.53	15547.4
797.862	15474.18
798.193	15395.77
798.525	15372.27
798.856	15392.15
799.188	15271.48
799.519	15261.31
799.85	15159.16
800.182	15172.5
800.513	15164.36
800.844	15120.29
801.175	15130.46
801.506	15133.63
801.837	15097.7
802.168	15050.92
802.499	15068.32
802.83	14988.32
803.161	14841.21
803.491	14880.53
803.822	14921.88
804.153	14820.64
804.483	14773.19
804.814	14709.46
805.145	14679.4
805.475	14721.21
805.805	14639.18
806.136	14697.93
806.466	14670.14
806.796	14676.69
807.126	14565.05
807.457	14495.68
807.787	14561.89
808.117	14487.54
808.447	14411.16
808.777	14356.92
809.107	14348.34
809.436	14314.89
809.766	14389.24
810.096	14377.72
810.426	14265.18
810.755	14316.47
811.085	14262.92
811.414	14203.48
811.744	14165.97
812.073	14097.95
812.403	14134.33
812.732	14036.93
813.061	14039.87
813.39	13990.38
813.719	14003.04
814.049	14073.99
814.378	13966.43
814.707	13896.82
815.036	13956.48
815.365	13863.6
815.693	13737.28
816.022	13757.39
816.351	13806.43
816.68	13597.17
817.008	13749.26
817.337	13670.39
817.665	13640.56
817.994	13693.89
818.322	13648.69
818.651	13549.49
818.979	13602.59
819.307	13644.18
819.636	13571.86
819.964	13462.26
820.292	13511.52
820.62	13559.43
820.948	13490.51
821.276	13478.53
821.604	13447.12
821.932	13495.48
822.259	13485.08
822.587	13423.39
822.915	13452.99
823.243	13525.08
823.57	13406.67
823.898	13468.81
824.225	13394.24
824.553	13390.17
824.88	13434.92
825.207	13504.74
825.535	13476.95
825.862	13472.65
826.189	13382.94
826.516	13481.92
826.843	13529.6
827.17	13453.67
827.497	13598.3
827.824	13533.67
828.151	13515.14
828.478	13565.99
828.805	13577.06
829.131	13481.92
829.458	13477.63
829.785	13531.41
830.111	13456.16
830.438	13594.23
830.764	13488.7
831.09	13573.67
831.417	13520.56
831.743	13530.96
832.069	13518.08
832.395	13482.15
832.722	13388.36
833.048	13497.96
833.374	13503.39
833.7	13378.87
834.026	13371.64
834.351	13426.55
834.677	13360.11
835.003	13483.28
835.329	13391.98
835.654	13272.43
835.98	13366.22
836.306	13366.44
836.631	13219.1
836.956	13308.36
837.282	13364.86
837.607	13261.81
837.932	13248.03
838.258	13199.89
838.583	13164.64
838.908	13167.13
839.233	13170.97
839.558	13202.6
839.883	13133.68
840.208	13049.61
840.533	13026.34
840.858	13104.08
841.182	13108.37
841.507	13067.92
841.832	12931.65
842.156	12973.01
842.481	12995.38
842.805	12893.46
843.13	12872.22
843.454	12839.45
843.778	12792.67
844.103	12836.06
844.427	12847.13
844.751	12862.05
845.075	12829.51
845.399	12715.39
845.723	12623.64
846.047	12691.43
846.371	12549.97
846.695	12609.63
847.019	12500.25
847.343	12389.74
847.666	12272.91
847.99	12254.61
848.313	12321.27
848.637	12240.37
848.96	12190.43
849.284	12116.31
849.607	12030.88
849.931	12035.4
850.254	11922.64
850.577	11889.65
850.9	11789.76
851.223	11851.23
851.546	11812.81
851.869	11666.6
852.192	11684.68
852.515	11640.84
852.838	11552.25
853.161	11581.63
853.483	11533.04
853.806	11480.16
854.129	11480.16
854.451	11367.4
854.774	11331.47
855.096	11304.58
855.419	11190.23
855.741	11228.42
856.063	11176.44
856.385	11179.83
856.708	11088.54
857.03	11114.98
857.352	11088.08
857.674	11050.57
857.996	11012.61
858.318	10936.45
858.64	10944.59
858.961	10959.27
859.283	10868.43
859.605	10844.47
859.926	10883.57
860.248	10743.01
860.57	10761.31
860.891	10730.58
861.212	10727.42
861.534	10746.4
861.855	10667.98
862.176	10686.29
862.498	10667.08
862.819	10665.27
863.14	10617.14
863.461	10620.07
863.782	10517.7
864.103	10528.78
864.424	10527.87
864.745	10543.24
865.065	10477.48
865.386	10389.8
865.707	10345.5
866.027	10432.06
866.348	10457.59
866.668	10417.82
866.989	10345.05
867.309	10243.81
867.63	10246.75
867.95	10316.13
868.27	10240.65
868.59	10308.67
868.91	10312.06
869.23	10267.99
869.55	10135.34
869.87	10244.94
870.19	10205.17
870.51	10215.11
870.83	10181.44
871.15	10113.65
871.469	10173.53
871.789	10162.01
872.109	10133.08
872.428	10115.91
872.748	10086.08
873.067	10100.99
873.386	10019.86
873.706	10056.92
874.025	9924.72
874.344	10006.3
874.663	10023.25
874.982	9969.24
875.301	10013.99
875.62	10029.81
875.939	9963.82
876.258	9980.32
876.577	9969.47
876.896	9886.31
877.214	9905.06
877.533	9909.36
877.852	9946.87
878.17	9837.04
878.489	9834.56
878.807	9875.23
879.125	9801.11
879.444	9787.33
879.762	9723.83
880.08	9806.99
880.398	9734
880.716	9713.66
881.034	9708.01
881.352	9616.26
881.67	9619.65
881.988	9587.56
882.306	9518.18
882.624	9559.08
882.941	9505.07
883.259	9506.2
883.577	9477.73
883.894	9497.17
884.212	9527.9
884.529	9439.54
884.846	9486.09
885.164	9388.69
885.481	9413.1
885.798	9374.68
886.115	9292.88
886.432	9299.2
886.75	9343.27
887.067	9279.54
887.383	9267.79
887.7	9277.51
888.017	9177.85
888.334	9205.65
888.651	9186.44
888.967	9215.59
889.284	9078.87
889.6	9091.53
889.917	8988.25
890.233	9014.92
890.55	8980.34
890.866	9019.44
891.182	8972.21
891.498	8918.2
891.815	8905.54
892.131	8827.58
892.447	8761.37
892.763	8792.55
893.079	8801.36
893.395	8727.69
893.71	8733.8
894.026	8721.14
894.342	8665.1
894.657	8630.75
894.973	8621.03
895.289	8539.45
895.604	8548.04
895.92	8501.03
896.235	8450.87
896.55	8552.78
896.865	8430.3
897.181	8394.82
897.496	8424.88
897.811	8353.47
898.126	8306.69
898.441	8247.93
898.756	8259.01
899.071	8236.41
899.386	8219.69
899.7	8131.55
900.015	8152.79
900.33	8037.32
900.644	8057.88
900.959	8106.47
901.273	8024.21
901.588	8003.19
901.902	7958.67
902.216	7972.91
902.531	7953.48
902.845	7912.57
903.159	7858.11
903.473	7784.67
903.787	7783.31
904.101	7761.84
904.415	7731.11
904.729	7648.4
905.042	7668.29
905.356	7560.04
905.67	7583.32
905.984	7626.93
906.297	7538.8
906.611	7568.85
906.924	7488.4
907.237	7515.75
907.551	7417.9
907.864	7395.07
908.177	7365.02
908.491	7360.05
908.804	7312.14
909.117	7286.15
909.43	7222.65
909.743	7187.4
910.056	7182.88
910.368	7175.42
910.681	7126.38
910.994	7092.03
911.307	7075.99
911.619	6980.17
911.932	7064.46
912.244	6981.53
912.557	6979.04
912.869	6922.32
913.181	6902.66
913.494	6904.01
913.806	6850.91
914.118	6802.77
914.43	6760.74
914.742	6807.07
915.054	6739.72
915.366	6692.95
915.678	6693.62
915.99	6651.14
916.302	6625.6
916.613	6561.88
916.925	6581.08
917.236	6550.8
917.548	6554.19
917.859	6525.72
918.171	6510.8
918.482	6461.31
918.794	6411.37
919.105	6361.65
919.416	6291.37
919.727	6382.22
920.038	6330.24
920.349	6310.13
920.66	6303.8
920.971	6253.18
921.282	6216.57
921.593	6184.48
921.903	6144.94
922.214	6160.08
922.525	6138.38
922.835	6057.48
923.146	6079.18
923.456	6031.04
923.767	6005.96
924.077	6031.49
924.387	5946.75
924.697	5958.73
925.008	5913.08
925.318	5944.26
925.628	5948.11
925.938	5845.96
926.248	5784.49
926.558	5794.21
926.867	5795.57
927.177	5748.56
927.487	5727.77
927.796	5689.81
928.106	5737.94
928.416	5685.06
928.725	5645.06
929.034	5630.37
929.344	5606.87
929.653	5577.27
929.962	5610.94
930.271	5558.74
930.581	5519.19
930.89	5521.68
931.199	5452.98
931.508	5452.53
931.817	5405.75
932.125	5406.43
932.434	5388.35
932.743	5345.41
933.051	5335.02
933.36	5326.43
933.669	5251.4
933.977	5298.41
934.286	5220.44
934.594	5211.85
934.902	5177.28
935.21	5209.37
935.519	5221.35
935.827	5131.4
936.135	5144.96
936.443	5084.85
936.751	5104.29
937.059	5068.36
937.367	5085.98
937.674	5053.44
937.982	5045.53
938.29	4971.63
938.597	4983.84
938.905	4940.22
939.213	4958.3
939.52	4826.55
939.827	4896.38
940.135	4827.68
940.442	4788.81
940.749	4797.4
941.056	4857.29
941.363	4751.08
941.67	4758.99
941.977	4757.4
942.284	4700.23
942.591	4703.62
942.898	4648.93
943.205	4674.02
943.511	4635.15
943.818	4617.75
944.125	4590.63
944.431	4553.11
944.738	4616.39
945.044	4531.19
945.35	4495.04
945.657	4489.61
945.963	4451.42
946.269	4427.24
946.575	4454.36
946.881	4404.19
947.187	4399.9
947.493	4353.57
947.799	4362.84
948.105	4353.8
948.41	4313.35
948.716	4318.77
949.022	4294.59
949.327	4320.8
949.633	4250.07
949.938	4250.52
950.244	4272.9
950.549	4204.88
950.854	4181.15
951.16	4164.88
951.465	4110.87
951.77	4130.53
952.075	4124.65
952.38	4083.97
952.685	4097.99
952.99	4048.04
953.294	4050.3
953.599	3985.9
953.904	3988.61
954.209	3974.82
954.513	3995.39
954.818	3970.31
955.122	3953.58
955.426	3901.83
955.731	3925.11
956.035	3889.18
956.339	3872.68
956.643	3858.9
956.948	3855.51
957.252	3843.3
957.556	3821.83
957.86	3791.78
958.163	3806.24
958.467	3775.06
958.771	3770.54
959.075	3728.28
959.378	3690.54
959.682	3708.84
959.985	3684.89
960.289	3667.49
960.592	3630.65
960.896	3620.48
961.199	3611.44
961.502	3609.86
961.805	3578
962.108	3549.98
962.411	3566.7
962.714	3564.67
963.017	3536.19
963.32	3514.5
963.623	3494.61
963.926	3464.1
964.228	3469.08
964.531	3456.42
964.833	3469.53
965.136	3397.89
965.438	3402.64
965.741	3395.63
966.043	3371.45
966.345	3346.37
966.648	3361.96
966.95	3346.14
967.252	3334.84
967.554	3309.76
967.856	3317.22
968.158	3283.32
968.46	3252.13
968.761	3224.56
969.063	3235.64
969.365	3216.2
969.666	3214.39
969.968	3166.94
970.269	3178.46
970.571	3156.54
970.872	3173.72
971.174	3146.15
971.475	3112.47
971.776	3129.42
972.077	3129.2
972.378	3077.9
972.679	3053.49
972.98	3057.11
973.281	3046.26
973.582	3013.04
973.883	3027.28
974.183	3025.47
974.484	3004.91
974.785	2974.63
975.085	2970.78
975.386	2989.09
975.686	2965.36
975.986	2931.91
976.287	2908.86
976.587	2933.5
976.887	2907.96
977.187	2901.41
977.487	2844.91
977.787	2813.95
978.087	2811.69
978.387	2839.94
978.687	2794.52
978.987	2794.97
979.286	2800.62
979.586	2786.83
979.885	2765.37
980.185	2775.53
980.484	2753.61
980.784	2699.83
981.083	2694.86
981.382	2709.1
981.682	2665.03
981.981	2679.49
982.28	2667.51
982.579	2678.14
982.878	2627.29
983.177	2638.14
983.475	2614.86
983.774	2626.39
984.073	2597.69
984.372	2607.63
984.67	2597.01
984.969	2573.73
985.267	2564.69
985.566	2532.6
985.864	2525.82
986.162	2547.07
986.461	2524.24
986.759	2482.21
987.057	2475.43
987.355	2436.33
987.653	2453.28
987.951	2434.3
988.249	2452.61
988.547	2446.73
988.844	2405.15
989.142	2416.9
989.44	2394.98
989.737	2376.67
990.035	2373.06
990.332	2382.1
990.63	2347.97
990.927	2342.33
991.224	2350.01
991.521	2325.15
991.819	2290.8
992.116	2297.81
992.413	2266.4
992.71	2276.79
993.006	2267.07
993.303	2266.62
993.6	2248.99
993.897	2244.02
994.193	2212.16
994.49	2177.81
994.787	2192.27
995.083	2199.73
995.379	2183.91
995.676	2175.55
995.972	2187.08
996.268	2147.08
996.565	2162.44
996.861	2120.18
997.157	2138.71
997.453	2095.1
997.749	2075.21
998.044	2082.22
998.34	2084.71
998.636	2066.85
998.932	2075.21
999.227	2039.96
999.523	2031.83
999.818	2032.96
1000.114	2014.88
1000.409	2001.09
1000.704	1969.68
1001	1969.68
1001.295	1975.1
1001.59	1982.33
1001.885	1931.71
1002.18	1929.23
1002.475	1913.86
1002.77	1960.19
1003.065	1912.51
1003.359	1884.48
1003.654	1861.66
1003.949	1889.46
1004.243	1853.07
1004.538	1876.35
1004.832	1844.26
1005.127	1844.49
1005.421	1811.94
1005.715	1823.47
1006.009	1799.29
1006.304	1802
1006.598	1761.78
1006.892	1782.34
1007.186	1769.69
1007.48	1777.37
1007.773	1720.19
1008.067	1746.63
1008.361	1701.44
1008.655	1705.28
1008.948	1703.47
1009.242	1713.64
1009.535	1715
1009.829	1694.21
1010.122	1702.34
1010.415	1657.15
1010.708	1658.73
1011.001	1614.89
1011.295	1644.49
1011.588	1653.53
1011.881	1610.82
1012.173	1616.92
1012.466	1600.65
1012.759	1586.64
1013.052	1607.2
1013.344	1585.51
1013.637	1574.21
1013.93	1546.19
1014.222	1544.38
1014.514	1534.21
1014.807	1540.99
1015.099	1505.74
1015.391	1504.61
1015.683	1479.07
1015.976	1481.11
1016.268	1459.86
1016.56	1489.92
1016.851	1475.46
1017.143	1474.78
1017.435	1415.12
1017.727	1445.17
1018.018	1427.32
1018.31	1416.7
1018.602	1401.79
1018.893	1393.65
1019.185	1405.17
1019.476	1377.15
1019.767	1389.36
1020.058	1354.55
1020.35	1359.3
1020.641	1361.11
1020.932	1326.53
1021.223	1333.76
1021.514	1343.26
1021.804	1331.5
1022.095	1314.1
1022.386	1306.65
1022.677	1277.95
1022.967	1300.54
1023.258	1263.71
1023.548	1264.39
1023.839	1271.85
1024.129	1258.96
1024.419	1272.98
1024.709	1220.77
1025	1217.84
1025.29	1236.14
1025.58	1193.2
1025.87	1201.79
1026.16	1190.49
1026.449	1208.34
1026.739	1190.94
1027.029	1199.08
1027.319	1178.51
1027.608	1136.71
1027.898	1149.81
1028.187	1142.36
1028.477	1143.94
1028.766	1106.2
1029.055	1107.33
1029.344	1111.17
1029.634	1089.48
1029.923	1116.59
1030.212	1094.22
1030.501	1093.32
1030.79	1062.36
1031.078	1065.07
1031.367	1070.49
1031.656	1079.31
1031.945	1061.91
1032.233	1050.83
1032.522	1045.18
1032.81	1037.27
1033.099	1027.56
1033.387	1023.94
1033.675	1018.97
1033.963	986.88
1034.251	1018.52
1034.54	981.91
1034.828	1009.93
1035.116	962.25
1035.403	985.3
1035.691	983.94
1035.979	954.34
1036.267	971.74
1036.554	928.8
1036.842	937.39
1037.129	935.36
1037.417	927.45
1037.704	929.71
1037.992	930.61
1038.279	925.41
1038.566	923.83
1038.853	923.83
1039.14	923.83
