Data from hue_34_FLMS001491_00100.txt Node
Date: Tue Feb 07 17:26:29 GMT 2017
User: dcchb
Spectrometer: FLMS00149
Trigger mode: 0
Integration Time (sec): 2.000000E-2
Scans to average: 10
Electric dark correction enabled: true
Nonlinearity correction enabled: false
Boxcar width: 0
XAxis mode: Wavelengths
Number of Pixels in Spectrum: 2048
>>>>>Begin Spectral Data<<<<<
341.393	-23.67
341.776	-23.67
342.16	-23.67
342.543	-44.46
342.927	-46.72
343.31	-48.98
343.693	-71.13
344.077	-62.09
344.46	-60.05
344.843	-67.51
345.226	-51.02
345.61	-26.16
345.993	-19.6
346.376	-2.66
346.759	12.49
347.142	21.75
347.525	29.43
347.908	61.07
348.291	76.44
348.674	94.29
349.057	113.73
349.44	115.53
349.823	154.63
350.206	173.84
350.588	211.12
350.971	221.75
351.354	228.98
351.737	240.28
352.119	258.35
352.502	248.41
352.884	292.03
353.267	308.07
353.65	277.56
354.032	290.9
354.414	293.61
354.797	326.15
355.179	331.35
355.562	306.94
355.944	335.19
356.326	336.77
356.709	355.98
357.091	333.61
357.473	334.51
357.855	347.17
358.238	351.69
358.62	366.83
359.002	327.73
359.384	343.55
359.766	348.3
360.148	326.83
360.53	350.56
360.912	356.43
361.294	332.7
361.676	346.04
362.057	348.52
362.439	354.85
362.821	334.74
363.203	338.13
363.584	340.39
363.966	332.7
364.348	356.88
364.729	322.08
365.111	315.98
365.493	323.21
365.874	325.25
366.256	323.66
366.637	318.47
367.019	328.18
367.4	313.95
367.781	326.15
368.163	308.07
368.544	307.17
368.925	301.97
369.306	334.74
369.688	318.92
370.069	315.3
370.45	294.74
370.831	298.58
371.212	336.54
371.593	322.08
371.974	312.14
372.355	316.43
372.736	311.46
373.117	331.8
373.498	326.6
373.879	329.99
374.26	311.23
374.641	305.81
375.021	308.3
375.402	336.32
375.783	322.31
376.163	322.08
376.544	338.13
376.925	332.93
377.305	342.65
377.686	332.48
378.066	318.47
378.447	335.87
378.827	337.22
379.208	314.4
379.588	336.54
379.968	346.26
380.349	333.38
380.729	332.7
381.109	329.54
381.489	347.17
381.87	344.91
382.25	333.38
382.63	323.21
383.01	335.19
383.39	347.84
383.77	342.19
384.15	337.22
384.53	361.63
384.91	347.84
385.29	354.85
385.67	363.44
386.049	369.76
386.429	362.31
386.809	363.21
387.189	330.9
387.568	353.72
387.948	367.05
388.328	379.93
388.707	335.19
389.087	360.72
389.466	369.54
389.846	358.92
390.225	363.21
390.605	374.28
390.984	341.52
391.363	364.79
391.743	372.7
392.122	369.09
392.501	357.11
392.881	381.52
393.26	382.87
393.639	377.67
394.018	373.61
394.397	389.65
394.776	380.61
395.155	390.55
395.534	362.76
395.913	400.27
396.292	397.33
396.671	377
397.05	388.07
397.429	387.62
397.808	384
398.186	406.83
398.565	386.94
398.944	391.46
399.323	399.14
399.701	388.29
400.08	384.68
400.458	407.05
400.837	412.93
401.215	421.29
401.594	423.1
401.972	406.37
402.351	412.7
402.729	400.72
403.107	411.35
403.486	400.95
403.864	408.63
404.242	409.54
404.62	402.98
404.999	419.93
405.377	402.53
405.755	422.19
406.133	414.06
406.511	415.41
406.889	417.22
407.267	422.64
407.645	421.06
408.023	446.37
408.401	449.08
408.779	429.88
409.156	451.57
409.534	421.97
409.912	452.02
410.29	454.73
410.667	453.15
411.045	418.12
411.422	452.7
411.8	447.28
412.178	434.85
412.555	467.61
412.933	438.92
413.31	456.32
413.687	484.11
414.065	472.36
414.442	454.06
414.819	462.42
415.197	463.55
415.574	495.18
415.951	477.78
416.328	494.96
416.705	487.73
417.082	502.64
417.46	482.76
417.837	488.86
418.214	525.92
418.591	495.64
418.967	500.61
419.344	506.48
419.721	494.96
420.098	511.91
420.475	521.4
420.852	506.94
421.228	495.41
421.605	509.42
421.982	517.56
422.358	523.21
422.735	535.41
423.111	544
423.488	551.91
423.864	513.26
424.241	543.55
424.617	530.66
424.994	532.47
425.37	558.01
425.746	561.17
426.123	550.55
426.499	585.35
426.875	562.75
427.251	554.84
427.627	571.11
428.003	574.5
428.379	576.99
428.756	598.68
429.132	572.7
429.507	607.05
429.883	602.98
430.259	623.32
430.635	588.52
431.011	640.04
431.387	625.12
431.763	620.15
432.138	625.8
432.514	644.33
432.89	645.69
433.265	641.85
433.641	633.49
434.016	654.5
434.392	664.67
434.767	670.77
435.143	661.28
435.518	662.19
435.894	680.26
436.269	676.87
436.644	693.15
437.02	705.35
437.395	687.72
437.77	700.6
438.145	678
438.52	691.34
438.895	716.65
439.271	701.28
439.646	710.77
440.021	723.88
440.395	734.95
440.77	719.13
441.145	716.87
441.52	728.62
441.895	741.51
442.27	759.36
442.645	735.86
443.019	749.42
443.394	732.01
443.769	777.44
444.143	788.06
444.518	763.88
444.892	798.23
445.267	772.47
445.641	774.05
446.016	793.26
446.39	786.48
446.764	795.29
447.139	772.92
447.513	807.27
447.887	827.83
448.262	798.45
448.636	806.81
449.01	826.7
449.384	809.98
449.758	829.19
450.132	819.47
450.506	847.27
450.88	864.44
451.254	833.48
451.628	836.19
452.002	865.34
452.376	861.05
452.75	874.61
453.123	902.41
453.497	864.21
453.871	879.58
454.244	920.48
454.618	911.44
454.992	902.86
455.365	930.88
455.739	942.18
456.112	962.07
456.486	959.13
456.859	946.7
457.232	981.27
457.606	966.36
457.979	993.93
458.352	1005.45
458.725	985.79
459.099	1002.74
459.472	1005
459.845	1038.67
460.218	1058.79
460.591	1068.28
460.964	1045.23
461.337	1089.07
461.71	1088.16
462.083	1076.86
462.456	1133.81
462.829	1115.51
463.201	1147.14
463.574	1146.92
463.947	1141.95
464.32	1165.9
464.692	1175.62
465.065	1188.05
465.438	1234.37
465.81	1237.76
466.183	1236.63
466.555	1243.87
466.928	1272.11
467.3	1284.54
467.672	1292.9
468.045	1328.61
468.417	1373.81
468.789	1341.72
469.161	1371.77
469.534	1398.66
469.906	1414.03
470.278	1425.33
470.65	1440.24
471.022	1496.97
471.394	1492.45
471.766	1524.76
472.138	1569.73
472.51	1600.92
472.882	1633.91
473.253	1649.05
473.625	1653.8
473.997	1702.61
474.369	1705.32
474.74	1743.51
475.112	1804.98
475.484	1821.7
475.855	1881.14
476.227	1893.57
476.598	1988.25
476.97	1998.87
477.341	2051.98
477.713	2077.52
478.084	2103.28
478.455	2161.36
478.827	2210.39
479.198	2255.82
479.569	2280.22
479.94	2355.02
480.311	2418.3
480.682	2513.66
481.053	2519.31
481.424	2620.55
481.795	2639.76
482.166	2712.53
482.537	2782.81
482.908	2898.96
483.279	2931.5
483.65	3016.47
484.021	3054.89
484.391	3109.35
484.762	3188.67
485.133	3243.36
485.503	3314.77
485.874	3441.32
486.244	3483.58
486.615	3600.64
486.985	3656.23
487.356	3749.11
487.726	3811.26
488.097	3934.19
488.467	3989.56
488.837	4091.7
489.207	4181.19
489.578	4243.56
489.948	4290.34
490.318	4428.87
490.688	4484.23
491.058	4610.56
491.428	4676.09
491.798	4740.95
492.168	4867.5
492.538	4914.28
492.908	5052.35
493.278	5148.62
493.648	5215.74
494.017	5295.96
494.387	5339.13
494.757	5417.32
495.126	5507.26
495.496	5574.15
495.866	5649.85
496.235	5750.64
496.605	5808.49
496.974	5881.94
497.344	6035.6
497.713	6057.07
498.082	6147.69
498.452	6215.71
498.821	6261.59
499.19	6347.01
499.559	6424.52
499.928	6483.73
500.298	6516.5
500.667	6677.62
501.036	6633.78
501.405	6762.14
501.774	6754.91
502.143	6866.54
502.512	6918.74
502.88	6996.26
503.249	6972.98
503.618	7097.5
503.987	7138.4
504.356	7226.99
504.724	7313.76
505.093	7404.61
505.462	7339.07
505.83	7474.44
506.199	7508.33
506.567	7576.81
506.936	7624.26
507.304	7766.86
507.672	7764.15
508.041	7855.22
508.409	7963.01
508.777	7989.68
509.145	8034.42
509.514	8040.52
509.882	8100.41
510.25	8219.28
510.618	8206.39
510.986	8318.26
511.354	8367.75
511.722	8439.61
512.09	8488.42
512.458	8465.6
512.826	8559.38
513.193	8574.97
513.561	8613.84
513.929	8687.29
514.297	8799.83
514.664	8864.68
515.032	8875.3
515.4	8936.54
515.767	8959.37
516.135	9025.58
516.502	8951.91
516.869	9112.36
517.237	9122.53
517.604	9160.49
517.972	9252.02
518.339	9281.39
518.706	9311.22
519.073	9407.49
519.44	9391
519.808	9532.24
520.175	9493.59
520.542	9589.41
520.909	9680.48
521.276	9587.15
521.643	9770.87
522.009	9799.8
522.376	9933.81
522.743	9929.96
523.11	9983.75
523.477	10049.06
523.843	10091.09
524.21	10203.18
524.577	10305.55
524.943	10325.21
525.31	10417.41
525.676	10448.6
526.043	10432.1
526.409	10620.34
526.776	10686.33
527.142	10628.7
527.508	10755.03
527.874	10790.51
528.241	10901.46
528.607	10933.33
528.973	10990.28
529.339	11057.62
529.705	11135.58
530.071	11115.02
530.437	11190.04
530.803	11367.67
531.169	11397.04
531.535	11352.75
531.901	11452.86
532.267	11460.55
532.632	11560.88
532.998	11493.77
533.364	11647.89
533.73	11672.07
534.095	11739.41
534.461	11728.34
534.826	11788
535.192	11896.92
535.557	11966.97
535.923	11910.25
536.288	11986.18
536.653	12058.5
537.019	12021.21
537.384	12207.65
537.749	12231.6
538.114	12238.6
538.479	12272.5
538.845	12388.43
539.21	12309.11
539.575	12429.33
539.94	12456.23
540.305	12570.12
540.67	12505.04
541.034	12555.21
541.399	12701.64
541.764	12694.64
542.129	12744.13
542.494	12778.7
542.858	12875.2
543.223	12903.67
543.587	12996.1
543.952	12998.58
544.316	13057.79
544.681	13131.01
545.045	13130.56
545.41	13193.16
545.774	13225.7
546.138	13272.7
546.503	13425.69
546.867	13383.43
547.231	13485.13
547.595	13497.33
547.959	13552.47
548.324	13533.71
548.688	13603.77
549.052	13688.51
549.416	13796.08
549.779	13724.44
550.143	13748.62
550.507	13894.38
550.871	13854.61
551.235	13944.32
551.599	13975.06
551.962	14070.42
552.326	14037.88
552.689	14216.18
553.053	14159.01
553.417	14203.98
553.78	14320.13
554.143	14266.8
554.507	14335.95
554.87	14466.34
555.234	14561.71
555.597	14461.6
555.96	14575.27
556.323	14532.1
556.686	14646
557.05	14752.44
557.413	14687.58
557.776	14796.73
558.139	14780.91
558.502	14874.69
558.865	14899.78
559.228	15010.96
559.59	15083.5
559.953	15092.99
560.316	15180.9
560.679	15234.46
561.041	15235.59
561.404	15365.98
561.767	15484.62
562.129	15466.32
562.492	15581.34
562.854	15548.12
563.217	15565.75
563.579	15613.43
563.941	15692.98
564.304	15742.92
564.666	15817.27
565.028	15857.49
565.39	15939.75
565.753	16009.13
566.115	16079.41
566.477	16130.48
566.839	16205.51
567.201	16336.12
567.563	16309.46
567.925	16489.57
568.287	16444.6
568.648	16403.47
569.01	16587.19
569.372	16647.75
569.734	16628.32
570.095	16751.71
570.457	16740.86
570.819	16852.95
571.18	16916.45
571.542	16960.74
571.903	16977.69
572.265	17065.6
572.626	17230.56
572.987	17278.02
573.349	17342.88
573.71	17416.1
574.071	17466.94
574.432	17568.63
574.794	17786.71
575.155	17845.69
575.516	17780.61
575.877	18017.66
576.238	18075.74
576.599	18189.18
576.96	18256.98
577.32	18359.8
577.681	18556.86
578.042	18694.48
578.403	18788.49
578.763	18841.37
579.124	19098.31
579.485	19272.32
579.845	19427.12
580.206	19577.17
580.566	19649.94
580.927	19793.43
581.287	19993.2
581.648	20080.43
582.008	20246.53
582.368	20437.03
582.728	20671.83
583.089	20746.86
583.449	21020.75
583.809	21156.79
584.169	21364.24
584.529	21528.3
584.889	21903.66
585.249	21971.46
585.609	22176.65
585.969	22438.11
586.329	22484.89
586.688	22853.69
587.048	23188.15
587.408	23193.12
587.768	23403.06
588.127	23599.89
588.487	23800.56
588.846	24373.2
589.206	24308.12
589.565	24699.07
589.925	24976.12
590.284	25099.28
590.643	25401.87
591.003	25663.79
591.362	26075.3
591.721	26226.94
592.08	26414.96
592.44	26742.63
592.799	27052.9
593.158	27217.87
593.517	27509.39
593.876	27669.39
594.235	28048.36
594.593	28096.72
594.952	28508.69
595.311	28689.25
595.67	29025.73
596.029	29334.65
596.387	29678.15
596.746	29993.84
597.104	29929.44
597.463	30230.9
597.822	30597.9
598.18	30683.09
598.538	30818.91
598.897	31348.38
599.255	31313.58
599.613	31855.94
599.972	31859.78
600.33	32245.54
600.688	32363.05
601.046	32660.89
601.404	32989.02
601.762	33100.88
602.12	33453.64
602.478	33632.62
602.836	33758.04
603.194	33788.77
603.552	34108.54
603.91	33990.12
604.268	34364.12
604.625	34611.35
604.983	34941.74
605.341	34921.85
605.698	35194.16
606.056	35437.77
606.413	35569.52
606.771	35835.5
607.128	35958.66
607.485	36001.82
607.843	36174.47
608.2	36383.96
608.557	36747.34
608.914	36686.55
609.272	36964.73
609.629	37286.76
609.986	37272.07
610.343	37376.93
610.7	37755.22
611.057	37943.47
611.414	37927.42
611.771	38116.57
612.127	38364.02
612.484	38350.69
612.841	38538.7
613.198	38549.78
613.554	38636.33
613.911	39099.59
614.267	39194.73
614.624	39258.91
614.98	39358.12
615.337	39728.28
615.693	39682.4
616.05	39672.01
616.406	39938.44
616.762	39785.45
617.118	39856.86
617.475	40126.01
617.831	40284.65
618.187	40513.57
618.543	40465.43
618.899	40718.08
619.255	40758.53
619.611	40785.88
619.967	40935.48
620.323	41025.42
620.678	41078.07
621.034	40984.97
621.39	41007.57
621.746	40980.45
622.101	41523.71
622.457	41455.24
622.812	41530.04
623.168	41661.33
623.523	41694.1
623.879	41840.76
624.234	41526.42
624.589	41753.31
624.945	41887.54
625.3	42033.98
625.655	41963.25
626.01	42059.29
626.365	42042.57
626.72	42073.3
627.075	42243.24
627.43	42131.6
627.785	42106.75
628.14	42176.57
628.495	42227.19
628.85	42290.47
629.205	42007.09
629.559	42371.15
629.914	42143.36
630.269	42421.54
630.623	42149.23
630.978	42168.89
631.332	42360.07
631.687	42616.34
632.041	42303.12
632.396	42497.7
632.75	42371.82
633.104	42389.68
633.459	42191.49
633.813	42246.86
634.167	42353.97
634.521	42312.16
634.875	42425.83
635.229	42481.43
635.583	42207.08
635.937	42242.11
636.291	42357.36
636.645	42468.09
636.999	42157.82
637.352	42240.3
637.706	42221.77
638.06	42385.16
638.413	42419.96
638.767	42120.53
639.121	42253.63
639.474	42038.73
639.828	42035.34
640.181	42088.89
640.534	42161.43
640.888	42062.68
641.241	41880.09
641.594	42070.81
641.947	42111.27
642.301	41988.78
642.654	42040.76
643.007	41977.03
643.36	41882.8
643.713	41919.86
644.066	42018.84
644.419	41832.18
644.771	41483.26
645.124	41186.54
645.477	41194.23
645.83	40936.16
646.182	40724.41
646.535	40650.97
646.888	40772.54
647.24	40512.44
647.593	40734.8
647.945	40748.36
648.298	40499.78
648.65	40536.39
649.002	40461.14
649.355	40564.87
649.707	40428.37
650.059	40714.01
650.411	41150.61
650.763	41147.22
651.115	41586.31
651.467	41372.53
651.819	41495.46
652.171	41314
652.523	41303.6
652.875	41330.5
653.227	41085.98
653.578	41361.23
653.93	41433.54
654.282	41173.44
654.633	41180.67
654.985	41244.85
655.337	41272.19
655.688	41172.31
656.039	41377.27
656.391	41030.62
656.742	41147.45
657.094	41093.89
657.445	41210.95
657.796	41093.67
658.147	41059.09
658.498	41042.14
658.849	41243.94
659.2	41047.34
659.551	40952.65
659.902	41157.39
660.253	41151.97
660.604	41138.64
660.955	40979.32
661.306	40907.91
661.656	41007.11
662.007	41070.16
662.358	40976.15
662.708	40958.08
663.059	41000.56
663.409	40773.22
663.76	41054.57
664.11	40883.95
664.461	41041.46
664.811	41037.4
665.161	40915.36
665.511	40829.94
665.862	40780.23
666.212	40953.56
666.562	40852.77
666.912	40768.48
667.262	40745.43
667.612	40794.46
667.962	40915.14
668.312	40833.33
668.662	40938.87
669.011	40922.6
669.361	40857.51
669.711	40783.39
670.06	40702.04
670.41	40677.86
670.76	40606.22
671.109	40740.91
671.459	40641.25
671.808	40692.09
672.157	40747.91
672.507	40452.55
672.856	40483.96
673.205	40603.06
673.554	40582.27
673.904	40599.21
674.253	40846.44
674.602	40593.57
674.951	39982.28
675.3	39767.37
675.649	40527.35
675.998	40411.2
676.346	40504.75
676.695	40429.73
677.044	40157.64
677.393	40385.66
677.741	40418.65
678.09	40286.91
678.438	40231.99
678.787	40419.56
679.135	40381.14
679.484	40068.38
679.832	40153.58
680.181	39983.19
680.529	40037.42
680.877	39849.86
681.225	39925.56
681.573	39996.97
681.922	39940.7
682.27	39857.31
682.618	39711.78
682.966	39627.94
683.314	39763.53
683.661	39618.22
684.009	39490.09
684.357	39380.04
684.705	39320.38
685.053	39444.9
685.4	39296.2
685.748	39108.41
686.095	39067.73
686.443	39032.93
686.79	38912.03
687.138	39149.99
687.485	38994.29
687.832	39012.36
688.18	38901.63
688.527	38799.71
688.874	38750.22
689.221	38640.4
689.568	38474.75
689.915	38508.2
690.262	38506.84
690.609	38300.74
690.956	38259.84
691.303	38174.19
691.65	38082.44
691.997	37829.12
692.344	37818.95
692.69	37836.12
693.037	37814.2
693.383	37512.06
693.73	37657.82
694.077	37410.15
694.423	37547.09
694.769	37335.8
695.116	37297.15
695.462	37206.99
695.808	37003.83
696.155	37151.62
696.501	36805.64
696.847	36910.95
697.193	36733.78
697.539	36916.15
697.885	36544.63
698.231	36522.26
698.577	36443.84
698.923	36534.92
699.269	36250.63
699.614	36102.38
699.96	36055.38
700.306	35974.48
700.651	35847.02
700.997	35743.52
701.342	35561.61
701.688	35710.98
702.033	35533.13
702.379	35452.23
702.724	35452.01
703.069	35408.39
703.415	34987.16
703.76	35090.43
704.105	35080.94
704.45	34920.27
704.795	34631.01
705.14	34712.36
705.485	34537
705.83	34530.9
706.175	34532.26
706.52	34399.6
706.865	34275.54
707.209	34325.03
707.554	34211.36
707.899	34145.83
708.243	34009.78
708.588	33903.12
708.932	33771.37
709.277	33856.57
709.621	33751.03
709.966	33589.46
710.31	33711.03
710.654	33270.82
710.998	33444.37
711.342	33497.71
711.687	33291.84
712.031	33209.35
712.375	33086.64
712.719	33150.37
713.063	33123.48
713.407	33214.1
713.75	32896.82
714.094	32949.47
714.438	32878.51
714.782	32904.95
715.125	32646.43
715.469	32699.54
715.812	32513.55
716.156	32321.24
716.499	32451.63
716.843	32481.24
717.186	32367.57
717.53	32525.75
717.873	32412.54
718.216	32259.55
718.559	32120.57
718.902	31831.76
719.246	31863.17
719.589	31994.02
719.932	31662.5
720.275	31864.3
720.617	31720.13
720.96	31772.55
721.303	31738.21
721.646	31608.04
721.989	31530.07
722.331	31618.89
722.674	31523.75
723.016	31463.41
723.359	31321.04
723.701	31470.87
724.044	31168.95
724.386	31045.12
724.729	31288.73
725.071	31204.89
725.413	31074.72
725.755	31053.48
726.097	31051.44
726.439	30803.99
726.782	30780.94
727.124	30888.51
727.465	30717.44
727.807	30666.37
728.149	30686.48
728.491	30660.04
728.833	30689.19
729.175	30621.4
729.516	30577.78
729.858	30549.99
730.199	30414.17
730.541	30334.17
730.882	30238.13
731.224	30278.36
731.565	30231.58
731.906	30158.81
732.248	30156.78
732.589	30084.24
732.93	29804.47
733.271	29918.37
733.612	30044.46
733.953	30012.15
734.294	29857.12
734.635	29848.31
734.976	29944.13
735.317	29776
735.658	29660.97
735.999	29793.4
736.339	29521.09
736.68	29750.46
737.021	29615.77
737.361	29367.19
737.702	29586.17
738.042	29418.27
738.383	29421.88
738.723	29497.13
739.063	29409.23
739.404	29380.53
739.744	29333.75
740.084	29169.23
740.424	29176.92
740.764	29133.3
741.104	29216.69
741.444	28957.49
741.784	28920.43
742.124	29122.23
742.464	29032.97
742.804	28843.14
743.143	28801.11
743.483	28940.76
743.823	28689.25
744.162	28761.11
744.502	28703.71
744.841	28540.77
745.181	28698.51
745.52	28452.42
745.86	28573.09
746.199	28527.44
746.538	28465.97
746.877	28414.22
747.216	28459.87
747.556	28314.57
747.895	28457.16
748.234	28117.28
748.573	28246.77
748.911	28119.09
749.25	28135.59
749.589	28031.64
749.928	28013.56
750.267	28003.16
750.605	28080.67
750.944	27911.41
751.283	27720.01
751.621	27886.78
751.96	27659.44
752.298	27688.37
752.636	27713.68
752.975	27525.89
753.313	27516.62
753.651	27543.74
753.989	27426.45
754.327	27440.69
754.666	27305.55
755.004	27244.76
755.342	27397.08
755.679	27196.4
756.017	27121.83
756.355	27272.79
756.693	27053.36
757.031	26910.31
757.368	26874.38
757.706	26831.67
758.044	26736.08
758.381	26777.88
758.719	26617.21
759.056	26648.62
759.394	26581.5
759.731	26351.23
760.068	26312.36
760.405	26249.31
760.743	26223.32
761.08	26336.77
761.417	26208.86
761.754	26089.09
762.091	26017.23
762.428	25818.81
762.765	25753.5
763.102	25824.01
763.438	25597.35
763.775	25528.2
764.112	25581.76
764.449	25624.92
764.785	25392.38
765.122	25301.54
765.458	25157.81
765.795	25192.16
766.131	25080.53
766.467	25029.91
766.804	24917.37
767.14	24804.83
767.476	24815.9
767.812	24683.93
768.148	24712.4
768.485	24432.63
768.821	24448.68
769.157	24421.34
769.492	24451.62
769.828	24298.85
770.164	24127.33
770.5	24027.9
770.836	24095.92
771.171	23810.96
771.507	23808.02
771.842	23571.64
772.178	23689.38
772.513	23657.97
772.849	23544.75
773.184	23368.26
773.519	23428.37
773.855	23291.42
774.19	23200.58
774.525	23120.58
774.86	23058.89
775.195	22967.14
775.53	22904.31
775.865	22791.55
776.2	22693.25
776.535	22498.67
776.87	22582.74
777.205	22466.36
777.539	22310.88
777.874	22359.24
778.209	22189.98
778.543	22142.07
778.878	21910.44
779.212	21924.68
779.547	21944.11
779.881	21925.13
780.215	21768.98
780.55	21783.89
780.884	21679.26
781.218	21585.48
781.552	21564.46
781.886	21369.66
782.22	21392.04
782.554	21301.19
782.888	21027.3
783.222	20977.58
783.556	20920.41
783.889	20853.75
784.223	20671.38
784.557	20675.9
784.89	20809.45
785.224	20726.29
785.557	20559.97
785.891	20432.97
786.224	20400.65
786.558	20275
786.891	20115.01
787.224	20076.82
787.557	20109.36
787.891	20052.41
788.224	19941.91
788.557	19988.91
788.89	19837.73
789.223	19849.7
789.556	19619.2
789.888	19625.76
790.221	19648.35
790.554	19342.15
790.887	19357.74
791.219	19264.41
791.552	19244.75
791.884	19224.64
792.217	19103.51
792.549	19015.6
792.882	18972.21
793.214	18885.66
793.546	18904.87
793.879	18752.56
794.211	18613.8
794.543	18770.18
794.875	18607.02
795.207	18678.44
795.539	18436.18
795.871	18538.33
796.203	18364.55
796.535	18166.58
796.867	18283.64
797.198	18230.76
797.53	18173.14
797.862	18046.36
798.193	18020.15
798.525	17994.16
798.856	17963.88
799.188	17831.45
799.519	17705.13
799.85	17697.44
800.182	17671.91
800.513	17682.98
800.844	17504.91
801.175	17588.97
801.506	17471.69
801.837	17451.12
802.168	17382.88
802.499	17259.94
802.83	17334.06
803.161	17270.34
803.491	17195.99
803.822	17249.77
804.153	17118.25
804.483	16937.24
804.814	16923.91
805.145	16880.74
805.475	16824.25
805.805	16772.72
806.136	16780.63
806.466	16786.06
806.796	16744.02
807.126	16664.03
807.457	16486.63
807.787	16541.77
808.117	16422
808.447	16330.47
808.777	16369.34
809.107	16257.03
809.436	16343.81
809.766	16302
810.096	16205.96
810.426	16200.53
810.755	16155.56
811.085	15997.83
811.414	15940.43
811.744	15952.18
812.073	15873.31
812.403	15925.97
812.732	15827.21
813.061	15797.16
813.39	15781.79
813.719	15699.98
814.049	15727.55
814.378	15629.7
814.707	15595.58
815.036	15565.3
815.365	15472.64
815.693	15431.52
816.022	15408.92
816.351	15365.3
816.68	15228.13
817.008	15244.63
817.337	15251.86
817.665	15148.36
817.994	15194.91
818.322	15185.65
818.651	15026.55
818.979	14984.3
819.307	15200.56
819.636	14989.27
819.964	14954.69
820.292	15000.34
820.62	14890.29
820.948	14972.32
821.276	14997.4
821.604	14942.94
821.932	14894.35
822.259	14919.66
822.587	14947.01
822.915	14805.77
823.243	14884.41
823.57	14803.28
823.898	14889.83
824.225	14819.55
824.553	14824.75
824.88	14864.3
825.207	14819.78
825.535	14778.42
825.862	14895.48
826.189	14832.43
826.516	14901.59
826.843	14869.27
827.17	14901.36
827.497	14911.08
827.824	14857.29
828.151	14754.24
828.478	14806.45
828.805	14847.58
829.131	14754.02
829.458	14787.24
829.785	14718.99
830.111	14842.83
830.438	14861.81
830.764	14752.44
831.09	14822.94
831.417	14642.38
831.743	14716.96
832.069	14706.11
832.395	14686.22
832.722	14719.22
833.048	14709.5
833.374	14627.24
833.7	14636.06
834.026	14676.96
834.351	14730.52
834.677	14670.18
835.003	14674.92
835.329	14605.77
835.654	14504.53
835.98	14531.65
836.306	14495.04
836.631	14497.3
836.956	14479.22
837.282	14579.11
837.607	14389.51
837.932	14370.53
838.258	14455.04
838.583	14339.57
838.908	14335.5
839.233	14343.63
839.558	14313.13
839.883	14260.7
840.208	14243.75
840.533	14169.63
840.858	14192.45
841.182	14144.54
841.507	14190.87
841.832	14019.12
842.156	14089.63
842.481	14060.93
842.805	14059.8
843.13	13919.01
843.454	13975.51
843.778	13900.48
844.103	13896.87
844.427	13815.06
844.751	13884.44
845.075	13768.73
845.399	13747.49
845.723	13689.64
846.047	13724.89
846.371	13540.49
846.695	13593.82
847.019	13437.44
847.343	13434.96
847.666	13326.26
847.99	13349.08
848.313	13291.01
848.637	13220.27
848.96	13174.85
849.284	13156.77
849.607	13077.23
849.931	13034.97
850.254	12882.43
850.577	12888.08
850.9	12789.78
851.223	12841.53
851.546	12673.85
851.869	12653.74
852.192	12733.73
852.515	12518.6
852.838	12528.77
853.161	12488.99
853.483	12424.36
853.806	12392.27
854.129	12398.15
854.451	12327.87
854.774	12270.69
855.096	12274.08
855.419	12184.14
855.741	12116.35
856.063	12151.6
856.385	12108.89
856.708	12138.49
857.03	12058.04
857.352	12048.78
857.674	11942.34
857.996	11885.39
858.318	11853.3
858.64	11847.65
858.961	11801.55
859.283	11724.95
859.605	11769.69
859.926	11731.73
860.248	11710.94
860.57	11606.98
860.891	11623.93
861.212	11648.79
861.534	11468.23
861.855	11583.25
862.176	11567.66
862.498	11505.52
862.819	11464.61
863.14	11369.02
863.461	11408.57
863.782	11443.6
864.103	11435.91
864.424	11380.32
864.745	11374.9
865.065	11309.36
865.386	11249.03
865.707	11244.51
866.027	11268.01
866.348	11230.27
866.668	11198.41
866.989	11133.78
867.309	11128.13
867.63	11123.61
867.95	11075.47
868.27	10999.09
868.59	11055.81
868.91	11056.26
869.23	11047.45
869.55	10885.19
869.87	11040.67
870.19	10991.86
870.51	11038.41
870.83	11010.84
871.15	10919.32
871.469	10858.53
871.789	10987.56
872.109	10930.62
872.428	10788.47
872.748	10833.22
873.067	10802.94
873.386	10863.05
873.706	10812.2
874.025	10757.97
874.344	10654.47
874.663	10803.84
874.982	10712.32
875.301	10706.22
875.62	10666.22
875.939	10700.34
876.258	10730.4
876.577	10567.46
876.896	10604.07
877.214	10627.35
877.533	10596.61
877.852	10594.81
878.17	10574.69
878.489	10580.8
878.807	10569.72
879.125	10499.89
879.444	10517.52
879.762	10444.08
880.08	10397.98
880.398	10426.22
880.716	10426.9
881.034	10359.11
881.352	10421.03
881.67	10331.08
881.988	10370.63
882.306	10372.21
882.624	10241.14
882.941	10289.5
883.259	10176.51
883.577	10223.06
883.894	10170.41
884.212	10142.84
884.529	10131.77
884.846	10090.64
885.164	10056.74
885.481	10038.44
885.798	10059.45
886.115	9995.27
886.432	9942.62
886.75	9983.75
887.067	9911.66
887.383	9928.61
887.7	9909.17
888.017	9849.52
888.334	9850.64
888.651	9805.22
888.967	9871.44
889.284	9726.58
889.6	9749.18
889.917	9657.2
890.233	9687.71
890.55	9675.06
890.866	9704.21
891.182	9604.32
891.498	9518.22
891.815	9488.17
892.131	9501.73
892.447	9485.46
892.763	9445.91
893.079	9429.19
893.395	9346.03
893.71	9386.02
894.026	9363.2
894.342	9334.73
894.657	9281.85
894.973	9242.3
895.289	9232.81
895.604	9275.97
895.92	9152.81
896.235	9084.56
896.55	9068.52
896.865	9108.74
897.181	9111.46
897.496	9022.87
897.811	8932.03
898.126	8995.07
898.441	8912.14
898.756	8875.98
899.071	8861.52
899.386	8864.91
899.7	8732.48
900.015	8793.5
900.33	8755.08
900.644	8704.46
900.959	8670.34
901.273	8701.97
901.588	8576.55
901.902	8631.24
902.216	8578.36
902.531	8539.72
902.845	8480.96
903.159	8444.35
903.473	8443.45
903.787	8359.16
904.101	8326.62
904.415	8350.8
904.729	8278.03
905.042	8276.45
905.356	8236.9
905.67	8165.49
905.984	8256.11
906.297	8198.71
906.611	8144.02
906.924	8144.02
907.237	8056.57
907.551	8021.77
907.864	7993.97
908.177	7984.93
908.491	7957.14
908.804	7908.55
909.117	7854.77
909.43	7846.63
909.743	7849.79
910.056	7771.15
910.368	7727.54
910.681	7734.99
910.994	7653.64
911.307	7685.5
911.619	7581.78
911.932	7574.32
912.244	7569.8
912.557	7537.26
912.869	7466.75
913.181	7447.54
913.494	7416.36
913.806	7401.67
914.118	7377.04
914.43	7320.54
914.742	7337.94
915.054	7291.16
915.366	7230.37
915.678	7262.46
915.99	7218.17
916.302	7158.29
916.613	7084.84
916.925	7130.04
917.236	7101.79
917.548	7055.01
917.859	6975.92
918.171	6976.37
918.482	6926.65
918.794	6916.48
919.105	6949.7
919.416	6827.45
919.727	6886.43
920.038	6837.39
920.349	6764.62
920.66	6818.18
920.971	6747.68
921.282	6751.74
921.593	6679.88
921.903	6632.42
922.214	6629.94
922.525	6576.38
922.835	6577.96
923.146	6517.4
923.456	6493.67
923.767	6445.76
924.077	6478.3
924.387	6411.41
924.697	6389.72
925.008	6314.01
925.318	6281.25
925.628	6280.57
925.938	6315.6
926.248	6234.02
926.558	6183.4
926.867	6163.06
927.177	6190.85
927.487	6105.88
927.796	6069.05
928.106	6074.47
928.416	6083.29
928.725	6082.38
929.034	6039.22
929.344	6044.87
929.653	5988.6
929.962	5951.31
930.271	5943.63
930.581	5873.35
930.89	5849.39
931.199	5800.81
931.508	5833.35
931.817	5818.66
932.125	5749.74
932.434	5793.8
932.743	5712.45
933.051	5679
933.36	5692.34
933.669	5640.59
933.977	5631.09
934.286	5617.08
934.594	5626.8
934.902	5593.13
935.21	5491.21
935.519	5478.78
935.827	5486.69
936.135	5404.43
936.443	5413.25
936.751	5362.18
937.059	5378.67
937.367	5413.47
937.674	5362.18
937.982	5336.19
938.29	5305.23
938.597	5320.37
938.905	5291.44
939.213	5244.21
939.52	5191.11
939.827	5227.04
940.135	5150.66
940.442	5088.96
940.749	5089.41
941.056	5100.94
941.363	5048.06
941.67	5058.68
941.977	5028.62
942.284	4950.43
942.591	4970.32
942.898	4995.86
943.205	4956.54
943.511	4942.3
943.818	4914.05
944.125	4865.92
944.431	4825.01
944.738	4839.03
945.044	4806.71
945.35	4784.56
945.657	4764
945.963	4756.77
946.269	4718.35
946.575	4788.63
946.881	4738.24
947.187	4692.14
947.493	4638.13
947.799	4631.12
948.105	4635.41
948.41	4596.77
948.716	4584.57
949.022	4561.07
949.327	4523.33
949.633	4513.84
949.938	4472.26
950.244	4498.24
950.549	4467.96
950.854	4470
951.16	4424.35
951.465	4409.21
951.77	4331.92
952.075	4376.89
952.38	4350.45
952.685	4342.09
952.99	4325.37
953.294	4324.91
953.599	4244.69
953.904	4270.9
954.209	4214.86
954.513	4235.2
954.818	4179.38
955.122	4180.74
955.426	4176.9
955.731	4147.29
956.035	4148.2
956.339	4111.13
956.643	4095.32
956.948	4060.97
957.252	4075.88
957.556	4058.03
957.86	4039.27
958.163	4023.23
958.467	3973.29
958.771	3961.31
959.075	3968.54
959.378	3964.7
959.682	3910.24
959.985	3902.78
960.289	3887.86
960.592	3878.37
960.896	3812.39
961.199	3850.58
961.502	3806.96
961.805	3829.11
962.108	3786.85
962.411	3766.06
962.714	3733.52
963.017	3764.93
963.32	3755.66
963.623	3754.31
963.926	3720.41
964.228	3663.69
964.531	3649.45
964.833	3670.02
965.136	3604.93
965.438	3597.25
965.741	3584.82
966.043	3555.9
966.345	3549.57
966.648	3563.8
966.95	3509.79
967.252	3527.2
967.554	3488.1
967.856	3480.19
968.158	3460.53
968.46	3478.16
968.761	3420.31
969.063	3433.64
969.365	3426.41
969.666	3374.88
969.968	3366.52
970.269	3377.82
970.571	3351.83
970.872	3374.88
971.174	3315.9
971.475	3252.4
971.776	3338.05
972.077	3272.29
972.378	3251.95
972.679	3260.54
972.98	3247.88
973.281	3230.25
973.582	3197.49
973.883	3191.84
974.183	3163.36
974.484	3163.36
974.785	3133.08
975.085	3159.97
975.386	3120.43
975.686	3124.95
975.986	3093.76
976.287	3105.51
976.587	3105.51
976.887	3047.21
977.187	3013.99
977.487	3013.76
977.787	3004.95
978.087	2976.93
978.387	3019.64
978.687	2940.54
978.987	2984.61
979.286	2971.73
979.586	2951.62
979.885	2917.27
980.185	2913.88
980.484	2880.21
980.784	2872.52
981.083	2875.46
981.382	2873.43
981.682	2870.94
981.981	2835.91
982.28	2791.17
982.579	2775.58
982.878	2813.77
983.177	2775.35
983.475	2803.37
983.774	2776.93
984.073	2708.46
984.372	2703.71
984.67	2677.73
984.969	2715.69
985.267	2690.16
985.566	2694.45
985.864	2699.87
986.162	2656.26
986.461	2655.58
986.759	2624.39
987.057	2636.15
987.355	2592.76
987.653	2579.65
987.951	2624.85
988.249	2580.33
988.547	2587.56
988.844	2559.76
989.142	2549.37
989.44	2554.34
989.737	2535.81
990.035	2508.01
990.332	2506.21
990.63	2486.54
990.927	2488.58
991.224	2484.06
991.521	2451.74
991.819	2426.89
992.116	2470.27
992.413	2407.45
992.71	2400.67
993.006	2416.49
993.303	2381.24
993.6	2364.74
993.897	2336.49
994.193	2347.34
994.49	2316.15
994.787	2327.23
995.083	2312.76
995.379	2322.48
995.676	2285.19
995.972	2281.58
996.268	2265.99
996.565	2248.58
996.861	2243.16
997.157	2205.87
997.453	2226.21
997.749	2228.02
998.044	2214.46
998.34	2196.61
998.636	2192.09
998.932	2169.26
999.227	2162.94
999.523	2148.93
999.818	2113.22
1000.114	2131.53
1000.409	2124.97
1000.704	2105.99
1001	2070.51
1001.295	2099.44
1001.59	2093.11
1001.885	2075.71
1002.18	2049.04
1002.475	2049.49
1002.77	2023.28
1003.065	2010.17
1003.359	2003.85
1003.654	2031.87
1003.949	2005.43
1004.243	1976.5
1004.538	1973.56
1004.832	1985.09
1005.127	1952.1
1005.421	1946.9
1005.715	1941.25
1006.009	1934.92
1006.304	1911.19
1006.598	1905.09
1006.892	1879.1
1007.186	1880.46
1007.48	1862.83
1007.773	1865.77
1008.067	1826.9
1008.361	1835.94
1008.655	1817.41
1008.948	1797.07
1009.242	1784.19
1009.535	1796.85
1009.829	1783.29
1010.122	1770.18
1010.415	1784.42
1010.708	1765.89
1011.001	1742.16
1011.295	1705.55
1011.588	1754.36
1011.881	1721.82
1012.173	1720.92
1012.466	1688.83
1012.759	1656.28
1013.052	1677.53
1013.344	1689.05
1013.637	1642.73
1013.93	1642.95
1014.222	1615.83
1014.514	1629.39
1014.807	1634.36
1015.099	1604.76
1015.391	1572.67
1015.683	1586
1015.976	1603.63
1016.268	1550.75
1016.56	1560.47
1016.851	1521.82
1017.143	1538.55
1017.435	1559.11
1017.727	1531.77
1018.018	1504.65
1018.31	1522.5
1018.602	1491.77
1018.893	1489.06
1019.185	1479.57
1019.476	1466.91
1019.767	1471.2
1020.058	1444.31
1020.35	1452.22
1020.641	1439.79
1020.932	1424.2
1021.223	1415.84
1021.514	1388.04
1021.804	1385.33
1022.095	1353.02
1022.386	1386.69
1022.677	1338.33
1022.967	1359.12
1023.258	1346.24
1023.548	1355.28
1023.839	1333.13
1024.129	1325.45
1024.419	1303.3
1024.709	1310.08
1025	1277.76
1025.29	1256.07
1025.58	1287.48
1025.87	1259.46
1026.16	1260.59
1026.449	1240.93
1026.739	1252
1027.029	1240.7
1027.319	1245.22
1027.608	1246.58
1027.898	1221.27
1028.187	1199.35
1028.477	1202.96
1028.766	1179.91
1029.055	1169.52
1029.344	1156.18
1029.634	1190.08
1029.923	1154.38
1030.212	1157.54
1030.501	1165
1030.79	1130.65
1031.078	1123.87
1031.367	1141.72
1031.656	1132.23
1031.945	1113.02
1032.233	1108.28
1032.522	1113.93
1032.81	1098.11
1033.099	1095.17
1033.387	1061.5
1033.675	1047.26
1033.963	1047.49
1034.251	1024.44
1034.54	1063.53
1034.828	1020.59
1035.116	1020.14
1035.403	1008.17
1035.691	1004.78
1035.979	1016.53
1036.267	1003.87
1036.554	1027.15
1036.842	1011.56
1037.129	998
1037.417	979.92
1037.704	993.48
1037.992	984.44
1038.279	960.26
1038.566	961.16
1038.853	961.16
1039.14	961.16
