Data from hue_210_FLMS001491_00095.txt Node
Date: Tue Feb 07 16:42:01 GMT 2017
User: dcchb
Spectrometer: FLMS00149
Trigger mode: 0
Integration Time (sec): 2.000000E-2
Scans to average: 10
Electric dark correction enabled: true
Nonlinearity correction enabled: false
Boxcar width: 0
XAxis mode: Wavelengths
Number of Pixels in Spectrum: 2048
>>>>>Begin Spectral Data<<<<<
341.393	-4.18
341.776	-4.18
342.16	-4.18
342.543	-71.07
342.927	-66.1
343.31	-87.34
343.693	-80.56
344.077	-45.08
344.46	-74.69
344.843	-58.87
345.226	-59.77
345.61	-16.38
345.993	-17.74
346.376	-2.6
346.759	7.8
347.142	39.89
347.525	54.35
347.908	55.93
348.291	78.08
348.674	88.92
349.057	118.08
349.44	129.6
349.823	134.8
350.206	152.88
350.588	183.84
350.971	216.6
351.354	227.68
351.737	241.46
352.119	231.97
352.502	263.83
352.884	248.24
353.267	253.67
353.65	273.78
354.032	290.73
354.414	310.61
354.797	303.16
355.179	323.04
355.562	299.54
355.944	334.12
356.326	327.56
356.709	316.26
357.091	321.23
357.473	334.79
357.855	323.27
358.238	342.93
358.62	335.02
359.002	335.92
359.384	330.5
359.766	317.17
360.148	329.37
360.53	334.57
360.912	330.95
361.294	321.01
361.676	341.35
362.057	344.51
362.439	338.18
362.821	337.28
363.203	309.26
363.584	311.29
363.966	315.81
364.348	311.74
364.729	321.01
365.111	307
365.493	321.69
365.874	300.22
366.256	296.38
366.637	301.12
367.019	306.77
367.4	302.03
367.781	328.01
368.163	304.51
368.544	313.55
368.925	321.01
369.306	301.8
369.688	296.83
370.069	303.38
370.45	309.26
370.831	302.93
371.212	294.79
371.593	301.57
371.974	326.21
372.355	330.27
372.736	323.04
373.117	299.09
373.498	309.94
373.879	311.52
374.26	293.44
374.641	303.16
375.021	303.16
375.402	313.1
375.783	317.62
376.163	303.16
376.544	333.21
376.925	318.97
377.305	320.78
377.686	330.5
378.066	318.3
378.447	335.02
378.827	318.97
379.208	326.21
379.588	306.55
379.968	339.99
380.349	314.91
380.729	319.88
381.109	353.32
381.489	311.07
381.87	342.25
382.25	334.79
382.63	331.18
383.01	322.82
383.39	319.88
383.77	350.61
384.15	345.87
384.53	336.38
384.91	337.05
385.29	357.62
385.67	341.8
386.049	367.56
386.429	340.22
386.809	351.06
387.189	348.8
387.568	371.85
387.948	339.54
388.328	341.57
388.707	367.11
389.087	351.06
389.466	351.97
389.846	358.3
390.225	348.35
390.605	363.49
390.984	362.82
391.363	356.26
391.743	373.44
392.122	379.76
392.501	359.88
392.881	374.11
393.26	382.48
393.639	372.53
394.018	382.93
394.397	379.09
394.776	389.48
395.155	396.71
395.534	393.1
395.913	396.03
396.292	385.41
396.671	387
397.05	403.49
397.429	386.77
397.808	381.57
398.186	385.87
398.565	387.9
398.944	388.58
399.323	405.53
399.701	415.24
400.08	405.98
400.458	409.82
400.837	393.32
401.215	410.72
401.594	427.22
401.972	422.25
402.351	421.12
402.729	438.29
403.107	440.55
403.486	415.24
403.864	432.19
404.242	432.42
404.62	444.85
404.999	425.19
405.377	437.39
405.755	446.2
406.133	485.52
406.511	461.12
406.889	465.86
407.267	459.08
407.645	483.04
408.023	476.26
408.401	489.37
408.779	495.24
409.156	495.69
409.534	530.04
409.912	537.73
410.29	499.08
410.667	536.14
411.045	545.86
411.422	547.22
411.8	575.47
412.178	552.19
412.555	570.04
412.933	562.58
413.31	594.22
413.687	602.13
414.065	584.05
414.442	635.35
414.819	595.58
415.197	615.46
415.574	633.54
415.951	624.96
416.328	649.59
416.705	646.42
417.082	672.19
417.46	668.12
417.837	711.51
418.214	706.08
418.591	671.96
418.967	710.83
419.344	716.48
419.721	743.82
420.098	769.36
420.475	738.17
420.852	767.78
421.228	757.38
421.605	775.69
421.982	800.09
422.358	810.26
422.735	817.27
423.111	841.45
423.488	850.49
423.864	870.6
424.241	872.86
424.617	887.55
424.994	911.95
425.37	907.89
425.746	929.35
426.123	961.9
426.499	942.01
426.875	978.84
427.251	1010.93
427.627	1020.65
428.003	1010.26
428.379	1033.98
428.756	1040.99
429.132	1064.04
429.507	1066.98
429.883	1060.42
430.259	1071.95
430.635	1078.5
431.011	1102.46
431.387	1109.91
431.763	1157.6
432.138	1139.07
432.514	1150.59
432.89	1177.94
433.265	1216.58
433.641	1235.11
434.016	1258.61
434.392	1283.92
434.767	1302.45
435.143	1294.32
435.518	1360.76
435.894	1346.97
436.269	1386.97
436.644	1378.16
437.02	1422.9
437.395	1439.17
437.77	1451.37
438.145	1520.98
438.52	1518.94
438.895	1554.2
439.271	1570.24
439.646	1584.7
440.021	1609.11
440.395	1649.79
440.77	1612.27
441.145	1659.73
441.52	1681.2
441.895	1700.86
442.27	1733.17
442.645	1733.4
443.019	1761.42
443.394	1766.39
443.769	1802.55
444.143	1801.87
444.518	1822.44
444.892	1854.75
445.267	1877.58
445.641	1902.21
446.016	1907.86
446.39	1892.04
446.764	1932.94
447.139	1941.98
447.513	1952.15
447.887	1944.69
448.262	1973.62
448.636	1983.34
449.01	2017.69
449.384	2026.73
449.758	2045.93
450.132	2075.54
450.506	2096.1
450.88	2053.62
451.254	2103.56
451.628	2130
452.002	2146.95
452.376	2152.6
452.75	2188.53
453.123	2194.63
453.497	2242.99
453.871	2235.76
454.244	2293.16
454.618	2312.37
454.992	2333.61
455.365	2340.16
455.739	2416.77
456.112	2408.19
456.486	2464.68
456.859	2469.65
457.232	2502.87
457.606	2498.8
457.979	2525.02
458.352	2574.51
458.725	2586.94
459.099	2593.94
459.472	2680.72
459.845	2700.15
460.218	2718.46
460.591	2689.08
460.964	2741.51
461.337	2817.89
461.71	2857.89
462.083	2854.5
462.456	2879.59
462.829	2860.83
463.201	2939.92
463.574	2950.54
463.947	3002.52
464.32	3063.99
464.692	3096.3
465.065	3125
465.438	3158.67
465.81	3207.03
466.183	3219.24
466.555	3263.08
466.928	3312.12
467.3	3284.32
467.672	3367.71
468.045	3451.55
468.417	3456.07
468.789	3456.97
469.161	3485.45
469.534	3584.65
469.906	3635.05
470.278	3608.61
470.65	3684.76
471.022	3764.31
471.394	3788.49
471.766	3775.38
472.138	3867.36
472.51	3925.21
472.882	4008.82
473.253	4051.98
473.625	4097.41
473.997	4157.29
474.369	4209.04
474.74	4265.31
475.112	4313.9
475.484	4382.82
475.855	4463.95
476.227	4477.96
476.598	4608.81
476.97	4637.96
477.341	4675.7
477.713	4750.95
478.084	4785.98
478.455	4908.23
478.827	4932.19
479.198	5070.26
479.569	5086.98
479.94	5225.51
480.311	5276.81
480.682	5356.58
481.053	5479.06
481.424	5491.72
481.795	5593.64
482.166	5644.48
482.537	5720.87
482.908	5825.72
483.279	5866.4
483.65	5937.36
484.021	6057.13
484.391	6069.56
484.762	6184.36
485.133	6181.65
485.503	6298.03
485.874	6399.27
486.244	6461.64
486.615	6610.33
486.985	6646.27
487.356	6762.87
487.726	6804.23
488.097	6868.18
488.467	6891.23
488.837	7005.35
489.207	7098.68
489.578	7142.3
489.948	7283.76
490.318	7318.79
490.688	7386.59
491.058	7463.65
491.428	7577.77
491.798	7598.56
492.168	7718.33
492.538	7724.88
492.908	7791.77
493.278	7938.66
493.648	7922.84
494.017	8006.46
494.387	8048.49
494.757	8130.97
495.126	8154.7
495.496	8194.02
495.866	8239.44
496.235	8271.53
496.605	8357.41
496.974	8422.49
497.344	8412.55
497.713	8528.48
498.082	8594.69
498.452	8581.13
498.821	8608.02
499.19	8635.37
499.559	8710.39
499.928	8761.92
500.298	8738.19
500.667	8890.95
501.036	8836.26
501.405	8857.51
501.774	8907
502.143	8970.27
502.512	8948.13
502.88	9042.36
503.249	9008.69
503.618	9104.05
503.987	9109.48
504.356	9080.78
504.724	9119.2
505.093	9175.01
505.462	9174.56
505.83	9248.91
506.199	9269.93
506.567	9343.14
506.936	9341.79
507.304	9458.4
507.672	9448
508.041	9457.72
508.409	9498.39
508.777	9471.28
509.145	9592.4
509.514	9524.38
509.882	9556.7
510.25	9595.11
510.618	9610.48
510.986	9580.65
511.354	9730.93
511.722	9747.65
512.09	9768.22
512.458	9702.68
512.826	9779.97
513.193	9815
513.561	9775.45
513.929	9791.95
514.297	9855.22
514.664	9877.37
515.032	9905.16
515.4	9936.12
515.767	9935.67
516.135	9958.95
516.502	9886.18
516.869	10045.72
517.237	10017.48
517.604	9961.66
517.972	10004.82
518.339	10070.36
518.706	10049.79
519.073	10039.17
519.44	10009.12
519.808	10066.06
520.175	10004.37
520.542	10091.83
520.909	10127.98
521.276	10099.96
521.643	10171.14
522.009	10172.73
522.376	10179.28
522.743	10155.55
523.11	10253.63
523.477	10295.44
523.843	10296.79
524.21	10283.23
524.577	10382.44
524.943	10337.24
525.31	10353.97
525.676	10384.47
526.043	10459.72
526.409	10365.04
526.776	10461.31
527.142	10498.82
527.508	10427.18
527.874	10475.77
528.241	10457.69
528.607	10510.12
528.973	10493.85
529.339	10437.13
529.705	10490.01
530.071	10491.59
530.437	10415.88
530.803	10497.24
531.169	10513.28
531.535	10457.24
531.901	10460.63
532.267	10421.31
532.632	10468.76
532.998	10504.02
533.364	10451.14
533.73	10386.05
534.095	10485.26
534.461	10428.09
534.826	10405.72
535.192	10391.03
535.557	10456.11
535.923	10324.36
536.288	10313.51
536.653	10399.16
537.019	10239.84
537.384	10253.18
537.749	10303.8
538.114	10240.3
538.479	10266.06
538.845	10234.87
539.21	10135.89
539.575	10129.79
539.94	10111.03
540.305	10160.98
540.67	10028.1
541.034	10015.67
541.399	10003.47
541.764	10002.11
542.129	9961.66
542.494	9938.83
542.858	9916.91
543.223	9932.28
543.587	9892.73
543.952	9921.66
544.316	9890.25
544.681	9760.76
545.045	9711.04
545.41	9820.19
545.774	9789.23
546.138	9739.97
546.503	9740.65
546.867	9672.4
547.231	9753.98
547.595	9602.35
547.959	9673.53
548.324	9559.41
548.688	9513.08
549.052	9520.31
549.416	9467.66
549.779	9478.96
550.143	9407.1
550.507	9455.23
550.871	9412.97
551.235	9419.07
551.599	9326.42
551.962	9399.41
552.326	9273.54
552.689	9339.98
553.053	9231.96
553.417	9234.22
553.78	9315.57
554.143	9222.02
554.507	9233.32
554.87	9177.05
555.234	9251.4
555.597	9131.17
555.96	9125.52
556.323	9204.62
556.686	9123.71
557.05	9097.73
557.413	9098.18
557.776	9121
558.139	9110.16
558.502	9124.62
558.865	9044.39
559.228	9108.8
559.59	9031.29
559.953	9090.5
560.316	9108.57
560.679	9117.61
561.041	9119.2
561.404	9034.45
561.767	9096.37
562.129	9010.95
562.492	9095.02
562.854	9071.74
563.217	9024.06
563.579	9025.41
563.941	9003.27
564.304	9002.14
564.666	9022.93
565.028	9071.29
565.39	8977.28
565.753	9096.37
566.115	9130.04
566.477	9072.19
566.839	9038.29
567.201	9089.59
567.563	9105.18
567.925	9166.43
568.287	9124.17
568.648	9120.33
569.01	9136.37
569.372	9281.22
569.734	9135.69
570.095	9202.81
570.457	9180.89
570.819	9196.93
571.18	9252.3
571.542	9287.1
571.903	9210.94
572.265	9210.04
572.626	9291.85
572.987	9272.41
573.349	9197.16
573.71	9252.07
574.071	9335.01
574.432	9290.26
574.794	9307.21
575.155	9334.33
575.516	9265.41
575.877	9296.82
576.238	9421.11
576.599	9345.63
576.96	9354.67
577.32	9313.99
577.681	9364.39
578.042	9359.87
578.403	9443.93
578.763	9355.12
579.124	9381.34
579.485	9422.69
579.845	9481.45
580.206	9446.42
580.566	9433.76
580.927	9463.82
581.287	9378.17
581.648	9503.59
582.008	9535.91
582.368	9462.92
582.728	9508.56
583.089	9529.13
583.449	9437.6
583.809	9478.73
584.169	9525.29
584.529	9510.6
584.889	9580.43
585.249	9509.02
585.609	9522.8
585.969	9616.36
586.329	9508.34
586.688	9568.9
587.048	9478.06
587.408	9515.79
587.768	9558.51
588.127	9518.96
588.487	9528.68
588.846	9617.04
589.206	9616.13
589.565	9563.93
589.925	9587.43
590.284	9526.87
590.643	9640.54
591.003	9690.71
591.362	9622.91
591.721	9549.69
592.08	9635.79
592.44	9558.05
592.799	9649.12
593.158	9633.31
593.517	9577.71
593.876	9595.57
594.235	9658.84
594.593	9573.65
594.952	9652.74
595.311	9607.77
595.67	9605.74
596.029	9719.41
596.387	9685.06
596.746	9668.79
597.104	9623.81
597.463	9585.85
597.822	9704.04
598.18	9641.22
598.538	9608.67
598.897	9675.56
599.255	9559.41
599.613	9673.98
599.972	9642.12
600.33	9682.8
600.688	9624.72
601.046	9681.44
601.404	9695.9
601.762	9671.05
602.12	9712.63
602.478	9700.2
602.836	9718.95
603.194	9573.19
603.552	9677.15
603.91	9701.33
604.268	9644.61
604.625	9596.92
604.983	9622.68
605.341	9669.69
605.698	9658.62
606.056	9713.98
606.413	9698.62
606.771	9715.11
607.128	9739.52
607.485	9726.64
607.843	9732.29
608.2	9748.11
608.557	9744.04
608.914	9750.37
609.272	9738.61
609.629	9808.89
609.986	9820.87
610.343	9740.65
610.7	9843.47
611.057	9811.15
611.414	9771.61
611.771	9786.97
612.127	9778.84
612.484	9752.85
612.841	9866.07
613.198	9814.77
613.554	9836.01
613.911	9907.65
614.267	9884.6
614.624	9897.25
614.98	9886.18
615.337	9871.04
615.693	9899.97
616.05	9877.82
616.406	9916.91
616.762	9838.5
617.118	9822.68
617.475	9930.02
617.831	9926.63
618.187	9930.93
618.543	10008.21
618.899	9938.61
619.255	9934.09
619.611	9918.04
619.967	9948.1
620.323	9966.63
620.678	9960.53
621.034	9905.62
621.39	9890.47
621.746	9923.47
622.101	10019.96
622.457	9978.83
622.812	9941.32
623.168	9992.62
623.523	9979.06
623.879	10000.98
624.234	9952.62
624.589	9927.54
624.945	10023.8
625.3	9948.33
625.655	9933.41
626.01	9931.38
626.365	9939.74
626.72	10004.6
627.075	9966.86
627.43	9960.76
627.785	9983.58
628.14	9958.72
628.495	9981.77
628.85	9917.14
629.205	9893.41
629.559	9905.84
629.914	9838.5
630.269	9894.77
630.623	9878.95
630.978	9833.3
631.332	9864.49
631.687	9886.41
632.041	9799.86
632.396	9798.73
632.75	9821.1
633.104	9878.05
633.459	9766.18
633.813	9743.81
634.167	9811.38
634.521	9794.43
634.875	9792.62
635.229	9704.49
635.583	9679.18
635.937	9680.76
636.291	9750.14
636.645	9711.5
636.999	9673.3
637.352	9693.87
637.706	9598.96
638.06	9642.8
638.413	9665.17
638.767	9623.59
639.121	9546.08
639.474	9575.68
639.828	9574.55
640.181	9560.77
640.534	9558.51
640.888	9568.22
641.241	9502.24
641.594	9498.17
641.947	9565.74
642.301	9515.57
642.654	9522.12
643.007	9520.09
643.36	9513.08
643.713	9474.89
644.066	9482.8
644.419	9467.66
644.771	9395.35
645.124	9322.58
645.477	9260.43
645.83	9225.86
646.182	9219.53
646.535	9150.83
646.888	9196.26
647.24	9120.33
647.593	9213.66
647.945	9162.13
648.298	9086.88
648.65	9150.61
649.002	9137.73
649.355	9178.4
649.707	9146.31
650.059	9261.56
650.411	9318.29
650.763	9359.41
651.115	9437.38
651.467	9356.93
651.819	9355.57
652.171	9351.05
652.523	9399.19
652.875	9338.4
653.227	9322.13
653.578	9401
653.93	9349.92
654.282	9305.41
654.633	9326.2
654.985	9307.66
655.337	9330.49
655.688	9412.07
656.039	9416.36
656.391	9357.83
656.742	9351.28
657.094	9457.27
657.445	9364.16
657.796	9376.59
658.147	9332.97
658.498	9348.34
658.849	9349.02
659.2	9336.14
659.551	9330.72
659.902	9431.73
660.253	9391.73
660.604	9376.14
660.955	9369.36
661.306	9426.76
661.656	9389.92
662.007	9383.82
662.358	9381.34
662.708	9387.66
663.059	9451.39
663.409	9334.56
663.76	9502.91
664.11	9450.49
664.461	9460.43
664.811	9370.49
665.161	9462.92
665.511	9457.04
665.862	9432.63
666.212	9454.78
666.562	9448.45
666.912	9488.68
667.262	9431.73
667.612	9449.81
667.962	9415.46
668.312	9447.77
668.662	9451.16
669.011	9453.65
669.361	9450.94
669.711	9484.16
670.06	9426.98
670.41	9409.58
670.76	9353.77
671.109	9409.36
671.459	9357.61
671.808	9311.96
672.157	9442.8
672.507	9286.65
672.856	9336.14
673.205	9346.53
673.554	9389.02
673.904	9313.77
674.253	9366.65
674.602	9351.73
674.951	9248.68
675.3	9159.65
675.649	9306.08
675.998	9305.41
676.346	9293.88
676.695	9327.55
677.044	9190.38
677.393	9229.25
677.741	9208.91
678.09	9245.29
678.438	9219.08
678.787	9236.48
679.135	9236.03
679.484	9158.97
679.832	9192.64
680.181	9174.11
680.529	9152.19
680.877	9089.14
681.225	9070.38
681.573	9108.35
681.922	9083.94
682.27	9049.59
682.618	9076.48
682.966	9004.17
683.314	9031.29
683.661	9017.95
684.009	8941.35
684.357	8897.73
684.705	8951.52
685.053	8965.75
685.4	8939.76
685.748	8841.69
686.095	8832.2
686.443	8782.25
686.79	8755.81
687.138	8894.79
687.485	8806.66
687.832	8752.88
688.18	8795.81
688.527	8722.14
688.874	8676.27
689.221	8679.21
689.568	8650.06
689.915	8599.66
690.262	8672.2
690.609	8604.41
690.956	8529.38
691.303	8579.1
691.65	8513.79
691.997	8528.02
692.344	8453.68
692.69	8410.29
693.037	8442.83
693.383	8308.14
693.73	8296.17
694.077	8303.85
694.423	8342.94
694.769	8300.69
695.116	8321.7
695.462	8214.81
695.808	8220.01
696.155	8210.97
696.501	8080.13
696.847	8119.22
697.193	8048.49
697.539	8061.14
697.885	7984.76
698.231	7971.88
698.577	7947.7
698.923	8013.91
699.269	7944.54
699.614	7844.88
699.96	7770.08
700.306	7826.8
700.651	7813.01
700.997	7669.52
701.342	7728.05
701.688	7660.7
702.033	7669.97
702.379	7592.23
702.724	7575.28
703.069	7641.27
703.415	7544.1
703.76	7554.26
704.105	7559.24
704.45	7487.83
704.795	7399.92
705.14	7487.83
705.485	7376.42
705.83	7375.96
706.175	7342.29
706.52	7326.7
706.865	7306.36
707.209	7320.37
707.554	7235.85
707.899	7256.65
708.243	7167.61
708.588	7180.72
708.932	7179.81
709.277	7146.14
709.621	7162.41
709.966	7064.11
710.31	7042.64
710.654	7082.64
710.998	7102.98
711.342	7023.88
711.687	7037.89
712.031	6999.48
712.375	6972.36
712.719	7058.91
713.063	6985.47
713.407	6966.71
713.75	6921.96
714.094	6911.57
714.438	6895.75
714.782	6904.11
715.125	6868.63
715.469	6842.87
715.812	6864.57
716.156	6773.27
716.499	6802.65
716.843	6818.24
717.186	6793.38
717.53	6789.99
717.873	6808.52
718.216	6754.06
718.559	6787.28
718.902	6727.85
719.246	6720.84
719.589	6703.21
719.932	6698.24
720.275	6681.75
720.617	6634.97
720.96	6673.61
721.303	6676.1
721.646	6646.04
721.989	6692.37
722.331	6630.67
722.674	6623.67
723.016	6632.71
723.359	6607.17
723.701	6646.27
724.044	6578.02
724.386	6579.6
724.729	6642.42
725.071	6592.93
725.413	6602.65
725.755	6592.03
726.097	6567.17
726.439	6523.56
726.782	6520.85
727.124	6542.31
727.465	6547.06
727.807	6537.57
728.149	6582.54
728.491	6546.61
728.833	6553.39
729.175	6487.85
729.516	6507.74
729.858	6533.95
730.199	6504.57
730.541	6537.34
730.882	6521.98
731.224	6528.3
731.565	6489.89
731.906	6514.29
732.248	6563.33
732.589	6498.47
732.93	6529.21
733.271	6489.66
733.612	6474.97
733.953	6522.88
734.294	6542.09
734.635	6538.7
734.976	6475.42
735.317	6472.71
735.658	6474.97
735.999	6514.74
736.339	6516.1
736.68	6486.95
737.021	6565.82
737.361	6553.61
737.702	6577.57
738.042	6534.4
738.383	6569.21
738.723	6566.49
739.063	6580.73
739.404	6658.47
739.744	6559.71
740.084	6559.04
740.424	6559.94
740.764	6585.25
741.104	6596.1
741.444	6551.35
741.784	6653.5
742.124	6667.51
742.464	6689.65
742.804	6641.07
743.143	6751.57
743.483	6739.82
743.823	6681.97
744.162	6716.55
744.502	6755.64
744.841	6810.78
745.181	6851.23
745.52	6875.19
745.86	6956.99
746.199	6962.87
746.538	6969.65
746.877	7057.33
747.216	7069.31
747.556	7088.74
747.895	7163.77
748.234	7145.01
748.573	7185.01
748.911	7274.05
749.25	7367.15
749.589	7352.24
749.928	7412.35
750.267	7507.49
750.605	7559.69
750.944	7608.5
751.283	7725.33
751.621	7805.78
751.96	7857.08
752.298	7949.28
752.636	8025.21
752.975	8145.21
753.313	8253.68
753.651	8333.45
753.989	8409.38
754.327	8536.84
754.666	8589.94
755.004	8716.95
755.342	8866.55
755.679	9006.2
756.017	9090.5
756.355	9275.8
756.693	9365.06
757.031	9471.5
757.368	9582.69
757.706	9768.67
758.044	9897.25
758.381	10120.52
758.719	10206.4
759.056	10318.26
759.394	10523.23
759.731	10605.26
760.068	10773.84
760.405	11002.08
760.743	11069.43
761.08	11251.34
761.417	11360.49
761.754	11626.25
762.091	11706.7
762.428	11915.05
762.765	12012.68
763.102	12198.21
763.438	12353.46
763.775	12588.93
764.112	12707.12
764.449	12926.33
764.785	13142.82
765.122	13066.89
765.458	13274.79
765.795	13492.19
766.131	13635.23
766.467	13821.9
766.804	13963.14
767.14	14042.46
767.476	14124.49
767.812	14396.34
768.148	14567.41
768.485	14580.75
768.821	14666.85
769.157	14887.41
769.492	14924.24
769.828	15055.54
770.164	15117.46
770.5	15312.48
770.836	15410.78
771.171	15489.88
771.507	15620.95
771.842	15708.4
772.178	15771.68
772.513	15876.76
772.849	16004.66
773.184	15987.49
773.519	16136.41
773.855	16294.15
774.19	16213.02
774.525	16291.66
774.86	16526.01
775.195	16547.7
775.53	16548.15
775.865	16564.42
776.2	16574.82
776.535	16605.33
776.87	16730.07
777.205	16841.7
777.539	16768.49
777.874	16844.87
778.209	16757.19
778.543	16848.03
778.878	16942.72
779.212	16916.5
779.547	16982.04
779.881	17060.46
780.215	17005.99
780.55	17132.54
780.884	17109.95
781.218	17188.59
781.552	17074.92
781.886	17150.17
782.22	17100.68
782.554	17063.39
782.888	17007.35
783.222	17060.46
783.556	17081.25
783.889	17126.22
784.223	17071.98
784.557	17103.62
784.89	17146.33
785.224	17058.65
785.557	17011.64
785.891	17083.96
786.224	16944.53
786.558	17038.08
786.891	16922.83
787.224	16888.93
787.557	16944.3
787.891	16932.55
788.224	16936.39
788.557	16989.5
788.89	16937.29
789.223	16995.37
789.556	16987.46
789.888	16836.05
790.221	16856.62
790.554	16674.93
790.887	16827.92
791.219	16712.44
791.552	16714.48
791.884	16620.92
792.217	16735.27
792.549	16658.43
792.882	16563.07
793.214	16631.54
793.546	16634.93
793.879	16497.98
794.211	16397.2
794.543	16535.27
794.875	16491.2
795.207	16542.28
795.539	16389.29
795.871	16378.44
796.203	16359.68
796.535	16254.83
796.867	16256.18
797.198	16179.12
797.53	16235.62
797.862	16149.97
798.193	16134.38
798.525	16073.36
798.856	16135.06
799.188	15886.25
799.519	15863.88
799.85	15877.66
800.182	15896.64
800.513	15829.98
800.844	15742.52
801.175	15775.97
801.506	15834.5
801.837	15825.01
802.168	15589.31
802.499	15618.69
802.83	15590.66
803.161	15497.33
803.491	15535.98
803.822	15555.18
804.153	15504.56
804.483	15434.06
804.814	15362.19
805.145	15347.51
805.475	15364.68
805.805	15252.14
806.136	15283.33
806.466	15324.46
806.796	15224.8
807.126	15150.22
807.457	15181.18
807.787	15078.59
808.117	14933.96
808.447	15043.79
808.777	15006.27
809.107	15053.5
809.436	14965.6
809.766	14929.66
810.096	14859.16
810.426	14821.64
810.755	14759.95
811.085	14719.05
811.414	14885.6
811.744	14760.18
812.073	14772.15
812.403	14724.02
812.732	14580.29
813.061	14653.96
813.39	14613.97
813.719	14560.18
814.049	14610.58
814.378	14484.48
814.707	14510.92
815.036	14409.45
815.365	14398.15
815.693	14265.95
816.022	14307.53
816.351	14273.86
816.68	14181.44
817.008	14313.63
817.337	14260.98
817.665	14244.03
817.994	14182.56
818.322	14205.84
818.651	14042
818.979	14030.25
819.307	14111.15
819.636	14092.62
819.964	14016.92
820.292	14065.96
820.62	14062.34
820.948	13969.24
821.276	14049.01
821.604	14018.05
821.932	14000.2
822.259	14007.43
822.587	13973.08
822.915	14054.43
823.243	13951.61
823.57	13901.67
823.898	14016.92
824.225	13994.55
824.553	14003.13
824.88	13929.01
825.207	14077.93
825.535	13991.16
825.862	14058.05
826.189	13934.66
826.516	14081.32
826.843	14041.33
827.17	14036.13
827.497	14047.65
827.824	14070.25
828.151	14032.06
828.478	14023.47
828.805	14144.83
829.131	13951.61
829.458	14002
829.785	13963.36
830.111	14039.52
830.438	14054.21
830.764	14081.1
831.09	14038.61
831.417	13900.31
831.743	14009.91
832.069	13952.06
832.395	13886.08
832.722	14024.83
833.048	13947.54
833.374	14004.72
833.7	13895.11
834.026	13928.33
834.351	13931.72
834.677	13918.17
835.003	13959.97
835.329	13916.13
835.654	13915.91
835.98	13819.86
836.306	13873.65
836.631	13841.33
836.956	13765.85
837.282	13864.38
837.607	13795.23
837.932	13685.85
838.258	13770.6
838.583	13732.86
838.908	13629.81
839.233	13704.84
839.558	13628
839.883	13610.15
840.208	13525.18
840.533	13582.81
840.858	13543.26
841.182	13640.21
841.507	13566.54
841.832	13429.36
842.156	13512.53
842.481	13491.96
842.805	13474.56
843.13	13399.99
843.454	13276.6
843.778	13269.82
844.103	13213.1
844.427	13248.8
844.751	13298.75
845.075	13207
845.399	13213.1
845.723	13127
846.047	13120.67
846.371	13070.73
846.695	13004.52
847.019	12889.94
847.343	12830.28
847.666	12793.45
847.99	12708.03
848.313	12740.34
848.637	12655.15
848.96	12541.25
849.284	12629.16
849.607	12502.84
849.931	12470.29
850.254	12431.42
850.577	12390.52
850.9	12282.28
851.223	12256.74
851.546	12294.25
851.869	12127.7
852.192	12248.15
852.515	12059
852.838	12072.56
853.161	11965
853.483	11943.3
853.806	11948.27
854.129	11822.85
854.451	11750.31
854.774	11791.89
855.096	11736.53
855.419	11631.45
855.741	11692.46
856.063	11681.16
856.385	11651.33
856.708	11602.52
857.03	11545.57
857.352	11558.91
857.674	11469.42
857.996	11478.23
858.318	11360.04
858.64	11314.62
858.961	11275.75
859.283	11340.83
859.605	11233.94
859.926	11339.02
860.248	11209.99
860.57	11112.14
860.891	11211.12
861.212	11113.72
861.534	11061.97
861.855	11116.66
862.176	11040.73
862.498	10985.13
862.819	11057.9
863.14	10936.1
863.461	11002.76
863.782	11019.03
864.103	11000.95
864.424	10924.8
864.745	10892.71
865.065	10872.14
865.386	10841.41
865.707	10844.8
866.027	10857.68
866.348	10734.07
866.668	10798.25
866.989	10777.23
867.309	10628.76
867.63	10736.33
867.95	10662.43
868.27	10596.44
868.59	10682.32
868.91	10676.89
869.23	10593.05
869.55	10491.59
869.87	10602.77
870.19	10563.23
870.51	10547.18
870.83	10609.55
871.15	10500.85
871.469	10521.64
871.789	10517.12
872.109	10509.22
872.428	10481.87
872.748	10529.1
873.067	10440.97
873.386	10426.73
873.706	10425.6
874.025	10375.43
874.344	10407.52
874.663	10372.72
874.982	10381.76
875.301	10345.38
875.62	10296.11
875.939	10315.32
876.258	10311.03
876.577	10346.96
876.896	10216.79
877.214	10275.55
877.533	10245.72
877.852	10240.3
878.17	10152.61
878.489	10183.57
878.807	10193.07
879.125	10140.19
879.444	10131.82
879.762	10182.22
880.08	10170.24
880.398	10060.87
880.716	10069
881.034	9993.97
881.352	10001.88
881.67	9973.18
881.988	9962.79
882.306	9928.21
882.624	9899.29
882.941	9874.66
883.259	9817.26
883.577	9852.74
883.894	9787.88
884.212	9766.86
884.529	9790.14
884.846	9724.15
885.164	9743.13
885.481	9678.73
885.798	9676.02
886.115	9599.18
886.432	9624.94
886.75	9603.93
887.067	9570.26
887.383	9549.24
887.7	9574.32
888.017	9510.37
888.334	9512.86
888.651	9410.49
888.967	9436.25
889.284	9402.8
889.6	9348.79
889.917	9303.82
890.233	9356.93
890.55	9330.94
890.866	9323.71
891.182	9278.74
891.498	9221.79
891.815	9208.91
892.131	9145.86
892.447	9126.88
892.763	9133.66
893.079	9128.69
893.395	9022.7
893.71	9060.44
894.026	9034.45
894.342	9012.08
894.657	8995.81
894.973	8899.09
895.289	8917.17
895.604	8858.86
895.92	8790.84
896.235	8787
896.55	8853.44
896.865	8713.1
897.181	8695.25
897.496	8649.6
897.811	8709.49
898.126	8619.1
898.441	8556.05
898.756	8536.84
899.071	8519.21
899.386	8484.41
899.7	8420.91
900.015	8389.5
900.33	8329.16
900.644	8387.69
900.959	8397.86
901.273	8317.86
901.588	8260.69
901.902	8276.73
902.216	8250.29
902.531	8189.28
902.845	8200.35
903.159	8119.22
903.473	8056.85
903.787	8041.94
904.101	8032.9
904.415	7992.22
904.729	7965.1
905.042	7962.16
905.356	7922.62
905.67	7883.3
905.984	7867.48
906.297	7866.35
906.611	7718.55
906.924	7779.8
907.237	7774.15
907.551	7673.81
907.864	7699.12
908.177	7647.82
908.491	7623.87
908.804	7552.46
909.117	7538.22
909.43	7540.25
909.743	7414.61
910.056	7418.67
910.368	7384.78
910.681	7376.87
910.994	7391.56
911.307	7350.43
911.619	7345
911.932	7317.66
912.244	7204.9
912.557	7190.88
912.869	7117.44
913.181	7152.24
913.494	7121.96
913.806	7083.77
914.118	7059.36
914.43	7005.58
914.742	7030.66
915.054	6951.57
915.366	6941.63
915.678	6874.28
915.99	6879.25
916.302	6850.1
916.613	6820.27
916.925	6824.57
917.236	6779.6
917.548	6711.12
917.859	6683.78
918.171	6719.03
918.482	6669.09
918.794	6632.93
919.105	6671.58
919.416	6577.57
919.727	6573.05
920.038	6590.45
920.349	6527.62
920.66	6477.91
920.971	6499.15
921.282	6448.08
921.593	6440.85
921.903	6378.48
922.214	6382.54
922.525	6328.53
922.835	6329.89
923.146	6257.35
923.456	6273.17
923.767	6198.37
924.077	6209.67
924.387	6146.62
924.697	6091.03
925.008	6113.85
925.318	6074.98
925.628	6072.95
925.938	6029.78
926.248	6015.55
926.558	5991.59
926.867	6023.23
927.177	5907.08
927.487	5911.14
927.796	5853.97
928.106	5878.38
928.416	5857.13
928.725	5825.5
929.034	5819.17
929.344	5824.37
929.653	5771.49
929.962	5736.46
930.271	5749.34
930.581	5668.66
930.89	5696.01
931.199	5624.82
931.508	5592.06
931.817	5600.87
932.125	5569.01
932.434	5572.4
932.743	5513.64
933.051	5517.03
933.36	5434.09
933.669	5434.77
933.977	5420.08
934.286	5422.8
934.594	5383.25
934.902	5410.37
935.21	5351.16
935.519	5319.3
935.827	5315.68
936.135	5313.19
936.443	5295.57
936.751	5245.62
937.059	5237.49
937.367	5260.31
937.674	5156.81
937.982	5154.1
938.29	5126.98
938.597	5100.32
938.905	5096.7
939.213	5082.69
939.52	5039.08
939.827	5017.38
940.135	5024.61
940.442	4985.52
940.749	4938.51
941.056	4908.01
941.363	4928.34
941.67	4919.53
941.977	4926.76
942.284	4840.89
942.591	4812.87
942.898	4802.25
943.205	4800.21
943.511	4758.86
943.818	4740.1
944.125	4730.84
944.431	4723.38
944.738	4736.94
945.044	4648.58
945.35	4647.67
945.657	4584.85
945.963	4565.87
946.269	4567
946.575	4542.59
946.881	4532.2
947.187	4529.49
947.493	4487
947.799	4494.91
948.105	4487.45
948.41	4451.07
948.716	4484.74
949.022	4425.08
949.327	4420.79
949.633	4378.98
949.938	4381.47
950.244	4322.49
950.549	4331.52
950.854	4317.97
951.16	4308.47
951.465	4250.4
951.77	4252.66
952.075	4248.81
952.38	4216.73
952.685	4231.41
952.99	4185.54
953.294	4156.16
953.599	4141.25
953.904	4135.6
954.209	4124.75
954.513	4143.51
954.818	4079.55
955.122	4068.93
955.426	4078.88
955.731	4027.58
956.035	3991.42
956.339	3972.89
956.643	4011.98
956.948	3954.13
957.252	3929.5
957.556	3893.57
957.86	3895.6
958.163	3894.02
958.467	3855.6
958.771	3827.81
959.075	3830.75
959.378	3779.45
959.682	3826
959.985	3822.39
960.289	3789.62
960.592	3773.8
960.896	3772.44
961.199	3702.16
961.502	3727.47
961.805	3664.42
962.108	3667.36
962.411	3661.49
962.714	3630.53
963.017	3635.05
963.32	3607.02
963.623	3623.75
963.926	3575.61
964.228	3599.57
964.531	3576.74
964.833	3574.03
965.136	3495.61
965.438	3482.06
965.741	3476.18
966.043	3493.58
966.345	3446.35
966.648	3453.36
966.95	3427.59
967.252	3419.01
967.554	3394.6
967.856	3379.69
968.158	3356.18
968.46	3376.3
968.761	3331.55
969.063	3379.46
969.365	3287.71
969.666	3340.36
969.968	3307.82
970.269	3243.87
970.571	3256.3
970.872	3221.05
971.174	3237.54
971.475	3194.38
971.776	3200.48
972.077	3196.64
972.378	3210.2
972.679	3178.56
972.98	3144.44
973.281	3156.41
973.582	3157.54
973.883	3098.56
974.183	3105.57
974.484	3119.13
974.785	3113.7
975.085	3094.95
975.386	3093.59
975.686	3059.24
975.986	3034.61
976.287	3008.17
976.587	2991.45
976.887	3010.66
977.187	2996.64
977.487	2945.12
977.787	2931.56
978.087	2905.35
978.387	2925.91
978.687	2922.75
978.987	2907.61
979.286	2868.06
979.586	2883.88
979.885	2853.37
980.185	2824.67
980.484	2813.37
980.784	2807.95
981.083	2819.93
981.382	2776.76
981.682	2783.09
981.981	2750.55
982.28	2726.14
982.579	2738.35
982.878	2737.22
983.177	2700.61
983.475	2736.76
983.774	2694.51
984.073	2699.03
984.372	2651.34
984.67	2668.97
984.969	2652.02
985.267	2658.35
985.566	2641.85
985.864	2568.63
986.162	2596.65
986.461	2613.83
986.759	2616.09
987.057	2543.77
987.355	2519.59
987.653	2544.45
987.951	2530.67
988.249	2522.53
988.547	2491.57
988.844	2495.87
989.142	2496.77
989.44	2489.31
989.737	2447.73
990.035	2441.4
990.332	2438.24
990.63	2445.47
990.927	2405.02
991.224	2434.63
991.521	2404.12
991.819	2373.16
992.116	2405.47
992.413	2374.97
992.71	2304.01
993.006	2334.51
993.303	2322.76
993.6	2333.61
993.897	2285.02
994.193	2308.98
994.49	2288.87
994.787	2241.18
995.083	2249.09
995.379	2242.31
995.676	2241.86
995.972	2222.88
996.268	2218.13
996.565	2219.49
996.861	2199.38
997.157	2176.33
997.453	2147.18
997.749	2165.93
998.044	2148.98
998.34	2134.07
998.636	2103.33
998.932	2100.17
999.227	2071.92
999.523	2100.85
999.818	2103.33
1000.114	2093.39
1000.409	2073.96
1000.704	2050
1001	2057.01
1001.295	2023.11
1001.59	2003.45
1001.885	2026.73
1002.18	2004.35
1002.475	1985.6
1002.77	1977.24
1003.065	1965.49
1003.359	1963.9
1003.654	1920.74
1003.949	1898.37
1004.243	1949.44
1004.538	1891.81
1004.832	1888.88
1005.127	1898.14
1005.421	1875.32
1005.715	1859.27
1006.009	1862.89
1006.304	1858.6
1006.598	1833.06
1006.892	1840.29
1007.186	1790.35
1007.48	1818.6
1007.773	1765.26
1008.067	1784.02
1008.361	1751.93
1008.655	1776.11
1008.948	1751.25
1009.242	1739.5
1009.535	1726.62
1009.829	1718.03
1010.122	1705.38
1010.415	1681.2
1010.708	1686.85
1011.001	1708.99
1011.295	1702.67
1011.588	1673.97
1011.881	1659.05
1012.173	1647.3
1012.466	1665.61
1012.759	1648.43
1013.052	1625.83
1013.344	1605.04
1013.637	1580.64
1013.93	1621.77
1014.222	1586.96
1014.514	1578.38
1014.807	1553.74
1015.099	1547.19
1015.391	1559.62
1015.683	1535.67
1015.976	1553.29
1016.268	1532.5
1016.56	1501.77
1016.851	1503.58
1017.143	1490.7
1017.435	1474.42
1017.727	1474.2
1018.018	1462.9
1018.31	1498.15
1018.602	1449.34
1018.893	1463.8
1019.185	1453.41
1019.476	1429
1019.767	1431.49
1020.058	1419.28
1020.35	1402.11
1020.641	1381.32
1020.932	1382.22
1021.223	1372.05
1021.514	1360.98
1021.804	1374.77
1022.095	1344.71
1022.386	1300.19
1022.677	1332.51
1022.967	1317.59
1023.258	1307.65
1023.548	1320.53
1023.839	1307.42
1024.129	1287.31
1024.419	1287.54
1024.709	1257.71
1025	1267.88
1025.29	1240.31
1025.58	1235.33
1025.87	1269.68
1026.16	1209.35
1026.449	1219.29
1026.739	1235.56
1027.029	1224.04
1027.319	1201.89
1027.608	1193.98
1027.898	1166.18
1028.187	1159.18
1028.477	1164.15
1028.766	1156.92
1029.055	1145.62
1029.344	1130.03
1029.634	1152.85
1029.923	1147.43
1030.212	1123.93
1030.501	1113.76
1030.79	1097.94
1031.078	1125.06
1031.367	1072.18
1031.656	1064.27
1031.945	1102.68
1032.233	1069.46
1032.522	1064.27
1032.81	1053.87
1033.099	1069.24
1033.387	1038.05
1033.675	1062.46
1033.963	1012.97
1034.251	1050.03
1034.54	1020.88
1034.828	1010.71
1035.116	1003.25
1035.403	1008.45
1035.691	995.57
1035.979	1006.64
1036.267	990.82
1036.554	977.94
1036.842	961.22
1037.129	972.52
1037.417	965.29
1037.704	937.49
1037.992	946.75
1038.279	947.21
1038.566	941.56
1038.853	941.56
1039.14	941.56
