Data from hue_26_FLMS001491_00022.txt Node
Date: Tue Feb 07 17:13:45 GMT 2017
User: dcchb
Spectrometer: FLMS00149
Trigger mode: 0
Integration Time (sec): 2.000000E-2
Scans to average: 10
Electric dark correction enabled: true
Nonlinearity correction enabled: false
Boxcar width: 0
XAxis mode: Wavelengths
Number of Pixels in Spectrum: 2048
>>>>>Begin Spectral Data<<<<<
341.393	-21.72
341.776	-21.72
342.16	-21.72
342.543	-77.54
342.927	-64.21
343.31	-57.43
343.693	-66.02
344.077	-61.72
344.46	-70.99
344.843	-47.03
345.226	-44.55
345.61	-44.55
345.993	-12.46
346.376	6.98
346.759	-2.97
347.142	21.67
347.525	53.76
347.908	49.69
348.291	71.16
348.674	93.53
349.057	110.93
349.44	107.54
349.823	138.27
350.206	182.34
350.588	207.2
350.971	192.96
351.354	223.02
351.737	233.41
352.119	236.35
352.502	258.04
352.884	307.53
353.267	291.72
353.65	288.1
354.032	312.28
354.414	305.5
354.797	308.44
355.179	311.15
355.562	324.93
355.944	319.06
356.326	329
356.709	338.95
357.091	317.93
357.473	344.37
357.855	328.1
358.238	341.88
358.62	352.73
359.002	338.95
359.384	333.3
359.766	334.2
360.148	328.78
360.53	340.53
360.912	328.55
361.294	322
361.676	338.04
362.057	320.87
362.439	327.19
362.821	341.66
363.203	333.75
363.584	310.92
363.966	327.42
364.348	315.44
364.729	319.96
365.111	302.56
365.493	332.62
365.874	321.55
366.256	341.43
366.637	308.44
367.019	314.99
367.4	312.05
367.781	313.41
368.163	307.08
368.544	322.68
368.925	280.87
369.306	311.83
369.688	345.95
370.069	319.06
370.45	326.52
370.831	310.92
371.212	311.15
371.593	303.24
371.974	298.95
372.355	318.61
372.736	305.95
373.117	326.97
373.498	308.89
373.879	308.44
374.26	313.64
374.641	313.41
375.021	340.75
375.402	317.7
375.783	306.63
376.163	336.91
376.544	323.13
376.925	331.71
377.305	332.39
377.686	320.87
378.066	336.69
378.447	324.48
378.827	340.3
379.208	349.34
379.588	330.81
379.968	324.48
380.349	347.99
380.729	335.78
381.109	355.44
381.489	336.91
381.87	344.37
382.25	335.78
382.63	329.91
383.01	322
383.39	327.65
383.77	334.2
384.15	340.08
384.53	345.27
384.91	345.05
385.29	369.68
385.67	346.86
386.049	354.99
386.429	354.09
386.809	356.57
387.189	354.09
387.568	365.84
387.948	368.55
388.328	363.58
388.707	376.23
389.087	365.39
389.466	346.18
389.846	357.48
390.225	363.58
390.605	343.47
390.984	379.17
391.363	378.27
391.743	366.74
392.122	352.5
392.501	352.73
392.881	386.18
393.26	366.29
393.639	382.33
394.018	376.01
394.397	366.29
394.776	370.58
395.155	383.69
395.534	395.22
395.913	379.4
396.292	385.5
396.671	373.52
397.05	385.72
397.429	385.72
397.808	391.37
398.186	383.24
398.565	387.53
398.944	380.75
399.323	394.76
399.701	395.44
400.08	385.95
400.458	376.23
400.837	383.24
401.215	434.08
401.594	401.77
401.972	416.68
402.351	385.5
402.729	408.77
403.107	407.42
403.486	413.75
403.864	427.76
404.242	414.88
404.62	407.42
404.999	420.98
405.377	406.97
405.755	419.85
406.133	432.5
406.511	436.57
406.889	437.25
407.267	421.2
407.645	441.99
408.023	458.72
408.401	414.88
408.779	448.55
409.156	450.81
409.534	436.12
409.912	430.69
410.29	447.19
410.667	461.43
411.045	436.57
411.422	441.99
411.8	450.13
412.178	442.22
412.555	479.51
412.933	464.82
413.31	474.31
413.687	459.17
414.065	485.83
414.442	478.6
414.819	482.22
415.197	469.56
415.574	477.93
415.951	480.19
416.328	482.22
416.705	483.35
417.082	496.23
417.46	494.87
417.837	507.3
418.214	487.19
418.591	525.83
418.967	511.37
419.344	518.6
419.721	506.17
420.098	496.46
420.475	505.27
420.852	524.48
421.228	513.86
421.605	506.4
421.982	541.65
422.358	536.91
422.735	522.44
423.111	535.78
423.488	531.71
423.864	539.17
424.241	535.55
424.617	552.95
424.994	567.87
425.37	554.08
425.746	511.82
426.123	542.1
426.499	552.95
426.875	564.02
427.251	576.45
427.627	574.87
428.003	579.39
428.379	580.97
428.756	574.42
429.132	581.65
429.507	603.8
429.883	572.61
430.259	590.46
430.635	605.83
431.011	614.19
431.387	593.18
431.763	620.52
432.138	635.21
432.514	636.79
432.89	613.06
433.265	648.99
433.641	649.67
434.016	645.15
434.392	646.06
434.767	650.35
435.143	675.21
435.518	661.88
435.894	674.76
436.269	696.22
436.644	679.5
437.02	687.64
437.395	683.12
437.77	687.86
438.145	701.2
438.52	705.49
438.895	714.98
439.271	716.56
439.646	710.69
440.021	721.31
440.395	713.17
440.77	733.06
441.145	749.78
441.52	754.3
441.895	733.96
442.27	764.02
442.645	767.41
443.019	744.36
443.394	745.71
443.769	792.49
444.143	759.05
444.518	776
444.892	765.38
445.267	787.75
445.641	790.23
446.016	796.79
446.39	800.63
446.764	790.01
447.139	797.46
447.513	821.42
447.887	791.82
448.262	800.18
448.636	822.55
449.01	799.95
449.384	828.65
449.758	820.97
450.132	842.21
450.506	837.92
450.88	839.5
451.254	835.43
451.628	844.7
452.002	869.1
452.376	855.54
452.75	866.62
453.123	863.9
453.497	893.96
453.871	897.12
454.244	908.42
454.618	931.92
454.992	935.09
455.365	908.42
455.739	927.18
456.112	929.44
456.486	940.29
456.859	945.94
457.232	977.35
457.606	994.52
457.979	995.65
458.352	1011.47
458.725	1011.92
459.099	1002.21
459.472	1000.85
459.845	1038.36
460.218	1053.5
460.591	1059.38
460.964	1074.29
461.337	1072.03
461.71	1079.04
462.083	1102.77
462.456	1134.86
462.829	1105.25
463.201	1120.62
463.574	1130.56
463.947	1129.43
464.32	1167.85
464.692	1156.1
465.065	1204.46
465.438	1182.09
465.81	1199.71
466.183	1210.56
466.555	1246.49
466.928	1260.5
467.3	1245.14
467.672	1288.53
468.045	1315.64
468.417	1294.85
468.789	1315.64
469.161	1323.33
469.534	1345.25
469.906	1373.95
470.278	1396.77
470.65	1390.44
471.022	1441.97
471.394	1458.46
471.766	1477
472.138	1519.03
472.51	1535.75
472.882	1544.34
473.253	1566.71
473.625	1574.62
473.997	1630.21
474.369	1619.36
474.74	1658.69
475.112	1678.12
475.484	1697.55
475.855	1730.77
476.227	1752.92
476.598	1807.16
476.97	1832.01
477.341	1884.44
477.713	1900.94
478.084	1939.13
478.455	1955.63
478.827	1973.93
479.198	2035.62
479.569	2052.35
479.94	2114.27
480.311	2138.67
480.682	2168.28
481.053	2259.12
481.424	2325.79
481.795	2306.58
482.166	2349.06
482.537	2424.77
482.908	2448.95
483.279	2506.35
483.65	2542.5
484.021	2585.21
484.391	2655.27
484.762	2674.7
485.133	2683.52
485.503	2735.95
485.874	2784.08
486.244	2853.46
486.615	2897.97
486.985	2964.87
487.356	3005.09
487.726	3060.91
488.097	3085.54
488.467	3158.98
488.837	3239.66
489.207	3230.62
489.578	3338.87
489.948	3322.14
490.318	3431.97
490.688	3420.67
491.058	3483.04
491.428	3541.35
491.798	3566.88
492.168	3615.24
492.538	3658.63
492.908	3742.25
493.278	3806.43
493.648	3767.56
494.017	3855.01
494.387	3955.8
494.757	3924.84
495.126	3996.02
495.496	4000.77
495.866	4032.86
496.235	4119.86
496.605	4148.11
496.974	4176.59
497.344	4208.45
497.713	4259.97
498.082	4199.18
498.452	4294.1
498.821	4345.85
499.19	4385.62
499.559	4385.62
499.928	4445.96
500.298	4492.51
500.667	4523.24
501.036	4520.3
501.405	4552.85
501.774	4573.18
502.143	4637.59
502.512	4630.81
502.88	4697.48
503.249	4725.5
503.618	4723.01
503.987	4744.03
504.356	4753.97
504.724	4807.3
505.093	4833.52
505.462	4876
505.83	4912.38
506.199	4948.77
506.567	4979.28
506.936	4994.87
507.304	5041.65
507.672	5075.54
508.041	5112.15
508.409	5061.99
508.777	5150.12
509.145	5196.22
509.514	5118.03
509.882	5268.99
510.25	5203.45
510.618	5266.27
510.986	5247.52
511.354	5236.44
511.722	5356.44
512.09	5423.78
512.458	5360.96
512.826	5419.94
513.193	5458.13
513.561	5444.57
513.929	5493.61
514.297	5535.42
514.664	5560.05
515.032	5588.98
515.4	5649.09
515.767	5616.32
516.135	5645.02
516.502	5636.21
516.869	5725.24
517.237	5730.22
517.604	5676.43
517.972	5810.67
518.339	5757.33
518.706	5755.07
519.073	5742.19
519.44	5835.52
519.808	5870.1
520.175	5875.75
520.542	5922.08
520.909	5960.94
521.276	5974.28
521.643	5947.61
522.009	5975.63
522.376	6059.7
522.743	6080.26
523.11	6161.39
523.477	6174.27
523.843	6205.91
524.21	6276.64
524.577	6309.86
524.943	6270.32
525.31	6325.68
525.676	6359.8
526.043	6379.24
526.409	6410.88
526.776	6451.1
527.142	6529.52
527.508	6543.75
527.874	6597.31
528.241	6546.69
528.607	6631.66
528.973	6612.45
529.339	6698.33
529.705	6687.71
530.071	6864.88
530.437	6768.38
530.803	6816.97
531.169	6889.06
531.535	6883.86
531.901	6891.77
532.267	6913.46
532.632	6988.04
532.998	7043.85
533.364	7019.9
533.73	7052.89
534.095	7128.6
534.461	7062.84
534.826	7242.04
535.192	7203.4
535.557	7249.72
535.923	7260.8
536.288	7294.02
536.653	7278.88
537.019	7265.77
537.384	7334.92
537.749	7352.77
538.114	7411.75
538.479	7383.51
538.845	7401.13
539.21	7400.91
539.575	7497.63
539.94	7445.65
540.305	7579.21
540.67	7538.76
541.034	7616.49
541.399	7602.03
541.764	7668.02
542.129	7767.9
542.494	7722.48
542.858	7801.8
543.223	7814.91
543.587	7792.31
543.952	7869.14
544.316	7886.77
544.681	7917.05
545.045	7929.93
545.41	8029.14
545.774	7978.07
546.138	8032.98
546.503	8072.98
546.867	8073.66
547.231	8216.48
547.595	8144.39
547.959	8119.08
548.324	8262.81
548.688	8207.89
549.052	8311.84
549.416	8263.26
549.779	8368.34
550.143	8329.92
550.507	8410.6
550.871	8404.95
551.235	8433.42
551.599	8566.98
551.962	8504.83
552.326	8564.94
552.689	8570.82
553.053	8545.74
553.417	8517.94
553.78	8616.92
554.143	8690.14
554.507	8678.39
554.87	8722.91
555.234	8741.21
555.597	8708.67
555.96	8812.85
556.323	8793.86
556.686	8798.38
557.05	8926.74
557.413	8910.25
557.776	8967.19
558.139	8991.15
558.502	8991.6
558.865	8977.14
559.228	9066.63
559.59	9061.65
559.953	9131.71
560.316	9204.02
560.679	9197.92
561.041	9194.76
561.404	9211.71
561.767	9336.9
562.129	9259.39
562.492	9384.81
562.854	9366.96
563.217	9344.58
563.579	9411.48
563.941	9439.05
564.304	9483.11
564.666	9500.29
565.028	9612.6
565.39	9522.43
565.753	9655.31
566.115	9703.22
566.477	9719.26
566.839	9721.07
567.201	9805.14
567.563	9795.65
567.925	9854.85
568.287	9853.95
568.648	9939.6
569.01	9943.67
569.372	9985.92
569.734	9978.47
570.095	10052.81
570.457	10086.71
570.819	10125.81
571.18	10139.37
571.542	10272.02
571.903	10304.33
572.265	10344.56
572.626	10355.41
572.987	10394.05
573.349	10495.74
573.71	10553.14
574.071	10548.39
574.432	10634.27
574.794	10712.01
575.155	10687.15
575.516	10757.88
575.877	10888.95
576.238	10991.55
576.599	11003.52
576.96	11056.4
577.32	11155.61
577.681	11241.03
578.042	11280.58
578.403	11461.14
578.763	11493.23
579.124	11641.25
579.485	11728.25
579.845	11886.44
580.206	11999.43
580.566	12051.18
580.927	12130.27
581.287	12363.94
581.648	12462.47
582.008	12616.14
582.368	12778.39
582.728	12896.81
583.089	13073.3
583.449	13147.65
583.809	13226.74
584.169	13532.72
584.529	13655.21
584.889	13884.8
585.249	14021.07
585.609	14165.47
585.969	14456.77
586.329	14676.87
586.688	14812.92
587.048	15051.55
587.408	15232.79
587.768	15438.44
588.127	15678.2
588.487	15934.92
588.846	16228.25
589.206	16332.2
589.565	16607.67
589.925	16988.23
590.284	17284.26
590.643	17474.09
591.003	17771.26
591.362	18011.93
591.721	18366.72
592.08	18611.46
592.44	18980.04
592.799	19084.44
593.158	19502.28
593.517	19675.16
593.876	19992.21
594.235	20377.97
594.593	20651.63
594.952	20903.15
595.311	21137.72
595.67	21423.82
596.029	21897.7
596.387	22234.87
596.746	22398.03
597.104	22677.57
597.463	22912.36
597.822	23531.56
598.18	23590.76
598.538	23841.38
598.897	24365.43
599.255	24380.57
599.613	24978.07
599.972	25072.08
600.33	25430.04
600.688	25639.3
601.046	25977.82
601.404	26439.28
601.762	26538.48
602.12	26983.67
602.478	27227.73
602.836	27485.35
603.194	27696.19
603.552	27886.7
603.91	28122.17
604.268	28635.6
604.625	28767.58
604.983	29067.23
605.341	29203.05
605.698	29758.51
606.056	29907.43
606.413	30108.56
606.771	30361.89
607.128	30633.74
607.485	30775.43
607.843	30976.33
608.2	31418.58
608.557	31663.55
608.914	31743.54
609.272	32228.05
609.629	32358.89
609.986	32706
610.343	32721.37
610.7	33192.09
611.057	33344.18
611.414	33498.07
611.771	33609.71
612.127	33848.12
612.484	34161.56
612.841	34430.93
613.198	34445.62
613.554	34696.46
613.911	34890.58
614.267	35258.71
614.624	35192.94
614.98	35394.97
615.337	35836.32
615.693	35820.95
616.05	35976.88
616.406	36312.46
616.762	36271.56
617.118	36490.99
617.475	36534.6
617.831	36723.98
618.187	36938.21
618.543	36963.07
618.899	37429.72
619.255	37395.6
619.611	37472.66
619.967	37710.84
620.323	37817.96
620.678	37924.62
621.034	38040.33
621.39	38118.74
621.746	38074.22
622.101	38763.47
622.457	38366.42
622.812	38537.94
623.168	38577.71
623.523	38860.87
623.879	38901.1
624.234	38832.85
624.589	39058.15
624.945	39137.93
625.3	39360.74
625.655	39281.42
626.01	39426.73
626.365	39441.87
626.72	39727.74
627.075	39638.93
627.43	39550.12
627.785	39641.64
628.14	39764.35
628.495	39887.06
628.85	40030.78
629.205	39844.35
629.559	40144.23
629.914	39942.65
630.269	40097.22
630.623	40073.27
630.978	40058.81
631.332	40239.14
631.687	40405.69
632.041	40191.01
632.396	40365.46
632.75	40231.91
633.104	40342.64
633.459	40081.86
633.813	40239.14
634.167	40279.14
634.521	40302.19
634.875	40371.79
635.229	40379.02
635.583	40303.54
635.937	40389.42
636.291	40249.76
636.645	40303.77
636.999	40278.46
637.352	40381.51
637.706	40184.9
638.06	40426.48
638.413	40349.42
638.767	40167.73
639.121	40413.6
639.474	40190.1
639.828	40299.03
640.181	40344.67
640.534	40308.06
640.888	40144
641.241	40018.81
641.594	40173.15
641.947	40195.53
642.301	40227.61
642.654	40266.48
643.007	40299.25
643.36	40151.91
643.713	40088.18
644.066	40229.65
644.419	40079.82
644.771	39852.48
645.124	39448.43
645.477	39384.02
645.83	39155.55
646.182	39052.28
646.535	38916.69
646.888	39230.58
647.24	38883.02
647.593	39152.39
647.945	39162.78
648.298	38897.71
648.65	38796.92
649.002	38859.74
649.355	38985.61
649.707	38899.97
650.059	39010.25
650.411	39540.18
650.763	39563.68
651.115	40012.03
651.467	39856.55
651.819	39824.69
652.171	39733.62
652.523	39678.02
652.875	39669.89
653.227	39481.42
653.578	39806.16
653.93	39832.6
654.282	39563.45
654.633	39538.59
654.985	39750.34
655.337	39758.93
655.688	39575.65
656.039	39697.91
656.391	39362.1
656.742	39516.22
657.094	39476
657.445	39626.73
657.796	39472.61
658.147	39462.66
658.498	39458.82
658.849	39544.24
659.2	39422.89
659.551	39490.91
659.902	39564.36
660.253	39375.43
660.604	39479.16
660.955	39158.94
661.306	39479.61
661.656	39387.18
662.007	39322.33
662.358	39535.88
662.708	39418.82
663.059	39353.06
663.409	39242.1
663.76	39461.31
664.11	39406.62
664.461	39568.65
664.811	39346.06
665.161	39372.5
665.511	39408.2
665.862	39381.08
666.212	39428.99
666.562	39503.11
666.912	39296.34
667.262	39227.64
667.612	39405.94
667.962	39261.54
668.312	39319.39
668.662	39381.31
669.011	39325.49
669.361	39322.78
669.711	39245.49
670.06	39250.47
670.41	39170.24
670.76	39078.49
671.109	39236.68
671.459	39191.94
671.808	39069.23
672.157	39254.08
672.507	38965.05
672.856	39080.98
673.205	39027.42
673.554	39150.58
673.904	39125.95
674.253	39064.93
674.602	39090.92
674.951	38551.73
675.3	38290.72
675.649	38985.39
675.998	39010.7
676.346	38835.56
676.695	39086.4
677.044	38830.14
677.393	38857.71
677.741	39017.93
678.09	38772.29
678.438	38727.99
678.787	38846.86
679.135	38690.71
679.484	38438.74
679.832	38850.48
680.181	38625.62
680.529	38654.1
680.877	38460.43
681.225	38420.66
681.573	38585.62
681.922	38417.27
682.27	38213.88
682.618	38353.77
682.966	38190.83
683.314	38408
683.661	38178.4
684.009	37952.87
684.357	37927.56
684.705	37944.28
685.053	37993.32
685.4	37977.73
685.748	37660.22
686.095	37812.99
686.443	37573.22
686.79	37528.48
687.138	37612.32
687.485	37732.99
687.832	37446.9
688.18	37544.75
688.527	37369.16
688.874	37294.36
689.221	37178.66
689.568	37162.84
689.915	36914.71
690.262	37034.7
690.609	36973.69
690.956	36641.72
691.303	36782.96
691.65	36542.29
691.997	36498.22
692.344	36281.73
692.69	36249.87
693.037	36425.91
693.383	36080.83
693.73	36231.11
694.077	35973.49
694.423	36016.2
694.769	35871.34
695.116	35771.69
695.462	35787.51
695.808	35639.71
696.155	35682.42
696.501	35606.72
696.847	35513.84
697.193	35290.8
697.539	35474.97
697.885	35119.05
698.231	35021.88
698.577	35084.02
698.923	34990.01
699.269	34786.4
699.614	34618.72
699.96	34619.4
700.306	34580.08
700.651	34521.78
700.997	34369.24
701.342	34302.8
701.688	34283.59
702.033	34125.85
702.379	34266.42
702.724	34130.6
703.069	34122.69
703.415	33666.43
703.76	33772.64
704.105	33853.77
704.45	33649.26
704.795	33408.81
705.14	33445.87
705.485	33353.67
705.83	33216.95
706.175	33238.19
706.52	33159.33
706.865	33004.08
707.209	33034.13
707.554	32885.21
707.899	32865.1
708.243	32712.78
708.588	32570.41
708.932	32536.52
709.277	32487.93
709.621	32541.49
709.966	32358.44
710.31	32302.4
710.654	32134.49
710.998	32198.9
711.342	32090.65
711.687	32117.77
712.031	31927.49
712.375	31821.73
712.719	31802.53
713.063	31872.35
713.407	31897.89
713.75	31703.54
714.094	31789.64
714.438	31649.54
714.782	31663.32
715.125	31515.53
715.469	31480.73
715.812	31413.16
716.156	31264.23
716.499	31199.38
716.843	31331.13
717.186	31030.34
717.53	31135.2
717.873	31153.05
718.216	30982.21
718.559	30882.1
718.902	30753.51
719.246	30793.06
719.589	30764.36
719.932	30579.28
720.275	30582.22
720.617	30451.83
720.96	30502.22
721.303	30564.37
721.646	30511.49
721.989	30170.03
722.331	30452.73
722.674	30280.31
723.016	30332.28
723.359	30200.76
723.701	30319.4
724.044	29989.69
724.386	29966.19
724.729	30097.26
725.071	29989.01
725.413	29939.75
725.755	29829.7
726.097	29792.86
726.439	29631.96
726.782	29671.51
727.124	29721.68
727.465	29558.52
727.807	29637.16
728.149	29564.39
728.491	29420.22
728.833	29496.6
729.175	29321.01
729.516	29374.34
729.858	29232.42
730.199	29260.22
730.541	29348.13
730.882	29252.99
731.224	29245.76
731.565	29101.35
731.906	29069.72
732.248	29167.11
732.589	28875.14
732.93	28800.57
733.271	28860.46
733.612	28881.7
733.953	28929.15
734.294	28695.94
734.635	28689.39
734.976	28733.23
735.317	28596.51
735.658	28689.16
735.999	28659.78
736.339	28627.69
736.68	28625.66
737.021	28424.54
737.361	28391.54
737.702	28387.47
738.042	28489.39
738.383	28434.03
738.723	28437.42
739.063	28304.54
739.404	28339.57
739.744	28212.34
740.084	28107.26
740.424	28147.48
740.764	28034.49
741.104	28172.79
741.444	27891.67
741.784	27947.03
742.124	27987.48
742.464	27860.93
742.804	27880.59
743.143	27847.38
743.483	27804.89
743.823	27644.22
744.162	27697.32
744.502	27772.8
744.841	27488.06
745.181	27751.33
745.52	27445.58
745.86	27597.21
746.199	27578.46
746.538	27538.91
746.877	27615.29
747.216	27474.73
747.556	27418.46
747.895	27433.6
748.234	27196.54
748.573	27250.55
748.911	27332.36
749.25	27173.49
749.589	27128.07
749.928	27196.32
750.267	27136.66
750.605	27030.9
750.944	26905.25
751.283	26849.66
751.621	26925.14
751.96	26765.6
752.298	26728.31
752.636	26770.34
752.975	26733.96
753.313	26573.28
753.651	26629.78
753.989	26552.04
754.327	26546.39
754.666	26401.99
755.004	26552.95
755.342	26458.26
755.679	26328.32
756.017	26259.62
756.355	26368.77
756.693	26101.66
757.031	26316.34
757.368	26001.77
757.706	25990.25
758.044	25885.62
758.381	25987.31
758.719	25871.16
759.056	25861.21
759.394	25764.04
759.731	25605.17
760.068	25622.35
760.405	25453.54
760.743	25512.3
761.08	25482.47
761.417	25362.47
761.754	25283.83
762.091	25244.28
762.428	25114.57
762.765	25060.78
763.102	25055.81
763.438	24965.87
763.775	24857.4
764.112	24861.69
764.449	24750.51
764.785	24785.99
765.122	24678.19
765.458	24495.37
765.795	24380.57
766.131	24488.37
766.467	24315.04
766.804	24267.58
767.14	24175.61
767.476	24100.13
767.812	24009.51
768.148	24079.79
768.485	23834.83
768.821	23723.19
769.157	23779.23
769.492	23699.91
769.828	23615.17
770.164	23435.74
770.5	23464.89
770.836	23374.05
771.171	23259.25
771.507	23243.65
771.842	23068.74
772.178	23010.21
772.513	22944.23
772.849	22902.87
773.184	22830.78
773.519	22735.42
773.855	22636.89
774.19	22578.59
774.525	22450.23
774.86	22526.39
775.195	22386.05
775.53	22306.05
775.865	22174.53
776.2	22112.38
776.535	21887.98
776.87	21918.49
777.205	21870.81
777.539	21766.86
777.874	21736.58
778.209	21604.83
778.543	21696.58
778.878	21429.92
779.212	21379.3
779.547	21350.14
779.881	21304.72
780.215	21172.07
780.55	21226.31
780.884	21034.22
781.218	20930.04
781.552	20965.07
781.886	20914.45
782.22	20673.78
782.554	20715.59
782.888	20553.33
783.222	20489.83
783.556	20344.75
783.889	20302.04
784.223	20162.61
784.557	20102.95
784.89	20133
785.224	20034.7
785.557	19927.58
785.891	19973.68
786.224	19877.87
786.558	19899.79
786.891	19527.14
787.224	19587.93
787.557	19531.66
787.891	19490.76
788.224	19477.88
788.557	19455.73
788.89	19280.14
789.223	19352.46
789.556	19159.47
789.888	19188.39
790.221	19114.72
790.554	18910.43
790.887	18997.89
791.219	18899.14
791.552	18865.69
791.884	18717.45
792.217	18612.59
792.549	18581.86
792.882	18427.28
793.214	18366.95
793.546	18437.68
793.879	18291.92
794.211	18209.44
794.543	18266.61
794.875	18170.79
795.207	18163.11
795.539	18136.9
795.871	18116.33
796.203	17910.24
796.535	17853.51
796.867	17792.5
797.198	17752.05
797.53	17693.74
797.862	17601.09
798.193	17618.49
798.525	17523.8
798.856	17583.92
799.188	17317.48
799.519	17343.92
799.85	17289.69
800.182	17231.84
800.513	17200.88
800.844	17116.58
801.175	17172.85
801.506	17157.03
801.837	17073.42
802.168	17064.16
802.499	16834.33
802.83	16872.97
803.161	16733.54
803.491	16868.68
803.822	16730.15
804.153	16621
804.483	16514.57
804.814	16597.95
805.145	16436.15
805.475	16431.63
805.805	16386.66
806.136	16343.72
806.466	16292.2
806.796	16287.68
807.126	16158.42
807.457	16131.52
807.787	16065.54
808.117	16002.49
808.447	16081.81
808.777	15949.16
809.107	15942.15
809.436	15828.26
809.766	15851.53
810.096	15877.97
810.426	15781.25
810.755	15756.17
811.085	15724.98
811.414	15656.74
811.744	15585.55
812.073	15433.69
812.403	15536.06
812.732	15427.81
813.061	15437.31
813.39	15305.78
813.719	15371.32
814.049	15357.99
814.378	15320.92
814.707	15241.15
815.036	15100.14
815.365	15124.32
815.693	14941.27
816.022	14921.16
816.351	14946.92
816.68	14928.62
817.008	14903.76
817.337	14741.96
817.665	14781.73
817.994	14851.78
818.322	14831.22
818.651	14659.02
818.979	14640.94
819.307	14690.66
819.636	14638.91
819.964	14585.58
820.292	14673.26
820.62	14630.1
820.948	14564.79
821.276	14567.72
821.604	14560.94
821.932	14594.16
822.259	14540.15
822.587	14590.1
822.915	14505.35
823.243	14523.66
823.57	14456.09
823.898	14518.23
824.225	14458.35
824.553	14383.77
824.88	14559.36
825.207	14422.42
825.535	14521.62
825.862	14503.55
826.189	14353.94
826.516	14501.06
826.843	14504.9
827.17	14454.28
827.497	14424.9
827.824	14472.36
828.151	14443.66
828.478	14475.52
828.805	14461.74
829.131	14383.1
829.458	14400.27
829.785	14367.05
830.111	14376.09
830.438	14485.01
830.764	14452.02
831.09	14430.78
831.417	14426.71
831.743	14453.6
832.069	14436.43
832.395	14351.68
832.722	14372.7
833.048	14301.52
833.374	14317.79
833.7	14258.13
834.026	14224.91
834.351	14290.9
834.677	14298.8
835.003	14289.09
835.329	14306.04
835.654	14197.79
835.98	14174.97
836.306	14131.8
836.631	14126.15
836.956	14171.8
837.282	14194.4
837.607	14118.92
837.932	14124.57
838.258	14069.43
838.583	14008.42
838.908	13852.26
839.233	13954.86
839.558	13920.28
839.883	13897.23
840.208	13831.47
840.533	13921.64
840.858	13898.82
841.182	13864.47
841.507	13889.78
841.832	13746.28
842.156	13763.9
842.481	13646.62
842.805	13685.04
843.13	13647.52
843.454	13643
843.778	13590.57
844.103	13476
844.427	13489.33
844.751	13461.09
845.075	13427.42
845.399	13454.99
845.723	13323.46
846.047	13393.07
846.371	13224.93
846.695	13268.1
847.019	13142.23
847.343	13050.25
847.666	13032.17
847.99	12975.45
848.313	12998.73
848.637	12881.44
848.96	12913.08
849.284	12819.97
849.607	12738.39
849.931	12735
850.254	12655.46
850.577	12571.17
850.9	12480.32
851.223	12552.86
851.546	12400.78
851.869	12296.6
852.192	12440.32
852.515	12290.04
852.838	12213.89
853.161	12173.44
853.483	12145.87
853.806	12050.73
854.129	12088.47
854.451	11985.65
854.774	11896.38
855.096	11962.82
855.419	11970.96
855.741	11884.86
856.063	11845.31
856.385	11783.16
856.708	11686.9
857.03	11770.74
857.352	11784.75
857.674	11674.92
857.996	11625.43
858.318	11521.7
858.64	11619.33
858.961	11538.2
859.283	11456.62
859.605	11494.58
859.926	11514.92
860.248	11413.91
860.57	11367.13
860.891	11383.85
861.212	11287.58
861.534	11270.18
861.855	11277.87
862.176	11229.28
862.498	11272.9
862.819	11224.54
863.14	11244.65
863.461	11132.33
863.782	11192.67
864.103	11086.01
864.424	11056.86
864.745	11176.18
865.065	10973.24
865.386	10949.06
865.707	10973.47
866.027	11027.7
866.348	10940.93
866.668	10949.51
866.989	10941.6
867.309	10852.12
867.63	10875.39
867.95	10840.14
868.27	10836.3
868.59	10845.34
868.91	10782.97
869.23	10757.88
869.55	10742.97
869.87	10742.51
870.19	10765.11
870.51	10677.88
870.83	10739.58
871.15	10677.43
871.469	10719.46
871.789	10692.57
872.109	10709.29
872.428	10542.07
872.748	10613.48
873.067	10576.42
873.386	10638.56
873.706	10601.95
874.025	10448.96
874.344	10528.06
874.663	10480.83
874.982	10477.44
875.301	10402.64
875.62	10425.91
875.939	10425.46
876.258	10378.91
876.577	10364.9
876.896	10340.04
877.214	10396.31
877.533	10284.22
877.852	10320.6
878.17	10346.59
878.489	10193.83
878.807	10215.97
879.125	10222.53
879.444	10223.43
879.762	10157.67
880.08	10212.81
880.398	10143.43
880.716	10214.39
881.034	10126.94
881.352	10119.03
881.67	10062.31
881.988	10077.22
882.306	10056.66
882.624	10031.35
882.941	9966.94
883.259	9928.3
883.577	9975.53
883.894	9906.38
884.212	9924.23
884.529	9924.68
884.846	9895.08
885.164	9891.01
885.481	9773.05
885.798	9795.87
886.115	9739.38
886.432	9752.48
886.75	9745.03
887.067	9719.94
887.383	9692.15
887.7	9636.78
888.017	9604.92
888.334	9641.53
888.651	9641.3
888.967	9602.66
889.284	9580.06
889.6	9506.61
889.917	9477.46
890.233	9481.08
890.55	9409.44
890.866	9422.77
891.182	9380.74
891.498	9332.61
891.815	9331.48
892.131	9270.69
892.447	9252.16
892.763	9218.71
893.079	9161.31
893.395	9186.62
893.71	9161.31
894.026	9089.22
894.342	9084.48
894.657	9054.2
894.973	8994.54
895.289	9059.39
895.604	9048.1
895.92	8973.07
896.235	8959.06
896.55	8930.58
896.865	8898.04
897.181	8863.69
897.496	8879.06
897.811	8778.27
898.126	8749.35
898.441	8761.55
898.756	8767.42
899.071	8650.59
899.386	8684.72
899.7	8599.52
900.015	8549.13
900.33	8495.79
900.644	8493.53
900.959	8507.77
901.273	8460.54
901.588	8403.59
901.902	8366.76
902.216	8310.26
902.531	8354.55
902.845	8331.5
903.159	8299.64
903.473	8238.63
903.787	8195.69
904.101	8184.84
904.415	8118.85
904.729	8072.3
905.042	8052.87
905.356	8053.77
905.67	8083.6
905.984	8052.64
906.297	8059.65
906.611	7960.44
906.924	7980.33
907.237	7868.01
907.551	7865.98
907.864	7790.95
908.177	7807
908.491	7798.41
908.804	7683.61
909.117	7734.01
909.43	7624.18
909.743	7603.61
910.056	7656.27
910.368	7548.7
910.681	7523.84
910.994	7474.8
911.307	7493.79
911.619	7429.15
911.932	7445.88
912.244	7370.85
912.557	7432.77
912.869	7315.94
913.181	7287.24
913.494	7311.87
913.806	7167.01
914.118	7213.57
914.43	7177.86
914.742	7108.26
915.054	7053.12
915.366	7072.33
915.678	7065.1
915.99	6974.7
916.302	6963.4
916.613	6969.51
916.925	6938.32
917.236	6895.38
917.548	6854.48
917.859	6879.34
918.171	6821.49
918.482	6792.56
918.794	6800.92
919.105	6781.49
919.416	6651.77
919.727	6695.84
920.038	6636.86
920.349	6595.96
920.66	6585.11
920.971	6548.73
921.282	6575.17
921.593	6489.07
921.903	6488.16
922.214	6482.97
922.525	6434.6
922.835	6421.5
923.146	6379.69
923.456	6366.36
923.767	6290.88
924.077	6334.72
924.387	6314.38
924.697	6219.92
925.008	6263.76
925.318	6222.86
925.628	6169.3
925.938	6167.95
926.248	6063.99
926.558	6048.63
926.867	6083.2
927.177	6044.11
927.487	6024.9
927.796	5958.01
928.106	5941.28
928.416	5942.87
928.725	5887.95
929.034	5887.05
929.344	5882.75
929.653	5819.48
929.962	5822.19
930.271	5752.36
930.581	5732.48
930.89	5706.49
931.199	5708.07
931.508	5737.9
931.817	5673.72
932.125	5633.72
932.434	5639.37
932.743	5547.62
933.051	5550.56
933.36	5504.23
933.669	5550.11
933.977	5484.8
934.286	5479.6
934.594	5462.65
934.902	5446.16
935.21	5425.37
935.519	5414.74
935.827	5366.84
936.135	5318.93
936.443	5281.64
936.751	5270.79
937.059	5273.05
937.367	5225.15
937.674	5225.82
937.982	5212.26
938.29	5186.95
938.597	5154.64
938.905	5084.58
939.213	5082.55
939.52	5122.77
939.827	5128.2
940.135	5062.21
940.442	5047.97
940.749	5057.47
941.056	4992.83
941.363	4940.41
941.67	4955.77
941.977	4915.32
942.284	4852.05
942.591	4883.46
942.898	4889.79
943.205	4841.43
943.511	4801.65
943.818	4831.03
944.125	4784.25
944.431	4790.35
944.738	4767.3
945.044	4656.57
945.35	4666.52
945.657	4637.59
945.963	4645.5
946.269	4640.75
946.575	4638.95
946.881	4570.47
947.187	4596.01
947.493	4484.83
947.799	4555.33
948.105	4515.33
948.41	4406.86
948.716	4429.23
949.022	4474.43
949.327	4410.48
949.633	4397.6
949.938	4377.71
950.244	4394.21
950.549	4340.42
950.854	4393.53
951.16	4304.72
951.465	4268.56
951.77	4290.03
952.075	4231.95
952.38	4205.28
952.685	4239.86
952.99	4163.7
953.294	4199.41
953.599	4203.48
953.904	4168.68
954.209	4104.95
954.513	4130.03
954.818	4095.68
955.122	4089.81
955.426	4074.67
955.731	4076.7
956.035	4034.89
956.339	3962.58
956.643	4041.22
956.948	3992.86
957.252	3958.29
957.556	3937.27
957.86	3895.69
958.163	3871.28
958.467	3896.59
958.771	3876.25
959.075	3862.7
959.378	3842.36
959.682	3831.06
959.985	3781.34
960.289	3779.76
960.592	3810.72
960.896	3787.22
961.199	3759.87
961.502	3711.51
961.805	3695.69
962.108	3679.42
962.411	3696.82
962.714	3716.48
963.017	3654.34
963.32	3723.26
963.623	3609.14
963.926	3598.97
964.228	3568.47
964.531	3572.99
964.833	3566.43
965.136	3526.88
965.438	3562.14
965.741	3514.68
966.043	3480.33
966.345	3497.05
966.648	3506.55
966.95	3467.45
967.252	3408.02
967.554	3437.4
967.856	3428.36
968.158	3344.06
968.46	3394.23
968.761	3372.76
969.063	3382.93
969.365	3308.59
969.666	3314.69
969.968	3302.48
970.269	3278.98
970.571	3260.45
970.872	3272.2
971.174	3220.9
971.475	3222.26
971.776	3215.93
972.077	3157.63
972.378	3154.69
972.679	3220
972.98	3147.69
973.281	3130.06
973.582	3123.96
973.883	3143.17
974.183	3138.19
974.484	3085.99
974.785	3043.51
975.085	3077.86
975.386	3061.81
975.686	3053.68
975.986	3023.17
976.287	3056.61
976.587	2994.47
976.887	2965.77
977.187	2981.36
977.487	2916.73
977.787	2928.71
978.087	2950.85
978.387	2907.92
978.687	2903.62
978.987	2948.59
979.286	2904.53
979.586	2876.05
979.885	2827.02
980.185	2822.04
980.484	2824.08
980.784	2841.7
981.083	2819.11
981.382	2799.45
981.682	2798.09
981.981	2771.42
982.28	2754.7
982.579	2752.22
982.878	2741.14
983.177	2714.25
983.475	2725.1
983.774	2719.9
984.073	2688.49
984.372	2633.8
984.67	2669.73
984.969	2698.66
985.267	2643.07
985.566	2608.04
985.864	2608.26
986.162	2581.37
986.461	2582.73
986.759	2605.1
987.057	2558.77
987.355	2558.55
987.653	2536.85
987.951	2520.13
988.249	2551.32
988.547	2537.31
988.844	2518.55
989.142	2468.16
989.44	2497.76
989.737	2440.59
990.035	2471.55
990.332	2459.79
990.63	2472
990.927	2432.22
991.224	2415.95
991.521	2429.29
991.819	2373.24
992.116	2330.76
992.413	2371.66
992.71	2386.35
993.006	2375.28
993.303	2366.69
993.6	2364.43
993.897	2333.02
994.193	2318.78
994.49	2317.2
994.787	2256.41
995.083	2285.79
995.379	2260.25
995.676	2259.12
995.972	2272.45
996.268	2215.05
996.565	2200.59
996.861	2220.25
997.157	2205.11
997.453	2217.99
997.749	2182.74
998.044	2125.11
998.34	2182.06
998.636	2119.69
998.932	2131.44
999.227	2088.73
999.523	2127.83
999.818	2131.67
1000.114	2103.87
1000.409	2091.22
1000.704	2094.61
1001	2029.75
1001.295	2051.44
1001.59	2049.41
1001.885	2023.65
1002.18	1994.72
1002.475	1984.55
1002.77	1983.42
1003.065	1989.07
1003.359	1961.95
1003.654	1916.98
1003.949	1963.31
1004.243	1958.56
1004.538	1919.7
1004.832	1898.23
1005.127	1914.5
1005.421	1885.35
1005.715	1862.52
1006.009	1890.77
1006.304	1848.51
1006.598	1867.04
1006.892	1845.57
1007.186	1815.74
1007.48	1815.74
1007.773	1785.91
1008.067	1802.18
1008.361	1800.6
1008.655	1776.2
1008.948	1787.04
1009.242	1767.83
1009.535	1751.79
1009.829	1775.52
1010.122	1751.11
1010.415	1707.72
1010.708	1704.33
1011.001	1732.58
1011.295	1709.53
1011.588	1676.76
1011.881	1717.21
1012.173	1664.33
1012.466	1675.86
1012.759	1643.32
1013.052	1650.32
1013.344	1617.78
1013.637	1605.81
1013.93	1595.41
1014.222	1590.66
1014.514	1574.85
1014.807	1580.04
1015.099	1576.43
1015.391	1560.61
1015.683	1571.46
1015.976	1523.32
1016.268	1525.36
1016.56	1532.81
1016.851	1518.58
1017.143	1490.55
1017.435	1513.83
1017.727	1488.07
1018.018	1500.27
1018.31	1492.14
1018.602	1458.69
1018.893	1465.92
1019.185	1452.14
1019.476	1448.3
1019.767	1398.81
1020.058	1393.61
1020.35	1431.35
1020.641	1413.04
1020.932	1375.3
1021.223	1381.4
1021.514	1367.17
1021.804	1364.46
1022.095	1337.56
1022.386	1325.13
1022.677	1338.02
1022.967	1320.16
1023.258	1322.87
1023.548	1303.21
1023.839	1301.41
1024.129	1305.25
1024.419	1307.06
1024.709	1277.9
1025	1260.28
1025.29	1261.18
1025.58	1254.18
1025.87	1241.3
1026.16	1235.65
1026.449	1251.46
1026.739	1201.75
1027.029	1240.17
1027.319	1197.23
1027.608	1206.72
1027.898	1198.58
1028.187	1177.12
1028.477	1179.83
1028.766	1174.86
1029.055	1146.61
1029.344	1152.03
1029.634	1149.55
1029.923	1156.33
1030.212	1140.28
1030.501	1106.61
1030.79	1109.1
1031.078	1093.5
1031.367	1116.78
1031.656	1092.82
1031.945	1108.64
1032.233	1098.47
1032.522	1081.07
1032.81	1037.46
1033.099	1041.75
1033.387	1024.8
1033.675	1052.83
1033.963	1043.79
1034.251	1053.73
1034.54	1038.14
1034.828	1020.06
1035.116	1026.39
1035.403	1003.79
1035.691	989.32
1035.979	985.93
1036.267	976.22
1036.554	993.62
1036.842	961.08
1037.129	978.48
1037.417	966.73
1037.704	957.23
1037.992	950.68
1038.279	955.88
1038.566	932.38
1038.853	932.38
1039.14	932.38
