Data from hue_26_FLMS001491_00057.txt Node
Date: Tue Feb 07 17:14:12 GMT 2017
User: dcchb
Spectrometer: FLMS00149
Trigger mode: 0
Integration Time (sec): 2.000000E-2
Scans to average: 10
Electric dark correction enabled: true
Nonlinearity correction enabled: false
Boxcar width: 0
XAxis mode: Wavelengths
Number of Pixels in Spectrum: 2048
>>>>>Begin Spectral Data<<<<<
341.393	-22.25
341.776	-22.25
342.16	-22.25
342.543	-66.54
342.927	-91.62
343.31	-69.93
343.693	-88.91
344.077	-53.88
344.46	-57.5
344.843	-74
345.226	-28.35
345.61	-15.47
345.993	-14.56
346.376	-17.05
346.759	31.09
347.142	13.01
347.525	34.93
347.908	66.57
348.291	69.96
348.674	90.07
349.057	114.02
349.44	106.11
349.823	145.43
350.206	185.21
350.588	211.87
350.971	222.72
351.354	236.51
351.737	243.74
352.119	259.1
352.502	255.49
352.884	279.44
353.267	285.09
353.65	305.2
354.032	286
354.414	293
354.797	317.18
355.179	315.37
355.562	310.4
355.944	327.58
356.326	333.23
356.709	352.43
357.091	348.37
357.473	339.78
357.855	316.73
358.238	346.78
358.62	349.04
359.002	328.48
359.384	340.23
359.766	330.97
360.148	347.24
360.53	329.16
360.912	328.03
361.294	339.78
361.676	330.06
362.057	350.63
362.439	343.62
362.821	307.01
363.203	350.4
363.584	322.15
363.966	322.83
364.348	325.77
364.729	325.09
365.111	311.76
365.493	300.91
365.874	297.52
366.256	331.64
366.637	316.5
367.019	335.49
367.4	325.32
367.781	323.28
368.163	323.06
368.544	325.54
368.925	326.45
369.306	329.16
369.688	325.09
370.069	308.14
370.45	316.73
370.831	301.14
371.212	304.07
371.593	310.18
371.974	298.42
372.355	294.13
372.736	311.98
373.117	321.02
373.498	310.18
373.879	315.83
374.26	303.62
374.641	318.99
375.021	331.42
375.402	309.95
375.783	314.02
376.163	328.48
376.544	332.32
376.925	321.02
377.305	315.83
377.686	326.45
378.066	315.37
378.447	350.4
378.827	339.1
379.208	323.06
379.588	346.11
379.968	340.46
380.349	340.23
380.729	325.77
381.109	329.84
381.489	356.05
381.87	352.66
382.25	344.52
382.63	337.75
383.01	327.8
383.39	348.59
383.77	342.94
384.15	356.5
384.53	349.95
384.91	327.8
385.29	333.68
385.67	359.21
386.049	354.24
386.429	350.85
386.809	354.47
387.189	361.47
387.568	340.23
387.948	350.85
388.328	369.16
388.707	352.43
389.087	352.89
389.466	358.99
389.846	388.14
390.225	370.29
390.605	370.29
390.984	370.74
391.363	369.16
391.743	371.87
392.122	375.71
392.501	377.97
392.881	383.17
393.26	396.5
393.639	385.2
394.018	373
394.397	374.35
394.776	382.26
395.155	358.54
395.534	399.89
395.913	387.01
396.292	371.87
396.671	373.22
397.05	384.07
397.429	388.37
397.808	373
398.186	405.31
398.565	387.91
398.944	413.9
399.323	384.3
399.701	403.28
400.08	399.66
400.458	411.64
400.837	410.51
401.215	406.22
401.594	387.24
401.972	437.4
402.351	411.42
402.729	408.48
403.107	439.44
403.486	403.96
403.864	424.97
404.242	431.3
404.62	422.71
404.999	426.56
405.377	451.64
405.755	413.68
406.133	443.51
406.511	423.39
406.889	450.06
407.267	452.54
407.645	434.01
408.023	453.67
408.401	420
408.779	443.96
409.156	454.13
409.534	462.94
409.912	452.77
410.29	446.67
410.667	447.57
411.045	468.59
411.422	454.35
411.8	460.68
412.178	457.97
412.555	477.63
412.933	460.68
413.31	471.53
413.687	473.56
414.065	525.09
414.442	482.83
414.819	493.22
415.197	492.32
415.574	506.55
415.951	511.75
416.328	527.8
416.705	491.19
417.082	489.38
417.46	524.18
417.837	515.14
418.214	504.07
418.591	501.36
418.967	513.79
419.344	517.85
419.721	517.4
420.098	525.99
420.475	535.71
420.852	507.23
421.228	537.74
421.605	534.58
421.982	534.12
422.358	543.84
422.735	549.04
423.111	539.32
423.488	551.98
423.864	540.23
424.241	578.42
424.617	545.2
424.994	564.86
425.37	574.58
425.746	572.09
426.123	578.42
426.499	564.63
426.875	565.54
427.251	573.45
427.627	591.3
428.003	595.82
428.379	624.07
428.756	608.02
429.132	584.07
429.507	643.05
429.883	617.96
430.259	642.37
430.635	632.88
431.011	631.3
431.387	633.78
431.763	623.61
432.138	664.06
432.514	655.48
432.89	652.09
433.265	670.84
433.641	690.73
434.016	660
434.392	692.76
434.767	688.7
435.143	699.32
435.518	697.74
435.894	737.96
436.269	713.1
436.644	707.68
437.02	709.04
437.395	704.06
437.77	733.89
438.145	739.77
438.52	730.28
438.895	735.02
439.271	730.96
439.646	763.27
440.021	759.88
440.395	762.14
440.77	769.15
441.145	742.03
441.52	755.59
441.895	768.69
442.27	792.87
442.645	782.03
443.019	790.61
443.394	792.65
443.769	792.2
444.143	803.04
444.518	823.61
444.892	812.08
445.267	817.96
445.641	804.85
446.016	828.35
446.39	836.94
446.764	830.16
447.139	828.58
447.513	833.55
447.887	856.83
448.262	865.87
448.636	853.66
449.01	891.18
449.384	871.52
449.758	871.06
450.132	872.65
450.506	868.35
450.88	893.21
451.254	890.5
451.628	908.58
452.002	906.77
452.376	907.22
452.75	913.55
453.123	918.3
453.497	933.66
453.871	948.8
454.244	944.51
454.618	980.67
454.992	979.76
455.365	1003.49
455.739	961.46
456.112	1015.92
456.486	1010.72
456.859	1000.78
457.232	1051.17
457.606	1023.83
457.979	1065.41
458.352	1046.65
458.725	1081.45
459.099	1054.34
459.472	1067.67
459.845	1108.57
460.218	1119.42
460.591	1107.67
460.964	1126.2
461.337	1146.31
461.71	1136.82
462.083	1179.53
462.456	1160.1
462.829	1180.44
463.201	1202.81
463.574	1210.49
463.947	1195.12
464.32	1255.91
464.692	1234.22
465.065	1270.38
465.438	1295.69
465.81	1283.94
466.183	1291.62
466.555	1345.85
466.928	1334.78
467.3	1323.03
467.672	1342.92
468.045	1380.66
468.417	1403.71
468.789	1407.1
469.161	1400.99
469.534	1436.47
469.906	1469.02
470.278	1494.55
470.65	1508.34
471.022	1557.6
471.394	1533.65
471.766	1572.52
472.138	1603.25
472.51	1609.12
472.882	1657.03
473.253	1688.67
473.625	1682.12
473.997	1693.42
474.369	1734.54
474.74	1716.92
475.112	1765.96
475.484	1819.29
475.855	1873.98
476.227	1852.73
476.598	1906.97
476.97	1939.29
477.341	2005.27
477.713	2012.28
478.084	2031.49
478.455	2094.76
478.827	2079.85
479.198	2184.25
479.569	2201.65
479.94	2219.05
480.311	2255.66
480.682	2353.29
481.053	2380.4
481.424	2405.26
481.795	2449.78
482.166	2485.49
482.537	2538.82
482.908	2579.72
483.279	2630.57
483.65	2659.04
484.021	2722.77
484.391	2788.08
484.762	2814.74
485.133	2859.26
485.503	2926.6
485.874	2937.23
486.244	3001.86
486.615	3021.74
486.985	3149.87
487.356	3189.42
487.726	3193.72
488.097	3292.92
488.467	3347.16
488.837	3372.24
489.207	3433.94
489.578	3467.83
489.948	3537.21
490.318	3569.3
490.688	3632.12
491.058	3634.38
491.428	3731.33
491.798	3752.12
492.168	3871.21
492.538	3873.92
492.908	3943.07
493.278	4008.38
493.648	4019.91
494.017	4052.68
494.387	4100.36
494.757	4174.48
495.126	4252.67
495.496	4230.3
495.866	4265.33
496.235	4318.21
496.605	4366.34
496.974	4419.67
497.344	4421.93
497.713	4482.5
498.082	4526.34
498.452	4565.43
498.821	4615.15
499.19	4587.8
499.559	4657.63
499.928	4703.73
500.298	4729.27
500.667	4757.97
501.036	4793.67
501.405	4831.19
501.774	4856.72
502.143	4946.44
502.512	4905.31
502.88	4960.22
503.249	4959.54
503.618	5029.15
503.987	5075.47
504.356	5032.09
504.724	5073.21
505.093	5133.55
505.462	5137.62
505.83	5170.39
506.199	5206.09
506.567	5211.74
506.936	5302.13
507.304	5318.18
507.672	5335.35
508.041	5339.87
508.409	5414.9
508.777	5408.57
509.145	5509.81
509.514	5461.68
509.882	5516.37
510.25	5564.05
510.618	5630.94
510.986	5604.73
511.354	5635.91
511.722	5661.67
512.09	5792.29
512.458	5691.73
512.826	5760.43
513.193	5736.93
513.561	5766.3
513.929	5868.22
514.297	5878.39
514.664	5891.72
515.032	5851.27
515.4	5952.74
515.767	5990.93
516.135	5970.59
516.502	6016.01
516.869	6020.08
517.237	6040.87
517.604	6017.6
517.972	6135.56
518.339	6156.58
518.706	6163.58
519.073	6153.19
519.44	6208.55
519.808	6259.62
520.175	6239.29
520.542	6345.27
520.909	6310.02
521.276	6321.32
521.643	6447.19
522.009	6381.88
522.376	6428.21
522.743	6480.41
523.11	6535.55
523.477	6546.4
523.843	6688.76
524.21	6676.79
524.577	6695.32
524.943	6782.32
525.31	6724.47
525.676	6789.1
526.043	6870.45
526.409	6866.16
526.776	6929.44
527.142	6953.84
527.508	6966.05
527.874	7026.38
528.241	7079.26
528.607	7078.36
528.973	7158.81
529.339	7131.24
529.705	7205.36
530.071	7282.42
530.437	7299.82
530.803	7303.44
531.169	7343.44
531.535	7349.09
531.901	7387.28
532.267	7473.83
532.632	7482.87
532.998	7453.26
533.364	7535.3
533.73	7602.19
534.095	7627.27
534.461	7645.58
534.826	7676.31
535.192	7699.81
535.557	7756.99
535.923	7769.87
536.288	7762.63
536.653	7846.25
537.019	7834.72
537.384	7874.5
537.749	7911.11
538.114	7970.54
538.479	7977.54
538.845	7968.96
539.21	7978
539.575	7988.84
539.94	8129.18
540.305	8138.67
540.67	8130.31
541.034	8158.78
541.399	8175.96
541.764	8257.31
542.129	8237.42
542.494	8321.94
542.858	8328.72
543.223	8358.33
543.587	8448.27
543.952	8411.43
544.316	8439
544.681	8462.73
545.045	8551.31
545.41	8577.53
545.774	8552.22
546.138	8596.96
546.503	8646.91
546.867	8631.99
547.231	8732.55
547.595	8728.71
547.959	8745.21
548.324	8825.66
548.688	8757.64
549.052	8797.64
549.416	8857.75
549.779	8914.02
550.143	8927.12
550.507	9027.46
550.871	9066.78
551.235	9024.52
551.599	9128.93
551.962	9129.15
552.326	9089.61
552.689	9220
553.053	9180
553.417	9184.07
553.78	9304.06
554.143	9231.3
554.507	9339.54
554.87	9337.28
555.234	9472.19
555.597	9434.68
555.96	9452.08
556.323	9474.45
556.686	9424.29
557.05	9580.67
557.413	9602.81
557.776	9643.04
558.139	9631.51
558.502	9750.38
558.865	9626.77
559.228	9738.63
559.59	9722.36
559.953	9774.11
560.316	9840.09
560.679	9860.66
561.041	9895.91
561.404	9892.52
561.767	10023.59
562.129	9994.89
562.492	10062.91
562.854	10080.77
563.217	10049.81
563.579	10144.95
563.941	10159.63
564.304	10271.72
564.666	10326.86
565.028	10276.47
565.39	10341.78
565.753	10373.41
566.115	10470.36
566.477	10431.94
566.839	10495.44
567.201	10519.4
567.563	10549.23
567.925	10628.32
568.287	10646.63
568.648	10693.41
569.01	10681.43
569.372	10771.14
569.734	10754.19
570.095	10891.37
570.457	10961.42
570.819	10998.71
571.18	10922.33
571.542	10983.79
571.903	11064.24
572.265	11164.81
572.626	11260.4
572.987	11236.89
573.349	11240.74
573.71	11365.03
574.071	11330.22
574.432	11379.71
574.794	11522.31
575.155	11612.03
575.516	11569.99
575.877	11594.17
576.238	11768.86
576.599	11827.84
576.96	11817.22
577.32	11993.03
577.681	12109.64
578.042	12165.68
578.403	12251.33
578.763	12260.37
579.124	12492.45
579.485	12639.34
579.845	12727.7
580.206	12812.45
580.566	12861.94
580.927	13034.13
581.287	13266.9
581.648	13283.85
582.008	13464.18
582.368	13597.96
582.728	13727
583.089	13956.37
583.449	14047.44
583.809	14193.88
584.169	14432.52
584.529	14562
584.889	14834.99
585.249	14916.12
585.609	15079.5
585.969	15393.85
586.329	15516.56
586.688	15681.52
587.048	15991.8
587.408	16106.37
587.768	16343.43
588.127	16556.75
588.487	16707.94
588.846	17140.24
589.206	17240.8
589.565	17607.35
589.925	17926.44
590.284	18084.62
590.643	18375.24
591.003	18680.54
591.362	18951.49
591.721	19217.47
592.08	19500.18
592.44	19853.16
592.799	20086.38
593.158	20360.95
593.517	20665.57
593.876	21034.6
594.235	21233.02
594.593	21492.67
594.952	21953.22
595.311	22055.82
595.67	22430.72
596.029	22827.78
596.387	23151.38
596.746	23481.77
597.104	23523.58
597.463	24105.03
597.822	24281.97
598.18	24664.56
598.538	24782.98
598.897	25265.45
599.255	25174.38
599.613	26063.17
599.972	26084.41
600.33	26410.51
600.688	26549.94
601.046	26990.15
601.404	27406.86
601.762	27581.1
602.12	27951.03
602.478	28153.29
602.836	28418.36
603.194	28671.46
603.552	28918.69
603.91	29139.02
604.268	29476.64
604.625	29677.54
604.983	30010.64
605.341	30114.36
605.698	30593.67
606.056	30885.64
606.413	30930.61
606.771	31441.79
607.128	31658.73
607.485	31711.84
607.843	31926.29
608.2	32356.56
608.557	32682.43
608.914	32724.92
609.272	33114.74
609.629	33357.44
609.986	33660.48
610.343	33791.78
610.7	34080.59
611.057	34170.75
611.414	34409.17
611.771	34670.4
612.127	34937.06
612.484	35052.99
612.841	35300.89
613.198	35433.09
613.554	35653.2
613.911	35939.75
614.267	36036.92
614.624	36156.01
614.98	36331.83
615.337	36691.14
615.693	36796.22
616.05	37001.87
616.406	37288.19
616.762	37294.29
617.118	37430.56
617.475	37525.92
617.831	37786.93
618.187	37975.85
618.543	38001.16
618.899	38242.06
619.255	38332.45
619.611	38519.11
619.967	38516.63
620.323	38861.03
620.678	38830.07
621.034	38928.82
621.39	38925.43
621.746	39060.79
622.101	39509.37
622.457	39211.3
622.812	39364.06
623.168	39893.77
623.523	39658.29
623.879	39967.44
624.234	39745.3
624.589	40031.84
624.945	40163.59
625.3	40183.7
625.655	40277.26
626.01	40326.3
626.365	40405.84
626.72	40472.96
627.075	40515.9
627.43	40613.07
627.785	40570.81
628.14	40660.3
628.495	40878.83
628.85	40631.6
629.205	40706.85
629.559	40953.63
629.914	40841.99
630.269	41021.42
630.623	40938.94
630.978	40872.72
631.332	41126.05
631.687	41193.85
632.041	41152.04
632.396	41198.59
632.75	41009.44
633.104	41241.3
633.459	41124.24
633.813	41050.57
634.167	41166.5
634.521	41145.49
634.875	41252.83
635.229	41186.84
635.583	41063.45
635.937	41046.73
636.291	41206.05
636.645	41196.78
636.999	41186.16
637.352	41223
637.706	41055.77
638.06	41249.44
638.413	41040.4
638.767	41058.71
639.121	41085.6
639.474	40915.44
639.828	40910.01
640.181	41049.9
640.534	41121.98
640.888	40971.71
641.241	40722.22
641.594	40910.92
641.947	41151.59
642.301	41023
642.654	41087.41
643.007	40995.43
643.36	40991.59
643.713	41005.83
644.066	41177.35
644.419	40754.99
644.771	40600.64
645.124	40288.33
645.477	40277.71
645.83	40039.07
646.182	39917.95
646.535	39785.75
646.888	39891.51
647.24	39715.69
647.593	39998.85
647.945	39730.83
648.298	39658.07
648.65	39576.49
649.002	39533.32
649.355	39734.9
649.707	39675.69
650.059	39937.16
650.411	40357.03
650.763	40399.97
651.115	40713.18
651.467	40596.57
651.819	40537.82
652.171	40450.14
652.523	40394.55
652.875	40594.99
653.227	40369.46
653.578	40561.32
653.93	40610.58
654.282	40432.06
654.633	40165.85
654.985	40440.19
655.337	40418.5
655.688	40290.14
656.039	40578.95
656.391	40149.58
656.742	40299.86
657.094	40353.64
657.445	40437.03
657.796	40266.64
658.147	40326.3
658.498	40205.17
658.849	40264.61
659.2	40331.5
659.551	40207.21
659.902	40336.92
660.253	40309.8
660.604	40303.25
660.955	40079.07
661.306	40364.94
661.656	40155.91
662.007	40249.46
662.358	40238.39
662.708	40166.98
663.059	40225.74
663.409	40023.71
663.76	40344.6
664.11	40199.97
664.461	40174.44
664.811	40291.05
665.161	40194.1
665.511	40079.53
665.862	40009.92
666.212	40308.9
666.562	40181.22
666.912	40088.11
667.262	40019.87
667.612	39981.22
667.962	40196.81
668.312	39965.18
668.662	40235.91
669.011	40018.74
669.361	40021
669.711	40125.4
670.06	39978.06
670.41	39856.71
670.76	39857.61
671.109	39927.89
671.459	39900.32
671.808	39971.28
672.157	40082.24
672.507	39725.18
672.856	39811.74
673.205	39832.53
673.554	39939.64
673.904	39817.16
674.253	39997.49
674.602	39835.24
674.951	39191.41
675.3	39143.96
675.649	39797.5
675.998	39790.49
676.346	39603.61
676.695	39932.41
677.044	39614
677.393	39757.27
677.741	39717.27
678.09	39539.88
678.438	39374.46
678.787	39626.88
679.135	39548.47
679.484	39442.25
679.832	39500.56
680.181	39238.42
680.529	39309.15
680.877	39294.01
681.225	39056.73
681.573	39444.74
681.922	39185.31
682.27	39058.31
682.618	39111.42
682.966	38922.04
683.314	38980.8
683.661	39044.98
684.009	38573.8
684.357	38632.33
684.705	38581.26
685.053	38722.05
685.4	38658.77
685.748	38444.54
686.095	38505.1
686.443	38235.73
686.79	38265.56
687.138	38315.73
687.485	38342.62
687.832	38101.05
688.18	38219.69
688.527	37925.68
688.874	37956.87
689.221	37871.9
689.568	37812.47
689.915	37751.9
690.262	37769.53
690.609	37621.28
690.956	37618.57
691.303	37566.37
691.65	37272.37
691.997	37212.03
692.344	37112.15
692.69	36978.36
693.037	36988.53
693.383	36850.68
693.73	36923.22
694.077	36688.2
694.423	36803
694.769	36587.41
695.116	36504.48
695.462	36544.93
695.808	36303.81
696.155	36443.46
696.501	36180.19
696.847	36189.01
697.193	35793.99
697.539	36056.58
697.885	35835.57
698.231	35685.74
698.577	35700.21
698.923	35690.94
699.269	35469.25
699.614	35270.16
699.96	35339.99
700.306	35318.07
700.651	35107.9
700.997	34929.38
701.342	34849.61
701.688	34963.73
702.033	34941.58
702.379	34845.99
702.724	34644.64
703.069	34784.98
703.415	34261.83
703.76	34478.99
704.105	34365.55
704.45	34281.94
704.795	34084.43
705.14	34037.2
705.485	34001.27
705.83	33802.18
706.175	33757.88
706.52	33798.33
706.865	33707.04
707.209	33719.92
707.554	33489.87
707.899	33548.62
708.243	33327.39
708.588	33291
708.932	33155.41
709.277	33146.6
709.621	33127.17
709.966	32995.64
710.31	32945.48
710.654	32772.6
710.998	32701.64
711.342	32849.88
711.687	32828.42
712.031	32693.5
712.375	32389.56
712.719	32496.45
713.063	32355.21
713.407	32486.05
713.75	32301.88
714.094	32245.83
714.438	32255.1
714.782	32107.08
715.125	32031.38
715.469	32067.98
715.812	32028.66
716.156	31832.74
716.499	31746.86
716.843	31904.6
717.186	31717.71
717.53	31720.42
717.873	31637.94
718.216	31613.76
718.559	31423.48
718.902	31309.13
719.246	31308.23
719.589	31269.14
719.932	31214.22
720.275	31194.79
720.617	31166.31
720.96	31118.86
721.303	30986.43
721.646	31091.96
721.989	30893.1
722.331	30991.63
722.674	30815.14
723.016	30821.24
723.359	30733.33
723.701	30824.63
724.044	30715.7
724.386	30649.72
724.729	30686.78
725.071	30532.66
725.413	30617.4
725.755	30564.07
726.097	30428.48
726.439	30193.68
726.782	30315.04
727.124	30309.39
727.465	30188.49
727.807	30164.98
728.149	30096.96
728.491	29959.34
728.833	30094.48
729.175	29856.97
729.516	29849.29
729.858	29827.14
730.199	29906.23
730.541	29762.73
730.882	29781.94
731.224	29873.92
731.565	29668.05
731.906	29707.14
732.248	29639.35
732.589	29406.59
732.93	29433.03
733.271	29453.36
733.612	29370.65
733.953	29557.32
734.294	29292.69
734.635	29207.49
734.976	29317.32
735.317	29146.71
735.658	29157.55
735.999	29141.73
736.339	29055.41
736.68	29290.88
737.021	28889.31
737.361	28948.97
737.702	28933.83
738.042	29004.56
738.383	28817.22
738.723	28966.6
739.063	28753.27
739.404	28897.45
739.744	28790.56
740.084	28691.35
740.424	28655.64
740.764	28689.54
741.104	28774.96
741.444	28556.44
741.784	28526.38
742.124	28559.15
742.464	28410.91
742.804	28315.54
743.143	28380.4
743.483	28395.31
743.823	28269.44
744.162	28202.1
744.502	28281.42
744.841	28111.03
745.181	28169.56
745.52	28004.14
745.86	28085.26
746.199	28096.11
746.538	27956.68
746.877	28071.25
747.216	28051.37
747.556	28035.32
747.895	28024.93
748.234	27720.98
748.573	27866.29
748.911	27892.73
749.25	27748.78
749.589	27624.71
749.928	27779.96
750.267	27699.29
750.605	27489.57
750.944	27499.97
751.283	27406.19
751.621	27576.8
751.96	27355.57
752.298	27391.95
752.636	27359.63
752.975	27259.52
753.313	27207.32
753.651	27298.39
753.989	27104.73
754.327	27147.66
754.666	26914.9
755.004	27044.61
755.342	27028.57
755.679	26949.25
756.017	26786.54
756.355	26858.18
756.693	26669.26
757.031	26875.8
757.368	26542.25
757.706	26709.03
758.044	26559.2
758.381	26520.56
758.719	26430.62
759.056	26462.48
759.394	26410.73
759.731	26265.65
760.068	26126.9
760.405	26092.55
760.743	26008.93
761.08	26078.09
761.417	25991.76
761.754	25986.56
762.091	25822.27
762.428	25780.92
762.765	25612.56
763.102	25720.81
763.438	25559.46
763.775	25362.4
764.112	25467.03
764.449	25342.74
764.785	25214.15
765.122	25116.53
765.458	24936.87
765.795	25063.65
766.131	25017.55
766.467	24881.96
766.804	24831.79
767.14	24550.22
767.476	24599.71
767.812	24503.21
768.148	24617.11
768.485	24442.2
768.821	24317
769.157	24213.73
769.492	24174.63
769.828	24133.28
770.164	24090.34
770.5	23867.97
770.836	23872.27
771.171	23786.17
771.507	23721.54
771.842	23569.68
772.178	23516.12
772.513	23474.31
772.849	23457.36
773.184	23247.65
773.519	23321.32
773.855	23157.94
774.19	23152.29
774.525	23011.73
774.86	22949.13
775.195	22933.99
775.53	22827.32
775.865	22699.19
776.2	22499.2
776.535	22416.71
776.87	22395.24
777.205	22299.65
777.539	22244.74
777.874	22232.76
778.209	22098.53
778.543	22110.96
778.878	21936.5
779.212	21984.18
779.547	21753.23
779.881	21743.51
780.215	21685.43
780.55	21661.25
780.884	21481.14
781.218	21361.83
781.552	21384.2
781.886	21313.24
782.22	21173.58
782.554	21227.82
782.888	20963.42
783.222	21024.89
783.556	20776.3
783.889	20743.54
784.223	20656.76
784.557	20553.26
784.89	20682.97
785.224	20465.13
785.557	20509.19
785.891	20407.5
786.224	20295.64
786.558	20294.06
786.891	20143.33
787.224	20001.18
787.557	20026.04
787.891	19886.16
788.224	19809.32
788.557	19932.94
788.89	19812.71
789.223	19770.91
789.556	19574.3
789.888	19549.67
790.221	19465.15
790.554	19340.41
790.887	19355.78
791.219	19344.25
791.552	19162.56
791.884	19158.04
792.217	19104.94
792.549	18953.53
792.882	18893.64
793.214	18797.82
793.546	18776.81
793.879	18596.47
794.211	18602.58
794.543	18747.2
794.875	18602.35
795.207	18615
795.539	18535.68
795.871	18475.35
796.203	18331.4
796.535	18219.54
796.867	18297.95
797.198	18172.08
797.53	18101.8
797.862	17982.03
798.193	17956.94
798.525	17939.54
798.856	17941.8
799.188	17744.29
799.519	17706.33
799.85	17620.45
800.182	17627.46
800.513	17611.42
800.844	17479.22
801.175	17593.34
801.506	17483.28
801.837	17393.12
802.168	17348.15
802.499	17299.56
802.83	17166.46
803.161	17100.02
803.491	17136.4
803.822	17052.79
804.153	17025.67
804.483	16909.96
804.814	16813.24
805.145	16788.16
805.475	16749.74
805.805	16760.14
806.136	16674.72
806.466	16726.92
806.796	16784.09
807.126	16585.68
807.457	16523.08
807.787	16446.02
808.117	16457.1
808.447	16363.09
808.777	16421.84
809.107	16389.75
809.436	16208.97
809.766	16224.33
810.096	16071.12
810.426	16118.35
810.755	16036.09
811.085	16011.91
811.414	16056.65
811.744	15881.07
812.073	15878.35
812.403	15857.79
812.732	15843.78
813.061	15801.29
813.39	15644.69
813.719	15608.76
814.049	15703.89
814.378	15698.92
814.707	15552.94
815.036	15502.32
815.365	15471.36
815.693	15373.51
816.022	15369.21
816.351	15345.49
816.68	15245.15
817.008	15340.06
817.337	15131.71
817.665	15167.64
817.994	15196.56
818.322	15150.69
818.651	15032.95
818.979	15024.14
819.307	15136.45
819.636	15034.99
819.964	14852.62
820.292	14918.6
820.62	14943.91
820.948	14869.11
821.276	14896.01
821.604	14744.37
821.932	14971.03
822.259	14944.59
822.587	14832.73
822.915	14663.02
823.243	14891.94
823.57	14825.95
823.898	14865.95
824.225	14754.99
824.553	14776.91
824.88	14802.9
825.207	14882
825.535	14745.73
825.862	14882.22
826.189	14676.8
826.516	14794.77
826.843	14863.01
827.17	14756.35
827.497	14741.66
827.824	14904.14
828.151	14816.46
828.478	14812.62
828.805	14851.71
829.131	14863.47
829.458	14758.61
829.785	14686.29
830.111	14728.33
830.438	14859.4
830.764	14755.22
831.09	14824.37
831.417	14728.55
831.743	14773.98
832.069	14787.08
832.395	14641.32
832.722	14685.16
833.048	14670.02
833.374	14676.58
833.7	14600.87
834.026	14601.33
834.351	14584.38
834.677	14664.15
835.003	14579.86
835.329	14553.64
835.654	14462.8
835.98	14493.53
836.306	14498.5
836.631	14536.24
836.956	14518.84
837.282	14467.32
837.607	14404.95
837.932	14436.81
838.258	14373.08
838.583	14451.27
838.908	14284.05
839.233	14403.82
839.558	14286.98
839.883	14244.72
840.208	14147.78
840.533	14219.64
840.858	14139.87
841.182	14189.36
841.507	14160.88
841.832	14114.78
842.156	14079.76
842.481	14054.22
842.805	14040.44
843.13	13918.63
843.454	13905.07
843.778	13833.44
844.103	13907.78
844.427	13769.93
844.751	13794.57
845.075	13779.2
845.399	13725.42
845.723	13569.49
846.047	13672.76
846.371	13543.95
846.695	13495.37
847.019	13472.99
847.343	13438.42
847.666	13417.4
847.99	13255.6
848.313	13360
848.637	13181.93
848.96	13113
849.284	13099.44
849.607	13016.96
849.931	13037.98
850.254	12959.33
850.577	12760.24
850.9	12707.36
851.223	12833.01
851.546	12708.72
851.869	12640.92
852.192	12634.82
852.515	12521.38
852.838	12543.75
853.161	12472.12
853.483	12443.64
853.806	12376.98
854.129	12354.38
854.451	12319.35
854.774	12220.82
855.096	12279.35
855.419	12190.99
855.741	12213.82
856.063	12191.44
856.385	12132.69
856.708	12046.59
857.03	12015.86
857.352	11968.4
857.674	11986.48
857.996	11838.01
858.318	11915.29
858.64	11921.4
858.961	11829.65
859.283	11709.65
859.605	11760.27
859.926	11803.43
860.248	11666.04
860.57	11656.54
860.891	11659.71
861.212	11583.55
861.534	11553.95
861.855	11478.7
862.176	11477.57
862.498	11581.97
862.819	11441.18
863.14	11499.03
863.461	11341.98
863.782	11327.06
864.103	11414.06
864.424	11312.37
864.745	11341.52
865.065	11315.54
865.386	11292.03
865.707	11258.81
866.027	11232.37
866.348	11144.47
866.668	11273.95
866.989	11135.43
867.309	11006.39
867.63	11170.45
867.95	11106.95
868.27	11007.3
868.59	11038.71
868.91	11038.48
869.23	10941.76
869.55	10963.68
869.87	10991.25
870.19	10972.04
870.51	10938.82
870.83	10918.26
871.15	10948.31
871.469	10874.42
871.789	10924.81
872.109	10877.81
872.428	10851.59
872.748	10871.48
873.067	10862.89
873.386	10760.07
873.706	10814.76
874.025	10718.49
874.344	10709
874.663	10743.12
874.982	10772.5
875.301	10739.51
875.62	10627.19
875.939	10651.6
876.258	10659.96
876.577	10597.59
876.896	10599.17
877.214	10598.94
877.533	10613.41
877.852	10556.69
878.17	10596.01
878.489	10516.01
878.807	10520.98
879.125	10560.08
879.444	10498.83
879.762	10442.56
880.08	10466.97
880.398	10402.11
880.716	10409.34
881.034	10431.49
881.352	10306.52
881.67	10312.17
881.988	10301.78
882.306	10297.26
882.624	10273.3
882.941	10247.54
883.259	10179.07
883.577	10158.96
883.894	10156.47
884.212	10148.33
884.529	10203.93
884.846	10062.91
885.164	10106.53
885.481	9996.7
885.798	10009.58
886.115	9954.22
886.432	9929.58
886.75	9907.66
887.067	9893.43
887.383	9888.45
887.7	9882.35
888.017	9879.19
888.334	9922.58
888.651	9798.97
888.967	9822.47
889.284	9709.25
889.6	9777.27
889.917	9666.99
890.233	9725.97
890.55	9619.54
890.866	9671.74
891.182	9582.47
891.498	9616.15
891.815	9529.59
892.131	9470.61
892.447	9493.21
892.763	9483.49
893.079	9462.7
893.395	9448.92
893.71	9332.31
894.026	9401.46
894.342	9361.46
894.657	9248.47
894.973	9226.55
895.289	9198.53
895.604	9204.4
895.92	9177.74
896.235	9097.97
896.55	9110.62
896.865	9070.85
897.181	9074.92
897.496	9088.48
897.811	9014.13
898.126	8953.56
898.441	8953.56
898.756	8936.84
899.071	8891.19
899.386	8879.67
899.7	8838.09
900.015	8769.61
900.33	8692.55
900.644	8722.16
900.959	8633.57
901.273	8642.61
901.588	8581.6
901.902	8634.25
902.216	8573.91
902.531	8559.45
902.845	8513.12
903.159	8423.86
903.473	8404.43
903.787	8463.18
904.101	8333.24
904.415	8380.25
904.729	8290.08
905.042	8240.81
905.356	8213.7
905.67	8192.23
905.984	8170.99
906.297	8134.15
906.611	8104.77
906.924	8116.3
907.237	8142.51
907.551	7989.07
907.864	8019.13
908.177	7982.74
908.491	7945.91
908.804	7942.97
909.117	7875.4
909.43	7782.75
909.743	7808.06
910.056	7808.51
910.368	7742.52
910.681	7694.39
910.994	7693.94
911.307	7668.63
911.619	7609.64
911.932	7638.8
912.244	7549.31
912.557	7516.77
912.869	7482.42
913.181	7508.4
913.494	7455.75
913.806	7366.49
914.118	7361.29
914.43	7212.37
914.742	7349.31
915.054	7224.34
915.366	7235.64
915.678	7236.1
915.99	7199.49
916.302	7164.91
916.613	7129.88
916.925	7105.7
917.236	7067.74
917.548	7045.82
917.859	7109.09
918.171	7055.76
918.482	6960.85
918.794	6905.93
919.105	6924.01
919.416	6887.63
919.727	6932.15
920.038	6837.46
920.349	6738.26
920.66	6770.12
920.971	6733.96
921.282	6751.59
921.593	6633.4
921.903	6637.92
922.214	6670.69
922.525	6585.72
922.835	6566.06
923.146	6504.81
923.456	6433.63
923.767	6470.47
924.077	6441.31
924.387	6430.01
924.697	6409.45
925.008	6356.12
925.318	6344.59
925.628	6327.19
925.938	6354.31
926.248	6207.65
926.558	6236.12
926.867	6226.4
927.177	6195.67
927.487	6164.03
927.796	6076.13
928.106	6114.77
928.416	6047.88
928.725	6113.41
929.034	6042.23
929.344	6005.39
929.653	5968.11
929.962	5937.82
930.271	5893.31
930.581	5868
930.89	5853.08
931.199	5780.09
931.508	5816.25
931.817	5813.76
932.125	5719.52
932.434	5784.16
932.743	5726.3
933.051	5700.09
933.36	5629.36
933.669	5567.66
933.977	5609.47
934.286	5632.52
934.594	5530.38
934.902	5532.41
935.21	5460.55
935.519	5459.87
935.827	5474.33
936.135	5409.93
936.443	5400.21
936.751	5347.56
937.059	5393.66
937.367	5345.98
937.674	5318.86
937.982	5301.23
938.29	5331.51
938.597	5306.88
938.905	5228.69
939.213	5250.84
939.52	5223.94
939.827	5205.19
940.135	5164.74
940.442	5130.61
940.749	5121.8
941.056	5125.64
941.363	5041.8
941.67	5049.49
941.977	5024.63
942.284	5038.41
942.591	5010.62
942.898	4934.46
943.205	4977.85
943.511	4913.9
943.818	4913.67
944.125	4893.78
944.431	4851.98
944.738	4858.76
945.044	4797.52
945.35	4787.8
945.657	4755.26
945.963	4760.23
946.269	4731.75
946.575	4729.72
946.881	4673.45
947.187	4751.64
947.493	4662.15
947.799	4595.71
948.105	4612.89
948.41	4580.12
948.716	4550.97
949.022	4543.28
949.327	4557.97
949.633	4535.15
949.938	4530.86
950.244	4468.48
950.549	4438.65
950.854	4444.98
951.16	4412.44
951.465	4411.76
951.77	4348.71
952.075	4357.75
952.38	4334.7
952.685	4333.57
952.99	4309.84
953.294	4268.94
953.599	4237.98
953.904	4209.96
954.209	4207.93
954.513	4211.32
954.818	4143.07
955.122	4215.61
955.426	4162.5
955.731	4134.03
956.035	4133.58
956.339	4106.01
956.643	4103.97
956.948	4068.04
957.252	4065.1
957.556	4026.46
957.86	4049.96
958.163	4009.06
958.467	4013.35
958.771	4004.32
959.075	3983.75
959.378	3971.1
959.682	3953.7
959.985	3859.91
960.289	3835.51
960.592	3884.09
960.896	3838.44
961.199	3817.65
961.502	3811.78
961.805	3779.24
962.108	3785.11
962.411	3766.58
962.714	3753.25
963.017	3767.94
963.32	3735.17
963.623	3697.88
963.926	3707.6
964.228	3654.27
964.531	3661.27
964.833	3631.9
965.136	3651.78
965.438	3630.09
965.741	3565.01
966.043	3572.91
966.345	3582.63
966.648	3574.04
966.95	3523.88
967.252	3508.51
967.554	3502.41
967.856	3495.63
968.158	3446.59
968.46	3450.66
968.761	3438.91
969.063	3405.01
969.365	3392.13
969.666	3414.95
969.968	3338.34
970.269	3352.81
970.571	3366.37
970.872	3352.13
971.174	3321.85
971.475	3340.6
971.776	3308.06
972.077	3269.87
972.378	3242.3
972.679	3227.16
972.98	3232.81
973.281	3251.79
973.582	3213.15
973.883	3188.52
974.183	3227.61
974.484	3163.89
974.785	3161.85
975.085	3166.6
975.386	3120.05
975.686	3101.74
975.986	3049.54
976.287	3096.32
976.587	3085.24
976.887	3027.17
977.187	3036.88
977.487	3032.82
977.787	2952.37
978.087	2972.03
978.387	2989.88
978.687	2986.94
978.987	2937.9
979.286	2959.37
979.586	2924.12
979.885	2918.24
980.185	2908.75
980.484	2890.67
980.784	2872.82
981.083	2894.29
981.382	2845.93
981.682	2838.24
981.981	2831.92
982.28	2827.85
982.579	2785.36
982.878	2793.73
983.177	2765.25
983.475	2759.83
983.774	2754.86
984.073	2732.03
984.372	2708.76
984.67	2738.13
984.969	2727.06
985.267	2709.21
985.566	2717.34
985.864	2685.25
986.162	2679.6
986.461	2658.14
986.759	2663.33
987.057	2607.74
987.355	2621.08
987.653	2599.61
987.951	2607.74
988.249	2570.91
988.547	2578.36
988.844	2536.33
989.142	2572.04
989.44	2524.35
989.737	2491.81
990.035	2501.3
990.332	2468.08
990.63	2480.97
990.927	2471.7
991.224	2491.14
991.521	2462.66
991.819	2456.33
992.116	2450.01
992.413	2441.64
992.71	2394.19
993.006	2403.45
993.303	2356.22
993.6	2365.04
993.897	2365.04
994.193	2376.34
994.49	2344.25
994.787	2328.43
995.083	2317.58
995.379	2311.7
995.676	2321.42
995.972	2285.26
996.268	2264.47
996.565	2270.8
996.861	2257.24
997.157	2247.98
997.453	2244.14
997.749	2204.59
998.044	2190.8
998.34	2176.57
998.636	2173.4
998.932	2145.16
999.227	2148.32
999.523	2134.53
999.818	2176.12
1000.114	2119.39
1000.409	2114.65
1000.704	2093.18
1001	2073.97
1001.295	2074.87
1001.59	2065.84
1001.885	2069.45
1002.18	2060.19
1002.475	2046.63
1002.77	2010.92
1003.065	2022.45
1003.359	2024.71
1003.654	2015.44
1003.949	1971.83
1004.243	1996.01
1004.538	1953.97
1004.832	1966.63
1005.127	1952.39
1005.421	1943.35
1005.715	1956.23
1006.009	1937.48
1006.304	1899.74
1006.598	1859.29
1006.892	1884.6
1007.186	1883.92
1007.48	1868.1
1007.773	1886.86
1008.067	1851.38
1008.361	1841.21
1008.655	1829.68
1008.948	1824.71
1009.242	1798.5
1009.535	1806.18
1009.829	1771.38
1010.122	1746.75
1010.415	1774.32
1010.708	1772.28
1011.001	1725.51
1011.295	1724.38
1011.588	1727.99
1011.881	1698.61
1012.173	1701.1
1012.466	1701.1
1012.759	1695
1013.052	1664.26
1013.344	1650.93
1013.637	1660.87
1013.93	1632.63
1014.222	1649.58
1014.514	1643.25
1014.807	1630.82
1015.099	1629.91
1015.391	1587.66
1015.683	1575.68
1015.976	1549.24
1016.268	1560.09
1016.56	1557.15
1016.851	1530.03
1017.143	1556.92
1017.435	1539.75
1017.727	1541.33
1018.018	1535.23
1018.31	1499.75
1018.602	1514.66
1018.893	1483.48
1019.185	1459.3
1019.476	1446.87
1019.767	1433.54
1020.058	1438.28
1020.35	1430.82
1020.641	1420.88
1020.932	1425.4
1021.223	1416.36
1021.514	1417.94
1021.804	1398.73
1022.095	1373.42
1022.386	1376.81
1022.677	1351.28
1022.967	1364.84
1023.258	1351.5
1023.548	1312.41
1023.839	1300.43
1024.129	1299.3
1024.419	1326.87
1024.709	1311.28
1025	1283.03
1025.29	1300.43
1025.58	1265.63
1025.87	1268.12
1026.16	1249.36
1026.449	1261.56
1026.739	1269.25
1027.029	1246.42
1027.319	1224.5
1027.608	1225.63
1027.898	1194.22
1028.187	1201.68
1028.477	1213.88
1028.766	1216.14
1029.055	1162.36
1029.344	1194.45
1029.634	1154.22
1029.923	1167.33
1030.212	1142.24
1030.501	1139.98
1030.79	1142.02
1031.078	1141.57
1031.367	1111.74
1031.656	1135.46
1031.945	1134.33
1032.233	1128.46
1032.522	1071.06
1032.81	1107.67
1033.099	1079.87
1033.387	1064.96
1033.675	1062.92
1033.963	1058.63
1034.251	1055.92
1034.54	1036.03
1034.828	1039.87
1035.116	1009.82
1035.403	1013.66
1035.691	1002.81
1035.979	1016.37
1036.267	1026.77
1036.554	1027.9
1036.842	991.74
1037.129	981.57
1037.417	977.28
1037.704	986.32
1037.992	955.58
1038.279	960.33
1038.566	950.84
1038.853	950.84
1039.14	950.84
