Data from hue_90_FLMS001491_15.txt Node
Date: Mon Feb 06 15:24:45 GMT 2017
User: dcchb
Spectrometer: FLMS00149
Trigger mode: 0
Integration Time (sec): 2.000000E-2
Scans to average: 10
Electric dark correction enabled: true
Nonlinearity correction enabled: false
Boxcar width: 0
XAxis mode: Wavelengths
Number of Pixels in Spectrum: 2048
>>>>>Begin Spectral Data<<<<<
341.393	-8.09
341.776	-8.09
342.16	-8.09
342.543	-49
342.927	-58.26
343.31	-56.91
343.693	-91.25
344.077	-66.4
344.46	-44.7
344.843	-71.59
345.226	-35.89
345.61	-27.53
345.993	-29.11
346.376	-1.09
346.759	-8.54
347.142	30.1
347.525	45.46
347.908	72.36
348.291	82.3
348.674	87.72
349.057	115.07
349.44	92.24
349.823	153.03
350.206	164.33
350.588	196.42
350.971	197.33
351.354	214.27
351.737	242.3
352.119	257.44
352.502	258.57
352.884	272.13
353.267	285.01
353.65	279.13
354.032	300.15
354.414	292.01
354.797	309.64
355.179	326.81
355.562	308.28
355.944	325.91
356.326	338.11
356.709	333.82
357.091	335.63
357.473	323.88
357.855	348.96
358.238	332.91
358.62	358
359.002	322.52
359.384	319.13
359.766	350.54
360.148	344.67
360.53	334.04
360.912	338.11
361.294	339.47
361.676	304.67
362.057	310.77
362.439	335.4
362.821	322.97
363.203	337.43
363.584	332.24
363.966	325.01
364.348	332.69
364.729	310.09
365.111	333.82
365.493	329.75
365.874	300.37
366.256	310.32
366.637	312.35
367.019	327.94
367.4	332.01
367.781	322.07
368.163	316.64
368.544	301.5
368.925	301.5
369.306	306.7
369.688	317.1
370.069	309.64
370.45	313.48
370.831	294.27
371.212	316.64
371.593	304.67
371.974	325.91
372.355	300.83
372.736	308.51
373.117	314.61
373.498	298.57
373.879	310.32
374.26	317.55
374.641	296.98
375.021	306.7
375.402	310.09
375.783	326.81
376.163	327.94
376.544	320.49
376.925	318.45
377.305	326.14
377.686	310.54
378.066	306.25
378.447	343.54
378.827	311.45
379.208	337.43
379.588	330.2
379.968	320.26
380.349	314.16
380.729	314.16
381.109	332.01
381.489	319.58
381.87	329.53
382.25	343.99
382.63	329.3
383.01	331.56
383.39	337.21
383.77	338.34
384.15	336.76
384.53	344.89
384.91	344.89
385.29	335.63
385.67	323.65
386.049	349.41
386.429	344.89
386.809	359.13
387.189	359.35
387.568	347.15
387.948	342.41
388.328	349.19
388.707	341.95
389.087	362.29
389.466	349.86
389.846	353.48
390.225	346.25
390.605	343.31
390.984	374.04
391.363	374.95
391.743	360.26
392.122	367.04
392.501	360.94
392.881	375.63
393.26	349.19
393.639	381.28
394.018	376.08
394.397	367.94
394.776	382.63
395.155	371.33
395.534	378.79
395.913	388.28
396.292	380.6
396.671	375.85
397.05	385.34
397.429	382.41
397.808	385.34
398.186	388.96
398.565	381.73
398.944	401.61
399.323	417.43
399.701	381.28
400.08	389.86
400.458	398.9
400.837	396.42
401.215	406.36
401.594	406.59
401.972	382.86
402.351	392.8
402.729	406.13
403.107	395.06
403.486	403.87
403.864	400.94
404.242	413.36
404.62	421.95
404.999	401.61
405.377	417.43
405.755	403.65
406.133	423.53
406.511	414.49
406.889	392.57
407.267	432.57
407.645	432.57
408.023	433.93
408.401	430.77
408.779	447.04
409.156	464.44
409.534	435.06
409.912	445.23
410.29	451.56
410.667	457.88
411.045	454.72
411.422	436.19
411.8	460.37
412.178	439.58
412.555	430.09
412.933	461.5
413.31	467.6
413.687	454.27
414.065	470.31
414.442	483.87
414.819	471.67
415.197	464.44
415.574	470.54
415.951	488.62
416.328	497.43
416.705	498.56
417.082	503.53
417.46	487.49
417.837	488.84
418.214	508.05
418.591	495.62
418.967	493.36
419.344	512.12
419.721	519.8
420.098	537.2
420.475	530.42
420.852	537.66
421.228	507.83
421.605	512.57
421.982	520.03
422.358	508.73
422.735	526.58
423.111	532.68
423.488	556.86
423.864	556.64
424.241	523.64
424.617	559.58
424.994	574.94
425.37	559.12
425.746	557.77
426.123	553.93
426.499	566.36
426.875	578.11
427.251	574.94
427.627	582.17
428.003	579.69
428.379	568.16
428.756	587.82
429.132	594.15
429.507	596.18
429.883	590.08
430.259	597.99
430.635	608.84
431.011	621.04
431.387	623.3
431.763	604.55
432.138	647.03
432.514	652.23
432.89	657.65
433.265	661.49
433.641	624.88
434.016	656.3
434.392	668.27
434.767	686.13
435.143	679.8
435.518	691.32
435.894	677.99
436.269	694.04
436.644	697.43
437.02	675.5
437.395	693.36
437.77	695.17
438.145	710.08
438.52	701.27
438.895	708.27
439.271	747.82
439.646	757.54
440.021	729.29
440.395	737.88
440.77	718.22
441.145	764.54
441.52	744.43
441.895	751.89
442.27	779.68
442.645	763.41
443.019	784.43
443.394	774.71
443.769	790.53
444.143	773.81
444.518	797.54
444.892	770.42
445.267	830.53
445.641	806.57
446.016	809.96
446.39	796.63
446.764	812.45
447.139	809.96
447.513	838.66
447.887	859
448.262	834.6
448.636	848.38
449.01	863.3
449.384	835.73
449.758	864.43
450.132	877.08
450.506	873.01
450.88	879.12
451.254	873.24
451.628	887.25
452.002	891.77
452.376	899.68
452.75	927.25
453.123	899.68
453.497	947.14
453.871	937.87
454.244	953.01
454.618	978.1
454.992	981.26
455.365	962.73
455.739	963.63
456.112	996.17
456.486	997.76
456.859	1002.28
457.232	1036.63
457.606	1026.23
457.979	1051.09
458.352	1075.49
458.725	1084.08
459.099	1088.6
459.472	1084.08
459.845	1113.01
460.218	1091.54
460.591	1136.51
460.964	1123.85
461.337	1130.18
461.71	1175.6
462.083	1178.99
462.456	1204.08
462.829	1185.32
463.201	1202.27
463.574	1232.78
463.947	1253.34
464.32	1255.6
464.692	1274.36
465.065	1287.47
465.438	1294.7
465.81	1320.69
466.183	1333.34
466.555	1367.69
466.928	1402.49
467.3	1375.37
467.672	1402.94
468.045	1476.61
468.417	1458.31
468.789	1506.44
469.161	1516.84
469.534	1512.09
469.906	1548.7
470.278	1598.19
470.65	1607.46
471.022	1649.04
471.394	1686.55
471.766	1718.19
472.138	1704.63
472.51	1788.47
472.882	1809.26
473.253	1853.33
473.625	1849.71
473.997	1909.37
474.369	1927.45
474.74	1941.46
475.112	2015.36
475.484	2066.43
475.855	2125.18
476.227	2130.16
476.598	2236.14
476.97	2277.95
477.341	2318.63
477.713	2357.04
478.084	2439.53
478.455	2478.62
478.827	2557.72
479.198	2619.18
479.569	2624.83
479.94	2734.89
480.311	2813.08
480.682	2872.06
481.053	2983.69
481.424	3026.4
481.795	3117.02
482.166	3220.97
482.537	3293.52
482.908	3401.08
483.279	3416.22
483.65	3588.87
484.021	3639.49
484.391	3700.74
484.762	3815.76
485.133	3873.84
485.503	3953.38
485.874	4136.66
486.244	4203.55
486.615	4376.42
486.985	4455.07
487.356	4582.75
487.726	4644.67
488.097	4792.23
488.467	4866.81
488.837	5033.58
489.207	5124.65
489.578	5261.37
489.948	5354.93
490.318	5481.03
490.688	5612.55
491.058	5676.5
491.428	5805.99
491.798	5980.22
492.168	6094.57
492.538	6147.9
492.908	6284.17
493.278	6466.99
493.648	6522.36
494.017	6668.79
494.387	6775.68
494.757	6896.58
495.126	7017.48
495.496	7119.4
495.866	7200.98
496.235	7346.74
496.605	7417.02
496.974	7606.85
497.344	7605.04
497.713	7786.05
498.082	7841.64
498.452	7998.25
498.821	8025.14
499.19	8152.82
499.559	8315.76
499.928	8342.65
500.298	8376.32
500.667	8560.5
501.036	8594.39
501.405	8681.85
501.774	8795.52
502.143	8836.42
502.512	8980.6
502.88	9009.52
503.249	9094.27
503.618	9181.95
503.987	9256.52
504.356	9366.35
504.724	9421.49
505.093	9524.76
505.462	9567.02
505.83	9624.42
506.199	9649.28
506.567	9847.02
506.936	9881.82
507.304	9983.73
507.672	9982.38
508.041	10014.92
508.409	10152.77
508.777	10180.34
509.145	10311.18
509.514	10292.65
509.882	10356.38
510.25	10362.93
510.618	10457.62
510.986	10522.48
511.354	10564.51
511.722	10632.31
512.09	10822.58
512.458	10771.74
512.826	10810.15
513.193	10824.39
513.561	10905.97
513.929	10953.88
514.297	11054.89
514.664	10981.67
515.032	11110.94
515.4	11228.67
515.767	11234.32
516.135	11262.35
516.502	11168.11
516.869	11322.68
517.237	11375.79
517.604	11292.63
517.972	11491.94
518.339	11492.85
518.706	11473.64
519.073	11521.77
519.44	11524.26
519.808	11619.4
520.175	11683.8
520.542	11701.66
520.909	11717.47
521.276	11650.81
521.643	11760.19
522.009	11762.9
522.376	11854.19
522.743	11855.78
523.11	11893.74
523.477	12015.77
523.843	12049.9
524.21	12163.34
524.577	12168.31
524.943	12230.46
525.31	12161.08
525.676	12300.96
526.043	12230.91
526.409	12270.45
526.776	12298.7
527.142	12384.35
527.508	12386.84
527.874	12378.7
528.241	12392.26
528.607	12381.41
528.973	12531.69
529.339	12453.5
529.705	12442.43
530.071	12533.27
530.437	12471.58
530.803	12523.78
531.169	12563.1
531.535	12451.47
531.901	12493.95
532.267	12516.55
532.632	12510.22
532.998	12493.95
533.364	12509.09
533.73	12531.01
534.095	12556.1
534.461	12514.06
534.826	12585.93
535.192	12488.53
535.557	12655.75
535.923	12589.99
536.288	12444.69
536.653	12536.21
537.019	12409.43
537.384	12465.48
537.749	12471.13
538.114	12469.09
538.479	12401.07
538.845	12377.12
539.21	12326.5
539.575	12344.35
539.94	12319.27
540.305	12368.08
540.67	12235.2
541.034	12277.23
541.399	12230.46
541.764	12247.4
542.129	12211.02
542.494	12226.16
542.858	12200.63
543.223	12165.37
543.587	12187.07
543.952	12088.31
544.316	12135.32
544.681	12040.63
545.045	11967.41
545.41	12072.04
545.774	12020.97
546.138	11999.27
546.503	11981.87
546.867	11945.49
547.231	11988.65
547.595	11951.59
547.959	11884.93
548.324	11830.24
548.688	11834.99
549.052	11823.91
549.416	11749.11
549.779	11744.82
550.143	11755.89
550.507	11736
550.871	11716.57
551.235	11634.09
551.599	11670.47
551.962	11634.31
552.326	11615.78
552.689	11696.01
553.053	11564.26
553.417	11585.73
553.78	11652.84
554.143	11569.23
554.507	11571.04
554.87	11521.55
555.234	11630.25
555.597	11494.43
555.96	11498.95
556.323	11508.21
556.686	11544.15
557.05	11524.71
557.413	11469.35
557.776	11488.78
558.139	11517.25
558.502	11549.57
558.865	11506.86
559.228	11513.19
559.59	11499.4
559.953	11449.68
560.316	11549.8
560.679	11582.34
561.041	11563.58
561.404	11517.25
561.767	11576.01
562.129	11518.38
562.492	11560.64
562.854	11560.64
563.217	11569.46
563.579	11598.61
563.941	11582.11
564.304	11610.13
564.666	11632.28
565.028	11641.32
565.39	11558.61
565.753	11715.67
566.115	11628.44
566.477	11727.42
566.839	11682.9
567.201	11719.51
567.563	11664.37
567.925	11740.52
568.287	11780.52
568.648	11721.99
569.01	11822.1
569.372	11804.93
569.734	11691.94
570.095	11756.12
570.457	11889.45
570.819	11778.26
571.18	11762.44
571.542	11865.49
571.903	11886.51
572.265	11834.31
572.626	11938.94
572.987	11841.09
573.349	11904.36
573.71	11889.67
574.071	11951.14
574.432	11928.09
574.794	11992.27
575.155	11959.73
575.516	11983.23
575.877	11967.41
576.238	11986.62
576.599	11973.74
576.96	12049.67
577.32	12091.48
577.681	12069.56
578.042	12033.62
578.403	11991.59
578.763	12145.26
579.124	12025.94
579.485	12102.77
579.845	12037.01
580.206	12034.53
580.566	11992.72
580.927	12041.99
581.287	12122.21
581.648	11934.19
582.008	12061.42
582.368	12062.78
582.728	12107.75
583.089	12086.96
583.449	12052.61
583.809	12020.07
584.169	12109.33
584.529	11981.2
584.889	12098.26
585.249	11973.06
585.609	11965.38
585.969	12017.58
586.329	11930.58
586.688	11998.6
587.048	11928.77
587.408	11947.3
587.768	11904.14
588.127	11921.99
588.487	11828.66
588.846	11948.2
589.206	11884.02
589.565	11893.29
589.925	11946.39
590.284	11886.96
590.643	11932.38
591.003	11905.49
591.362	11942.1
591.721	11840.18
592.08	11889.22
592.44	11912.05
592.799	11864.59
593.158	11884.7
593.517	11851.93
593.876	11874.31
594.235	11807.64
594.593	11823.23
594.952	11822.33
595.311	11813.97
595.67	11843.35
596.029	11841.09
596.387	11912.27
596.746	11867.53
597.104	11783.24
597.463	11798.15
597.822	11915.66
598.18	11796.57
598.538	11746.85
598.897	11875.21
599.255	11846.96
599.613	11910.24
599.972	11829.34
600.33	11817.81
600.688	11823.46
601.046	11780.98
601.404	11904.36
601.762	11756.34
602.12	11931.71
602.478	11905.49
602.836	11805.83
603.194	11837.02
603.552	11844.02
603.91	11800.18
604.268	11823.23
604.625	11834.08
604.983	11845.15
605.341	11809.22
605.698	11839.96
606.056	11874.31
606.413	11858.04
606.771	11848.54
607.128	11901.88
607.485	11828.21
607.843	11803.8
608.2	11820.52
608.557	11926.51
608.914	11852.39
609.272	11936.23
609.629	11902.33
609.986	11999.05
610.343	11849.9
610.7	11974.19
611.057	11982.78
611.414	11985.72
611.771	12025.71
612.127	11901.88
612.484	12018.71
612.841	12075.88
613.198	11941.88
613.554	11984.81
613.911	12117.01
614.267	12068.43
614.624	12077.01
614.98	11952.27
615.337	12081.53
615.693	12041.31
616.05	12075.21
616.406	12093.06
616.762	12096.67
617.118	12085.15
617.475	12133.73
617.831	12088.09
618.187	12055.32
618.543	12101.42
618.899	12137.58
619.255	12215.09
619.611	12182.32
619.967	12236.56
620.323	12159.27
620.678	12136.22
621.034	12105.26
621.39	12176.9
621.746	12090.57
622.101	12279.49
622.457	12159.72
622.812	12180.74
623.168	12248.76
623.523	12258.25
623.879	12243.34
624.234	12196.11
624.589	12226.39
624.945	12185.48
625.3	12199.04
625.655	12268.65
626.01	12233.39
626.365	12273.84
626.72	12173.06
627.075	12217.8
627.43	12138.93
627.785	12157.01
628.14	12140.06
628.495	12166.95
628.85	12139.61
629.205	12127.63
629.559	12170.12
629.914	12096.67
630.269	12133.06
630.623	12090.8
630.978	12049.44
631.332	12085.6
631.687	12094.41
632.041	12040.63
632.396	12139.16
632.75	12026.84
633.104	12026.62
633.459	12033.4
633.813	12037.24
634.167	11949.78
634.521	11979.16
634.875	12018.03
635.229	12006.73
635.583	11829.11
635.937	11903.46
636.291	11899.84
636.645	11919.95
636.999	11857.58
637.352	11834.76
637.706	11785.04
638.06	11810.81
638.413	11852.61
638.767	11815.1
639.121	11895.32
639.474	11768.77
639.828	11760.86
640.181	11782.56
640.534	11822.78
640.888	11686.06
641.241	11681.09
641.594	11717.25
641.947	11695.55
642.301	11648.1
642.654	11701.66
643.007	11726.29
643.36	11673.86
643.713	11580.53
644.066	11709.79
644.419	11620.98
644.771	11511.83
645.124	11431.15
645.477	11437.26
645.83	11323.36
646.182	11332.4
646.535	11263.25
646.888	11301.44
647.24	11202.69
647.593	11368.33
647.945	11287.66
648.298	11213.98
648.65	11305.73
649.002	11164.72
649.355	11244.72
649.707	11188
650.059	11290.14
650.411	11423.24
650.763	11389.57
651.115	11567.2
651.467	11460.08
651.819	11503.24
652.171	11562.22
652.523	11473.64
652.875	11566.97
653.227	11457.14
653.578	11495.33
653.93	11543.02
654.282	11455.56
654.633	11371.72
654.985	11519.29
655.337	11504.6
655.688	11449.01
656.039	11522
656.391	11390.7
656.742	11450.14
657.094	11403.13
657.445	11436.35
657.796	11387.99
658.147	11416.24
658.498	11477.25
658.849	11481.32
659.2	11419.18
659.551	11425.05
659.902	11481.77
660.253	11404.49
660.604	11491.27
660.955	11467.54
661.306	11611.04
661.656	11508.44
662.007	11471.61
662.358	11493.3
662.708	11511.83
663.059	11467.99
663.409	11469.12
663.76	11520.19
664.11	11533.75
664.461	11467.09
664.811	11533.3
665.161	11473.19
665.511	11444.49
665.862	11507.08
666.212	11574.65
666.562	11533.52
666.912	11482.9
667.262	11454.43
667.612	11519.74
667.962	11486.07
668.312	11529
668.662	11580.53
669.011	11503.47
669.361	11539.63
669.711	11458.72
670.06	11518.61
670.41	11461.66
670.76	11403.58
671.109	11437.26
671.459	11518.16
671.808	11462.11
672.157	11495.11
672.507	11413.98
672.856	11327.2
673.205	11435.67
673.554	11439.74
673.904	11438.61
674.253	11450.59
674.602	11431.38
674.951	11227.77
675.3	11152.97
675.649	11393.64
675.998	11302.8
676.346	11318.84
676.695	11372.62
677.044	11246.07
677.393	11298.05
677.741	11320.65
678.09	11326.98
678.438	11293.76
678.787	11286.98
679.135	11298.73
679.484	11115
679.832	11277.49
680.181	11173.76
680.529	11168.34
680.877	11143.03
681.225	11128.79
681.573	11227.54
681.922	11161.33
682.27	11079.75
682.618	11104.16
682.966	11095.57
683.314	11087.43
683.661	11041.56
684.009	11019.41
684.357	10971.28
684.705	10941.45
685.053	10890.15
685.4	10966.53
685.748	10853.54
686.095	10861.45
686.443	10826.65
686.79	10854.67
687.138	10786.88
687.485	10807.44
687.832	10680.21
688.18	10778.97
688.527	10620.55
688.874	10571.29
689.221	10669.14
689.568	10660.33
689.915	10592.98
690.262	10581.91
690.609	10504.4
690.956	10473.89
691.303	10348.92
691.65	10365.65
691.997	10409.26
692.344	10317.74
692.69	10256.5
693.037	10357.06
693.383	10198.87
693.73	10214.24
694.077	10165.42
694.423	10151.41
694.769	10156.61
695.116	10074.13
695.462	10073.9
695.808	10023.06
696.155	10094.92
696.501	9990.74
696.847	9919.78
697.193	9913
697.539	9870.07
697.885	9801.82
698.231	9776.96
698.577	9800.69
698.923	9773.57
699.269	9646.34
699.614	9647.7
699.96	9583.07
700.306	9611.32
700.651	9530.41
700.997	9540.58
701.342	9527.25
701.688	9450.19
702.033	9446.12
702.379	9436.86
702.724	9435.73
703.069	9434.6
703.415	9301.27
703.76	9334.94
704.105	9306.01
704.45	9309.4
704.795	9228.95
705.14	9161.84
705.485	9135.62
705.83	9099.01
706.175	9107.37
706.52	9074.38
706.865	9075.96
707.209	9072.12
707.554	9005.23
707.899	9018.34
708.243	8897.66
708.588	8950.77
708.932	8858.11
709.277	8823.54
709.621	8865.35
709.966	8787.16
710.31	8807.95
710.654	8746.71
710.998	8729.76
711.342	8728.4
711.687	8698.8
712.031	8657.89
712.375	8635.97
712.719	8652.92
713.063	8664.9
713.407	8664.45
713.75	8620.61
714.094	8588.07
714.438	8532.7
714.782	8535.86
715.125	8524.56
715.469	8521.17
715.812	8490.67
716.156	8505.36
716.499	8464.68
716.843	8460.38
717.186	8402.53
717.53	8523.21
717.873	8480.5
718.216	8468.75
718.559	8318.47
718.902	8356.88
719.246	8422.42
719.589	8355.08
719.932	8307.39
720.275	8349.43
720.617	8341.74
720.96	8334.74
721.303	8297.9
721.646	8255.64
721.989	8274.85
722.331	8300.16
722.674	8210.22
723.016	8280.73
723.359	8203.22
723.701	8214.74
724.044	8215.42
724.386	8149.43
724.729	8172.71
725.071	8127.51
725.413	8143.78
725.755	8134.29
726.097	8111.02
726.439	8117.57
726.782	8142.43
727.124	8158.47
727.465	8119.83
727.807	8051.13
728.149	8087.29
728.491	8081.86
728.833	8137.68
729.175	8083.22
729.516	8078.7
729.858	8045.93
730.199	8038.93
730.541	8036.89
730.882	8065.14
731.224	8048.19
731.565	8071.47
731.906	8003
732.248	8048.19
732.589	8028.53
732.93	8009.1
733.271	8071.24
733.612	8066.95
733.953	8060.4
734.294	7993.5
734.635	8017.46
734.976	8024.69
735.317	8026.05
735.658	8052.49
735.999	7939.72
736.339	8006.39
736.68	8101.98
737.021	8050.45
737.361	8003
737.702	8062.2
738.042	8078.7
738.383	8042.09
738.723	8080.96
739.063	8066.5
739.404	8093.61
739.744	8075.31
740.084	8070.34
740.424	8107.63
740.764	8118.7
741.104	8094.74
741.444	8066.95
741.784	8070.79
742.124	8140.17
742.464	8174.74
742.804	8131.35
743.143	8193.5
743.483	8220.39
743.823	8152.82
744.162	8235.08
744.502	8237.57
744.841	8273.5
745.181	8297.23
745.52	8285.25
745.86	8321.86
746.199	8362.53
746.538	8412.48
746.877	8371.35
747.216	8450.67
747.556	8440.27
747.895	8552.59
748.234	8594.17
748.573	8624
748.911	8681.4
749.25	8703.09
749.589	8759.81
749.928	8833.03
750.267	8897.44
750.605	8932.69
750.944	8990.99
751.283	9040.93
751.621	9065.11
751.96	9152.34
752.298	9205.22
752.636	9278.22
752.975	9354.6
753.313	9470.98
753.651	9567.93
753.989	9582.84
754.327	9759.11
754.666	9768.37
755.004	9898.77
755.342	10011.98
755.679	10132.43
756.017	10180.79
756.355	10334.23
756.693	10414.23
757.031	10600.67
757.368	10621.46
757.706	10815.58
758.044	10889.93
758.381	11067.1
758.719	11149.35
759.056	11317.26
759.394	11472.74
759.731	11492.85
760.068	11640.19
760.405	11772.16
760.743	11816.23
761.08	12102.32
761.417	12160.17
761.754	12292.83
762.091	12383.67
762.428	12515.42
762.765	12601.07
763.102	12798.12
763.438	13015.29
763.775	13009.87
764.112	13236.08
764.449	13316.75
764.785	13433.59
765.122	13465.9
765.458	13572.11
765.795	13680.59
766.131	13864.76
766.467	13970.52
766.804	14080.35
767.14	14118.09
767.476	14258.88
767.812	14346.11
768.148	14571.18
768.485	14538.19
768.821	14681.92
769.157	14771.86
769.492	14791.74
769.828	14978.63
770.164	14977.28
770.5	15083.04
770.836	15227.66
771.171	15231.05
771.507	15345.63
771.842	15326.65
772.178	15462.01
772.513	15442.12
772.849	15545.4
773.184	15632.4
773.519	15706.52
773.855	15770.7
774.19	15713.3
774.525	15804.15
774.86	15848.21
775.195	15912.84
775.53	15953.75
775.865	15924.6
776.2	15982.9
776.535	15905.16
776.87	16018.6
777.205	15993.07
777.539	16040.98
777.874	16120.52
778.209	16020.86
778.543	16079.85
778.878	15981.54
779.212	16095.89
779.547	16072.84
779.881	16052.28
780.215	16054.76
780.55	16070.13
780.884	16032.62
781.218	16019.73
781.552	16141.99
781.886	16011.82
782.22	15994.42
782.554	16010.24
782.888	16033.07
783.222	15904.71
783.556	15926.4
783.889	15933.86
784.223	15854.54
784.557	15862
784.89	16008.44
785.224	15883.69
785.557	15897.25
785.891	15864.94
786.224	15796.01
786.558	15875.33
786.891	15782.9
787.224	15698.39
787.557	15694.09
787.891	15718.05
788.224	15664.49
788.557	15725.5
788.89	15708.56
789.223	15742.45
789.556	15586.53
789.888	15644.6
790.221	15517.83
790.554	15491.39
790.887	15530.26
791.219	15407.77
791.552	15358.28
791.884	15350.83
792.217	15407.55
792.549	15318.28
792.882	15288.23
793.214	15183.6
793.546	15272.86
793.879	15156.03
794.211	15057.95
794.543	15154.45
794.875	15159.42
795.207	15161.45
795.539	15102.47
795.871	15056.14
796.203	14956.49
796.535	14881.23
796.867	14949.48
797.198	14938.63
797.53	14829.03
797.862	14730.28
798.193	14868.35
798.525	14698.19
798.856	14853.66
799.188	14664.52
799.519	14612.77
799.85	14531.41
800.182	14571.18
800.513	14475.82
800.844	14506.1
801.175	14494.35
801.506	14482.83
801.837	14381.59
802.168	14355.15
802.499	14356.73
802.83	14276.73
803.161	14271.08
803.491	14238.09
803.822	14223.17
804.153	14161.03
804.483	14059.56
804.814	14093.91
805.145	14053.46
805.475	14032.89
805.805	14024.76
806.136	14034.93
806.466	13888.49
806.796	13949.96
807.126	13777.76
807.457	13801.04
807.787	13791.77
808.117	13751.55
808.447	13662.51
808.777	13788.83
809.107	13690.76
809.436	13657.08
809.766	13728.95
810.096	13643.07
810.426	13563.98
810.755	13552.45
811.085	13520.36
811.414	13523.53
811.744	13414.83
812.073	13406.7
812.403	13367.37
812.732	13348.39
813.061	13314.04
813.39	13267.49
813.719	13276.76
814.049	13301.61
814.378	13236.3
814.707	13209.86
815.036	13093.03
815.365	13102.97
815.693	13025.91
816.022	13012.81
816.351	12988.4
816.68	12918.12
817.008	12906.6
817.337	12846.94
817.665	12788.86
817.994	12861.4
818.322	12831.57
818.651	12838.35
818.979	12705.92
819.307	12815.75
819.636	12866.37
819.964	12702.08
820.292	12752.7
820.62	12725.58
820.948	12659.37
821.276	12713.61
821.604	12650.56
821.932	12655.98
822.259	12717.67
822.587	12577.34
822.915	12622.99
823.243	12682.87
823.57	12576.21
823.898	12703.66
824.225	12614.85
824.553	12691.23
824.88	12696.21
825.207	12617.56
825.535	12592.71
825.862	12640.84
826.189	12600.39
826.516	12697.11
826.843	12694.85
827.17	12754.28
827.497	12725.36
827.824	12696.43
828.151	12716.32
828.478	12614.17
828.805	12794.28
829.131	12598.36
829.458	12647.39
829.785	12607.62
830.111	12693.95
830.438	12656.88
830.764	12754.28
831.09	12684.23
831.417	12601.97
831.743	12695.98
832.069	12652.59
832.395	12671.8
832.722	12657.34
833.048	12598.36
833.374	12638.81
833.7	12554.74
834.026	12594.74
834.351	12592.48
834.677	12493.5
835.003	12617.79
835.329	12503.22
835.654	12545.7
835.98	12507.06
836.306	12499.6
836.631	12455.53
836.956	12541.63
837.282	12523.78
837.607	12361.75
837.932	12397.23
838.258	12370.11
838.583	12292.37
838.908	12265.93
839.233	12397
839.558	12281.08
839.883	12300.96
840.208	12223
840.533	12270.91
840.858	12308.42
841.182	12221.19
841.507	12196.11
841.832	12181.64
842.156	12118.59
842.481	12145.94
842.805	12063.68
843.13	12067.07
843.454	12060.74
843.778	11976.9
844.103	11959.73
844.427	11992.27
844.751	11930.35
845.075	11975.09
845.399	11876.34
845.723	11769.45
846.047	11850.35
846.371	11772.16
846.695	11771.48
847.019	11632.05
847.343	11620.08
847.666	11512.28
847.99	11461.21
848.313	11550.93
848.637	11401.55
848.96	11370.36
849.284	11385.51
849.607	11287.88
849.931	11261.67
850.254	11224.61
850.577	11115.46
850.9	11097.15
851.223	11041.33
851.546	10960.43
851.869	10893.32
852.192	10922.24
852.515	10864.62
852.838	10839.98
853.161	10816.93
853.483	10793.2
853.806	10719.99
854.129	10689.03
854.451	10665.3
854.774	10578.52
855.096	10508.24
855.419	10541.23
855.741	10547.56
856.063	10440.45
856.385	10502.82
856.708	10452.87
857.03	10365.19
857.352	10410.16
857.674	10381.01
857.996	10319.77
858.318	10265.76
858.64	10297.62
858.961	10245.65
859.283	10138.76
859.605	10148.93
859.926	10182.37
860.248	10168.36
860.57	10020.12
860.891	10136.05
861.212	10053.56
861.534	10047.24
861.855	10025.54
862.176	10005.2
862.498	9966.11
862.819	9950.74
863.14	9915.26
863.461	9920.69
863.782	9906.9
864.103	9867.58
864.424	9834.36
864.745	9793.68
865.065	9770.41
865.386	9777.64
865.707	9715.72
866.027	9793.23
866.348	9725.89
866.668	9756.17
866.989	9670.75
867.309	9604.54
867.63	9674.82
867.95	9698.54
868.27	9642.27
868.59	9563.63
868.91	9599.11
869.23	9617.42
869.55	9505.56
869.87	9633.01
870.19	9500.81
870.51	9521.37
870.83	9516.18
871.15	9498.78
871.469	9463.75
871.789	9541.71
872.109	9419.46
872.428	9418.33
872.748	9494.71
873.067	9404.77
873.386	9432.79
873.706	9388.95
874.025	9356.18
874.344	9338.78
874.663	9259.01
874.982	9305.79
875.301	9261.04
875.62	9304.66
875.939	9290.65
876.258	9311.89
876.577	9196.86
876.896	9244.55
877.214	9172.68
877.533	9188.05
877.852	9229.4
878.17	9189.18
878.489	9166.13
878.807	9144.89
879.125	9071.67
879.444	9111.44
879.762	9057.88
880.08	9083.42
880.398	9056.98
880.716	9075.06
881.034	8969.98
881.352	9058.34
881.67	9030.09
881.988	9044.55
882.306	8951.22
882.624	8943.08
882.941	8830.32
883.259	8840.71
883.577	8805.91
883.894	8831.45
884.212	8747.83
884.529	8805.46
884.846	8715.07
885.164	8799.59
885.481	8711.9
885.798	8785.8
886.115	8741.51
886.432	8699.02
886.75	8613.38
887.067	8623.54
887.383	8604.34
887.7	8636.65
888.017	8620.38
888.334	8556.65
888.651	8513.94
888.967	8529.99
889.284	8477.56
889.6	8429.43
889.917	8365.47
890.233	8400.05
890.55	8304.23
890.866	8377.9
891.182	8312.82
891.498	8305.36
891.815	8333.16
892.131	8324.12
892.447	8235.76
892.763	8200.73
893.079	8137
893.395	8193.05
893.71	8127.06
894.026	8144.01
894.342	8060.62
894.657	8016.33
894.973	8042.32
895.289	8005.93
895.604	8024.46
895.92	7944.24
896.235	7964.13
896.55	7968.19
896.865	7874.64
897.181	7912.83
897.496	7841.64
897.811	7847.75
898.126	7764.81
898.441	7723
898.756	7694.3
899.071	7733.17
899.386	7668.99
899.7	7655.89
900.015	7607.53
900.33	7507.87
900.644	7518.94
900.959	7556.23
901.273	7509.9
901.588	7459.28
901.902	7373.41
902.216	7402.33
902.531	7369.79
902.845	7374.31
903.159	7312.62
903.473	7267.42
903.787	7292.96
904.101	7290.47
904.415	7210.25
904.729	7162.11
905.042	7167.09
905.356	7132.28
905.67	7133.64
905.984	7116.24
906.297	7055.9
906.611	7009.58
906.924	7011.84
907.237	6975.45
907.551	7027.2
907.864	6893.19
908.177	6917.15
908.491	6896.13
908.804	6838.96
909.117	6765.06
909.43	6765.97
909.743	6744.72
910.056	6759.86
910.368	6746.76
910.681	6699.98
910.994	6635.8
911.307	6634.67
911.619	6580.43
911.932	6584.73
912.244	6563.26
912.557	6545.41
912.869	6487.33
913.181	6517.39
913.494	6435.35
913.806	6422.92
914.118	6387.22
914.43	6257.5
914.742	6348.58
915.054	6316.26
915.366	6289.59
915.678	6281.01
915.99	6250.05
916.302	6202.82
916.613	6207.11
916.925	6169.6
917.236	6183.16
917.548	6145.87
917.859	6121.69
918.171	6056.83
918.482	6061.58
918.794	6014.35
919.105	6016.16
919.416	5987
919.727	6013.67
920.038	5924.63
920.349	5914.69
920.66	5831.98
920.971	5895.93
921.282	5850.51
921.593	5787.23
921.903	5776.16
922.214	5773
922.525	5761.92
922.835	5714.92
923.146	5644.19
923.456	5694.58
923.767	5662.27
924.077	5635.83
924.387	5667.01
924.697	5559.67
925.008	5597.41
925.318	5511.99
925.628	5535.49
925.938	5506.79
926.248	5433.57
926.558	5444.64
926.867	5436.06
927.177	5433.12
927.487	5360.81
927.796	5370.97
928.106	5322.39
928.416	5289.85
928.725	5207.14
929.034	5246.68
929.344	5286.23
929.653	5237.64
929.962	5204.88
930.271	5168.72
930.581	5162.17
930.89	5130.08
931.199	5067.93
931.508	5101.38
931.817	5069.29
932.125	5055.73
932.434	5060.47
932.743	4977.76
933.051	4975.96
933.36	4949.52
933.669	4923.53
933.977	4951.32
934.286	4910.87
934.594	4911.1
934.902	4836.07
935.21	4832.01
935.519	4816.41
935.827	4807.37
936.135	4760.14
936.443	4738.22
936.751	4778
937.059	4762.85
937.367	4702.74
937.674	4673.14
937.982	4665.68
938.29	4648.73
938.597	4654.16
938.905	4560.37
939.213	4616.19
939.52	4565.12
939.827	4606.7
940.135	4530.77
940.442	4545.01
940.749	4475.63
941.056	4509.08
941.363	4468.85
941.67	4455.52
941.977	4394.28
942.284	4374.39
942.591	4374.39
942.898	4353.83
943.205	4336.2
943.511	4302.75
943.818	4300.04
944.125	4251.46
944.431	4272.47
944.738	4267.05
945.044	4212.14
945.35	4244.9
945.657	4202.42
945.963	4146.83
946.269	4174.4
946.575	4114.06
946.881	4149.99
947.187	4067.51
947.493	4112.02
947.799	4091.69
948.105	4090.1
948.41	4075.64
948.716	4004.46
949.022	4010.78
949.327	4001.97
949.633	3954.06
949.938	3984.34
950.244	3941.41
950.549	3922.65
950.854	3881.3
951.16	3894.18
951.465	3943.44
951.77	3885.14
952.075	3842.65
952.38	3794.74
952.685	3803.56
952.99	3794.29
953.294	3765.14
953.599	3729.21
953.904	3753.84
954.209	3732.15
954.513	3720.17
954.818	3729.21
955.122	3658.03
955.426	3688.98
955.731	3641.3
956.035	3653.28
956.339	3640.4
956.643	3610.57
956.948	3571.02
957.252	3596.11
957.556	3584.58
957.86	3550.01
958.163	3516.33
958.467	3548.65
958.771	3495.54
959.075	3525.83
959.378	3498.03
959.682	3463
959.985	3473.17
960.289	3406.73
960.592	3390.46
960.896	3441.76
961.199	3376.22
961.502	3408.54
961.805	3365.38
962.108	3320.63
962.411	3319.96
962.714	3316.34
963.017	3291.03
963.32	3291.71
963.623	3258.26
963.926	3286.28
964.228	3300.07
964.531	3223.23
964.833	3211.03
965.136	3174.87
965.438	3187.08
965.741	3202.67
966.043	3161.09
966.345	3151.15
966.648	3132.39
966.95	3141.65
967.252	3089.45
967.554	3093.07
967.856	3107.98
968.158	3051.71
968.46	3066.18
968.761	3071.15
969.063	3000.19
969.365	3043.35
969.666	3035.67
969.968	2989.12
970.269	2985.5
970.571	2962.45
970.872	2975.56
971.174	2926.29
971.475	2902.79
971.776	2919.29
972.077	2917.03
972.378	2894.2
972.679	2919.06
972.98	2916.35
973.281	2868.89
973.582	2887.2
973.883	2826.86
974.183	2843.81
974.484	2810.59
974.785	2802
975.085	2797.48
975.386	2799.74
975.686	2771.95
975.986	2740.99
976.287	2749.57
976.587	2681.78
976.887	2704.6
977.187	2717.26
977.487	2705.51
977.787	2645.4
978.087	2628.22
978.387	2644.27
978.687	2645.17
978.987	2629.58
979.286	2642.91
979.586	2630.26
979.885	2604.72
980.185	2600.88
980.484	2551.39
980.784	2553.87
981.083	2540.77
981.382	2540.09
981.682	2545.74
981.981	2550.94
982.28	2528.11
982.579	2518.85
982.878	2491.73
983.177	2496.02
983.475	2430.49
983.774	2426.87
984.073	2413.76
984.372	2415.8
984.67	2431.16
984.969	2401.56
985.267	2389.36
985.566	2376.93
985.864	2339.87
986.162	2389.58
986.461	2334.44
986.759	2337.61
987.057	2337.83
987.355	2329.25
987.653	2315.91
987.951	2277.95
988.249	2277.95
988.547	2287.21
988.844	2283.6
989.142	2304.84
989.44	2257.61
989.737	2250.83
990.035	2226.65
990.332	2232.53
990.63	2234.56
990.927	2199.53
991.224	2196.82
991.521	2176.71
991.819	2176.48
992.116	2160.89
992.413	2193.66
992.71	2148.46
993.006	2145.07
993.303	2120.21
993.6	2105.07
993.897	2125.86
994.193	2129.25
994.49	2115.47
994.787	2026.43
995.083	2062.59
995.379	2064.85
995.676	2032.31
995.972	2045.86
996.268	2035.02
996.565	2009.03
996.861	1994.34
997.157	1996.83
997.453	1992.76
997.749	2003.61
998.044	1975.13
998.34	1975.13
998.636	1960.44
998.932	1931.97
999.227	1952.08
999.523	1914.57
999.818	1910.73
1000.114	1891.52
1000.409	1910.27
1000.704	1885.19
1001	1868.92
1001.295	1867.56
1001.59	1865.08
1001.885	1910.5
1002.18	1835.02
1002.475	1827.34
1002.77	1807.45
1003.065	1804.97
1003.359	1791.18
1003.654	1793.67
1003.949	1791.63
1004.243	1757.06
1004.538	1739.21
1004.832	1759.09
1005.127	1725.42
1005.421	1727.23
1005.715	1716.16
1006.009	1718.64
1006.304	1689.04
1006.598	1713.9
1006.892	1655.82
1007.186	1693.78
1007.48	1676.38
1007.773	1676.16
1008.067	1656.72
1008.361	1644.74
1008.655	1636.16
1008.948	1624.63
1009.242	1618.53
1009.535	1617.85
1009.829	1572.88
1010.122	1575.82
1010.415	1558.19
1010.708	1580.34
1011.001	1546.89
1011.295	1535.82
1011.588	1552.09
1011.881	1522.94
1012.173	1509.61
1012.466	1513.67
1012.759	1515.26
1013.052	1479.78
1013.344	1493.34
1013.637	1480.46
1013.93	1463.05
1014.222	1454.02
1014.514	1430.97
1014.807	1421.02
1015.099	1456.95
1015.391	1415.15
1015.683	1412.89
1015.976	1435.26
1016.268	1401.81
1016.56	1392.32
1016.851	1402.94
1017.143	1337.18
1017.435	1368.14
1017.727	1353.45
1018.018	1349.84
1018.31	1353.68
1018.602	1344.64
1018.893	1318.88
1019.185	1322.95
1019.476	1310.74
1019.767	1302.61
1020.058	1295.38
1020.35	1295.83
1020.641	1286.79
1020.932	1268.48
1021.223	1272.78
1021.514	1245.43
1021.804	1240.24
1022.095	1253.34
1022.386	1258.77
1022.677	1221.03
1022.967	1217.86
1023.258	1197.07
1023.548	1193.23
1023.839	1196.62
1024.129	1176.28
1024.419	1171.99
1024.709	1196.4
1025	1167.7
1025.29	1167.7
1025.58	1153.91
1025.87	1117.75
1026.16	1129.05
1026.449	1142.61
1026.739	1126.34
1027.029	1127.7
1027.319	1110.75
1027.608	1091.99
1027.898	1081.37
1028.187	1075.04
1028.477	1074.36
1028.766	1076.4
1029.055	1062.39
1029.344	1061.94
1029.634	1046.12
1029.923	1024.42
1030.212	1064.87
1030.501	1064.87
1030.79	1036.85
1031.078	1007.25
1031.367	1024.65
1031.656	1027.59
1031.945	1007.02
1032.233	985.1
1032.522	988.26
1032.81	984.88
1033.099	983.97
1033.387	956.4
1033.675	964.76
1033.963	982.16
1034.251	957.98
1034.54	960.92
1034.828	965.44
1035.116	938.77
1035.403	937.42
1035.691	938.55
1035.979	927.02
1036.267	939.23
1036.554	902.84
1036.842	892.45
1037.129	906.46
1037.417	899.23
1037.704	906.23
1037.992	887.93
1038.279	861.71
1038.566	876.18
1038.853	876.18
1039.14	876.18
