Data from hue_26_FLMS001491_00054.txt Node
Date: Tue Feb 07 17:14:12 GMT 2017
User: dcchb
Spectrometer: FLMS00149
Trigger mode: 0
Integration Time (sec): 2.000000E-2
Scans to average: 10
Electric dark correction enabled: true
Nonlinearity correction enabled: false
Boxcar width: 0
XAxis mode: Wavelengths
Number of Pixels in Spectrum: 2048
>>>>>Begin Spectral Data<<<<<
341.393	-9.31
341.776	-9.31
342.16	-9.31
342.543	-52.7
342.927	-68.29
343.31	-64.67
343.693	-67.16
344.077	-45.24
344.46	-67.39
344.843	-59.93
345.226	-29.87
345.61	-38.46
345.993	-6.37
346.376	-4.56
346.759	8.32
347.142	17.36
347.525	40.41
347.908	64.36
348.291	74.31
348.674	80.86
349.057	98.03
349.44	121.08
349.823	121.08
350.206	157.02
350.588	187.75
350.971	199.27
351.354	239.5
351.737	239.73
352.119	237.69
352.502	252.15
352.884	276.56
353.267	272.94
353.65	296
354.032	289.22
354.414	322.89
354.797	317.69
355.179	309.78
355.562	312.94
355.944	321.08
356.326	321.31
356.709	324.47
357.091	322.44
357.473	335.09
357.855	338.25
358.238	368.31
358.62	339.61
359.002	309.33
359.384	340.74
359.766	341.87
360.148	328.54
360.53	339.38
360.912	319.5
361.294	340.97
361.676	306.39
362.057	323.56
362.439	332.15
362.821	337.8
363.203	324.92
363.584	325.6
363.966	316.33
364.348	332.83
364.729	317.92
365.111	308.42
365.493	316.79
365.874	311.59
366.256	307.07
366.637	306.16
367.019	314.53
367.4	310.91
367.781	299.61
368.163	305.49
368.544	298.03
368.925	313.62
369.306	330.12
369.688	315.2
370.069	308.2
370.45	316.33
370.831	335.09
371.212	316.11
371.593	293.74
371.974	307.07
372.355	316.56
372.736	314.75
373.117	335.77
373.498	316.56
373.879	314.75
374.26	318.59
374.641	312.72
375.021	288.09
375.402	329.21
375.783	339.61
376.163	322.44
376.544	328.99
376.925	335.09
377.305	327.63
377.686	310.23
378.066	309.1
378.447	315.43
378.827	302.55
379.208	335.32
379.588	319.72
379.968	322.21
380.349	329.89
380.729	335.77
381.109	340.06
381.489	345.49
381.87	335.32
382.25	326.73
382.63	314.98
383.01	327.86
383.39	350.23
383.77	350
384.15	359.95
384.53	349.78
384.91	365.82
385.29	336.67
385.67	335.54
386.049	341.42
386.429	351.36
386.809	375.54
387.189	347.07
387.568	352.94
387.948	370.8
388.328	353.62
388.707	357.91
389.087	354.98
389.466	380.74
389.846	364.02
390.225	364.24
390.605	362.21
390.984	357.69
391.363	379.38
391.743	373.28
392.122	368.99
392.501	371.02
392.881	367.86
393.26	370.12
393.639	383.9
394.018	363.56
394.397	363.79
394.776	400.17
395.155	379.38
395.534	367.18
395.913	364.02
396.292	401.98
396.671	375.77
397.05	376.44
397.429	391.36
397.808	394.98
398.186	376.22
398.565	374.41
398.944	396.78
399.323	386.84
399.701	373.51
400.08	369.89
400.458	417.57
400.837	393.85
401.215	398.14
401.594	407.4
401.972	381.19
402.351	385.26
402.729	376.9
403.107	402.66
403.486	408.99
403.864	419.16
404.242	421.19
404.62	426.16
404.999	397.24
405.377	432.71
405.755	430
406.133	428.65
406.511	397.46
406.889	418.25
407.267	431.58
407.645	432.26
408.023	437.01
408.401	461.19
408.779	422.09
409.156	430.68
409.534	446.27
409.912	468.87
410.29	476.33
410.667	459.38
411.045	438.14
411.422	474.3
411.8	463.45
412.178	469.78
412.555	474.97
412.933	465.93
413.31	468.87
413.687	470.68
414.065	457.57
414.442	486.95
414.819	474.07
415.197	484.46
415.574	496.44
415.951	494.86
416.328	508.64
416.705	490.57
417.082	512.26
417.46	498.93
417.837	506.61
418.214	492.83
418.591	512.94
418.967	497.57
419.344	510.68
419.721	520.4
420.098	532.37
420.475	540.96
420.852	535.31
421.228	513.16
421.605	525.14
421.982	518.14
422.358	527.63
422.735	556.33
423.111	537.12
423.488	557.46
423.864	544.12
424.241	543.22
424.617	552.94
424.994	587.96
425.37	573.28
425.746	552.03
426.123	573.28
426.499	568.53
426.875	570.34
427.251	574.86
427.627	594.52
428.003	579.6
428.379	619.15
428.756	600.62
429.132	618.25
429.507	619.38
429.883	632.71
430.259	630.9
430.635	615.53
431.011	631.35
431.387	633.16
431.763	638.13
432.138	649.88
432.514	648.75
432.89	645.82
433.265	669.32
433.641	665.02
434.016	676.1
434.392	692.14
434.767	715.19
435.143	669.09
435.518	713.84
435.894	722.42
436.269	720.62
436.644	717.23
437.02	731.92
437.395	727.4
437.77	728.3
438.145	747.96
438.52	743.89
438.895	751.35
439.271	739.83
439.646	737.57
440.021	765.14
440.395	751.58
440.77	767.62
441.145	763.33
441.52	773.72
441.895	780.95
442.27	791.35
442.645	776.21
443.019	795.42
443.394	800.61
443.769	801.29
444.143	786.83
444.518	802.65
444.892	809.65
445.267	847.39
445.641	814.4
446.016	836.32
446.39	835.42
446.764	828.18
447.139	823.44
447.513	829.77
447.887	820.28
448.262	851.23
448.636	872.7
449.01	883.78
449.384	860.5
449.758	852.82
450.132	886.49
450.506	870.44
450.88	896.43
451.254	881.74
451.628	891.46
452.002	928.97
452.376	897.11
452.75	918.58
453.123	936.2
453.497	923.78
453.871	921.97
454.244	931.01
454.618	954.28
454.992	966.49
455.365	957.9
455.739	992.25
456.112	1004.9
456.486	1017.56
456.859	995.64
457.232	1013.49
457.606	1014.85
457.979	1043.55
458.352	1062.08
458.725	1043.09
459.099	1058.69
459.472	1078.12
459.845	1108.86
460.218	1108.63
460.591	1077.44
460.964	1117.22
461.337	1154.73
461.71	1142.98
462.083	1177.55
462.456	1173.03
462.829	1154.96
463.201	1177.55
463.574	1213.26
463.947	1204.45
464.32	1227.04
464.692	1253.26
465.065	1232.69
465.438	1265.01
465.81	1276.31
466.183	1297.55
466.555	1323.99
466.928	1328.96
467.3	1351.56
467.672	1340.71
468.045	1387.72
468.417	1423.42
468.789	1388.62
469.161	1406.7
469.534	1466.13
469.906	1453.03
470.278	1464.1
470.65	1505.23
471.022	1546.81
471.394	1556.98
471.766	1556.98
472.138	1547.71
472.51	1606.92
472.882	1661.16
473.253	1635.39
473.625	1690.31
473.997	1718.33
474.369	1715.39
474.74	1780.02
475.112	1780.48
475.484	1777.76
475.855	1861.6
476.227	1866.12
476.598	1928.04
476.97	1917.2
477.341	1988.61
477.713	2002.84
478.084	2034.03
478.455	2116.51
478.827	2107.7
479.198	2153.8
479.569	2188.15
479.94	2231.99
480.311	2288.71
480.682	2336.85
481.053	2347.24
481.424	2460.01
481.795	2464.3
482.166	2464.3
482.537	2561.25
482.908	2559.21
483.279	2610.74
483.65	2677.4
484.021	2755.82
484.391	2776.61
484.762	2813.67
485.133	2882.14
485.503	2925.08
485.874	2951.07
486.244	2992.65
486.615	3073.32
486.985	3096.83
487.356	3197.61
487.726	3236.26
488.097	3284.39
488.467	3302.7
488.837	3371.17
489.207	3409.13
489.578	3510.83
489.948	3551.5
490.318	3593.99
490.688	3649.58
491.058	3687.54
491.428	3720.99
491.798	3780.65
492.168	3837.6
492.538	3869.69
492.908	3977.03
493.278	4000.98
493.648	4021.32
494.017	4032.39
494.387	4105.84
494.757	4136.8
495.126	4212.05
495.496	4188.55
495.866	4280.3
496.235	4339.28
496.605	4341.76
496.974	4403.68
497.344	4454.98
497.713	4475.09
498.082	4501.99
498.452	4556.22
498.821	4575.2
499.19	4619.95
499.559	4704.47
499.928	4708.53
500.298	4749.21
500.667	4763.67
501.036	4828.98
501.405	4802.32
501.774	4844.8
502.143	4882.77
502.512	4925.03
502.88	4949.66
503.249	4979.04
503.618	5038.02
503.987	5079.37
504.356	5056.77
504.724	5111.24
505.093	5097.68
505.462	5140.61
505.83	5190.78
506.199	5223.55
506.567	5240.05
506.936	5293.6
507.304	5366.14
507.672	5289.76
508.041	5341.74
508.409	5425.8
508.777	5447.95
509.145	5448.63
509.514	5499.7
509.882	5513.71
510.25	5543.77
510.618	5569.75
510.986	5582.64
511.354	5654.5
511.722	5646.81
512.09	5688.4
512.458	5626.93
512.826	5730.43
513.193	5769.52
513.561	5756.87
513.929	5822.18
514.297	5854.04
514.664	5864.66
515.032	5903.76
515.4	5936.75
515.767	5973.59
516.135	5995.96
516.502	5961.83
516.869	6071.21
517.237	6054.26
517.604	6026.24
517.972	6097.65
518.339	6105.33
518.706	6141.72
519.073	6150.53
519.44	6204.54
519.808	6245.9
520.175	6227.59
520.542	6352.78
520.909	6340.58
521.276	6350.3
521.643	6413.57
522.009	6389.85
522.376	6478.43
522.743	6499.45
523.11	6542.38
523.477	6588.26
523.843	6579.67
524.21	6638.88
524.577	6687.01
524.943	6703.06
525.31	6706.67
525.676	6792.32
526.043	6785.99
526.409	6842.72
526.776	6932.43
527.142	6943.5
527.508	7004.75
527.874	7025.08
528.241	7061.69
528.607	7040.22
528.973	7155.25
529.339	7145.31
529.705	7242.93
530.071	7263.95
530.437	7270.95
530.803	7323.15
531.169	7304.4
531.535	7314.57
531.901	7359.09
532.267	7421.46
532.632	7446.32
532.998	7500.33
533.364	7555.47
533.73	7529.25
534.095	7635.69
534.461	7607.44
534.826	7701
535.192	7726.99
535.557	7782.58
535.923	7791.84
536.288	7788.45
536.653	7833.65
537.019	7844.72
537.384	7805.85
537.749	7911.39
538.114	7922.24
538.479	7969.92
538.845	7971.05
539.21	8029.35
539.575	8042.91
539.94	8055.11
540.305	8213.53
540.67	8091.72
541.034	8169.91
541.399	8217.37
541.764	8250.36
542.129	8253.53
542.494	8287.65
542.858	8315.67
543.223	8309.8
543.587	8391.38
543.952	8386.63
544.316	8408.32
544.681	8472.5
545.045	8502.78
545.41	8573.97
545.774	8581.88
546.138	8569.9
546.503	8657.36
546.867	8643.8
547.231	8749.11
547.595	8737.13
547.959	8771.25
548.324	8765.6
548.688	8841.31
549.052	8928.54
549.416	8860.97
549.779	8889.67
550.143	8890.57
550.507	8979.38
550.871	9063
551.235	9020.06
551.599	9104.58
551.962	9078.59
552.326	9152.71
552.689	9186.83
553.053	9164.01
553.417	9252.37
553.78	9263.89
554.143	9254.63
554.507	9296.21
554.87	9334.85
555.234	9455.3
555.597	9382.99
555.96	9410.78
556.323	9480.61
556.686	9508.63
557.05	9542.31
557.413	9560.84
557.776	9600.16
558.139	9601.51
558.502	9641.74
558.865	9697.1
559.228	9720.61
559.59	9681.06
559.953	9781.17
560.316	9864.33
560.679	9830.66
561.041	9931.9
561.404	9971.45
561.767	9988.17
562.129	9953.37
562.492	10113.59
562.854	10006.02
563.217	10106.36
563.579	10092.35
563.941	10156.07
564.304	10156.98
564.666	10229.75
565.028	10246.47
565.39	10347.93
565.753	10402.17
566.115	10460.25
566.477	10467.03
566.839	10467.25
567.201	10595.61
567.563	10560.58
567.925	10659.56
568.287	10620.24
568.648	10668.6
569.01	10768.26
569.372	10667.7
569.734	10781.37
570.095	10852.78
570.457	10915.15
570.819	10904.3
571.18	10944.08
571.542	11033.34
571.903	11083.06
572.265	11098.87
572.626	11188.36
572.987	11208.7
573.349	11267.68
573.71	11336.38
574.071	11374.57
574.432	11411.41
574.794	11543.16
575.155	11629.71
575.516	11618.18
575.877	11698.41
576.238	11810.04
576.599	11836.48
576.96	11912.19
577.32	11946.76
577.681	12062.24
578.042	12098.62
578.403	12285.96
578.763	12326.41
579.124	12349.01
579.485	12530.02
579.845	12666.52
580.206	12769.11
580.566	12819.06
580.927	13049.56
581.287	13139.27
581.648	13242.77
582.008	13360.51
582.368	13532.26
582.728	13693.38
583.089	13871.91
583.449	14054.96
583.809	14135.86
584.169	14407.71
584.529	14502.63
584.889	14794.6
585.249	14835.05
585.609	15039.79
585.969	15324.07
586.329	15511.19
586.688	15722.71
587.048	15941.23
587.408	16140.55
587.768	16336.93
588.127	16575.57
588.487	16828.67
588.846	17164.03
589.206	17248.77
589.565	17561.76
589.925	17916.77
590.284	18095.08
590.643	18386.82
591.003	18625.68
591.362	19020.25
591.721	19204.88
592.08	19614.13
592.44	19880.79
592.799	20058.41
593.158	20256.37
593.517	20624.73
593.876	20981.78
594.235	21156.46
594.593	21519.39
594.952	21926.84
595.311	22026.72
595.67	22422.87
596.029	22789.64
596.387	23136.75
596.746	23416.74
597.104	23562.05
597.463	23930.63
597.822	24313.22
598.18	24624.62
598.538	24790.49
598.897	25297.6
599.255	25311.83
599.613	25860.07
599.972	26052.15
600.33	26449.43
600.688	26573.04
601.046	27053.26
601.404	27345.23
601.762	27554.94
602.12	27903.63
602.478	28322.6
602.836	28544.29
603.194	28765.53
603.552	28957.84
603.91	29078.06
604.268	29610.03
604.625	29680.53
604.983	30149.67
605.341	30322.1
605.698	30660.62
606.056	30853.38
606.413	31178.57
606.771	31435.52
607.128	31532.01
607.485	31716.41
607.843	31943.3
608.2	32417.64
608.557	32650.62
608.914	32826.67
609.272	33054.91
609.629	33243.15
609.986	33717.26
610.343	33693.31
610.7	34085.84
611.057	34227.76
611.414	34416
611.771	34561.76
612.127	34937.57
612.484	35154.74
612.841	35265.92
613.198	35431.12
613.554	35613.26
613.911	36009.86
614.267	36046.92
614.624	36112.23
614.98	36426.34
615.337	36637.19
615.693	36711.08
616.05	36977.29
616.406	37313.78
616.762	37155.82
617.118	37300.22
617.475	37489.14
617.831	37877.61
618.187	37904.27
618.543	38042.12
618.899	38387.42
619.255	38325.28
619.611	38332.06
619.967	38679.84
620.323	38795.55
620.678	38755.55
621.034	38878.94
621.39	39018.82
621.746	39029.44
622.101	39623.1
622.457	39340.84
622.812	39544.45
623.168	39709.65
623.523	39851.57
623.879	39863.77
624.234	39736.31
624.589	40045.01
624.945	39999.13
625.3	40193.25
625.655	40241.61
626.01	40213.36
626.365	40315.06
626.72	40400.25
627.075	40510.3
627.43	40490.87
627.785	40487.48
628.14	40632.79
628.495	40816.96
628.85	40750.3
629.205	40734.25
629.559	41050.63
629.914	40986.68
630.269	40849.28
630.623	40817.64
630.978	40796.85
631.332	41086.33
631.687	41146.22
632.041	40952.55
632.396	41314.13
632.75	41070.29
633.104	41140.57
633.459	40982.83
633.813	41056.96
634.167	41113.68
634.521	41166.78
634.875	41216.05
635.229	41203.39
635.583	41029.39
635.937	41112.1
636.291	41120.91
636.645	41180.12
636.999	41129.5
637.352	41178.08
637.706	40951.2
638.06	41239.33
638.413	41039.56
638.767	41013.12
639.121	41148.93
639.474	40888.37
639.828	41029.61
640.181	41034.36
640.534	41007.69
640.888	41017.64
641.241	40746.46
641.594	41033.23
641.947	41218.99
642.301	41066.9
642.654	41000.91
643.007	41079.33
643.36	41014.47
643.713	40905.1
644.066	41073
644.419	40831.65
644.771	40522.96
645.124	40332.23
645.477	40156.42
645.83	40021.05
646.182	39898.8
646.535	39777.89
646.888	39878.23
647.24	39703.55
647.593	39935.4
647.945	39715.3
648.298	39689.31
648.65	39574.28
649.002	39510.33
649.355	39730.21
649.707	39702.19
650.059	39951.45
650.411	40311.89
650.763	40292.23
651.115	40762.73
651.467	40525.9
651.819	40552.56
652.171	40524.32
652.523	40469.63
652.875	40427.82
653.227	40393.92
653.578	40546.91
653.93	40445
654.282	40221.5
654.633	40336.98
654.985	40331.55
655.337	40437.99
655.688	40430.31
656.039	40424.88
656.391	40175.17
656.742	40281.16
657.094	40324.55
657.445	40487.48
657.796	40373.13
658.147	40258.33
658.498	40293.36
658.849	40270.99
659.2	40365.68
659.551	40162.97
659.902	40271.22
660.253	40203.87
660.604	40283.64
660.955	40129.75
661.306	40305.79
661.656	40098.34
662.007	40265.79
662.358	40307.37
662.708	40245.68
663.059	40211.33
663.409	39977.89
663.76	40401.83
664.11	40190.77
664.461	40159.81
664.811	40130.88
665.161	40131.33
665.511	40099.02
665.862	40092.24
666.212	40381.95
666.562	40217.21
666.912	40103.99
667.262	40077.32
667.612	40253.59
667.962	40112.35
668.312	40002.52
668.662	40157.55
669.011	39981.96
669.361	39969.53
669.711	39980.38
670.06	39967.04
670.41	39926.59
670.76	39831
671.109	40073.03
671.459	39941.28
671.808	39812.92
672.157	39779.48
672.507	39781.74
672.856	39780.38
673.205	39757.78
673.554	39940.83
673.904	39841.4
674.253	39900.6
674.602	39839.81
674.951	39255.42
675.3	39068.08
675.649	39708.97
675.998	39674.62
676.346	39722.98
676.695	39849.53
677.044	39457
677.393	39603.44
677.741	39658.58
678.09	39521.63
678.438	39581.06
678.787	39630.33
679.135	39425.14
679.484	39372.93
679.832	39410.22
680.181	39314.63
680.529	39415.87
680.877	39220.17
681.225	39106.27
681.573	39433.5
681.922	39172.26
682.27	39072.15
682.618	39067.63
682.966	38985.15
683.314	38981.76
683.661	38968.2
684.009	38828.32
684.357	38659.28
684.705	38533.86
685.053	38601.2
685.4	38499.96
685.748	38366.41
686.095	38398.72
686.443	38339.06
686.79	38311.49
687.138	38238.27
687.485	38338.38
687.832	38112.63
688.18	38222.23
688.527	38063.36
688.874	38009.81
689.221	37890.94
689.568	37717.38
689.915	37777.27
690.262	37742.47
690.609	37852.52
690.956	37574.11
691.303	37376.15
691.65	37230.17
691.997	37272.42
692.344	37028.59
692.69	37141.35
693.037	37185.19
693.383	36779.78
693.73	36930.51
694.077	36776.39
694.423	36661.82
694.769	36573.91
695.116	36395.61
695.462	36471.77
695.808	36291.66
696.155	36465.21
696.501	36164.66
696.847	36130.99
697.193	35737.55
697.539	36215.28
697.885	35744.78
698.231	35651
698.577	35767.83
698.923	35580.72
699.269	35431.34
699.614	35271.12
699.96	35229.77
700.306	35291.91
700.651	35015.53
700.997	34938.93
701.342	34961.07
701.688	34885.14
702.033	34851.47
702.379	34741.64
702.724	34729.21
703.069	34631.14
703.415	34353.18
703.76	34378.71
704.105	34319.28
704.45	34277.25
704.795	34121.09
705.14	33979.63
705.485	34001.1
705.83	33785.96
706.175	33947.54
706.52	33715.23
706.865	33672.74
707.209	33599.98
707.554	33522.01
707.899	33630.49
708.243	33344.84
708.588	33375.58
708.932	33237.95
709.277	33188.92
709.621	33088.13
709.966	32830.96
710.31	32995.25
710.654	32757.74
710.998	32868.92
711.342	32851.75
711.687	32713.67
712.031	32731.75
712.375	32436.62
712.719	32492.44
713.063	32491.76
713.407	32440.91
713.75	32359.33
714.094	32273.23
714.438	32058.55
714.782	32253.12
715.125	31969.96
715.469	32120.92
715.812	31920.7
716.156	31704.43
716.499	31902.17
716.843	31723.87
717.186	31581.5
717.53	31846.58
717.873	31793.7
718.216	31611.33
718.559	31568.39
718.902	31404.1
719.246	31433.03
719.589	31279.81
719.932	30951.23
720.275	31197.56
720.617	31241.62
720.96	31131.57
721.303	31068.75
721.646	30944.91
721.989	30894.96
722.331	30964.57
722.674	30813.16
723.016	30704.69
723.359	30773.16
723.701	30859.94
724.044	30619.72
724.386	30423.34
724.729	30536.56
725.071	30558.25
725.413	30567.97
725.755	30503.56
726.097	30417.01
726.439	30226.96
726.782	30250.69
727.124	30280.07
727.465	30192.61
727.807	30248.65
728.149	30104.7
728.491	30087.3
728.833	30002.78
729.175	29930.24
729.516	29868.32
729.858	29824.48
730.199	29803.24
730.541	29755.56
730.882	29768.89
731.224	29861.09
731.565	29640.31
731.906	29596.92
732.248	29680.31
732.589	29424.27
732.93	29450.03
733.271	29432.86
733.612	29434.44
733.953	29337.27
734.294	29285.29
734.635	29328.9
734.976	29328.45
735.317	29151.51
735.658	29074
735.999	29106.54
736.339	29059.98
736.68	29129.59
737.021	29009.59
737.361	28912.42
737.702	29131.85
738.042	28904.73
738.383	28866.54
738.723	28884.62
739.063	28863.38
739.404	28861.35
739.744	28721.91
740.084	28735.93
740.424	28733.67
740.764	28652.99
741.104	28708.13
741.444	28565.76
741.784	28465.42
742.124	28580.22
742.464	28371.87
742.804	28431.75
743.143	28384.75
743.483	28308.37
743.823	28209.61
744.162	28245.99
744.502	28309.95
744.841	28202.38
745.181	28189.5
745.52	28033.12
745.86	28121.48
746.199	28056.17
746.538	28135.49
746.877	28069.95
747.216	28030.41
747.556	28013.23
747.895	27936.17
748.234	27815.05
748.573	27760.81
748.911	27749.51
749.25	27713.58
749.589	27636.29
749.928	27643.07
750.267	27697.99
750.605	27538.44
750.944	27534.83
751.283	27476.52
751.621	27537.31
751.96	27377.99
752.298	27469.07
752.636	27201.05
752.975	27198.56
753.313	27095.29
753.651	27298.22
753.989	27165.12
754.327	27028.4
754.666	26918.12
755.004	27009.64
755.342	27009.42
755.679	26935.52
756.017	26745.7
756.355	26884.67
756.693	26753.83
757.031	26748.86
757.368	26588.41
757.706	26642.19
758.044	26548.19
758.381	26513.84
758.719	26387.96
759.056	26472.26
759.394	26284.01
759.731	26281.07
760.068	26165.6
760.405	26121.76
760.743	26000.63
761.08	26129.44
761.417	25875.44
761.754	25816.68
762.091	25705.95
762.428	25683.8
762.765	25568.55
763.102	25711.6
763.438	25457.82
763.775	25483.13
764.112	25443.81
764.449	25442.9
764.785	25167.88
765.122	25122.91
765.458	25028.45
765.795	24884.28
766.131	25003.82
766.467	24862.58
766.804	24771.96
767.14	24661.23
767.476	24659.42
767.812	24554.34
768.148	24550.95
768.485	24374.91
768.821	24260.11
769.157	24197.29
769.492	24196.38
769.828	24188.7
770.164	23994.81
770.5	23975.6
770.836	23931.08
771.171	23876.84
771.507	23707.58
771.842	23579.45
772.178	23573.8
772.513	23516.63
772.849	23404.99
773.184	23209.97
773.519	23238.89
773.855	23110.31
774.19	22974.49
774.525	23055.17
774.86	22961.39
775.195	22962.74
775.53	22841.39
775.865	22681.62
776.2	22569.76
776.535	22529.76
776.87	22398.92
777.205	22317.11
777.539	22208.64
777.874	22320.5
778.209	22060.85
778.543	22067.63
778.878	21899.04
779.212	21866.05
779.547	21686.85
779.881	21842.77
780.215	21720.06
780.55	21683
780.884	21444.14
781.218	21480.97
781.552	21485.49
781.886	21291.38
782.22	21132.74
782.554	21173.64
782.888	20956.24
783.222	20938.16
783.556	20840.77
783.889	20769.36
784.223	20704.27
784.557	20631.73
784.89	20724.16
785.224	20459.31
785.557	20510.6
785.891	20411.17
786.224	20421.79
786.558	20215.92
786.891	20043.95
787.224	20063.84
787.557	19938.87
787.891	20034.46
788.224	19843.5
788.557	19890.96
788.89	19842.15
789.223	19705.2
789.556	19546.79
789.888	19446.23
790.221	19460.91
790.554	19287.36
790.887	19421.59
791.219	19312.67
791.552	19249.39
791.884	19121.49
792.217	19173.69
792.549	19020.93
792.882	18898.9
793.214	18703.87
793.546	18809.86
793.879	18672.01
794.211	18665.91
794.543	18657.09
794.875	18591.11
795.207	18697.77
795.539	18443.54
795.871	18457.78
796.203	18304.34
796.535	18232.25
796.867	18105.02
797.198	18127.84
797.53	18118.58
797.862	18057.34
798.193	18037.68
798.525	17940.28
798.856	18029.31
799.188	17710.68
799.519	17723.56
799.85	17603.79
800.182	17724.92
800.513	17621.42
800.844	17449.44
801.175	17605.37
801.506	17539.84
801.837	17383.46
802.168	17390.69
802.499	17266.62
802.83	17226.85
803.161	17185.95
803.491	17131.48
803.822	17136.91
804.153	17058.72
804.483	16831.83
804.814	16759.52
805.145	16900.98
805.475	16847.2
805.805	16758.61
806.136	16745.28
806.466	16739.18
806.796	16644.72
807.126	16613.08
807.457	16487.89
807.787	16468.68
808.117	16439.53
808.447	16315.69
808.777	16366.31
809.107	16279.76
809.436	16220.1
809.766	16197.72
810.096	16068.91
810.426	16043.83
810.755	16108.91
811.085	15981.01
811.414	15998.41
811.744	15810.16
812.073	15835.02
812.403	15916.38
812.732	15698.98
813.061	15798.86
813.39	15673.44
813.719	15691.3
814.049	15658.3
814.378	15704.18
814.707	15482.49
815.036	15574.92
815.365	15397.52
815.693	15391.19
816.022	15375.6
816.351	15346.22
816.68	15183.51
817.008	15256.96
817.337	15100.35
817.665	15099.22
817.994	15249.5
818.322	15221.48
818.651	14953.91
818.979	14969.51
819.307	15096.96
819.636	14963.41
819.964	14865.56
820.292	14941.49
820.62	14971.09
820.948	14836.63
821.276	14813.58
821.604	14913.01
821.932	14873.24
822.259	14836.4
822.587	14861.26
822.915	14879.11
823.243	14760.25
823.57	14847.7
823.898	14834.6
824.225	14868.95
824.553	14693.36
824.88	14787.14
825.207	14829.62
825.535	14789.63
825.862	14854.48
826.189	14776.29
826.516	14833.24
826.843	14823.97
827.17	14807.7
827.497	14771.09
827.824	14797.31
828.151	14859.23
828.478	14841.15
828.805	14897.87
829.131	14727.25
829.458	14791.66
829.785	14655.62
830.111	14784.65
830.438	14790.3
830.764	14743.52
831.09	14750.53
831.417	14662.4
831.743	14728.38
832.069	14697.88
832.395	14648.16
832.722	14665.79
833.048	14674.83
833.374	14650.87
833.7	14634.38
834.026	14604.55
834.351	14576.07
834.677	14575.17
835.003	14602.96
835.329	14550.54
835.654	14526.13
835.98	14538.56
836.306	14475.96
836.631	14514.6
836.956	14472.8
837.282	14445.23
837.607	14355.74
837.932	14359.13
838.258	14451.78
838.583	14395.51
838.908	14268.28
839.233	14356.42
839.558	14280.94
839.883	14263.76
840.208	14211.56
840.533	14229.64
840.858	14170.66
841.182	14118.23
841.507	14166.59
841.832	14063.77
842.156	14131.79
842.481	14056.76
842.805	13936.54
843.13	13978.57
843.454	13920.95
843.778	13853.38
844.103	13914.85
844.427	13850.44
844.751	13825.81
845.075	13740.84
845.399	13722.76
845.723	13649.32
846.047	13682.76
846.371	13613.61
846.695	13504.01
847.019	13454.52
847.343	13423.56
847.666	13320.06
847.99	13303.56
848.313	13347.63
848.637	13099.95
848.96	13143.34
849.284	13108.31
849.607	13015.21
849.931	13055.66
850.254	12889.56
850.577	12783.12
850.9	12770.7
851.223	12756.68
851.546	12669.46
851.869	12668.1
852.192	12632.85
852.515	12543.58
852.838	12528.67
853.161	12501.55
853.483	12442.34
853.806	12416.58
854.129	12424.04
854.451	12257.04
854.774	12269.01
855.096	12231.05
855.419	12229.24
855.741	12188.56
856.063	12125.06
856.385	12059.98
856.708	11967.78
857.03	11924.16
857.352	11986.99
857.674	11905.86
857.996	11893.66
858.318	11873.09
858.64	11810.49
858.961	11812.08
859.283	11772.76
859.605	11722.81
859.926	11779.31
860.248	11676.71
860.57	11620.9
860.891	11622.7
861.212	11572.31
861.534	11594.23
861.855	11506.32
862.176	11474.46
862.498	11527.56
862.819	11490.28
863.14	11426.78
863.461	11413.22
863.782	11393.78
864.103	11388.36
864.424	11310.17
864.745	11347.46
865.065	11305.2
865.386	11216.84
865.707	11183.84
866.027	11203.5
866.348	11184.3
866.668	11202.83
866.989	11136.61
867.309	11081.93
867.63	11160.57
867.95	11140.68
868.27	10975.49
868.59	11053.68
868.91	11063.4
869.23	11035.83
869.55	11010.97
869.87	11017.75
870.19	10964.42
870.51	10964.19
870.83	10951.31
871.15	10922.61
871.469	10900.01
871.789	10887.13
872.109	10886.9
872.428	10784.53
872.748	10877.41
873.067	10821.82
873.386	10882.84
873.706	10738.21
874.025	10769.39
874.344	10745.21
874.663	10734.82
874.982	10680.81
875.301	10641.71
875.62	10643.07
875.939	10623.41
876.258	10684.2
876.577	10666.12
876.896	10612.56
877.214	10577.76
877.533	10526.91
877.852	10543.41
878.17	10545.9
878.489	10599
878.807	10481.04
879.125	10452.56
879.444	10443.3
879.762	10405.79
880.08	10431.77
880.398	10412.11
880.716	10387.48
881.034	10351.78
881.352	10393.58
881.67	10305.45
881.988	10268.61
882.306	10238.33
882.624	10255.06
882.941	10164.21
883.259	10185
883.577	10208.05
883.894	10184.55
884.212	10126.92
884.529	10120.82
884.846	10098.22
885.164	10121.95
885.481	10048.28
885.798	9959.47
886.115	9992.69
886.432	9956.53
886.75	9907.72
887.067	9930.09
887.383	9824.33
887.7	9858.46
888.017	9861.85
888.334	9865.91
888.651	9803.32
888.967	9813.48
889.284	9693.94
889.6	9752.7
889.917	9675.64
890.233	9685.58
890.55	9644
890.866	9631.34
891.182	9601.74
891.498	9533.27
891.815	9581.17
892.131	9522.87
892.447	9445.81
892.763	9483.1
893.079	9423.89
893.395	9373.27
893.71	9381.63
894.026	9326.04
894.342	9320.62
894.657	9270.67
894.973	9244.91
895.289	9281.97
895.604	9211.47
895.92	9169.43
896.235	9067.52
896.55	9112.03
896.865	9123.33
897.181	9048.99
897.496	9001.08
897.811	8956.11
898.126	8915.66
898.441	8961.98
898.756	8895.99
899.071	8869.55
899.386	8801.31
899.7	8808.31
900.015	8814.64
900.33	8698.26
900.644	8711.82
900.959	8664.36
901.273	8647.64
901.588	8563.57
901.902	8558.15
902.216	8550.47
902.531	8566.51
902.845	8508.21
903.159	8418.95
903.473	8437.25
903.787	8442.22
904.101	8359.96
904.415	8345.27
904.729	8291.27
905.042	8270.47
905.356	8265.73
905.67	8208.56
905.984	8166.52
906.297	8166.3
906.611	8125.39
906.924	8159.52
907.237	8008.79
907.551	8025.28
907.864	7982.35
908.177	7985.28
908.491	7929.69
908.804	7870.49
909.117	7879.52
909.43	7818.74
909.743	7811.5
910.056	7736.25
910.368	7741.22
910.681	7743.03
910.994	7673.65
911.307	7620.77
911.619	7638.63
911.932	7587.55
912.244	7508.91
912.557	7519.76
912.869	7488.57
913.181	7465.07
913.494	7459.65
913.806	7431.4
914.118	7436.82
914.43	7280.9
914.742	7297.39
915.054	7249.48
915.366	7267.79
915.678	7204.51
915.99	7175.81
916.302	7166.1
916.613	7101.92
916.925	7157.28
917.236	7129.94
917.548	6996.61
917.859	7026.89
918.171	6975.37
918.482	6957.06
918.794	6891.75
919.105	6906.22
919.416	6887.01
919.727	6854.47
920.038	6828.25
920.349	6800.23
920.66	6771.53
920.971	6768.37
921.282	6701.02
921.593	6669.39
921.903	6612.89
922.214	6600.91
922.525	6531.54
922.835	6551.65
923.146	6512.78
923.456	6515.94
923.767	6515.94
924.077	6489.73
924.387	6401.15
924.697	6363.86
925.008	6342.84
925.318	6364.76
925.628	6337.42
925.938	6301.26
926.248	6207.25
926.558	6263.07
926.867	6254.03
927.177	6201.83
927.487	6152.34
927.796	6108.05
928.106	6127.03
928.416	6055.39
928.725	6050.87
929.034	6021.27
929.344	6013.81
929.653	5991.44
929.962	5912.12
930.271	5896.53
930.581	5912.12
930.89	5919.8
931.199	5840.71
931.508	5816.53
931.817	5797.77
932.125	5756.87
932.434	5713.93
932.743	5693.37
933.051	5685.46
933.36	5635.29
933.669	5571.56
933.977	5609.3
934.286	5589.42
934.594	5597.1
934.902	5501.06
935.21	5586.93
935.519	5473.49
935.827	5495.41
936.135	5429.87
936.443	5397.1
936.751	5356.43
937.059	5380.38
937.367	5346.48
937.674	5351.68
937.982	5321.17
938.29	5246.15
938.597	5253.15
938.905	5223.1
939.213	5269.42
939.52	5174.06
939.827	5226.03
940.135	5184.91
940.442	5124.57
940.749	5126.83
941.056	5061.75
941.363	5042.76
941.67	5049.54
941.977	5000.28
942.284	4966.83
942.591	4930.68
942.898	4913.5
943.205	4941.3
943.511	4900.39
943.818	4895.87
944.125	4878.47
944.431	4870.11
944.738	4827.85
945.044	4795.76
945.35	4780.85
945.657	4766.39
945.963	4740.4
946.269	4732.04
946.575	4687.07
946.881	4690
947.187	4670.34
947.493	4685.26
947.799	4641.42
948.105	4612.27
948.41	4589.67
948.716	4632.15
949.022	4513.74
949.327	4556.22
949.633	4486.62
949.938	4503.57
950.244	4497.92
950.549	4428.77
950.854	4424.7
951.16	4439.61
951.465	4405.49
951.77	4352.84
952.075	4380.63
952.38	4362.78
952.685	4344.93
952.99	4285.95
953.294	4297.92
953.599	4252.28
953.904	4210.24
954.209	4280.52
954.513	4189.9
954.818	4195.33
955.122	4177.7
955.426	4140.19
955.731	4117.36
956.035	4118.27
956.339	4072.17
956.643	4088.21
956.948	4027.42
957.252	4131.37
957.556	4014.99
957.86	4036.91
958.163	4021.32
958.467	3964.15
958.771	3980.64
959.075	3945.84
959.378	3883.47
959.682	3940.42
959.985	3889.8
960.289	3876.92
960.592	3870.82
960.896	3841.89
961.199	3861.55
961.502	3819.97
961.805	3822
962.108	3771.16
962.411	3757.82
962.714	3740.2
963.017	3730.71
963.32	3738.84
963.623	3721.89
963.926	3704.27
964.228	3612.97
964.531	3668.11
964.833	3596.47
965.136	3645.29
965.438	3585.63
965.741	3570.49
966.043	3568
966.345	3545.63
966.648	3561.9
966.95	3546.31
967.252	3539.3
967.554	3525.74
967.856	3468.79
968.158	3463.6
968.46	3402.35
968.761	3415.91
969.063	3442.8
969.365	3411.39
969.666	3443.71
969.968	3362.58
970.269	3389.47
970.571	3355.12
970.872	3354.22
971.174	3305.63
971.475	3328.46
971.776	3279.19
972.077	3265.18
972.378	3297.27
972.679	3233.77
972.98	3236.26
973.281	3208.01
973.582	3187.22
973.883	3188.57
974.183	3154.68
974.484	3164.85
974.785	3123.72
975.085	3127.11
975.386	3153.32
975.686	3085.07
975.986	3087.33
976.287	3074.91
976.587	3013.89
976.887	3047.34
977.187	3026.77
977.487	3064.96
977.787	3036.49
978.087	2983.83
978.387	2976.15
978.687	2970.05
978.987	2972.99
979.286	2931.63
979.586	2926.43
979.885	2895.93
980.185	2891.18
980.484	2922.14
980.784	2859.09
981.083	2839.43
981.382	2886.44
981.682	2847.34
981.981	2854.8
982.28	2810.96
982.579	2762.37
982.878	2803.27
983.177	2773.9
983.475	2778.42
983.774	2787.91
984.073	2727.57
984.372	2740.68
984.67	2699.1
984.969	2723.28
985.267	2704.07
985.566	2700
985.864	2666.78
986.162	2656.84
986.461	2659.1
986.759	2625.65
987.057	2584.07
987.355	2640.11
987.653	2627.01
987.951	2577.97
988.249	2591.98
988.547	2621.81
988.844	2603.28
989.142	2571.19
989.44	2478.54
989.737	2556.27
990.035	2479.21
990.332	2485.32
990.63	2495.94
990.927	2478.76
991.224	2471.98
991.521	2457.52
991.819	2427.01
992.116	2416.17
992.413	2403.51
992.71	2387.01
993.006	2419.1
993.303	2361.03
993.6	2371.42
993.897	2344.3
994.193	2390.4
994.49	2329.61
994.787	2331.42
995.083	2303.4
995.379	2293.23
995.676	2287.81
995.972	2293.23
996.268	2263.4
996.565	2236.96
996.861	2241.25
997.157	2185.89
997.453	2236.73
997.749	2208.49
998.044	2210.07
998.34	2165.55
998.636	2214.36
998.932	2168.26
999.227	2174.14
999.523	2156.96
999.818	2109.28
1000.114	2141.6
1000.409	2072.9
1000.704	2115.16
1001	2094.14
1001.295	2093.24
1001.59	2087.36
1001.885	2062.05
1002.18	2046.68
1002.475	2047.14
1002.77	2041.94
1003.065	1979.34
1003.359	2012.56
1003.654	1956.29
1003.949	1977.98
1004.243	1938.21
1004.538	1971.66
1004.832	1926.01
1005.127	1952.45
1005.421	1930.98
1005.715	1933.01
1006.009	1928.04
1006.304	1908.83
1006.598	1920.81
1006.892	1869.74
1007.186	1874.71
1007.48	1878.33
1007.773	1839.01
1008.067	1822.06
1008.361	1842.62
1008.655	1829.51
1008.948	1791.55
1009.242	1817.54
1009.535	1792.9
1009.829	1763.3
1010.122	1766.46
1010.415	1761.27
1010.708	1721.72
1011.001	1728.73
1011.295	1747.26
1011.588	1701.38
1011.881	1673.59
1012.173	1670.65
1012.466	1688.95
1012.759	1677.65
1013.052	1659.12
1013.344	1645.56
1013.637	1653.93
1013.93	1653.7
1014.222	1631.1
1014.514	1601.5
1014.807	1585.9
1015.099	1609.86
1015.391	1590.2
1015.683	1575.74
1015.976	1590.42
1016.268	1572.57
1016.56	1576.87
1016.851	1523.53
1017.143	1554.72
1017.435	1550.43
1017.727	1516.3
1018.018	1495.51
1018.31	1499.13
1018.602	1488.96
1018.893	1477.21
1019.185	1483.31
1019.476	1470.88
1019.767	1477.88
1020.058	1442.41
1020.35	1410.99
1020.641	1434.95
1020.932	1406.93
1021.223	1400.6
1021.514	1384.33
1021.804	1367.61
1022.095	1366.93
1022.386	1349.53
1022.677	1341.39
1022.967	1328.06
1023.258	1312.92
1023.548	1309.98
1023.839	1309.53
1024.129	1316.08
1024.419	1310.21
1024.709	1331.22
1025	1309.08
1025.29	1281.05
1025.58	1263.2
1025.87	1264.56
1026.16	1265.69
1026.449	1220.49
1026.739	1248.51
1027.029	1240.6
1027.319	1227.72
1027.608	1231.11
1027.898	1198.57
1028.187	1195.86
1028.477	1209.64
1028.766	1193.15
1029.055	1192.24
1029.344	1163.32
1029.634	1144.33
1029.923	1158.57
1030.212	1148.85
1030.501	1130.78
1030.79	1147.27
1031.078	1133.04
1031.367	1097.56
1031.656	1086.71
1031.945	1108.4
1032.233	1123.32
1032.522	1090.1
1032.81	1060.49
1033.099	1076.77
1033.387	1069.53
1033.675	1056.2
1033.963	1032.92
1034.251	1058.91
1034.54	1029.76
1034.828	1058.23
1035.116	1037.67
1035.403	1024.56
1035.691	1006.71
1035.979	1005.13
1036.267	996.77
1036.554	995.19
1036.842	989.31
1037.129	985.24
1037.417	978.91
1037.704	967.84
1037.992	945.47
1038.279	972.36
1038.566	952.25
1038.853	952.25
1039.14	952.25
