Data from hue_200_FLMS001491_00047.txt Node
Date: Tue Feb 07 16:43:21 GMT 2017
User: dcchb
Spectrometer: FLMS00149
Trigger mode: 0
Integration Time (sec): 2.000000E-2
Scans to average: 10
Electric dark correction enabled: true
Nonlinearity correction enabled: false
Boxcar width: 0
XAxis mode: Wavelengths
Number of Pixels in Spectrum: 2048
>>>>>Begin Spectral Data<<<<<
341.393	8.83
341.776	8.83
342.16	8.83
342.543	-58.97
342.927	-65.97
343.31	-85.86
343.693	-62.81
344.077	-58.97
344.46	-49.25
344.843	-59.42
345.226	-37.72
345.61	-32.3
345.993	-14.45
346.376	1.37
346.759	-0.21
347.142	27.13
347.525	32.1
347.908	61.48
348.291	87.24
348.674	68.71
349.057	122.95
349.44	136.28
349.823	136.96
350.206	142.38
350.588	186.45
350.971	201.14
351.354	208.14
351.737	231.65
352.119	252.44
352.502	261.02
352.884	268.48
353.267	304.41
353.65	305.99
354.032	300.8
354.414	311.19
354.797	307.12
355.179	317.29
355.562	334.02
355.944	304.19
356.326	332.89
356.709	323.17
357.091	322.72
357.473	338.99
357.855	336.05
358.238	345.32
358.62	338.99
359.002	336.28
359.384	345.77
359.766	350.97
360.148	362.49
360.53	350.51
360.912	323.17
361.294	329.72
361.676	344.86
362.057	341.02
362.439	323.85
362.821	329.95
363.203	317.07
363.584	325.2
363.966	326.56
364.348	327.01
364.729	319.33
365.111	305.54
365.493	322.27
365.874	322.94
366.256	307.58
366.637	314.13
367.019	308.25
367.4	304.86
367.781	318.65
368.163	298.54
368.544	302.83
368.925	322.94
369.306	313
369.688	313.9
370.069	294.47
370.45	304.86
370.831	310.06
371.212	307.35
371.593	315.49
371.974	308.71
372.355	313.45
372.736	322.27
373.117	310.51
373.498	302.15
373.879	310.29
374.26	325.43
374.641	314.36
375.021	333.56
375.402	330.63
375.783	332.21
376.163	326.79
376.544	331.08
376.925	340.57
377.305	334.69
377.686	318.65
378.066	342.38
378.447	331.76
378.827	327.69
379.208	314.36
379.588	321.59
379.968	347.35
380.349	324.98
380.729	308.03
381.109	328.59
381.489	347.12
381.87	346.22
382.25	352.32
382.63	342.15
383.01	330.85
383.39	336.05
383.77	336.5
384.15	360.46
384.53	345.77
384.91	332.66
385.29	325.2
385.67	348.25
386.049	344.64
386.429	352.1
386.809	348.25
387.189	347.12
387.568	354.36
387.948	366.78
388.328	345.54
388.707	355.94
389.087	356.16
389.466	353.68
389.846	341.7
390.225	365.43
390.605	364.52
390.984	374.24
391.363	381.02
391.743	375.15
392.122	374.47
392.501	370.4
392.881	377.63
393.26	381.25
393.639	367.91
394.018	381.25
394.397	367.69
394.776	375.37
395.155	402.72
395.534	398.87
395.913	413.56
396.292	399.55
396.671	393
397.05	398.42
397.429	390.74
397.808	399.1
398.186	395.26
398.565	424.18
398.944	390.51
399.323	422.15
399.701	411.08
400.08	419.66
400.458	412.43
400.837	429.61
401.215	426.9
401.594	430.74
401.972	444.07
402.351	426.22
402.729	440.68
403.107	450.4
403.486	450.4
403.864	446.1
404.242	447.69
404.62	474.58
404.999	444.75
405.377	477.06
405.755	473.45
406.133	452.66
406.511	454.24
406.889	475.93
407.267	488.14
407.645	482.04
408.023	506.22
408.401	520.45
408.779	505.99
409.156	500.34
409.534	540.56
409.912	525.42
410.29	537.4
410.667	543.95
411.045	543.73
411.422	563.62
411.8	579.66
412.178	597.96
412.555	572.2
412.933	608.13
413.31	595.7
413.687	621.01
414.065	631.18
414.442	642.03
414.819	640.22
415.197	639.77
415.574	670.05
415.951	686.32
416.328	691.07
416.705	707.57
417.082	715.02
417.46	728.58
417.837	718.41
418.214	735.81
418.591	742.14
418.967	741.46
419.344	751.86
419.721	757.96
420.098	773.33
420.475	804.96
420.852	808.13
421.228	816.26
421.605	851.52
421.982	848.81
422.358	864.17
422.735	908.24
423.111	903.27
423.488	924.28
423.864	937.39
424.241	942.36
424.617	960.21
424.994	1000.21
425.37	1000.89
425.746	1003.83
426.123	1015.58
426.499	1012.87
426.875	1056.71
427.251	1079.31
427.627	1081.34
428.003	1093.32
428.379	1114.79
428.756	1105.75
429.132	1156.14
429.507	1136.26
429.883	1151.62
430.259	1165.18
430.635	1194.11
431.011	1210.6
431.387	1240.89
431.763	1273.65
432.138	1262.13
432.514	1282.47
432.89	1296.03
433.265	1332.86
433.641	1326.76
434.016	1347.1
434.392	1392.97
434.767	1435.68
435.143	1415.12
435.518	1500.99
435.894	1489.92
436.269	1534.44
436.644	1555.91
437.02	1580.54
437.395	1585.96
437.77	1652.63
438.145	1691.04
438.52	1673.64
438.895	1690.37
439.271	1752.96
439.646	1808.55
440.021	1797.03
440.395	1829.12
440.77	1822.79
441.145	1836.58
441.52	1893.52
441.895	1941.66
442.27	1919.51
442.645	1947.53
443.019	2015.78
443.394	1977.14
443.769	1997.25
444.143	2026.18
444.518	2081.77
444.892	2073.41
445.267	2085.61
445.641	2140.97
446.016	2159.05
446.39	2161.99
446.764	2140.52
447.139	2170.13
447.513	2221.42
447.887	2199.5
448.262	2242.22
448.636	2251.03
449.01	2288.54
449.384	2301.2
449.758	2327.41
450.132	2343.91
450.506	2353.17
450.88	2384.36
451.254	2398.14
451.628	2430.46
452.002	2456.45
452.376	2455.54
452.75	2491.47
453.123	2485.15
453.497	2582.32
453.871	2575.31
454.244	2614.41
454.618	2661.19
454.992	2676.1
455.365	2651.47
455.739	2759.94
456.112	2775.31
456.486	2794.29
456.859	2789.77
457.232	2880.84
457.606	2856.21
457.979	2928.75
458.352	2960.16
458.725	3015.08
459.099	3005.58
459.472	3085.13
459.845	3117.67
460.218	3133.72
460.591	3185.92
460.964	3184.56
461.337	3260.27
461.71	3317.67
462.083	3332.13
462.456	3329.64
462.829	3370.1
463.201	3419.59
463.574	3440.83
463.947	3517.44
464.32	3556.76
464.692	3595.4
465.065	3631.11
465.438	3665.68
465.81	3708.84
466.183	3775.06
466.555	3850.08
466.928	3900.7
467.3	3897.76
467.672	3909.29
468.045	4028.83
468.417	4064.31
468.789	3986.35
469.161	4108.83
469.534	4184.31
469.906	4266.34
470.278	4266.79
470.65	4265.44
471.022	4394.47
471.394	4471.99
471.766	4495.26
472.138	4573
472.51	4625.2
472.882	4712.21
473.253	4736.84
473.625	4804.41
473.997	4907.46
474.369	4952.88
474.74	4963.5
475.112	5075.81
475.484	5158.52
475.855	5194
476.227	5304.51
476.598	5398.97
476.97	5396.71
477.341	5494.11
477.713	5633.99
478.084	5636.25
478.455	5803.03
478.827	5875.34
479.198	5952.17
479.569	5994.88
479.94	6150.59
480.311	6166.18
480.682	6305.39
481.053	6477.58
481.424	6520.29
481.795	6613.85
482.166	6669.22
482.537	6790.8
482.908	6866.73
483.279	6951.47
483.65	7048.87
484.021	7206.15
484.391	7217.45
484.762	7294.29
485.133	7384.9
485.503	7513.71
485.874	7627.38
486.244	7705.12
486.615	7806.14
486.985	7855.63
487.356	8017.43
487.726	8061.05
488.097	8152.12
488.467	8232.34
488.837	8377.19
489.207	8404.09
489.578	8514.37
489.948	8635.49
490.318	8733.8
490.688	8748.94
491.058	8858.76
491.428	8926.56
491.798	9085.42
492.168	9161.81
492.538	9222.6
492.908	9272.99
493.278	9429.6
493.648	9349.6
494.017	9532.42
494.387	9605.41
494.757	9625.52
495.126	9743.03
495.496	9734.9
495.866	9811.73
496.235	9837.5
496.605	9948.91
496.974	9948
497.344	10074.1
497.713	10061.67
498.082	10133.76
498.452	10187.99
498.821	10196.81
499.19	10265.96
499.559	10304.15
499.928	10381.44
500.298	10347.09
500.667	10483.81
501.036	10414.2
501.405	10535.56
501.774	10507.76
502.143	10576.01
502.512	10610.36
502.88	10648.1
503.249	10761.31
503.618	10705.5
503.987	10782.1
504.356	10780.3
504.724	10831.14
505.093	10812.16
505.462	10811.26
505.83	10901.2
506.199	11004.02
506.567	11043.34
506.936	10970.57
507.304	11121.76
507.672	11070.01
508.041	11233.84
508.409	11206.73
508.777	11256.89
509.145	11284.46
509.514	11259.83
509.882	11294.63
510.25	11366.95
510.618	11371.69
510.986	11291.24
511.354	11402.65
511.722	11440.39
512.09	11476.1
512.458	11436.55
512.826	11527.39
513.193	11565.59
513.561	11505.93
513.929	11605.58
514.297	11652.36
514.664	11712.02
515.032	11684
515.4	11686.26
515.767	11692.36
516.135	11732.36
516.502	11620.95
516.869	11748.18
517.237	11723.1
517.604	11724.68
517.972	11777.56
518.339	11838.57
518.706	11810.55
519.073	11760.83
519.44	11828.86
519.808	11856.88
520.175	11888.06
520.542	11856.43
520.909	11923.99
521.276	11817.1
521.643	11975.52
522.009	11927.84
522.376	12007.38
522.743	11980.26
523.11	12022.52
523.477	12006.48
523.843	11999.47
524.21	12101.84
524.577	12160.82
524.943	12115.63
525.31	12148.62
525.676	12184.33
526.043	12185.46
526.409	12220.94
526.776	12223.87
527.142	12166.47
527.508	12187.94
527.874	12200.6
528.241	12219.13
528.607	12203.99
528.973	12225.91
529.339	12157.89
529.705	12203.76
530.071	12272.46
530.437	12182.29
530.803	12204.21
531.169	12258
531.535	12104.1
531.901	12159.92
532.267	12114.72
532.632	12098.91
532.998	12138.45
533.364	11993.15
533.73	12046.25
534.095	12036.99
534.461	12086.48
534.826	11974.16
535.192	11934.62
535.557	12012.81
535.923	11911.34
536.288	11858.46
536.653	11947.04
537.019	11776.43
537.384	11718.8
537.749	11743.66
538.114	11636.32
538.479	11640.84
538.845	11603.32
539.21	11553.16
539.575	11563.55
539.94	11513.38
540.305	11524.68
540.67	11410.11
541.034	11429.54
541.399	11399.49
541.764	11340.51
542.129	11261.86
542.494	11306.16
542.858	11254.63
543.223	11166.95
543.587	11183.45
543.952	11094.41
544.316	11082.89
544.681	11001.98
545.045	10991.59
545.41	10948.43
545.774	10846.28
546.138	10832.72
546.503	10774.65
546.867	10695.1
547.231	10780.75
547.595	10678.6
547.959	10721.99
548.324	10601.77
548.688	10536.91
549.052	10544.6
549.416	10473.86
549.779	10449
550.143	10341.89
550.507	10467.31
550.871	10369.46
551.235	10314.32
551.599	10286.98
551.962	10296.92
552.326	10260.99
552.689	10193.87
553.053	10082.69
553.417	10136.92
553.78	10150.93
554.143	10080.88
554.507	10120.65
554.87	10049.69
555.234	10078.85
555.597	9907.78
555.96	9941.67
556.323	9946.87
556.686	9852.64
557.05	9888.79
557.413	9825.74
557.776	9823.26
558.139	9872.07
558.502	9773.09
558.865	9805.41
559.228	9725.86
559.59	9745.29
559.953	9716.59
560.316	9804.05
560.679	9662.13
561.041	9765.18
561.404	9703.04
561.767	9721.34
562.129	9616.03
562.492	9676.14
562.854	9660.33
563.217	9607.67
563.579	9635.92
563.941	9630.95
564.304	9640.89
564.666	9607.9
565.028	9612.42
565.39	9652.64
565.753	9682.92
566.115	9653.09
566.477	9658.74
566.839	9592.3
567.201	9693.09
567.563	9679.99
567.925	9663.71
568.287	9654.45
568.648	9626.88
569.01	9640.66
569.372	9674.56
569.734	9660.33
570.095	9639.99
570.457	9738.29
570.819	9713.66
571.18	9624.85
571.542	9751.62
571.903	9686.99
572.265	9720.21
572.626	9756.59
572.987	9697.39
573.349	9720.89
573.71	9766.99
574.071	9708.23
574.432	9767.21
574.794	9741.45
575.155	9699.42
575.516	9721.34
575.877	9747.1
576.238	9697.16
576.599	9684.96
576.96	9748.46
577.32	9769.47
577.681	9782.81
578.042	9734.67
578.403	9706.88
578.763	9698.29
579.124	9715.69
579.485	9754.56
579.845	9704.17
580.206	9803.6
580.566	9692.41
580.927	9740.77
581.287	9747.33
581.648	9706.43
582.008	9746.2
582.368	9679.08
582.728	9727.89
583.089	9712.98
583.449	9665.07
583.809	9723.83
584.169	9711.85
584.529	9646.99
584.889	9777.38
585.249	9710.49
585.609	9664.62
585.969	9712.08
586.329	9643.38
586.688	9682.47
587.048	9623.72
587.408	9640.21
587.768	9636.82
588.127	9681.34
588.487	9670.95
588.846	9649.48
589.206	9567.9
589.565	9579.88
589.925	9591.17
590.284	9564.51
590.643	9541.23
591.003	9563.83
591.362	9543.72
591.721	9556.82
592.08	9580.1
592.44	9606.99
592.799	9600.89
593.158	9528.8
593.517	9468.69
593.876	9607.22
594.235	9483.83
594.593	9521.8
594.952	9605.86
595.311	9475.92
595.67	9536.94
596.029	9499.65
596.387	9498.52
596.746	9505.75
597.104	9451.52
597.463	9482.02
597.822	9515.7
598.18	9460.78
598.538	9431.86
598.897	9470.27
599.255	9386.43
599.613	9513.21
599.972	9489.03
600.33	9492.65
600.688	9439.54
601.046	9474.34
601.404	9481.8
601.762	9484.06
602.12	9508.24
602.478	9497.84
602.836	9443.83
603.194	9415.59
603.552	9398.86
603.91	9418.52
604.268	9469.6
604.625	9460.56
604.983	9391.63
605.341	9467.11
605.698	9457.84
606.056	9444.51
606.413	9416.72
606.771	9436.83
607.128	9392.08
607.485	9442.48
607.843	9448.58
608.2	9426.21
608.557	9512.98
608.914	9431.4
609.272	9547.33
609.629	9510.5
609.986	9520.22
610.343	9524.51
610.7	9526.54
611.057	9486.32
611.414	9519.76
611.771	9466.88
612.127	9505.07
612.484	9505.98
612.841	9510.05
613.198	9524.51
613.554	9572.19
613.911	9546.43
614.267	9554.34
614.624	9539.42
614.98	9524.28
615.337	9586.65
615.693	9591.63
616.05	9558.41
616.406	9615.58
616.762	9595.24
617.118	9577.62
617.475	9588.69
617.831	9616.26
618.187	9605.41
618.543	9632.98
618.899	9633.21
619.255	9651.06
619.611	9626.88
619.967	9604.51
620.323	9671.4
620.678	9666.88
621.034	9668.91
621.39	9675.01
621.746	9595.92
622.101	9716.37
622.457	9647.44
622.812	9581.23
623.168	9635.24
623.523	9576.49
623.879	9700.78
624.234	9592.08
624.589	9654.45
624.945	9629.82
625.3	9627.56
625.655	9625.75
626.01	9578.75
626.365	9693.32
626.72	9646.09
627.075	9567.22
627.43	9585.07
627.785	9614.9
628.14	9575.36
628.495	9577.84
628.85	9598.63
629.205	9523.83
629.559	9594.79
629.914	9626.43
630.269	9577.16
630.623	9549.37
630.978	9555.24
631.332	9534.23
631.687	9592.3
632.041	9491.52
632.396	9500.1
632.75	9522.02
633.104	9434.57
633.459	9448.58
633.813	9490.84
634.167	9420.11
634.521	9405.42
634.875	9442.25
635.229	9429.6
635.583	9386.89
635.937	9340.79
636.291	9288.36
636.645	9303.27
636.999	9305.08
637.352	9364.51
637.706	9276.83
638.06	9335.36
638.413	9344.18
638.767	9242.48
639.121	9314.57
639.474	9207
639.828	9211.52
640.181	9245.19
640.534	9229.38
640.888	9197.51
641.241	9161.36
641.594	9201.13
641.947	9198.42
642.301	9219.88
642.654	9190.05
643.007	9225.99
643.36	9205.2
643.713	9198.64
644.066	9167.91
644.419	9081.36
644.771	9079.1
645.124	9061.24
645.477	8991.19
645.83	8962.49
646.182	8894.24
646.535	8903.28
646.888	8881.14
647.24	8812.21
647.593	8855.15
647.945	8818.54
648.298	8825.32
648.65	8837.75
649.002	8906.67
649.355	8849.27
649.707	8837.75
650.059	8892.66
650.411	8988.93
650.763	9005.88
651.115	9050.4
651.467	9015.82
651.819	9082.49
652.171	9087.68
652.523	8984.86
652.875	9073.22
653.227	9062.6
653.578	9110.74
653.93	9030.96
654.282	9028.25
654.633	8966.11
654.985	9026.9
655.337	9043.17
655.688	9013.79
656.039	9076.39
656.391	9025.09
656.742	9024.86
657.094	9031.64
657.445	9044.75
657.796	9024.41
658.147	9085.42
658.498	9055.6
658.849	9056.5
659.2	9022.83
659.551	8989.83
659.902	9096.95
660.253	8988.48
660.604	9063.5
660.955	9010.62
661.306	9128.14
661.656	9142.15
662.007	9096.27
662.358	9129.72
662.708	9116.16
663.059	9136.05
663.409	9085.2
663.76	9140.34
664.11	9096.72
664.461	9171.07
664.811	9156.38
665.161	9130.85
665.511	9082.71
665.862	9119.32
666.212	9172.2
666.562	9160.45
666.912	9150.28
667.262	9094.69
667.612	9158.42
667.962	9192.99
668.312	9110.28
668.662	9177.17
669.011	9180.79
669.361	9113.9
669.711	9124.97
670.06	9165.65
670.41	9120.9
670.76	9153.67
671.109	9101.02
671.459	9160.68
671.808	9112.09
672.157	9107.57
672.507	9024.64
672.856	9134.46
673.205	9086.55
673.554	9127.91
673.904	9052.66
674.253	9119.77
674.602	9069.83
674.951	8924.3
675.3	8908.03
675.649	9001.59
675.998	8992.55
676.346	9056.27
676.695	8972.89
677.044	8987.35
677.393	9023.28
677.741	9019.66
678.09	8882.27
678.438	8935.6
678.787	8942.15
679.135	8932.66
679.484	8852.21
679.832	8875.49
680.181	8853.57
680.529	8843.85
680.877	8821.25
681.225	8807.69
681.573	8898.76
681.922	8754.81
682.27	8762.04
682.618	8725.66
682.966	8750.74
683.314	8698.09
683.661	8761.37
684.009	8680.01
684.357	8543.74
684.705	8597.98
685.053	8666.45
685.4	8608.83
685.748	8581.71
686.095	8553.01
686.443	8497.19
686.79	8470.53
687.138	8538.77
687.485	8534.25
687.832	8496.97
688.18	8486.34
688.527	8419.68
688.874	8400.92
689.221	8376.52
689.568	8323.41
689.915	8310.76
690.262	8374.03
690.609	8314.82
690.956	8289.74
691.303	8278.21
691.65	8147.82
691.997	8156.86
692.344	8187.6
692.69	8134.49
693.037	8155.73
693.383	8090.65
693.73	8033.7
694.077	7988.05
694.423	8014.27
694.769	7952.57
695.116	7934.27
695.462	7948.96
695.808	7833.48
696.155	7904.67
696.501	7809.75
696.847	7828.51
697.193	7767.95
697.539	7797.1
697.885	7698.57
698.231	7650.89
698.577	7660.15
698.923	7638.23
699.269	7572.47
699.614	7588.06
699.96	7534.05
700.306	7525.47
700.651	7425.58
700.997	7484.34
701.342	7465.58
701.688	7430.33
702.033	7366.15
702.379	7289.54
702.724	7287.51
703.069	7346.49
703.415	7204.57
703.76	7201.41
704.105	7213.38
704.45	7193.05
704.795	7182.42
705.14	7163.67
705.485	7104.69
705.83	7078.7
706.175	7126.61
706.52	7046.38
706.865	7076.21
707.209	7049.09
707.554	7024.69
707.899	6986.5
708.243	6973.62
708.588	6937.23
708.932	6933.84
709.277	6877.8
709.621	6930.23
709.966	6871.47
710.31	6861.3
710.654	6795.09
710.998	6835.54
711.342	6789.21
711.687	6769.78
712.031	6775.66
712.375	6695.88
712.719	6757.35
713.063	6706.05
713.407	6701.08
713.75	6651.59
714.094	6671.48
714.438	6631.48
714.782	6619.28
715.125	6659.73
715.469	6600.74
715.812	6575.66
716.156	6563.23
716.499	6608.43
716.843	6553.97
717.186	6529.33
717.53	6513.74
717.873	6499.5
718.216	6533.18
718.559	6476.91
718.902	6484.59
719.246	6483.46
719.589	6495.44
719.932	6421.77
720.275	6484.14
720.617	6462.22
720.96	6428.55
721.303	6440.52
721.646	6410.47
721.989	6440.52
722.331	6377.93
722.674	6383.58
723.016	6429.68
723.359	6394.2
723.701	6422.22
724.044	6332.95
724.386	6356.01
724.729	6413.4
725.071	6357.14
725.413	6367.53
725.755	6375.21
726.097	6307.87
726.439	6306.29
726.782	6335.21
727.124	6352.39
727.465	6287.31
727.807	6285.72
728.149	6297.02
728.491	6320.75
728.833	6300.19
729.175	6287.53
729.516	6320.53
729.858	6307.87
730.199	6291.6
730.541	6316.68
730.882	6355.55
731.224	6315.55
731.565	6291.37
731.906	6252.73
732.248	6330.47
732.589	6265.39
732.93	6219.74
733.271	6272.62
733.612	6299.96
733.953	6315.55
734.294	6311.49
734.635	6288.89
734.976	6301.77
735.317	6283.01
735.658	6332.28
735.999	6334.76
736.339	6306.74
736.68	6360.07
737.021	6334.54
737.361	6312.62
737.702	6331.15
738.042	6329.57
738.383	6286.63
738.723	6330.24
739.063	6362.33
739.404	6402.78
739.744	6358.27
740.084	6331.37
740.424	6383.12
740.764	6371.37
741.104	6432.16
741.444	6418.38
741.784	6417.02
742.124	6450.69
742.464	6398.72
742.804	6449.11
743.143	6530.01
743.483	6525.04
743.823	6481.43
744.162	6601.2
744.502	6572.72
744.841	6649.78
745.181	6647.52
745.52	6615.89
745.86	6701.53
746.199	6744.24
746.538	6796.9
746.877	6859.95
747.216	6878.48
747.556	6879.61
747.895	7014.74
748.234	6988.76
748.573	7025.37
748.911	7109.43
749.25	7214.74
749.589	7224.68
749.928	7268.75
750.267	7325.47
750.605	7416.09
750.944	7535.41
751.283	7596.88
751.621	7675.52
751.96	7742.86
752.298	7791.67
752.636	7951.67
752.975	8013.14
753.313	8074.6
753.651	8256.52
753.989	8333.13
754.327	8391.88
754.666	8503.75
755.004	8639.33
755.342	8779.22
755.679	8882.49
756.017	9026.9
756.355	9157.97
756.693	9309.15
757.031	9496.26
757.368	9575.58
757.706	9699.19
758.044	9816.93
758.381	10022.35
758.719	10229.58
759.056	10350.48
759.394	10498.27
759.731	10602.67
760.068	10837.24
760.405	10895.55
760.743	11130.12
761.08	11291.69
761.417	11502.08
761.754	11585.25
762.091	11825.24
762.428	11967.38
762.765	12053.48
763.102	12323.76
763.438	12380.03
763.775	12628.83
764.112	12912.67
764.449	13051.2
764.785	13162.15
765.122	13281.92
765.458	13471.07
765.795	13588.58
766.131	13824.96
766.467	13905.41
766.804	14018.18
767.14	14224.05
767.476	14348.56
767.812	14505.85
768.148	14683.47
768.485	14758.72
768.821	14875.56
769.157	14981.77
769.492	15186.28
769.828	15298.82
770.164	15400.29
770.5	15514.18
770.836	15564.35
771.171	15777.68
771.507	15869.88
771.842	16016.32
772.178	16066.48
772.513	16127.05
772.849	16280.26
773.184	16289.08
773.519	16470.77
773.855	16480.94
774.19	16558.9
774.525	16707.37
774.86	16752.34
775.195	16893.58
775.53	16881.15
775.865	16858.55
776.2	16964.54
776.535	16909.85
776.87	17124.08
777.205	17089.96
777.539	17097.87
777.874	17277.98
778.209	17184.42
778.543	17225.78
778.878	17291.31
779.212	17378.99
779.547	17365.43
779.881	17454.47
780.215	17373.12
780.55	17553.22
780.884	17389.16
781.218	17515.94
781.552	17585.99
781.886	17502.15
782.22	17494.02
782.554	17367.92
782.888	17413.57
783.222	17353.23
783.556	17434.58
783.889	17348.03
784.223	17437.07
784.557	17369.27
784.89	17500.12
785.224	17401.36
785.557	17397.52
785.891	17387.13
786.224	17379.67
786.558	17399.1
786.891	17327.02
787.224	17232.1
787.557	17285.44
787.891	17256.28
788.224	17387.81
788.557	17276.85
788.89	17268.03
789.223	17318.43
789.556	17333.57
789.888	17245.89
790.221	17222.61
790.554	17069.17
790.887	17193.91
791.219	17017.42
791.552	17103.07
791.884	17070.98
792.217	17076.4
792.549	17079.34
792.882	16914.6
793.214	16891.32
793.546	16961.38
793.879	16877.99
794.211	16773.81
794.543	16847.25
794.875	16871.21
795.207	16779.46
795.539	16819.68
795.871	16825.33
796.203	16659.92
796.535	16597.77
796.867	16600.03
797.198	16607.04
797.53	16489.52
797.862	16394.61
798.193	16576.75
798.525	16343.54
798.856	16395.97
799.188	16214.73
799.519	16289.53
799.85	16142.64
800.182	16221.51
800.513	16303.99
800.844	16079.14
801.175	16220.6
801.506	16201.62
801.837	16071.23
802.168	16023.55
802.499	16089.31
802.83	15887.96
803.161	15977.22
803.491	15880.95
803.822	15958.01
804.153	15842.54
804.483	15722.99
804.814	15688.42
805.145	15660.85
805.475	15602.32
805.805	15629.43
806.136	15608.64
806.466	15621.3
806.796	15576.78
807.126	15541.98
807.457	15457.69
807.787	15545.37
808.117	15408.2
808.447	15447.74
808.777	15442.55
809.107	15227.41
809.436	15256.56
809.766	15271.7
810.096	15254.98
810.426	15163.68
810.755	15203.68
811.085	15153.97
811.414	15090.24
811.744	15071.03
812.073	15027.19
812.403	15034.65
812.732	14922.11
813.061	15026.29
813.39	14905.16
813.719	14883.24
814.049	14911.94
814.378	14955.78
814.707	14841.21
815.036	14753.3
815.365	14819.51
815.693	14669.91
816.022	14654.77
816.351	14682.11
816.68	14485.51
817.008	14609.35
817.337	14508.11
817.665	14512.4
817.994	14451.84
818.322	14371.84
818.651	14418.84
818.979	14358.73
819.307	14459.97
819.636	14421.33
819.964	14337.49
820.292	14339.52
820.62	14269.7
820.948	14311.05
821.276	14361.67
821.604	14279.86
821.932	14358.96
822.259	14320.09
822.587	14339.3
822.915	14270.37
823.243	14356.25
823.57	14349.02
823.898	14292.07
824.225	14182.92
824.553	14264.5
824.88	14313.08
825.207	14313.99
825.535	14354.66
825.862	14353.08
826.189	14320.54
826.516	14293.42
826.843	14424.27
827.17	14363.93
827.497	14312.63
827.824	14346.53
828.151	14375
828.478	14323.25
828.805	14368.22
829.131	14316.47
829.458	14311.5
829.785	14309.02
830.111	14329.13
830.438	14372.97
830.764	14369.58
831.09	14306.98
831.417	14344.72
831.743	14282.12
832.069	14298.62
832.395	14337.72
832.722	14273.31
833.048	14240.77
833.374	14268.34
833.7	14268.79
834.026	14240.32
834.351	14273.09
834.677	14232.63
835.003	14263.14
835.329	14233.99
835.654	14312.63
835.98	14149.7
836.306	14150.38
836.631	14145.18
836.956	14150.6
837.282	14170.94
837.607	14098.63
837.932	14096.82
838.258	14062.47
838.583	14026.54
838.908	14037.39
839.233	14044.16
839.558	14008.46
839.883	13879.65
840.208	13841.46
840.533	13881.01
840.858	13854.57
841.182	13848.69
841.507	13837.62
841.832	13666.1
842.156	13751.74
842.481	13741.35
842.805	13756.49
843.13	13697.28
843.454	13693.21
843.778	13625.64
844.103	13589.71
844.427	13495.48
844.751	13585.65
845.075	13464.97
845.399	13453.22
845.723	13325.99
846.047	13374.35
846.371	13364.41
846.695	13376.39
847.019	13239.44
847.343	13159.67
847.666	13046.9
847.99	13077.41
848.313	12923.97
848.637	12951.09
848.96	12862.95
849.284	12876.74
849.607	12841.71
849.931	12806.01
850.254	12682.84
850.577	12627.25
850.9	12571.21
851.223	12534.37
851.546	12482.62
851.869	12438.78
852.192	12383.42
852.515	12276.08
852.838	12249.41
853.161	12267.49
853.483	12182.97
853.806	12197.89
854.129	12107.94
854.451	12043.54
854.774	12005.57
855.096	11908.63
855.419	11967.38
855.741	11998.34
856.063	11902.75
856.385	11808.29
856.708	11841.96
857.03	11762.42
857.352	11791.34
857.674	11756.77
857.996	11703.44
858.318	11704.79
858.64	11641.29
858.961	11626.83
859.283	11523.78
859.605	11524.68
859.926	11530.11
860.248	11412.37
860.57	11391.8
860.891	11470
861.212	11338.47
861.534	11337.34
861.855	11341.86
862.176	11333.05
862.498	11324.69
862.819	11261.64
863.14	11293.73
863.461	11225.93
863.782	11179.38
864.103	11278.14
864.424	11208.08
864.745	11168.76
865.065	11161.98
865.386	11123.11
865.707	11058.48
866.027	11096.9
866.348	11060.29
866.668	11080.4
866.989	10954.75
867.309	10973.51
867.63	10999.95
867.95	10975.54
868.27	10835.66
868.59	10839.73
868.91	10898.94
869.23	10916.79
869.55	10841.76
869.87	10868.2
870.19	10851.25
870.51	10797.7
870.83	10854.42
871.15	10792.27
871.469	10797.7
871.789	10764.7
872.109	10720.64
872.428	10674.54
872.748	10724.25
873.067	10667.3
873.386	10686.29
873.706	10660.75
874.025	10730.81
874.344	10557.93
874.663	10590.47
874.982	10586.4
875.301	10615.78
875.62	10493.52
875.939	10493.98
876.258	10561.77
876.577	10473.19
876.896	10501.88
877.214	10425.05
877.533	10395.45
877.852	10376.46
878.17	10392.28
878.489	10390.7
878.807	10395.45
879.125	10404.49
879.444	10338.05
879.762	10339.86
880.08	10257.37
880.398	10280.87
880.716	10248.11
881.034	10255.34
881.352	10254.21
881.67	10211.05
881.988	10146.41
882.306	10151.16
882.624	10044.27
882.941	10088.56
883.259	10117.94
883.577	10099.64
883.894	10033.87
884.212	10013.08
884.529	9977.6
884.846	10053.31
885.164	9917.72
885.481	9900.09
885.798	9924.27
886.115	9874.56
886.432	9809.7
886.75	9873.65
887.067	9833.2
887.383	9772.64
887.7	9774.67
888.017	9764.05
888.334	9745.75
888.651	9748.46
888.967	9707.78
889.284	9663.04
889.6	9654
889.917	9615.13
890.233	9549.82
890.55	9500.1
890.866	9523.83
891.182	9467.34
891.498	9440.67
891.815	9393.21
892.131	9343.05
892.447	9431.86
892.763	9311.18
893.079	9262.37
893.395	9303.72
893.71	9294.68
894.026	9229.83
894.342	9234.12
894.657	9127.46
894.973	9122.94
895.289	9143.05
895.604	9030.29
895.92	8995.71
896.235	8988.25
896.55	8989.16
896.865	8959.78
897.181	8936.5
897.496	8904.41
897.811	8868.03
898.126	8846.11
898.441	8821.25
898.756	8786.68
899.071	8700.8
899.386	8712.78
899.7	8674.81
900.015	8593.46
900.33	8520.69
900.644	8591.65
900.959	8569.73
901.273	8571.54
901.588	8480.24
901.902	8445.22
902.216	8409.96
902.531	8421.49
902.845	8333.13
903.159	8300.13
903.473	8290.87
903.787	8224.66
904.101	8210.65
904.415	8230.53
904.729	8146.69
905.042	8146.69
905.356	8035.96
905.67	8041.84
905.984	8059.69
906.297	8079.35
906.611	7963.87
906.924	7947.6
907.237	7953.7
907.551	7933.36
907.864	7827.38
908.177	7849.98
908.491	7841.39
908.804	7802.07
909.117	7752.8
909.43	7668.51
909.743	7627.84
910.056	7613.37
910.368	7560.04
910.681	7633.26
910.994	7534.28
911.307	7471.68
911.619	7459.48
911.932	7450.89
912.244	7378.58
912.557	7441.63
912.869	7355.53
913.181	7296.09
913.494	7321.18
913.806	7208.86
914.118	7234.63
914.43	7210.45
914.742	7176.77
915.054	7129.09
915.366	7069.43
915.678	7080.96
915.99	7032.6
916.302	6964.12
916.613	7025.14
916.925	6957.35
917.236	6956.22
917.548	6883.9
917.859	6863.56
918.171	6868.76
918.482	6775.66
918.794	6745.37
919.105	6756.45
919.416	6706.5
919.727	6732.94
920.038	6730.01
920.349	6663.57
920.66	6602.55
920.971	6632.16
921.282	6600.07
921.593	6547.19
921.903	6521.2
922.214	6522.33
922.525	6466.74
922.835	6418.15
923.146	6453.18
923.456	6399.17
923.767	6391.03
924.077	6403.24
924.387	6331.37
924.697	6262.22
925.008	6253.18
925.318	6234.2
925.628	6244.14
925.938	6180.42
926.248	6155.78
926.558	6132.06
926.867	6136.58
927.177	6102.45
927.487	6059.29
927.796	5987.88
928.106	6042.57
928.416	5973.42
928.725	5974.32
929.034	5991.72
929.344	5970.48
929.653	5946.07
929.962	5859.3
930.271	5813.87
930.581	5853.87
930.89	5796.7
931.199	5800.09
931.508	5810.48
931.817	5732.29
932.125	5716.02
932.434	5690.71
932.743	5700.2
933.051	5634.44
933.36	5623.37
933.669	5554.67
933.977	5584.05
934.286	5596.25
934.594	5592.18
934.902	5532.3
935.21	5474.67
935.519	5442.58
935.827	5439.65
936.135	5454.11
936.443	5324.85
936.751	5395.13
937.059	5358.29
937.367	5324.62
937.674	5301.8
937.982	5253.89
938.29	5232.42
938.597	5234
938.905	5180.89
939.213	5141.57
939.52	5116.72
939.827	5169.82
940.135	5147.9
940.442	5126.21
940.749	5116.49
941.056	5111.29
941.363	5026.32
941.67	5027.45
941.977	4992.88
942.284	4963.05
942.591	4919.66
942.898	4904.52
943.205	4954.23
943.511	4913.11
943.818	4889.38
944.125	4838.98
944.431	4842.6
944.738	4842.37
945.044	4842.37
945.35	4813.45
945.657	4725.99
945.963	4697.29
946.269	4693.45
946.575	4682.15
946.881	4692.32
947.187	4661.59
947.493	4636.28
947.799	4617.75
948.105	4580.23
948.41	4537.3
948.716	4511.53
949.022	4538.2
949.327	4514.02
949.633	4485.55
949.938	4459.33
950.244	4487.35
950.549	4461.59
950.854	4427.02
951.16	4406.23
951.465	4381.82
951.77	4328.26
952.075	4333.69
952.38	4326
952.685	4339.79
952.99	4297.08
953.294	4313.57
953.599	4228.6
953.904	4226.12
954.209	4265.44
954.513	4187.02
954.818	4157.64
955.122	4170.75
955.426	4097.08
955.731	4126.91
956.035	4097.76
956.339	4081.49
956.643	4082.39
956.948	4029.29
957.252	4037.87
957.556	4017.76
957.86	3962.62
958.163	4011.89
958.467	3956.29
958.771	3979.34
959.075	3886.69
959.378	3923.75
959.682	3917.2
959.985	3850.53
960.289	3885.11
960.592	3868.84
960.896	3844.21
961.199	3819.12
961.502	3811.21
961.805	3792.68
962.108	3753.59
962.411	3728.28
962.714	3718.11
963.017	3738.45
963.32	3720.82
963.623	3701.84
963.926	3691.44
964.228	3657.77
964.531	3620.94
964.833	3622.74
965.136	3625.68
965.438	3594.5
965.741	3572.8
966.043	3551.56
966.345	3578.45
966.648	3525.35
966.95	3538.68
967.252	3518.11
967.554	3464.33
967.856	3491.9
968.158	3414.39
968.46	3426.36
968.761	3427.27
969.063	3425.23
969.365	3384.33
969.666	3369.64
969.968	3347.95
970.269	3312.02
970.571	3358.57
970.872	3300.04
971.174	3265.46
971.475	3288.06
971.776	3287.61
972.077	3253.94
972.378	3201.06
972.679	3208.52
972.98	3253.94
973.281	3220.27
973.582	3182.08
973.883	3187.95
974.183	3153.38
974.484	3169.87
974.785	3183.89
975.085	3118.12
975.386	3146.15
975.686	3124.45
975.986	3078.35
976.287	3087.16
976.587	3021.4
976.887	3011.91
977.187	3036.09
977.487	3054.85
977.787	3010.56
978.087	3005.58
978.387	2958.35
978.687	2991.8
978.987	2938.02
979.286	2987.05
979.586	2930.56
979.885	2950.67
980.185	2914.97
980.484	2907.96
980.784	2884.91
981.083	2870.45
981.382	2852.37
981.682	2841.52
981.981	2819.15
982.28	2813.27
982.579	2799.49
982.878	2805.59
983.177	2825.7
983.475	2761.98
983.774	2754.29
984.073	2739.83
984.372	2700.51
984.67	2690.79
984.969	2713.84
985.267	2695.31
985.566	2707.97
985.864	2656.44
986.162	2683.11
986.461	2637.23
986.759	2639.72
987.057	2573.96
987.355	2599.95
987.653	2596.78
987.951	2601.08
988.249	2577.12
988.547	2563.34
988.844	2551.13
989.142	2530.57
989.44	2528.31
989.737	2538.03
990.035	2497.58
990.332	2513.62
990.63	2494.41
990.927	2461.42
991.224	2453.96
991.521	2442.21
991.819	2459.84
992.116	2478.59
992.413	2407.63
992.71	2407.18
993.006	2380.74
993.303	2366.05
993.6	2352.72
993.897	2344.59
994.193	2354.3
994.49	2364.25
994.787	2345.49
995.083	2328.09
995.379	2286.73
995.676	2283.34
995.972	2291.25
996.268	2257.13
996.565	2243.12
996.861	2252.38
997.157	2218.49
997.453	2220.52
997.749	2212.39
998.044	2171.48
998.34	2203.57
998.636	2171.93
998.932	2159.73
999.227	2102.78
999.523	2099.17
999.818	2115.66
1000.114	2112.73
1000.409	2100.75
1000.704	2064.59
1001	2049.9
1001.295	2075.44
1001.59	2067.76
1001.885	2058.94
1002.18	2045.38
1002.475	2022.33
1002.77	2006.52
1003.065	2002.22
1003.359	1989.57
1003.654	2013.29
1003.949	1977.36
1004.243	1976.23
1004.538	1939.85
1004.832	1929.23
1005.127	1903.01
1005.421	1928.1
1005.715	1884.71
1006.009	1915.44
1006.304	1900.3
1006.598	1873.41
1006.892	1850.59
1007.186	1865.28
1007.48	1847.2
1007.773	1836.35
1008.067	1816.46
1008.361	1818.27
1008.655	1824.37
1008.948	1806.75
1009.242	1800.64
1009.535	1771.94
1009.829	1795.45
1010.122	1743.7
1010.415	1754.09
1010.708	1737.14
1011.001	1751.61
1011.295	1748.44
1011.588	1731.49
1011.881	1699.86
1012.173	1694.66
1012.466	1687.88
1012.759	1663.02
1013.052	1651.95
1013.344	1648.11
1013.637	1644.94
1013.93	1625.73
1014.222	1611.95
1014.514	1608.11
1014.807	1586.41
1015.099	1561.78
1015.391	1576.24
1015.683	1576.47
1015.976	1597.26
1016.268	1533.99
1016.56	1561.1
1016.851	1540.54
1017.143	1530.37
1017.435	1531.5
1017.727	1492.18
1018.018	1503.48
1018.31	1505.74
1018.602	1463.03
1018.893	1471.84
1019.185	1423.03
1019.476	1469.58
1019.767	1443.14
1020.058	1427.77
1020.35	1389.36
1020.641	1399.3
1020.932	1396.81
1021.223	1375.35
1021.514	1377.15
1021.804	1341.67
1022.095	1372.18
1022.386	1356.14
1022.677	1348.91
1022.967	1356.36
1023.258	1353.88
1023.548	1349.58
1023.839	1302.35
1024.129	1318.4
1024.419	1317.27
1024.709	1267.78
1025	1287.44
1025.29	1279.53
1025.58	1259.64
1025.87	1274.78
1026.16	1258.51
1026.449	1250.83
1026.739	1238.63
1027.029	1222.58
1027.319	1195.24
1027.608	1202.69
1027.898	1194.56
1028.187	1188.68
1028.477	1198.63
1028.766	1154.56
1029.055	1178.29
1029.344	1157.5
1029.634	1152.53
1029.923	1153.2
1030.212	1127.44
1030.501	1141
1030.79	1097.61
1031.078	1101.23
1031.367	1109.36
1031.656	1112.53
1031.945	1069.82
1032.233	1079.31
1032.522	1116.14
1032.81	1098.06
1033.099	1086.09
1033.387	1075.47
1033.675	1083.38
1033.963	1043.83
1034.251	1061.68
1034.54	1023.04
1034.828	1003.38
1035.116	1035.24
1035.403	1015.13
1035.691	1006.99
1035.979	1008.58
1036.267	985.52
1036.554	1017.16
1036.842	991.85
1037.129	962.25
1037.417	981.23
1037.704	968.12
1037.992	965.86
1038.279	935.81
1038.566	956.15
1038.853	956.15
1039.14	956.15
