Data from hue_40_FLMS001491_40.txt Node
Date: Mon Feb 06 15:07:49 GMT 2017
User: dcchb
Spectrometer: FLMS00149
Trigger mode: 0
Integration Time (sec): 2.000000E-2
Scans to average: 10
Electric dark correction enabled: true
Nonlinearity correction enabled: false
Boxcar width: 0
XAxis mode: Wavelengths
Number of Pixels in Spectrum: 2048
>>>>>Begin Spectral Data<<<<<
341.393	-21.26
341.776	-21.26
342.16	-21.26
342.543	-64.65
342.927	-61.93
343.31	-70.52
343.693	-65.1
344.077	-66.91
344.46	-59
344.843	-65.1
345.226	-34.36
345.61	-27.36
345.993	-10.41
346.376	4.28
346.759	-0.92
347.142	31.17
347.525	26.65
347.908	63.49
348.291	62.13
348.674	92.41
349.057	119.53
349.44	128.57
349.823	139.87
350.206	164.05
350.588	189.13
350.971	212.41
351.354	223.71
351.737	218.74
352.119	244.05
352.502	255.8
352.884	263.26
353.267	291.05
353.65	281.11
354.032	291.96
354.414	295.12
354.797	321.56
355.179	329.24
355.562	319.53
355.944	332.86
356.326	312.97
356.709	331.5
357.091	336.47
357.473	342.12
357.855	334.89
358.238	332.63
358.62	327.43
359.002	319.07
359.384	338.73
359.766	323.14
360.148	329.69
360.53	331.28
360.912	329.47
361.294	311.62
361.676	319.07
362.057	331.28
362.439	316.14
362.821	327.66
363.203	316.59
363.584	315.68
363.966	305.51
364.348	319.07
364.729	322.24
365.111	318.4
365.493	330.82
365.874	318.4
366.256	317.04
366.637	316.14
367.019	328.79
367.4	316.81
367.781	313.42
368.163	311.62
368.544	314.33
368.925	301.67
369.306	331.73
369.688	299.19
370.069	313.65
370.45	319.07
370.831	298.74
371.212	300.99
371.593	314.33
371.974	302.35
372.355	301.45
372.736	322.01
373.117	303.93
373.498	294.89
373.879	310.94
374.26	337.38
374.641	305.51
375.021	300.32
375.402	317.72
375.783	312.07
376.163	307.32
376.544	312.29
376.925	317.49
377.305	321.79
377.686	341.9
378.066	312.07
378.447	309.81
378.827	309.58
379.208	291.5
379.588	332.63
379.968	324.27
380.349	329.92
380.729	353.42
381.109	335.8
381.489	321.56
381.87	343.25
382.25	324.27
382.63	338.06
383.01	344.16
383.39	327.43
383.77	332.41
384.15	337.38
384.53	338.28
384.91	331.28
385.29	353.87
385.67	328.56
386.049	357.72
386.429	345.29
386.809	359.07
387.189	326.98
387.568	322.01
387.948	332.41
388.328	354.55
388.707	335.8
389.087	338.51
389.466	368.11
389.846	336.02
390.225	350.03
390.605	355.91
390.984	357.72
391.363	362.91
391.743	361.56
392.122	364.04
392.501	357.94
392.881	350.26
393.26	363.59
393.639	363.14
394.018	361.33
394.397	351.84
394.776	366.53
395.155	359.52
395.534	389.13
395.913	350.94
396.292	364.72
396.671	349.36
397.05	355.91
397.429	368.56
397.808	385.96
398.186	369.02
398.565	366.3
398.944	371.95
399.323	367.43
399.701	382.57
400.08	369.02
400.458	381.9
400.837	364.72
401.215	371.05
401.594	379.18
401.972	398.39
402.351	381.67
402.729	393.2
403.107	367.66
403.486	372.41
403.864	387.55
404.242	384.83
404.62	391.61
404.999	371.95
405.377	400.88
405.755	373.08
406.133	401.78
406.511	417.15
406.889	425.74
407.267	423.48
407.645	394.78
408.023	406.3
408.401	411.05
408.779	417.6
409.156	413.31
409.534	405.62
409.912	412.18
410.29	417.38
410.667	421.44
411.045	424.83
411.422	435.68
411.8	435.45
412.178	455.79
412.555	442.01
412.933	441.78
413.31	453.99
413.687	437.26
414.065	459.63
414.442	439.3
414.819	455.12
415.197	451.27
415.574	470.93
415.951	452.18
416.328	460.09
416.705	463.02
417.082	464.38
417.46	456.7
417.837	466.87
418.214	488.11
418.591	476.81
418.967	459.63
419.344	493.08
419.721	463.93
420.098	484.94
420.475	483.36
420.852	484.94
421.228	498.05
421.605	505.74
421.982	514.1
422.358	496.02
422.735	496.92
423.111	483.36
423.488	519.97
423.864	504.38
424.241	513.64
424.617	523.14
424.994	537.6
425.37	505.74
425.746	502.35
426.123	519.07
426.499	525.85
426.875	524.04
427.251	553.64
427.627	545.51
428.003	524.49
428.379	546.86
428.756	553.42
429.132	538.95
429.507	534.66
429.883	530.82
430.259	578.28
430.635	586.41
431.011	565.62
431.387	583.02
431.763	566.3
432.138	562.46
432.514	580.76
432.89	587.54
433.265	597.26
433.641	579.18
434.016	614.66
434.392	611.5
434.767	620.31
435.143	625.51
435.518	613.53
435.894	633.42
436.269	626.41
436.644	651.27
437.02	613.08
437.395	631.83
437.77	649.01
438.145	661.66
438.52	660.31
438.895	675
439.271	643.13
439.646	663.25
440.021	686.75
440.395	688.78
440.77	691.04
441.145	672.96
441.52	690.59
441.895	696.24
442.27	699.18
442.645	694.43
443.019	704.15
443.394	700.08
443.769	726.97
444.143	679.29
444.518	697.37
444.892	712.51
445.267	716.35
445.641	704.6
446.016	747.08
446.39	739.18
446.764	728.1
447.139	754.54
447.513	735.79
447.887	734.2
448.262	753.86
448.636	738.95
449.01	731.04
449.384	767.2
449.758	773.75
450.132	761.32
450.506	748.44
450.88	787.08
451.254	780.3
451.628	788.67
452.002	779.17
452.376	799.06
452.75	789.57
453.123	809
453.497	824.82
453.871	803.13
454.244	819.63
454.618	844.94
454.992	833.41
455.365	839.06
455.739	833.18
456.112	855.78
456.486	866.63
456.859	884.48
457.232	879.96
457.606	880.19
457.979	886.74
458.352	885.84
458.725	923.58
459.099	944.37
459.472	944.59
459.845	951.37
460.218	966.51
460.591	953.41
460.964	956.34
461.337	997.47
461.71	987.08
462.083	987.53
462.456	1013.52
462.829	1003.58
463.201	1034.53
463.574	1049.9
463.947	1041.77
464.32	1055.1
464.692	1070.24
465.065	1095.32
465.438	1128.77
465.81	1094.19
466.183	1126.74
466.555	1147.98
466.928	1140.75
467.3	1160.86
467.672	1200.86
468.045	1223.23
468.417	1234.3
468.789	1239.5
469.161	1250.12
469.534	1296
469.906	1298.26
470.278	1307.52
470.65	1331.25
471.022	1369.67
471.394	1370.8
471.766	1390.46
472.138	1420.29
472.51	1470.91
472.882	1484.24
473.253	1521.08
473.625	1527.63
473.997	1573.28
474.369	1597.46
474.74	1639.04
475.112	1651.02
475.484	1691.01
475.855	1760.39
476.227	1790.9
476.598	1810.33
476.97	1834.29
477.341	1888.98
477.713	1900.27
478.084	1994.51
478.455	2032.93
478.827	2070.44
479.198	2110.21
479.569	2143.21
479.94	2199.7
480.311	2275.18
480.682	2355.86
481.053	2428.17
481.424	2479.02
481.795	2531.67
482.166	2560.82
482.537	2614.61
482.908	2717.88
483.279	2758.33
483.65	2836.07
484.021	2927.59
484.391	2967.82
484.762	3037.65
485.133	3121.49
485.503	3196.74
485.874	3308.37
486.244	3397.64
486.615	3450.06
486.985	3535.03
487.356	3633.34
487.726	3676.27
488.097	3843.5
488.467	3854.8
488.837	4015.47
489.207	4074.68
489.578	4195.58
489.948	4283.26
490.318	4373.88
490.688	4402.13
491.058	4548.57
491.428	4690.03
491.798	4749.24
492.168	4851.38
492.538	4945.17
492.908	5046.63
493.278	5193.07
493.648	5195.1
494.017	5309.68
494.387	5406.85
494.757	5501.99
495.126	5613.62
495.496	5623.11
495.866	5802.55
496.235	5854.97
496.605	5958.25
496.974	6015.87
497.344	6130.67
497.713	6191.46
498.082	6344
498.452	6380.38
498.821	6446.37
499.19	6508.29
499.559	6626.93
499.928	6718
500.298	6802.52
500.667	6913.02
501.036	6939.46
501.405	7019.91
501.774	7103.98
502.143	7172.68
502.512	7278.89
502.88	7367.02
503.249	7370.87
503.618	7467.59
503.987	7474.14
504.356	7615.6
504.724	7703.51
505.093	7735.38
505.462	7858.31
505.83	7891.76
506.199	7922.49
506.567	8082.26
506.936	8121.35
507.304	8203.84
507.672	8310.95
508.041	8369.03
508.409	8431.85
508.777	8519.08
509.145	8604.96
509.514	8621.68
509.882	8717.27
510.25	8785.29
510.618	8852.18
510.986	8870.71
511.354	8983.48
511.722	9035.45
512.09	9132.4
512.458	9196.81
512.826	9257.6
513.193	9273.41
513.561	9327.65
513.929	9382.56
514.297	9543.69
514.664	9463.47
515.032	9634.53
515.4	9702.56
515.767	9755.21
516.135	9781.88
516.502	9796.56
516.869	9962.89
517.237	9992.04
517.604	9997.92
517.972	10146.39
518.339	10144.35
518.706	10186.38
519.073	10286.5
519.44	10360.62
519.808	10464.12
520.175	10422.31
520.542	10618.01
520.909	10723.55
521.276	10633.38
521.643	10716.31
522.009	10804.9
522.376	10856.65
522.743	10938.23
523.11	11084.67
523.477	11089.64
523.843	11183.19
524.21	11316.75
524.577	11394.49
524.943	11429.97
525.31	11485.33
525.676	11501.83
526.043	11665.67
526.409	11639
526.776	11837.41
527.142	11872.22
527.508	11957.86
527.874	12030.63
528.241	12079.44
528.607	12169.84
528.973	12178.2
529.339	12210.74
529.705	12332.99
530.071	12504.06
530.437	12545.19
530.803	12542.48
531.169	12662.7
531.535	12705.87
531.901	12696.15
532.267	12803.94
532.632	12841.91
532.998	12908.57
533.364	12996.25
533.73	13047.55
534.095	13155.12
534.461	13201.45
534.826	13182.69
535.192	13223.59
535.557	13391.95
535.923	13411.38
536.288	13459.29
536.653	13541.32
537.019	13479.63
537.384	13639.18
537.749	13743.81
538.114	13656.12
538.479	13705.39
538.845	13846.63
539.21	13818.38
539.575	13885.95
539.94	13894.76
540.305	14015.66
540.67	14022.67
541.034	14076
541.399	14119.16
541.764	14145.6
542.129	14307.18
542.494	14334.07
542.858	14346.28
543.223	14317.58
543.587	14435.54
543.952	14510.34
544.316	14569.32
544.681	14576.55
545.045	14638.7
545.41	14737.23
545.774	14797.34
546.138	14845.47
546.503	14874.85
546.867	14892.48
547.231	15000.72
547.595	15057.9
547.959	15092.24
548.324	15053.38
548.688	15160.49
549.052	15200.04
549.416	15242.97
549.779	15318.91
550.143	15332.69
550.507	15485
550.871	15534.04
551.235	15531.78
551.599	15632.34
551.962	15695.84
552.326	15738.33
552.689	15746.46
553.053	15736.97
553.417	15802.73
553.78	15959.11
554.143	15932
554.507	15962.73
554.87	16069.85
555.234	16171.99
555.597	16150.07
555.96	16310.97
556.323	16285.43
556.686	16221.48
557.05	16458.99
557.413	16482.04
557.776	16510.06
558.139	16586.44
558.502	16585.09
558.865	16670.28
559.228	16819.2
559.59	16827.11
559.953	16927
560.316	17091.51
560.679	17107.56
561.041	17189.59
561.404	17254.45
561.767	17262.13
562.129	17221.91
562.492	17400.21
562.854	17507.77
563.217	17500.54
563.579	17594.78
563.941	17684.72
564.304	17692.63
564.666	17738.73
565.028	17827.99
565.39	17877.03
565.753	17983.92
566.115	18030.7
566.477	18095.78
566.839	18209.9
567.201	18223.69
567.563	18348.2
567.925	18492.16
568.287	18406.06
568.648	18551.14
569.01	18574.41
569.372	18694.41
569.734	18621.42
570.095	18713.39
570.457	18910.9
570.819	18948.41
571.18	18967.85
571.542	19116.55
571.903	19157.67
572.265	19265.47
572.626	19290.1
572.987	19352.7
573.349	19517.21
573.71	19535.07
574.071	19622.29
574.432	19674.04
574.794	19859.35
575.155	19808.73
575.516	19787.26
575.877	20106.35
576.238	20143.41
576.599	20268.38
576.96	20345.21
577.32	20443.74
577.681	20574.59
578.042	20654.13
578.403	20775.94
578.763	20852.09
579.124	20941.81
579.485	21115.81
579.845	21293.44
580.206	21344.28
580.566	21426.32
580.927	21448.24
581.287	21792.41
581.648	21735.91
582.008	21983.81
582.368	22112.85
582.728	22267.2
583.089	22391.04
583.449	22512.16
583.809	22571.82
584.169	22811.36
584.529	22787.41
584.889	23141.3
585.249	23272.37
585.609	23271.46
585.969	23523.21
586.329	23751.23
586.688	23864.67
587.048	23963.42
587.408	24231.67
587.768	24390.98
588.127	24546.01
588.487	24680.92
588.846	24935.15
589.206	24959.56
589.565	25146.9
589.925	25430.28
590.284	25541.46
590.643	25681.34
591.003	25966.76
591.362	26253.53
591.721	26329.69
592.08	26505.05
592.44	26681.32
592.799	26935.32
593.158	27085.38
593.517	27275.2
593.876	27407.17
594.235	27508.19
594.593	27792.02
594.952	27976.2
595.311	28099.59
595.67	28416.64
596.029	28601.72
596.387	28838.1
596.746	28933.91
597.104	29018.88
597.463	29177.98
597.822	29569.15
598.18	29402.83
598.538	29669.94
598.897	29899.76
599.255	29881.46
599.613	30384.5
599.972	30275.8
600.33	30528.22
600.688	30607.99
601.046	30877.37
601.404	31032.39
601.762	31106.96
602.12	31334.08
602.478	31451.14
602.836	31518.71
603.194	31606.16
603.552	31840.05
603.91	31831.92
604.268	32026.26
604.625	32106.03
604.983	32302.87
605.341	32287.05
605.698	32643.87
606.056	32718
606.413	32797.09
606.771	33063.3
607.128	33216.29
607.485	33146.23
607.843	33300.35
608.2	33456.73
608.557	33738.08
608.914	33539.89
609.272	33822.6
609.629	33972.88
609.986	34186.88
610.343	34185.98
610.7	34411.74
611.057	34331.29
611.414	34542.13
611.771	34625.52
612.127	34736.93
612.484	34925.4
612.841	35032.29
613.198	34910.71
613.554	35062.11
613.911	35262.56
614.267	35388.21
614.624	35436.34
614.98	35595.66
615.337	35764.24
615.693	35752.49
616.05	35697.13
616.406	36076.1
616.762	35914.97
617.118	36004.69
617.475	36152.93
617.831	36268.64
618.187	36399.48
618.543	36359.71
618.899	36701.17
619.255	36674.73
619.611	36539.59
619.967	36792.01
620.323	36875.4
620.678	36789.08
621.034	36822.29
621.39	36815.06
621.746	36966.92
622.101	37328.04
622.457	36978.9
622.812	37106.35
623.168	37412.34
623.523	37354.26
623.879	37327.59
624.234	37303.86
624.589	37421.15
624.945	37510.19
625.3	37595.83
625.655	37625.44
626.01	37627.25
626.365	37619.11
626.72	37673.57
627.075	37632.89
627.43	37707.92
627.785	37615.72
628.14	37562.39
628.495	37798.31
628.85	37782.5
629.205	37696.4
629.559	37825.21
629.914	37709.73
630.269	37909.72
630.623	37787.24
630.978	37581.6
631.332	37788.14
631.687	37877.63
632.041	37821.36
632.396	37834.02
632.75	37831.76
633.104	37823.62
633.459	37787.47
633.813	37710.18
634.167	37758.32
634.521	37681.48
634.875	37699.11
635.229	37655.27
635.583	37569.62
635.937	37719.22
636.291	37608.94
636.645	37741.37
636.999	37488.04
637.352	37714.47
637.706	37431.77
638.06	37706.57
638.413	37566.91
638.767	37450.98
639.121	37554.7
639.474	37309.74
639.828	37409.85
640.181	37349.29
640.534	37545.89
640.888	37384.77
641.241	37324.2
641.594	37154.26
641.947	37348.38
642.301	37142.29
642.654	37246.69
643.007	37349.51
643.36	37257.09
643.713	37163.08
644.066	37367.82
644.419	37162.85
644.771	36920.37
645.124	36527.16
645.477	36441.97
645.83	36335.98
646.182	36174.18
646.535	36056.21
646.888	36188.41
647.24	35876.56
647.593	36189.77
647.945	36081.52
648.298	35971.24
648.65	35984.35
649.002	35857.8
649.355	35908.42
649.707	35787.75
650.059	36091.47
650.411	36413.27
650.763	36549.76
651.115	36962.18
651.467	36719.92
651.819	36702.52
652.171	36540.27
652.523	36619.59
652.875	36664.33
653.227	36468.18
653.578	36596.54
653.93	36577.1
654.282	36483.32
654.633	36414.17
654.985	36457.56
655.337	36391.57
655.688	36481.96
656.039	36566.93
656.391	36367.17
656.742	36346.6
657.094	36381.85
657.445	36563.09
657.796	36427.05
658.147	36248.52
658.498	36389.99
658.849	36417.79
659.2	36319.71
659.551	36234.06
659.902	36325.13
660.253	36154.52
660.604	36413.72
660.955	36171.92
661.306	36209.2
661.656	36243.55
662.007	36138.02
662.358	36157.91
662.708	36120.84
663.059	36195.19
663.409	35991.81
663.76	36249.88
664.11	36065.48
664.461	36312.48
664.811	36169.66
665.161	36244.23
665.511	36124.23
665.862	36103.44
666.212	36185.25
666.562	36228.86
666.912	36160.62
667.262	36123.78
667.612	36168.98
667.962	36030.45
668.312	35996.55
668.662	36259.82
669.011	36154.52
669.361	36073.84
669.711	35967.4
670.06	36038.59
670.41	35937.35
670.76	36024.12
671.109	36058.92
671.459	35960.4
671.808	35817.35
672.157	36049.43
672.507	35815.32
672.856	35856.44
673.205	35838.37
673.554	35936.44
673.904	35728.54
674.253	36047.17
674.602	35877.69
674.951	35264.6
675.3	35107.99
675.649	35820.51
675.998	35639.95
676.346	35710.69
676.695	35833.85
677.044	35555.66
677.393	35697.58
677.741	35749.33
678.09	35563.8
678.438	35491.26
678.787	35519.05
679.135	35572.84
679.484	35377.81
679.832	35565.6
680.181	35528.54
680.529	35432.95
680.877	35324.71
681.225	35289.91
681.573	35519.96
681.922	35314.31
682.27	35137.59
682.618	35096.24
682.966	35041.78
683.314	35179.85
683.661	35003.59
684.009	34830.93
684.357	34769.92
684.705	34749.13
685.053	34704.61
685.4	34644.5
685.748	34476.37
686.095	34459.42
686.443	34431.85
686.79	34371.96
687.138	34522.02
687.485	34428.91
687.832	34388.69
688.18	34367.44
688.527	34257.62
688.874	34068.24
689.221	34119.99
689.568	33881.58
689.915	33901.92
690.262	33876.38
690.609	33849.49
690.956	33620.12
691.303	33642.49
691.65	33551.42
691.997	33498.77
692.344	33281.37
692.69	33260.81
693.037	33394.14
693.383	33066.46
693.73	33209.73
694.077	32952.57
694.423	32961.38
694.769	32910.98
695.116	32739.24
695.462	32748.5
695.808	32660.37
696.155	32625.12
696.501	32391
696.847	32459.92
697.193	32177.67
697.539	32339.02
697.885	32115.3
698.231	31967.05
698.577	32061.29
698.923	31932.03
699.269	31892.25
699.614	31611.58
699.96	31676.44
700.306	31643.9
700.651	31418.59
700.997	31324.13
701.342	31353.74
701.688	31346.51
702.033	31121.2
702.379	31170.24
702.724	31104.25
703.069	31167.53
703.415	30739.74
703.76	30808.89
704.105	30698.39
704.45	30723.47
704.795	30545.62
705.14	30502.69
705.485	30438.73
705.83	30347.21
706.175	30307.21
706.52	30225.41
706.865	30130.04
707.209	30143.37
707.554	29989.48
707.899	30108.8
708.243	29892.53
708.588	29862.93
708.932	29565.31
709.277	29638.75
709.621	29750.62
709.966	29565.76
710.31	29563.5
710.654	29346.33
710.998	29262.72
711.342	29358.54
711.687	29311.76
712.031	29183.4
712.375	29195.38
712.719	29107.02
713.063	29051.43
713.407	29038.32
713.75	28971.65
714.094	28902.28
714.438	28841.04
714.782	28961.26
715.125	28648.72
715.469	28810.53
715.812	28619.35
716.156	28545.22
716.499	28513.81
716.843	28430.65
717.186	28304.55
717.53	28512.68
717.873	28399.92
718.216	28311.78
718.559	28186.14
718.902	28062.3
719.246	28138.23
719.589	28028.4
719.932	27968.52
720.275	27965.8
720.617	27928.74
720.96	27815.98
721.303	27872.02
721.646	27772.81
721.989	27701.63
722.331	27735.3
722.674	27544.12
723.016	27740.05
723.359	27585.48
723.701	27502.99
724.044	27494.18
724.386	27248.76
724.729	27474.74
725.071	27264.58
725.413	27347.06
725.755	27249.44
726.097	27248.31
726.439	27046.05
726.782	27053.74
727.124	27196.56
727.465	26936.9
727.807	26862.78
728.149	26908.43
728.491	26928.32
728.833	26876.79
729.175	26717.48
729.516	26755.89
729.858	26563.58
730.199	26823.24
730.541	26672.28
730.882	26684.71
731.224	26612.62
731.565	26423.7
731.906	26527.2
732.248	26389.57
732.589	26414.21
732.93	26307.32
733.271	26133.31
733.612	26277.71
733.953	26264.61
734.294	26144.84
734.635	26150.48
734.976	26129.69
735.317	26153.65
735.658	26065.52
735.999	25998.4
736.339	25934.67
736.68	25950.72
737.021	25910.94
737.361	25815.8
737.702	25945.07
738.042	25793.66
738.383	25770.61
738.723	25761.57
739.063	25629.59
739.404	25749.14
739.744	25511.86
740.084	25477.28
740.424	25526.32
740.764	25433.89
741.104	25583.95
741.444	25299.89
741.784	25228.02
742.124	25391.18
742.464	25356.38
742.804	25250.62
743.143	25156.39
743.483	25219.89
743.823	25025.09
744.162	25047.91
744.502	25043.62
744.841	24990.97
745.181	25077.97
745.52	24963.62
745.86	25008.59
746.199	24963.85
746.538	24802.05
746.877	24939.67
747.216	25041.81
747.556	24901.48
747.895	24794.81
748.234	24743.06
748.573	24671.88
748.911	24675.5
749.25	24685.21
749.589	24500.36
749.928	24601.37
750.267	24493.81
750.605	24463.3
750.944	24406.12
751.283	24331.1
751.621	24425.11
751.96	24153.93
752.298	24248.16
752.636	24332.68
752.975	24095.17
753.313	24051.78
753.651	24026.7
753.989	23946.25
754.327	23925.91
754.666	23781.28
755.004	23859.25
755.342	23923.2
755.679	23715.97
756.017	23715.07
756.355	23661.74
756.693	23624.68
757.031	23645.69
757.368	23491.35
757.706	23421.52
758.044	23303.33
758.381	23370.67
758.719	23220.17
759.056	23341.07
759.394	23121.64
759.731	23015.65
760.068	23084.35
760.405	22864.47
760.743	22794.19
761.08	22989.21
761.417	22775.66
761.754	22753.51
762.091	22676.45
762.428	22592.16
762.765	22515.55
763.102	22564.14
763.438	22411.6
763.775	22379.74
764.112	22384.48
764.449	22254.09
764.785	22198.72
765.122	22017.26
765.458	21959.41
765.795	22005.28
766.131	21971.61
766.467	21820.66
766.804	21751.73
767.14	21646.2
767.476	21647.78
767.812	21532.98
768.148	21609.81
768.485	21374.11
768.821	21431.96
769.157	21296.15
769.492	21272.65
769.828	21228.35
770.164	20976.84
770.5	21040.11
770.836	21060.45
771.171	20741.36
771.507	20791.98
771.842	20630.63
772.178	20624.3
772.513	20559.67
772.849	20527.36
773.184	20363.74
773.519	20440.58
773.855	20312.22
774.19	20254.82
774.525	20268.38
774.86	20194.48
775.195	20205.56
775.53	20021.38
775.865	19882.17
776.2	19733.93
776.535	19668.17
776.87	19681.5
777.205	19616.87
777.539	19509.76
777.874	19534.61
778.209	19394.5
778.543	19426.82
778.878	19146.6
779.212	19251.46
779.547	19133.04
779.881	19120.84
780.215	18972.82
780.55	19038.81
780.884	18873.39
781.218	18783.67
781.552	18776.89
781.886	18663
782.22	18530.8
782.554	18452.38
782.888	18410.58
783.222	18255.78
783.556	18256.91
783.889	18222.11
784.223	17984.6
784.557	18020.3
784.89	18082
785.224	17981.43
785.557	17825.96
785.891	17738.5
786.224	17765.62
786.558	17733.08
786.891	17543.03
787.224	17611.73
787.557	17544.16
787.891	17465.52
788.224	17432.52
788.557	17383.71
788.89	17297.38
789.223	17175.35
789.556	17160.44
789.888	17138.07
790.221	16910.05
790.554	17044.28
790.887	16972.87
791.219	16854.23
791.552	16851.52
791.884	16769.49
792.217	16645.88
792.549	16597.06
792.882	16557.74
793.214	16386
793.546	16528.59
793.879	16368.14
794.211	16303.06
794.543	16343.74
794.875	16223.29
795.207	16331.08
795.539	16154.82
795.871	16104.42
796.203	16043.41
796.535	15970.19
796.867	15848.16
797.198	15791.89
797.53	15834.6
797.862	15731.1
798.193	15907.14
798.525	15637.31
798.856	15694.26
799.188	15575.62
799.519	15524.1
799.85	15439.13
800.182	15391.45
800.513	15393.03
800.844	15225.12
801.175	15416.76
801.506	15271.22
801.837	15243.88
802.168	15199.36
802.499	15174.73
802.83	15069.42
803.161	15018.8
803.491	14903.77
803.822	14981.96
804.153	14887.28
804.483	14824.68
804.814	14706.49
805.145	14689.32
805.475	14655.87
805.805	14676.89
806.136	14677.34
806.466	14598.7
806.796	14577.46
807.126	14388.99
807.457	14458.14
807.787	14394.18
808.117	14360.51
808.447	14285.26
808.777	14275.54
809.107	14260.63
809.436	14232.83
809.766	14193.74
810.096	14129.78
810.426	14100.18
810.755	14028.77
811.085	14033.29
811.414	14027.19
811.744	13873.07
812.073	13844.37
812.403	13937.7
812.732	13833.07
813.061	13772.96
813.39	13694.77
813.719	13680.76
814.049	13813.86
814.378	13780.41
814.707	13612.28
815.036	13619.29
815.365	13543.58
815.693	13458.39
816.022	13381.1
816.351	13364.15
816.68	13342.46
817.008	13350.6
817.337	13276.7
817.665	13245.51
817.994	13252.97
818.322	13211.16
818.651	13164.16
818.979	13103.14
819.307	13148.11
819.636	13060.43
819.964	12995.12
820.292	13173.88
820.62	13089.59
820.948	13080.77
821.276	13055.69
821.604	12930.04
821.932	13029.02
822.259	13017.27
822.587	12993.09
822.915	12940.44
823.243	13052.75
823.57	12871.06
823.898	12878.07
824.225	12897.95
824.553	12891.62
824.88	12887.56
825.207	12946.09
825.535	12888.23
825.862	12944.73
826.189	12864.51
826.516	12933.21
826.843	13027.21
827.17	12936.59
827.497	12971.85
827.824	12862.7
828.151	12920.55
828.478	12978.85
828.805	13023.82
829.131	12874
829.458	12888.23
829.785	12842.81
830.111	12842.59
830.438	12874.45
830.764	12914.45
831.09	12871.96
831.417	12755.13
831.743	12925.97
832.069	12868.35
832.395	12820.21
832.722	12876.71
833.048	12798.97
833.374	12807.11
833.7	12735.7
834.026	12831.51
834.351	12850.04
834.677	12773.66
835.003	12781.57
835.329	12754.23
835.654	12634
835.98	12604.63
836.306	12666.32
836.631	12617.73
836.956	12731.63
837.282	12711.74
837.607	12528.7
837.932	12559.43
838.258	12514.91
838.583	12577.28
838.908	12465.42
839.233	12543.38
839.558	12429.49
839.883	12434.91
840.208	12379.55
840.533	12419.55
840.858	12364.86
841.182	12392.88
841.507	12320.11
841.832	12320.57
842.156	12216.84
842.481	12266.78
842.805	12279.89
843.13	12185.2
843.454	12237.63
843.778	12078.31
844.103	12146.11
844.427	12052.78
844.751	12045.32
845.075	12037.64
845.399	11969.16
845.723	11868.37
846.047	11936.85
846.371	11737.08
846.695	11918.77
847.019	11707.02
847.343	11756.74
847.666	11700.92
847.99	11620.02
848.313	11626.12
848.637	11508.38
848.96	11506.12
849.284	11475.62
849.607	11392.68
849.931	11379.12
850.254	11328.05
850.577	11240.59
850.9	11111.56
851.223	11141.61
851.546	11106.59
851.869	10986.82
852.192	11013.03
852.515	10942.97
852.838	10963.99
853.161	10961.96
853.483	10863.66
853.806	10818.91
854.129	10828.4
854.451	10682.87
854.774	10665.92
855.096	10641.74
855.419	10602.64
855.741	10692.59
856.063	10580.95
856.385	10532.59
856.708	10557.9
857.03	10457.11
857.352	10475.42
857.674	10456.89
857.996	10346.83
858.318	10331.24
858.64	10392.71
858.961	10307.96
859.283	10313.61
859.605	10225.71
859.926	10266.61
860.248	10228.87
860.57	10163.11
860.891	10173.28
861.212	10117.91
861.534	10059.38
861.855	10156.78
862.176	10105.48
862.498	10112.04
862.819	10036.78
863.14	9994.98
863.461	9967.18
863.782	9943.23
864.103	9969.89
864.424	9910.91
864.745	9999.04
865.065	9896.22
865.386	9860.52
865.707	9876.79
866.027	9834.76
866.348	9807.64
866.668	9737.81
866.989	9743.68
867.309	9676.34
867.63	9726.96
867.95	9743.68
868.27	9636.12
868.59	9619.85
868.91	9636.12
869.23	9646.51
869.55	9586.4
869.87	9637.02
870.19	9622.11
870.51	9607.64
870.83	9492.62
871.15	9588.66
871.469	9555.21
871.789	9496.01
872.109	9558.15
872.428	9467.99
872.748	9534.42
873.067	9464.6
873.386	9465.05
873.706	9463.01
874.025	9459.85
874.344	9381.66
874.663	9392.73
874.982	9375.56
875.301	9341.66
875.62	9340.31
875.939	9305.96
876.258	9357.93
876.577	9278.84
876.896	9321.77
877.214	9278.84
877.533	9257.6
877.852	9202.68
878.17	9259.4
878.489	9275.67
878.807	9251.49
879.125	9158.39
879.444	9133.76
879.762	9137.37
880.08	9131.5
880.398	9087.43
880.716	9154.55
881.034	9038.17
881.352	9065.74
881.67	9119.07
881.988	9050.82
882.306	9022.35
882.624	8975.12
882.941	8854.89
883.259	8928.11
883.577	8895.12
883.894	8875.68
884.212	8834.56
884.529	8847.66
884.846	8792.75
885.164	8837.72
885.481	8735.58
885.798	8808.79
886.115	8728.57
886.432	8716.59
886.75	8684.73
887.067	8682.02
887.383	8662.58
887.7	8646.54
888.017	8599.76
888.334	8596.82
888.651	8658.06
888.967	8532.64
889.284	8559.31
889.6	8514.79
889.917	8409.48
890.233	8431.18
890.55	8409.26
890.866	8382.59
891.182	8447.67
891.498	8463.04
891.815	8350.73
892.131	8304.85
892.447	8257.4
892.763	8262.14
893.079	8301.01
893.395	8249.26
893.71	8232.31
894.026	8213.56
894.342	8125.65
894.657	8069.15
894.973	8057.18
895.289	8089.94
895.604	8109.38
895.92	7963.84
896.235	7946.9
896.55	7952.32
896.865	7942.15
897.181	7940.79
897.496	7887.91
897.811	7860.8
898.126	7859.89
898.441	7834.36
898.756	7821.48
899.071	7761.59
899.386	7789.61
899.7	7713.23
900.015	7709.84
900.33	7570.86
900.644	7610.63
900.959	7602.27
901.273	7597.3
901.588	7546.91
901.902	7466.46
902.216	7451.54
902.531	7413.12
902.845	7455.84
903.159	7368.61
903.473	7353.69
903.787	7360.7
904.101	7217.65
904.415	7281.83
904.729	7295.16
905.042	7223.75
905.356	7233.92
905.67	7167.26
905.984	7164.77
906.297	7188.95
906.611	7136.3
906.924	7111.44
907.237	7113.92
907.551	7041.16
907.864	6971.55
908.177	6952.35
908.491	6942.18
908.804	6848.85
909.117	6909.86
909.43	6884.32
909.743	6784.67
910.056	6772.01
910.368	6787.83
910.681	6770.66
910.994	6689.08
911.307	6689.08
911.619	6694.05
911.932	6642.75
912.244	6633.94
912.557	6633.94
912.869	6600.26
913.181	6550.55
913.494	6552.81
913.806	6473.04
914.118	6484.34
914.43	6418.12
914.742	6413.15
915.054	6396.43
915.366	6348.29
915.678	6353.94
915.99	6297.22
916.302	6278.24
916.613	6219.94
916.925	6194.63
917.236	6217
917.548	6180.16
917.859	6143.78
918.171	6116.21
918.482	6042.09
918.794	6035.31
919.105	6065.36
919.416	5948.3
919.727	5991.69
920.038	6018.13
920.349	5985.59
920.66	5940.85
920.971	5892.49
921.282	5823.11
921.593	5833.73
921.903	5786.73
922.214	5799.38
922.525	5747.63
922.835	5737.01
923.146	5671.7
923.456	5672.38
923.767	5682.55
924.077	5658.82
924.387	5624.24
924.697	5562.1
925.008	5572.27
925.318	5581.08
925.628	5576.79
925.938	5541.76
926.248	5451.82
926.558	5479.84
926.867	5427.87
927.177	5467.19
927.487	5424.7
927.796	5352.16
928.106	5364.59
928.416	5335.89
928.725	5330.92
929.034	5274.2
929.344	5354.65
929.653	5250.47
929.962	5220.87
930.271	5196.01
930.581	5135.44
930.89	5109.23
931.199	5144.94
931.508	5079.85
931.817	5087.54
932.125	5089.8
932.434	5110.59
932.743	5015.67
933.051	4986.52
933.36	4999.85
933.669	4957.14
933.977	4925.96
934.286	4942.68
934.594	4890.48
934.902	4862.23
935.21	4861.1
935.519	4813.87
935.827	4829.24
936.135	4784.27
936.443	4744.27
936.751	4756.02
937.059	4725.74
937.367	4677.6
937.674	4695
937.982	4699.52
938.29	4608.68
938.597	4680.09
938.905	4583.37
939.213	4565.74
939.52	4571.17
939.827	4579.53
940.135	4519.64
940.442	4530.71
940.749	4439.19
941.056	4501.79
941.363	4420.89
941.67	4438.74
941.977	4413.66
942.284	4331.4
942.591	4401.68
942.898	4381.34
943.205	4352.41
943.511	4317.61
943.818	4291.62
944.125	4297.95
944.431	4236.26
944.738	4274.68
945.044	4251.4
945.35	4223.6
945.657	4225.41
945.963	4182.02
946.269	4210.95
946.575	4180.44
946.881	4142.25
947.187	4150.61
947.493	4090.95
947.799	4087.34
948.105	4030.61
948.41	4058.18
948.716	4034.68
949.022	4045.08
949.327	3975.93
949.633	3944.97
949.938	3974.34
950.244	3914.46
950.549	3922.37
950.854	3896.15
951.16	3853.9
951.465	3852.77
951.77	3835.82
952.075	3829.04
952.38	3820
952.685	3807.12
952.99	3772.09
953.294	3764.18
953.599	3772.54
953.904	3780
954.209	3717.4
954.513	3701.81
954.818	3669.72
955.122	3684.63
955.426	3703.62
955.731	3648.25
956.035	3613.9
956.339	3554.02
956.643	3573.9
956.948	3620.23
957.252	3580
957.556	3533.9
957.86	3538.88
958.163	3559.67
958.467	3514.7
958.771	3497.75
959.075	3462.72
959.378	3416.62
959.682	3458.88
959.985	3395.38
960.289	3434.25
960.592	3407.58
960.896	3393.57
961.199	3387.24
961.502	3386.11
961.805	3332.55
962.108	3333.23
962.411	3306.34
962.714	3295.49
963.017	3297.98
963.32	3321.71
963.623	3249.17
963.926	3289.16
964.228	3233.57
964.531	3205.78
964.833	3215.27
965.136	3158.55
965.438	3162.39
965.741	3128.72
966.043	3146.57
966.345	3083.75
966.648	3144.31
966.95	3103.63
967.252	3090.3
967.554	3077.42
967.856	3022.73
968.158	3048.72
968.46	3031.77
968.761	3037.87
969.063	3007.59
969.365	2989.74
969.666	2982.05
969.968	2998.33
970.269	2922.17
970.571	2918.55
970.872	2933.69
971.174	2895.73
971.475	2876.97
971.776	2894.83
972.077	2883.07
972.378	2868.84
972.679	2866.58
972.98	2873.13
973.281	2836.75
973.582	2823.87
973.883	2789.74
974.183	2786.81
974.484	2797.65
974.785	2773.7
975.085	2770.08
975.386	2753.13
975.686	2728.95
975.986	2730.76
976.287	2706.58
976.587	2669.52
976.887	2688.95
977.187	2686.69
977.487	2663.42
977.787	2648.73
978.087	2631.33
978.387	2634.94
978.687	2641.72
978.987	2611.89
979.286	2571.44
979.586	2570.31
979.885	2582.52
980.185	2569.18
980.484	2529.86
980.784	2566.92
981.083	2522.41
981.382	2546.13
981.682	2530.09
981.981	2490.09
982.28	2486.7
982.579	2452.35
982.878	2464.55
983.177	2472.92
983.475	2443.99
983.774	2449.19
984.073	2433.14
984.372	2399.47
984.67	2432.69
984.969	2412.58
985.267	2383.88
985.566	2390.43
985.864	2395.63
986.162	2375.52
986.461	2352.47
986.759	2321.73
987.057	2300.72
987.355	2305.24
987.653	2296.2
987.951	2264.33
988.249	2329.19
988.547	2265.01
988.844	2269.53
989.142	2239.48
989.44	2213.04
989.737	2243.77
990.035	2197.22
990.332	2220.94
990.63	2208.74
990.927	2190.89
991.224	2210.32
991.521	2176.88
991.819	2141.17
992.116	2172.36
992.413	2136.2
992.71	2119.93
993.006	2176.2
993.303	2076.54
993.6	2099.14
993.897	2095.98
994.193	2089.2
994.49	2095.98
994.787	2078.12
995.083	2065.92
995.379	2081.51
995.676	2045.36
995.972	2026.6
996.268	2034.73
996.565	1970.78
996.861	1988.41
997.157	2001.06
997.453	1979.59
997.749	1954.96
998.044	1974.4
998.34	1962.42
998.636	1919.94
998.932	1925.81
999.227	1898.69
999.523	1886.26
999.818	1898.69
1000.114	1894.17
1000.409	1893.5
1000.704	1869.77
1001	1841.29
1001.295	1850.56
1001.59	1836.1
1001.885	1845.81
1002.18	1813.5
1002.475	1817.79
1002.77	1796.77
1003.065	1787.96
1003.359	1771.92
1003.654	1758.36
1003.949	1758.36
1004.243	1751.35
1004.538	1721.97
1004.832	1736.89
1005.127	1733.5
1005.421	1709.09
1005.715	1681.3
1006.009	1719.04
1006.304	1701.64
1006.598	1678.13
1006.892	1703.9
1007.186	1635.65
1007.48	1655.99
1007.773	1635.65
1008.067	1619.15
1008.361	1629.77
1008.655	1599.49
1008.948	1614.18
1009.242	1608.31
1009.535	1585.71
1009.829	1566.72
1010.122	1586.84
1010.415	1546.39
1010.708	1552.26
1011.001	1545.03
1011.295	1557.69
1011.588	1579.83
1011.881	1541.87
1012.173	1506.84
1012.466	1505.93
1012.759	1528.31
1013.052	1513.62
1013.344	1472.72
1013.637	1449.44
1013.93	1486.5
1014.222	1446.73
1014.514	1477.24
1014.807	1447.18
1015.099	1433.17
1015.391	1444.02
1015.683	1422.55
1015.976	1414.86
1016.268	1422.32
1016.56	1394.07
1016.851	1392.49
1017.143	1351.81
1017.435	1356.11
1017.727	1353.62
1018.018	1347.75
1018.31	1337.8
1018.602	1330.8
1018.893	1317.69
1019.185	1309.33
1019.476	1330.12
1019.767	1324.02
1020.058	1300.97
1020.35	1290.8
1020.641	1272.49
1020.932	1256.22
1021.223	1277.69
1021.514	1244.7
1021.804	1273.4
1022.095	1253.96
1022.386	1203.34
1022.677	1205.83
1022.967	1205.38
1023.258	1189.33
1023.548	1181.88
1023.839	1179.16
1024.129	1180.07
1024.419	1184.14
1024.709	1165.83
1025	1146.4
1025.29	1158.15
1025.58	1142.55
1025.87	1150.46
1026.16	1136.68
1026.449	1140.97
1026.739	1116.34
1027.029	1120.41
1027.319	1079.73
1027.608	1082.44
1027.898	1062.78
1028.187	1083.35
1028.477	1105.27
1028.766	1076.79
1029.055	1071.82
1029.344	1061.88
1029.634	1054.87
1029.923	1028.21
1030.212	1062.56
1030.501	1033.41
1030.79	1037.25
1031.078	1029.79
1031.367	1009
1031.656	1027.08
1031.945	1018.49
1032.233	981.65
1032.522	969.68
1032.81	1000.86
1033.099	957.93
1033.387	944.14
1033.675	971.03
1033.963	951.37
1034.251	955.21
1034.54	947.76
1034.828	942.11
1035.116	937.81
1035.403	952.05
1035.691	921.09
1035.979	926.29
1036.267	882.9
1036.554	914.54
1036.842	914.09
1037.129	902.11
1037.417	904.59
1037.704	900.3
1037.992	886.97
1038.279	885.84
1038.566	870.7
1038.853	870.7
1039.14	870.7
