Data from hue_38_FLMS001491_00069.txt Node
Date: Tue Feb 07 17:31:50 GMT 2017
User: dcchb
Spectrometer: FLMS00149
Trigger mode: 0
Integration Time (sec): 2.000000E-2
Scans to average: 10
Electric dark correction enabled: true
Nonlinearity correction enabled: false
Boxcar width: 0
XAxis mode: Wavelengths
Number of Pixels in Spectrum: 2048
>>>>>Begin Spectral Data<<<<<
341.393	-7.87
341.776	-7.87
342.16	-7.87
342.543	-64.36
342.927	-58.04
343.31	-72.5
343.693	-68.88
344.077	-86.06
344.46	-63.23
344.843	-28.43
345.226	-38.83
345.61	-19.84
345.993	-16.68
346.376	13.6
346.759	-14.87
347.142	14.28
347.525	44.11
347.908	64.67
348.291	74.39
348.674	91.11
349.057	107.16
349.44	133.15
349.823	138.34
350.206	166.59
350.588	209.3
350.971	219.7
351.354	216.08
351.737	231
352.119	241.84
352.502	264.89
352.884	263.76
353.267	280.04
353.65	311.22
354.032	306.02
354.414	306.47
354.797	303.31
355.179	330.88
355.562	320.71
355.944	327.94
356.326	326.36
356.709	342.18
357.091	341.28
357.473	339.92
357.855	345.34
358.238	368.17
358.62	350.09
359.002	341.05
359.384	355.74
359.766	351.45
360.148	339.47
360.53	332.24
360.912	343.08
361.294	343.31
361.676	331.11
362.057	332.01
362.439	340.6
362.821	330.66
363.203	352.35
363.584	332.69
363.966	315.29
364.348	330.66
364.729	302.86
365.111	340.15
365.493	317.1
365.874	302.86
366.256	307.38
366.637	328.85
367.019	328.4
367.4	324.78
367.781	322.97
368.163	328.62
368.544	309.86
368.925	315.06
369.306	323.88
369.688	329.3
370.069	318
370.45	334.27
370.831	318.23
371.212	325.01
371.593	318.68
371.974	325.68
372.355	302.86
372.736	327.27
373.117	305.57
373.498	304.67
373.879	306.93
374.26	307.83
374.641	324.78
375.021	313.71
375.402	332.46
375.783	338.34
376.163	329.53
376.544	333.82
376.925	338.11
377.305	341.95
377.686	320.26
378.066	318.23
378.447	316.64
378.827	350.32
379.208	350.09
379.588	344.67
379.968	332.91
380.349	325.23
380.729	344.44
381.109	334.5
381.489	342.86
381.87	349.86
382.25	329.53
382.63	358
383.01	351.9
383.39	343.08
383.77	366.81
384.15	338.11
384.53	340.82
384.91	368.39
385.29	342.86
385.67	350.09
386.049	355.29
386.429	338.56
386.809	365.68
387.189	350.54
387.568	349.19
387.948	373.82
388.328	368.17
388.707	357.55
389.087	362.29
389.466	359.13
389.846	362.52
390.225	370.2
390.605	360.71
390.984	380.37
391.363	391.22
391.743	371.56
392.122	377.21
392.501	374.5
392.881	385.57
393.26	380.37
393.639	381.73
394.018	380.82
394.397	364.78
394.776	410.65
395.155	390.77
395.534	398.9
395.913	399.81
396.292	400.94
396.671	397.77
397.05	397.55
397.429	407.49
397.808	386.92
398.186	400.48
398.565	398.9
398.944	399.35
399.323	407.94
399.701	400.26
400.08	407.72
400.458	394.16
400.837	395.06
401.215	420.37
401.594	409.98
401.972	428.05
402.351	403.42
402.729	426.47
403.107	414.49
403.486	422.63
403.864	424.21
404.242	443.87
404.62	441.84
404.999	441.39
405.377	414.04
405.755	434.16
406.133	440.26
406.511	433.25
406.889	447.04
407.267	452.23
407.645	434.16
408.023	427.15
408.401	459.01
408.779	445.45
409.156	478.9
409.534	447.04
409.912	470.09
410.29	439.8
410.667	482.97
411.045	484.78
411.422	506.24
411.8	497.43
412.178	508.05
412.555	485.91
412.933	485.23
413.31	499.92
413.687	508.96
414.065	501.72
414.442	518.67
414.819	529.97
415.197	534.49
415.574	536.3
415.951	530.65
416.328	513.02
416.705	532.91
417.082	507.6
417.46	517.32
417.837	540.37
418.214	523.64
418.591	539.46
418.967	517.32
419.344	545.79
419.721	544.21
420.098	533.36
420.475	554.38
420.852	593.93
421.228	561.38
421.605	561.84
421.982	563.64
422.358	551.67
422.735	567.94
423.111	551.67
423.488	578.33
423.864	581.27
424.241	572.91
424.617	584.66
424.994	579.24
425.37	577.2
425.746	597.31
426.123	589.18
426.499	619.46
426.875	608.39
427.251	624.66
427.627	639.12
428.003	620.82
428.379	618.11
428.756	641.38
429.132	640.93
429.507	655.84
429.883	638.9
430.259	659.01
430.635	670.08
431.011	661.95
431.387	655.62
431.763	681.61
432.138	679.57
432.514	700.59
432.89	705.56
433.265	694.49
433.641	704.43
434.016	711.89
434.392	730.42
434.767	719.8
435.143	718.44
435.518	771.32
435.894	760.02
436.269	751.89
436.644	740.59
437.02	786.91
437.395	751.89
437.77	761.38
438.145	752.79
438.52	810.87
438.895	782.62
439.271	797.76
439.646	786.24
440.021	813.35
440.395	798.67
440.77	811.09
441.145	825.33
441.52	842.05
441.895	837.76
442.27	844.77
442.645	835.95
443.019	798.21
443.394	836.4
443.769	860.36
444.143	828.04
444.518	837.08
444.892	852.9
445.267	873.47
445.641	856.52
446.016	836.18
446.39	877.08
446.764	905.56
447.139	922.96
447.513	895.16
447.887	892.9
448.262	898.1
448.636	920.7
449.01	927.93
449.384	920.47
449.758	922.96
450.132	924.76
450.506	934.71
450.88	932.22
451.254	943.52
451.628	991.88
452.002	979
452.376	977.19
452.75	996.85
453.123	1014.48
453.497	998.21
453.871	997.98
454.244	1024.2
454.618	1063.52
454.992	1052.44
455.365	1070.3
455.739	1086.12
456.112	1097.41
456.486	1106
456.859	1081.37
457.232	1090.86
457.606	1132.89
457.979	1139
458.352	1144.42
458.725	1142.39
459.099	1181.71
459.472	1201.14
459.845	1169.05
460.218	1228.71
460.591	1227.81
460.964	1208.15
461.337	1276.62
461.71	1301.03
462.083	1291.53
462.456	1296.51
462.829	1294.7
463.201	1343.96
463.574	1339.22
463.947	1346.9
464.32	1360.68
464.692	1388.48
465.065	1425.32
465.438	1436.16
465.81	1398.2
466.183	1446.56
466.555	1475.94
466.928	1500.12
467.3	1498.53
467.672	1523.39
468.045	1579.21
468.417	1564.75
468.789	1584.63
469.161	1603.84
469.534	1645.65
469.906	1653.78
470.278	1698.75
470.65	1693.11
471.022	1781.69
471.394	1807
471.766	1815.81
472.138	1809.49
472.51	1839.54
472.882	1910.05
473.253	1944.17
473.625	1956.6
473.997	1997.05
474.369	2040.21
474.74	2059.2
475.112	2107.78
475.484	2150.49
475.855	2216.48
476.227	2239.53
476.598	2306.65
476.97	2344.61
477.341	2396.59
477.713	2493.99
478.084	2452.86
478.455	2542.35
478.827	2650.82
479.198	2674.32
479.569	2754.55
479.94	2820.08
480.311	2858.5
480.682	2921.1
481.053	3023.01
481.424	3100.53
481.795	3180.52
482.166	3223.69
482.537	3321.76
482.908	3416.9
483.279	3445.38
483.65	3566.5
484.021	3657.8
484.391	3717.23
484.762	3786.38
485.133	3894.4
485.503	3954.51
485.874	4050.33
486.244	4135.75
486.615	4204.9
486.985	4374.62
487.356	4424.33
487.726	4487.83
488.097	4639.24
488.467	4698.45
488.837	4843.08
489.207	4945
489.578	5054.6
489.948	5117.2
490.318	5276.74
490.688	5325.33
491.058	5476.51
491.428	5598.77
491.798	5654.81
492.168	5769.38
492.538	5896.16
492.908	5977.96
493.278	6105.42
493.648	6139.99
494.017	6307.67
494.387	6414.79
494.757	6457.73
495.126	6643.26
495.496	6671.28
495.866	6766.87
496.235	6809.13
496.605	6992.17
496.974	7051.61
497.344	7138.61
497.713	7249.12
498.082	7383.13
498.452	7479.17
498.821	7525.72
499.19	7614.31
499.559	7683.23
499.928	7768.43
500.298	7853.4
500.667	8003.9
501.036	8051.81
501.405	8184.46
501.774	8189.88
502.143	8339.48
502.512	8344.91
502.88	8531.8
503.249	8541.96
503.618	8665.8
503.987	8740.6
504.356	8746.48
504.724	8870.77
505.093	8912.35
505.462	8962.07
505.83	9031.9
506.199	9125
506.567	9270.99
506.936	9334.49
507.304	9446.35
507.672	9470.3
508.041	9529.74
508.409	9661.26
508.777	9739.67
509.145	9774.7
509.514	9874.81
509.882	9953.9
510.25	9974.24
510.618	10052.66
510.986	10117.52
511.354	10199.55
511.722	10331.97
512.09	10423.27
512.458	10398.19
512.826	10543.27
513.193	10594.11
513.561	10658.29
513.929	10649.93
514.297	10807.22
514.664	10919.3
515.032	10920.21
515.4	11009.02
515.767	11116.59
516.135	11215.57
516.502	11082.46
516.869	11230.03
517.237	11345.73
517.604	11331.95
517.972	11402.68
518.339	11477.48
518.706	11552.06
519.073	11587.99
519.44	11759.06
519.808	11805.38
520.175	11786.17
520.542	11985.94
520.909	11990.91
521.276	12037.69
521.643	12157.69
522.009	12236.1
522.376	12362.43
522.743	12458.7
523.11	12495.08
523.477	12584.34
523.843	12625.02
524.21	12859.14
524.577	12975.29
524.943	12954.73
525.31	13107.95
525.676	13145.01
526.043	13220.94
526.409	13239.24
526.776	13391.33
527.142	13470.42
527.508	13499.8
527.874	13537.09
528.241	13675.39
528.607	13670.19
528.973	13831.32
529.339	13863.86
529.705	13972.56
530.071	14112.89
530.437	14123.74
530.803	14340.91
531.169	14320.12
531.535	14249.16
531.901	14335.94
532.267	14501.13
532.632	14513.56
532.998	14552.2
533.364	14661.13
533.73	14809.37
534.095	14876.94
534.461	14911.97
534.826	15001.23
535.192	15004.39
535.557	15204.84
535.923	15200.32
536.288	15110.38
536.653	15312.18
537.019	15287.32
537.384	15285.97
537.749	15390.37
538.114	15461.33
538.479	15423.82
538.845	15590.14
539.21	15626.07
539.575	15685.73
539.94	15780.42
540.305	15838.04
540.67	15851.83
541.034	15909
541.399	15992.39
541.764	16069.9
542.129	16129.56
542.494	16155.55
542.858	16235.32
543.223	16232.84
543.587	16370.23
543.952	16429.21
544.316	16383.57
544.681	16491.59
545.045	16558.48
545.41	16657.46
545.774	16709.21
546.138	16755.31
546.503	16849.32
546.867	16762.54
547.231	17002.31
547.595	17016.77
547.959	17128.63
548.324	17056.32
548.688	17198.46
549.052	17304.67
549.416	17359.81
549.779	17378.79
550.143	17316.2
550.507	17426.48
550.871	17486.14
551.235	17491.79
551.599	17683.19
551.962	17703.08
552.326	17653.59
552.689	17852
553.053	17780.82
553.417	17751.89
553.78	18070.75
554.143	18032.34
554.507	18103.75
554.87	18172.22
555.234	18331.09
555.597	18294.93
555.96	18231.88
556.323	18414.25
556.686	18464.19
557.05	18586.45
557.413	18588.71
557.776	18653.11
558.139	18804.29
558.502	18812.43
558.865	18901.01
559.228	18927.23
559.59	19075.25
559.953	18963.61
560.316	19261.91
560.679	19282.47
561.041	19292.19
561.404	19292.87
561.767	19524.5
562.129	19495.35
562.492	19704.16
562.854	19612.41
563.217	19707.09
563.579	19741.9
563.941	19821.44
564.304	19957.94
564.666	20032.28
565.028	20077.03
565.39	20159.96
565.753	20265.72
566.115	20259.85
566.477	20329.45
566.839	20426.85
567.201	20543.68
567.563	20666.84
567.925	20845.37
568.287	20791.59
568.648	20836.33
569.01	21011.02
569.372	21018.92
569.734	20997.68
570.095	21257.11
570.457	21212.59
570.819	21264.79
571.18	21445.13
571.542	21549.53
571.903	21554.05
572.265	21596.31
572.626	21855.06
572.987	21917.43
573.349	21931.67
573.71	21912.91
574.071	22128.95
574.432	22218.22
574.794	22326.91
575.155	22403.97
575.516	22447.14
575.877	22609.17
576.238	22633.8
576.599	22794.02
576.96	22954.69
577.32	22961.25
577.681	23046.67
578.042	23300.9
578.403	23353.33
578.763	23526.2
579.124	23691.62
579.485	23894.33
579.845	23970.94
580.206	24124.38
580.566	24221.33
580.927	24403.92
581.287	24589.68
581.648	24638.49
582.008	24989.22
582.368	24976.56
582.728	25304.69
583.089	25365.48
583.449	25506.04
583.809	25656.54
584.169	25955.29
584.529	26054.27
584.889	26390.08
585.249	26349.86
585.609	26515.05
585.969	26962.95
586.329	27019.22
586.688	27165.88
587.048	27400.23
587.408	27460.11
587.768	27767
588.127	27838.18
588.487	28155.46
588.846	28497.37
589.206	28491.72
589.565	28787.08
589.925	29140.07
590.284	29261.65
590.643	29497.12
591.003	29740.96
591.362	29952.93
591.721	30083.55
592.08	30297.1
592.44	30520.82
592.799	30686.24
593.158	30839.46
593.517	31135.72
593.876	31311.08
594.235	31433.79
594.593	31762.37
594.952	32034.23
595.311	32089.82
595.67	32331.4
596.029	32786.52
596.387	32852.74
596.746	33339.28
597.104	33127.31
597.463	33360.75
597.822	33676.9
598.18	33758.02
598.538	33911.02
598.897	34311.23
599.255	34087.96
599.613	34829.64
599.972	34740.15
600.33	35052.91
600.688	34858.56
601.046	35359.56
601.404	35557.75
601.762	35694.25
602.12	36032.54
602.478	36053.56
602.836	36271.63
603.194	36214.46
603.552	36641.79
603.91	36613.09
604.268	36866.42
604.625	36912.97
604.983	37152.51
605.341	37279.97
605.698	37376.69
606.056	37613.29
606.413	37719.5
606.771	37921.53
607.128	38008.53
607.485	38009.66
607.843	38201.52
608.2	38456.88
608.557	38624.56
608.914	38663.66
609.272	38943.2
609.629	39174.15
609.986	39379.35
610.343	39161.95
610.7	39582.05
611.057	39573.92
611.414	39740.24
611.771	39902.95
612.127	40044.41
612.484	40181.58
612.841	40390.17
613.198	40398.98
613.554	40348.36
613.911	40679.88
614.267	40730.04
614.624	40928.46
614.98	40958.29
615.337	41211.61
615.693	41125.97
616.05	41227.88
616.406	41524.6
616.762	41390.37
617.118	41559.18
617.475	41599.85
617.831	41820.19
618.187	41991.71
618.543	41977.92
618.899	42213.4
619.255	42149.22
619.611	42180.18
619.967	42466.27
620.323	42493.61
620.678	42333.39
621.034	42350.34
621.39	42419.72
621.746	42503.78
622.101	42971.79
622.457	42651.35
622.812	42855.86
623.168	42993.49
623.523	42807.5
623.879	43242.07
624.234	42788.3
624.589	43193.03
624.945	43087.27
625.3	43237.1
625.655	43202.07
626.01	43308.73
626.365	43380.82
626.72	43347.6
627.075	43370.43
627.43	43480.71
627.785	43351.44
628.14	43512.57
628.495	43467.37
628.85	43377.21
629.205	43345.57
629.559	43621.49
629.914	43427.15
630.269	43517.32
630.623	43444.32
630.978	43408.17
631.332	43488.39
631.687	43755.95
632.041	43434.38
632.396	43798.66
632.75	43547.15
633.104	43629.63
633.459	43407.26
633.813	43434.38
634.167	43577.2
634.521	43456.53
634.875	43506.02
635.229	43456.07
635.583	43422.86
635.937	43367.72
636.291	43394.83
636.645	43414.49
636.999	43413.82
637.352	43440.26
637.706	43104.22
638.06	43447.94
638.413	43263.54
638.767	43135.63
639.121	43346.25
639.474	43111.45
639.828	43260.83
640.181	43183.31
640.534	43242.75
640.888	43062.86
641.241	43009.98
641.594	43016.99
641.947	43213.82
642.301	43086.37
642.654	43044.11
643.007	43203.43
643.36	43046.37
643.713	43119.81
644.066	43122.75
644.419	42845.24
644.771	42707.17
645.124	42146.5
645.477	42348.08
645.83	42058.82
646.182	41848.43
646.535	41782.22
646.888	41917.13
647.24	41798.49
647.593	41941.54
647.945	41821.09
648.298	41676.46
648.65	41589.91
649.002	41553.53
649.355	41720.75
649.707	41606.18
650.059	41835.78
650.411	42261.53
650.763	42428.31
651.115	42595.31
651.467	42469.21
651.819	42532.03
652.171	42443.22
652.523	42363.22
652.875	42329.32
653.227	42130.01
653.578	42382.43
653.93	42393.28
654.282	42155.77
654.633	42119.39
654.985	42141.08
655.337	42381.07
655.688	42179.95
656.039	42413.39
656.391	42003.91
656.742	42144.92
657.094	42143.57
657.445	42288.65
657.796	42433.95
658.147	42147.86
658.498	42179.27
658.849	42157.8
659.2	42118.93
659.551	42100.86
659.902	42231.47
660.253	42162.32
660.604	42194.87
660.955	41970.92
661.306	42119.84
661.656	42024.93
662.007	42003.01
662.358	42082.55
662.708	42054.98
663.059	41996
663.409	41892.27
663.76	42132.04
664.11	42069.22
664.461	42123
664.811	41993.51
665.161	42027.86
665.511	41970.69
665.862	41838.26
666.212	41947.41
666.562	42032.38
666.912	41792.84
667.262	41818.38
667.612	41739.96
667.962	42012.5
668.312	41851.15
668.662	42045.72
669.011	41848.43
669.361	41813.18
669.711	41895.44
670.06	41723.47
670.41	41732.5
670.76	41632.17
671.109	41956.91
671.459	41720.75
671.808	41722.34
672.157	41856.79
672.507	41577.48
672.856	41613.19
673.205	41594.43
673.554	41825.16
673.904	41537.93
674.253	41824.71
674.602	41682.79
674.951	41183.37
675.3	40984.73
675.649	41405.96
675.998	41505.62
676.346	41487.09
676.695	41677.59
677.044	41385.17
677.393	41496.13
677.741	41426.52
678.09	41510.59
678.438	41279.63
678.787	41280.09
679.135	41456.13
679.484	41190.15
679.832	41283.25
680.181	41014.56
680.529	41146.76
680.877	41036.48
681.225	40817.95
681.573	41086.19
681.922	40987.21
682.27	40791.29
682.618	40841.23
682.966	40665.87
683.314	40652.31
683.661	40687.33
684.009	40564.17
684.357	40396.72
684.705	40276.27
685.053	40347.46
685.4	40331.86
685.748	40156.05
686.095	40309.94
686.443	39955.6
686.79	39864.53
687.138	40132.32
687.485	40037.86
687.832	39843.51
688.18	39960.57
688.527	39727.81
688.874	39686.68
689.221	39631.54
689.568	39600.81
689.915	39485.56
690.262	39627.47
690.609	39378.89
690.956	39239.91
691.303	39249.41
691.65	39114.49
691.997	38966.93
692.344	38769.87
692.69	38724.22
693.037	38865.69
693.383	38413.04
693.73	38652.13
694.077	38415.98
694.423	38519.26
694.769	38359.71
695.116	38177.12
695.462	38156.55
695.808	38225.48
696.155	38130.11
696.501	37885.6
696.847	37820.52
697.193	37567.42
697.539	37723.8
697.885	37338.27
698.231	37318.38
698.577	37426.63
698.923	37226.86
699.269	37144.83
699.614	36881.33
699.96	36903.93
700.306	36767.21
700.651	36675.24
700.997	36632.07
701.342	36602.7
701.688	36561.79
702.033	36383.27
702.379	36452.87
702.724	36365.87
703.069	36485.64
703.415	36011.3
703.76	36065.53
704.105	36046.33
704.45	35986.44
704.795	35856.73
705.14	35695.37
705.485	35717.07
705.83	35531.31
706.175	35539.67
706.52	35457.42
706.865	35356.85
707.209	35277.98
707.554	35188.04
707.899	35226.91
708.243	34923.87
708.588	34933.14
708.932	34717.32
709.277	34831.22
709.621	34816.53
709.966	34580.15
710.31	34609.53
710.654	34334.28
710.998	34411.34
711.342	34325.24
711.687	34245.47
712.031	34181.29
712.375	33868.98
712.719	34087.96
713.063	33976.1
713.407	34025.36
713.75	33913.5
714.094	33829.89
714.438	33576.56
714.782	33661.08
715.125	33570.23
715.469	33625.6
715.812	33376.11
716.156	33238.04
716.499	33410.92
716.843	33238.04
717.186	33014.77
717.53	33361.2
717.873	33191.71
718.216	33167.98
718.559	32994.66
718.902	32737.26
719.246	32890.25
719.589	32801.89
719.932	32694.1
720.275	32607.77
720.617	32598.06
720.96	32627.89
721.303	32400.09
721.646	32643.03
721.989	32292.98
722.331	32393.09
722.674	32422.92
723.016	32336.14
723.359	32301.34
723.701	32409.59
724.044	32204.39
724.386	31967.79
724.729	32225.64
725.071	32146.54
725.413	32035.13
725.755	31922.37
726.097	31820.67
726.439	31627.46
726.782	31660.45
727.124	31764.4
727.465	31558.76
727.807	31585.65
728.149	31501.59
728.491	31402.38
728.833	31441.7
729.175	31435.83
729.516	31284.19
729.858	31233.8
730.199	31267.92
730.541	31243.29
730.882	31095.72
731.224	31233.35
731.565	31008.72
731.906	31006.68
732.248	31022.05
732.589	31010.75
732.93	30675.85
733.271	30798.33
733.612	30851.66
733.953	30825.45
734.294	30737.99
734.635	30553.14
734.976	30595.85
735.317	30526.02
735.658	30569.86
735.999	30501.39
736.339	30461.39
736.68	30469.98
737.021	30338
737.361	30214.84
737.702	30504.78
738.042	30349.3
738.383	30239.02
738.723	30292.35
739.063	30171
739.404	30222.07
739.744	30040.16
740.084	29975.53
740.424	30048.52
740.764	29906.15
741.104	30099.14
741.444	29822.99
741.784	29880.16
742.124	29783.89
742.464	29874.96
742.804	29732.14
743.143	29705.02
743.483	29649.43
743.823	29439.27
744.162	29471.81
744.502	29648.75
744.841	29392.49
745.181	29509.77
745.52	29314.53
745.86	29362.66
746.199	29326.28
746.538	29263.23
746.877	29144.36
747.216	29184.81
747.556	29106.85
747.895	29185.26
748.234	29134.87
748.573	29045.83
748.911	28992.73
749.25	28954.54
749.589	28984.37
749.928	28855.33
750.267	28887.19
750.605	28761.55
750.944	28680.42
751.283	28613.98
751.621	28624.37
751.96	28603.36
752.298	28493.53
752.636	28503.25
752.975	28301.9
753.313	28209.47
753.651	28465.28
753.989	28167.21
754.327	28069.36
754.666	27984.39
755.004	28069.36
755.342	28107.55
755.679	28061.45
756.017	27860.55
756.355	27888.12
756.693	27757.5
757.031	27914.79
757.368	27637.73
757.706	27658.98
758.044	27553.67
758.381	27537.4
758.719	27333.79
759.056	27472.54
759.394	27393.9
759.731	27212.66
760.068	27195.26
760.405	27162.27
760.743	26974.93
761.08	26957.07
761.417	26790.3
761.754	26775.38
762.091	26760.47
762.428	26636.4
762.765	26524.77
763.102	26593.92
763.438	26479.35
763.775	26227.83
764.112	26229.18
764.449	26383.53
764.785	26187.83
765.122	26025.12
765.458	25923.88
765.795	25833.49
766.131	25907.38
766.467	25706.71
766.804	25681.4
767.14	25522.99
767.476	25515.98
767.812	25338.36
768.148	25372.48
768.485	25263.11
768.821	25106.73
769.157	25161.19
769.492	24944.92
769.828	24919.84
770.164	24800.97
770.5	24685.72
770.836	24728.21
771.171	24563.01
771.507	24393.98
771.842	24342.45
772.178	24209.35
772.513	24269.46
772.849	24179.75
773.184	24140.88
773.519	24099.07
773.855	23998.73
774.19	23790.38
774.525	23721.23
774.86	23845.29
775.195	23645.97
775.53	23654.56
775.865	23469.03
776.2	23347
776.535	23149.49
776.87	23189.04
777.205	23067.23
777.539	22992.88
777.874	23080.34
778.209	22913.34
778.543	22852.1
778.878	22635.15
779.212	22607.58
779.547	22590.86
779.881	22561.94
780.215	22360.13
780.55	22296.18
780.884	22244.88
781.218	22192.68
781.552	22206.24
781.886	22022.06
782.22	21939.58
782.554	21869.52
782.888	21650.77
783.222	21662.52
783.556	21535.07
783.889	21437.9
784.223	21269.77
784.557	21364
784.89	21270.67
785.224	21108.41
785.557	21099.83
785.891	21013.05
786.224	20951.36
786.558	20935.31
786.891	20737.58
787.224	20639.05
787.557	20602.66
787.891	20532.38
788.224	20543.01
788.557	20507.3
788.89	20401.77
789.223	20501.65
789.556	20251.71
789.888	20136.91
790.221	20173.3
790.554	20062.79
790.887	20034.32
791.219	19897.82
791.552	19759.97
791.884	19807.21
792.217	19632.52
792.549	19666.42
792.882	19545.52
793.214	19404.28
793.546	19494.9
793.879	19349.59
794.211	19245.41
794.543	19220.33
794.875	19112.76
795.207	19172.87
795.539	19159.54
795.871	19012.88
796.203	18933.78
796.535	18810.62
796.867	18788.02
797.198	18669.83
797.53	18778.53
797.862	18635.94
798.193	18644.07
798.525	18512.78
798.856	18533.34
799.188	18351.42
799.519	18251.77
799.85	18196.17
800.182	18234.59
800.513	18124.31
800.844	18003.41
801.175	18103.3
801.506	18089.28
801.837	18012.9
802.168	17940.36
802.499	17886.8
802.83	17731.33
803.161	17743.76
803.491	17765.45
803.822	17693.14
804.153	17521.16
804.483	17440.94
804.814	17481.16
805.145	17328.63
805.475	17237.56
805.805	17239.82
806.136	17285.46
806.466	17292.47
806.796	17185.81
807.126	17064.9
807.457	17074.62
807.787	17060.38
808.117	17056.09
808.447	16882.08
808.777	16867.17
809.107	16813.16
809.436	16733.84
809.766	16744.91
810.096	16617.46
810.426	16630.57
810.755	16608.65
811.085	16564.35
811.414	16470.34
811.744	16352.15
812.073	16365.26
812.403	16425.37
812.732	16286.62
813.061	16296.11
813.39	16196.9
813.719	16137.25
814.049	16189.67
814.378	16202.1
814.707	16106.74
815.036	16059.96
815.365	15920.3
815.693	15807.54
816.022	15836.69
816.351	15816.35
816.68	15616.35
817.008	15798.72
817.337	15663.81
817.665	15532.52
817.994	15605.28
818.322	15637.37
818.651	15480.54
818.979	15443.48
819.307	15501.33
819.636	15477.83
819.964	15362.8
820.292	15422.01
820.62	15394.21
820.948	15419.98
821.276	15493.65
821.604	15398.28
821.932	15372.52
822.259	15390.37
822.587	15366.64
822.915	15265.63
823.243	15359.64
823.57	15248
823.898	15309.47
824.225	15240.77
824.553	15158.29
824.88	15281.22
825.207	15342.01
825.535	15250.49
825.862	15231.28
826.189	15226.76
826.516	15318.96
826.843	15310.83
827.17	15258.62
827.497	15330.94
827.824	15260.21
828.151	15366.64
828.478	15275.35
828.805	15352.41
829.131	15217.27
829.458	15219.3
829.785	15155.8
830.111	15220.66
830.438	15271.96
830.764	15279.41
831.09	15271.05
831.417	15121.9
831.743	15158.74
832.069	15119.87
832.395	15165.29
832.722	15143.15
833.048	15084.17
833.374	15162.58
833.7	14955.36
834.026	15106.54
834.351	15057.95
834.677	15087.78
835.003	15007.56
835.329	15036.03
835.654	15040.1
835.98	14869.71
836.306	14947.67
836.631	14871.97
836.956	14951.06
837.282	14949.93
837.607	14839.65
837.932	14777.73
838.258	14864.96
838.583	14794.23
838.908	14760.78
839.233	14783.61
839.558	14734.57
839.883	14708.13
840.208	14583.16
840.533	14666.78
840.858	14620.9
841.182	14589.72
841.507	14572.99
841.832	14467.91
842.156	14509.94
842.481	14479.89
842.805	14437.4
843.13	14335.48
843.454	14362.83
843.778	14316.05
844.103	14323.28
844.427	14246.45
844.751	14243.06
845.075	14249.39
845.399	14178.65
845.723	14083.97
846.047	14121.03
846.371	13949.05
846.695	13932.78
847.019	13861.15
847.343	13823.18
847.666	13699.12
847.99	13719.46
848.313	13719.68
848.637	13530.31
848.96	13650.53
849.284	13527.6
849.607	13455.96
849.931	13423.64
850.254	13233.59
850.577	13289.18
850.9	13128.06
851.223	13163.54
851.546	13098.23
851.869	12941.85
852.192	13027.72
852.515	12957.89
852.838	12921.74
853.161	12794.73
853.483	12776.2
853.806	12768.75
854.129	12790.67
854.451	12746.6
854.774	12662.76
855.096	12556.32
855.419	12528.07
855.741	12515.65
856.063	12471.35
856.385	12477.45
856.708	12344.8
857.03	12321.98
857.352	12393.61
857.674	12314.29
857.996	12213.51
858.318	12112.27
858.64	12254.41
858.961	12191.36
859.283	12135.09
859.605	12035.66
859.926	12113.85
860.248	12004.47
860.57	12000.18
860.891	11990.46
861.212	11887.19
861.534	11820.52
861.855	11858.49
862.176	11857.58
862.498	11870.24
862.819	11825.49
863.14	11744.82
863.461	11688.77
863.782	11751.6
864.103	11736.46
864.424	11740.98
864.745	11638.83
865.065	11561.77
865.386	11499.18
865.707	11573.3
866.027	11607.87
866.348	11572.85
866.668	11501.21
866.989	11447.65
867.309	11430.7
867.63	11494.66
867.95	11449.23
868.27	11365.85
868.59	11482.9
868.91	11357.03
869.23	11335.11
869.55	11290.14
869.87	11309.12
870.19	11360.42
870.51	11363.59
870.83	11343.7
871.15	11249.24
871.469	11288.11
871.789	11186.41
872.109	11247.43
872.428	11198.39
872.748	11184.38
873.067	11088.11
873.386	11173.53
873.706	11092.86
874.025	11143.48
874.344	11013.31
874.663	11025.06
874.982	11017.38
875.301	11011.05
875.62	10930.38
875.939	10948
876.258	10962.47
876.577	10942.35
876.896	10875.24
877.214	10849.02
877.533	10862.81
877.852	10866.42
878.17	10806.99
878.489	10901
878.807	10887.44
879.125	10786.2
879.444	10762.02
879.762	10679.76
880.08	10708.24
880.398	10742.81
880.716	10696.94
881.034	10666.65
881.352	10629.59
881.67	10569.26
881.988	10640.67
882.306	10575.58
882.624	10527
882.941	10530.16
883.259	10418.07
883.577	10499.88
883.894	10461.24
884.212	10459.43
884.529	10390.28
884.846	10364.74
885.164	10437.28
885.481	10350.28
885.798	10282.94
886.115	10232.09
886.432	10215.14
886.75	10242.26
887.067	10311.41
887.383	10175.37
887.7	10228.02
888.017	10124.52
888.334	10094.47
888.651	10020.8
888.967	10051.53
889.284	10007.69
889.6	9965.2
889.917	9911.42
890.233	9971.53
890.55	9893.57
890.866	9903.28
891.182	9869.84
891.498	9854.47
891.815	9854.92
892.131	9743.06
892.447	9784.42
892.763	9758.88
893.079	9693.35
893.395	9630.52
893.71	9694.7
894.026	9650.18
894.342	9540.58
894.657	9591.43
894.973	9506.01
895.289	9534.25
895.604	9508.27
895.92	9424.2
896.235	9321.83
896.55	9426.24
896.865	9346.24
897.181	9312.79
897.496	9262.85
897.811	9207.03
898.126	9213.81
898.441	9183.3
898.756	9137.43
899.071	9119.58
899.386	9093.59
899.7	9065.34
900.015	9045.68
900.33	8961.39
900.644	8957.09
900.959	8930.66
901.273	8832.8
901.588	8895.4
901.902	8801.62
902.216	8816.08
902.531	8794.39
902.845	8742.86
903.159	8688.18
903.473	8649.08
903.787	8649.53
904.101	8569.31
904.415	8593.04
904.729	8590.1
905.042	8464
905.356	8496.99
905.67	8445.47
905.984	8385.58
906.297	8410.89
906.611	8371.57
906.924	8359.82
907.237	8337.22
907.551	8269.88
907.864	8269.88
908.177	8214.29
908.491	8205.7
908.804	8092.71
909.117	8100.17
909.43	8101.75
909.743	7996.22
910.056	8024.69
910.368	7953.96
910.681	7954.86
910.994	7883.68
911.307	7897.24
911.619	7848.65
911.932	7810.91
912.244	7783.57
912.557	7801.87
912.869	7744.7
913.181	7755.54
913.494	7658.82
913.806	7591.26
914.118	7558.26
914.43	7533.86
914.742	7561.88
915.054	7554.65
915.366	7508.09
915.678	7435.78
915.99	7342.45
916.302	7340.87
916.613	7306.29
916.925	7285.73
917.236	7325.5
917.548	7204.6
917.859	7204.37
918.171	7172.51
918.482	7172.74
918.794	7147.88
919.105	7151.72
919.416	7053.19
919.727	7027.43
920.038	7024.04
920.349	7002.57
920.66	6979.52
920.971	6888.67
921.282	6888.67
921.593	6892.52
921.903	6861.33
922.214	6812.52
922.525	6752.86
922.835	6763.48
923.146	6744.27
923.456	6700.21
923.767	6629.25
924.077	6668.79
924.387	6602.35
924.697	6610.94
925.008	6605.74
925.318	6554.22
925.628	6554.45
925.938	6473.54
926.248	6426.77
926.558	6400.55
926.867	6412.76
927.177	6391.74
927.487	6343.38
927.796	6221.12
928.106	6270.61
928.416	6280.33
928.725	6269.48
929.034	6191.29
929.344	6163.04
929.653	6175.02
929.962	6089.37
930.271	6054.35
930.581	6052.31
930.89	5995.82
931.199	5977.96
931.508	6010.05
931.817	5940.9
932.125	5972.54
932.434	5921.69
932.743	5849.15
933.051	5859.32
933.36	5868.14
933.669	5819.32
933.977	5770.96
934.286	5768.7
934.594	5768.48
934.902	5706.56
935.21	5675.15
935.519	5642.38
935.827	5635.83
936.135	5649.84
936.443	5592.66
936.751	5527.35
937.059	5526.45
937.367	5523.29
937.674	5490.52
937.982	5506.79
938.29	5405.78
938.597	5483.51
938.905	5405.55
939.213	5359.68
939.52	5387.92
939.827	5306.34
940.135	5323.52
940.442	5287.13
940.749	5233.58
941.056	5291.2
941.363	5235.84
941.67	5234.93
941.977	5193.58
942.284	5144.31
942.591	5129.17
942.898	5072.9
943.205	5115.84
943.511	5043.53
943.818	5008.72
944.125	5005.33
944.431	4999.01
944.738	5005.79
945.044	4956.3
945.35	4927.14
945.657	4926.01
945.963	4917.43
946.269	4828.16
946.575	4837.66
946.881	4781.84
947.187	4847.37
947.493	4799.46
947.799	4820.93
948.105	4737.77
948.41	4724.44
948.716	4712.69
949.022	4712.46
949.327	4658.45
949.633	4589.75
949.938	4686.92
950.244	4640.15
950.549	4596.98
950.854	4569.19
951.16	4510.43
951.465	4514.05
951.77	4505.46
952.075	4525.57
952.38	4473.82
952.685	4438.8
952.99	4418.46
953.294	4416.88
953.599	4402.64
953.904	4355.86
954.209	4314.28
954.513	4359.02
954.818	4339.59
955.122	4303.66
955.426	4264.56
955.731	4271.57
956.035	4215.07
956.339	4189.76
956.643	4209.88
956.948	4180.5
957.252	4119.71
957.556	4149.76
957.86	4125.13
958.163	4117.22
958.467	4097.11
958.771	4077.45
959.075	4060.95
959.378	4032.7
959.682	4016.66
959.985	3977.79
960.289	4010.33
960.592	3925.59
960.896	3970.11
961.199	3944.57
961.502	3885.14
961.805	3880.39
962.108	3872.48
962.411	3860.96
962.714	3865.25
963.017	3830.22
963.32	3845.59
963.623	3772.37
963.926	3769.43
964.228	3756.33
964.531	3782.32
964.833	3778.25
965.136	3726.27
965.438	3725.37
965.741	3683.34
966.043	3658.48
966.345	3700.51
966.648	3637.91
966.95	3642.66
967.252	3589.33
967.554	3579.61
967.856	3597.01
968.158	3564.47
968.46	3559.04
968.761	3537.8
969.063	3509.33
969.365	3536.9
969.666	3535.99
969.968	3427.3
970.269	3431.14
970.571	3433.85
970.872	3428.88
971.174	3402.89
971.475	3426.62
971.776	3387.3
972.077	3351.37
972.378	3382.1
972.679	3364.93
972.98	3350.01
973.281	3331.25
973.582	3296.68
973.883	3330.58
974.183	3276.79
974.484	3243.8
974.785	3247.41
975.085	3205.61
975.386	3200.86
975.686	3191.37
975.986	3190.01
976.287	3165.16
976.587	3146.4
976.887	3129.45
977.187	3148.43
977.487	3145.5
977.787	3113.86
978.087	3079.74
978.387	3050.36
978.687	3102.33
978.987	3076.35
979.286	3011.26
979.586	3002
979.885	3006.29
980.185	2974.88
980.484	2991.6
980.784	2951.6
981.083	2940.08
981.382	2925.62
981.682	2931.26
981.981	2889.91
982.28	2950.02
982.579	2859.4
982.878	2855.56
983.177	2857.59
983.475	2855.56
983.774	2856.01
984.073	2819.4
984.372	2805.62
984.67	2778.73
984.969	2764.04
985.267	2752.29
985.566	2725.17
985.864	2740.99
986.162	2703.25
986.461	2738.5
986.759	2689.92
987.057	2658.5
987.355	2637.26
987.653	2655.34
987.951	2676.58
988.249	2653.53
988.547	2618.73
988.844	2610.6
989.142	2624.15
989.44	2579.86
989.737	2591.39
990.035	2576.47
990.332	2564.95
990.63	2560.65
990.927	2541.67
991.224	2542.35
991.521	2504.16
991.819	2473.65
992.116	2518.17
992.413	2484.5
992.71	2454.44
993.006	2428.68
993.303	2414.89
993.6	2451.5
993.897	2404.05
994.193	2391.17
994.49	2409.47
994.787	2413.54
995.083	2362.01
995.379	2362.01
995.676	2377.38
995.972	2365.18
996.268	2341.9
996.565	2299.87
996.861	2295.12
997.157	2303.26
997.453	2277.04
997.749	2292.41
998.044	2259.42
998.34	2280.43
998.636	2244.73
998.932	2209.48
999.227	2197.27
999.523	2149.59
999.818	2172.64
1000.114	2186.43
1000.409	2143.49
1000.704	2126.77
1001	2149.14
1001.295	2153.66
1001.59	2117.73
1001.885	2133.77
1002.18	2068.24
1002.475	2086.32
1002.77	2078.41
1003.065	2083.38
1003.359	2057.84
1003.654	2048.12
1003.949	2055.36
1004.243	2003.61
1004.538	2013.55
1004.832	2024.17
1005.127	1971.29
1005.421	1974
1005.715	1975.13
1006.009	1982.14
1006.304	1940.56
1006.598	1944.4
1006.892	1945.98
1007.186	1922.48
1007.48	1887.68
1007.773	1894.91
1008.067	1904.17
1008.361	1849.49
1008.655	1869.82
1008.948	1847.9
1009.242	1861.01
1009.535	1847.9
1009.829	1850.39
1010.122	1804.29
1010.415	1812.42
1010.708	1768.58
1011.001	1809.03
1011.295	1760.9
1011.588	1764.74
1011.881	1723.16
1012.173	1724.06
1012.466	1727
1012.759	1704.86
1013.052	1692.65
1013.344	1703.05
1013.637	1718.42
1013.93	1682.94
1014.222	1671.41
1014.514	1664.86
1014.807	1633.22
1015.099	1633.67
1015.391	1660.34
1015.683	1634.12
1015.976	1614.24
1016.268	1599.32
1016.56	1571.75
1016.851	1561.81
1017.143	1567.91
1017.435	1559.55
1017.727	1557.06
1018.018	1553.22
1018.31	1527.69
1018.602	1513
1018.893	1515.71
1019.185	1489.49
1019.476	1506.67
1019.767	1486.1
1020.058	1503.73
1020.35	1433.9
1020.641	1456.73
1020.932	1462.38
1021.223	1434.58
1021.514	1458.76
1021.804	1403.85
1022.095	1411.98
1022.386	1413.79
1022.677	1397.52
1022.967	1380.8
1023.258	1364.98
1023.548	1357.97
1023.839	1370.4
1024.129	1351.65
1024.419	1350.29
1024.709	1324.08
1025	1352.55
1025.29	1296.28
1025.58	1286.11
1025.87	1270.52
1026.16	1283.85
1026.449	1251.31
1026.739	1247.47
1027.029	1251.08
1027.319	1249.05
1027.608	1236.85
1027.898	1228.26
1028.187	1247.24
1028.477	1222.61
1028.766	1190.75
1029.055	1200.91
1029.344	1193.68
1029.634	1185.55
1029.923	1202.95
1030.212	1171.54
1030.501	1173.57
1030.79	1159.79
1031.078	1155.49
1031.367	1123.63
1031.656	1127.02
1031.945	1124.98
1032.233	1156.4
1032.522	1121.59
1032.81	1076.17
1033.099	1105.55
1033.387	1106.23
1033.675	1099.22
1033.963	1084.53
1034.251	1084.99
1034.54	1052.67
1034.828	1042.05
1035.116	1054.93
1035.403	1047.02
1035.691	1053.57
1035.979	1023.52
1036.267	1014.48
1036.554	1017.42
1036.842	1015.38
1037.129	1021.26
1037.417	1009.51
1037.704	981.49
1037.992	994.59
1038.279	990.07
1038.566	962.5
1038.853	962.5
1039.14	962.5
