Data from hue_32_FLMS001491_00083.txt Node
Date: Tue Feb 07 17:24:01 GMT 2017
User: dcchb
Spectrometer: FLMS00149
Trigger mode: 0
Integration Time (sec): 2.000000E-2
Scans to average: 10
Electric dark correction enabled: true
Nonlinearity correction enabled: false
Boxcar width: 0
XAxis mode: Wavelengths
Number of Pixels in Spectrum: 2048
>>>>>Begin Spectral Data<<<<<
341.393	13.76
341.776	13.76
342.16	13.76
342.543	-70.08
342.927	-94.04
343.31	-73.25
343.693	-76.64
344.077	-65.79
344.46	-51.55
344.843	-67.6
345.226	-49.07
345.61	-27.15
345.993	-40.71
346.376	8.11
346.759	6.3
347.142	27.77
347.525	50.59
347.908	67.09
348.291	85.39
348.674	98.73
349.057	107.77
349.44	128.1
349.823	144.37
350.206	156.13
350.588	197.25
350.971	221.89
351.354	232.06
351.737	243.58
352.119	255.78
352.502	268.89
352.884	270.02
353.267	284.94
353.65	298.49
354.032	290.81
354.414	303.24
354.797	320.87
355.179	339.62
355.562	318.16
355.944	337.36
356.326	330.36
356.709	339.85
357.091	323.58
357.473	352.73
357.855	344.82
358.238	348.66
358.62	344.6
359.002	314.31
359.384	341.66
359.766	334.65
360.148	344.37
360.53	351.37
360.912	358.83
361.294	330.81
361.676	326.74
362.057	338.95
362.439	328.78
362.821	342.11
363.203	335.78
363.584	338.27
363.966	345.5
364.348	322.68
364.729	325.84
365.111	321.55
365.493	330.81
365.874	329
366.256	293.98
366.637	304.14
367.019	298.95
367.4	333.07
367.781	303.69
368.163	327.42
368.544	301.43
368.925	345.73
369.306	300.98
369.688	320.64
370.069	309.12
370.45	304.82
370.831	326.74
371.212	329.23
371.593	320.64
371.974	331.04
372.355	330.36
372.736	306.18
373.117	332.62
373.498	317.48
373.879	311.15
374.26	350.02
374.641	304.82
375.021	326.06
375.402	307.76
375.783	324.93
376.163	333.75
376.544	341.43
376.925	338.27
377.305	322.45
377.686	318.16
378.066	338.49
378.447	342.34
378.827	334.43
379.208	328.55
379.588	328.55
379.968	336.01
380.349	325.84
380.729	323.13
381.109	338.27
381.489	352.96
381.87	334.43
382.25	360.41
382.63	346.18
383.01	351.37
383.39	369.91
383.77	362.9
384.15	354.76
384.53	359.06
384.91	354.31
385.29	345.27
385.67	369.91
386.049	351.15
386.429	341.21
386.809	358.61
387.189	358.61
387.568	352.73
387.948	361.09
388.328	356.57
388.707	376.69
389.087	363.13
389.466	342.79
389.846	359.06
390.225	367.19
390.605	372.17
390.984	373.97
391.363	369.23
391.743	373.52
392.122	360.87
392.501	381.88
392.881	383.01
393.26	369.45
393.639	394.31
394.018	378.49
394.397	387.53
394.776	366.29
395.155	406.97
395.534	401.77
395.913	363.8
396.292	410.81
396.671	397.7
397.05	405.16
397.429	401.77
397.808	382.79
398.186	377.14
398.565	416.91
398.944	403.8
399.323	384.82
399.701	412.16
400.08	406.51
400.458	403.35
400.837	410.13
401.215	416.01
401.594	403.8
401.972	403.12
402.351	427.76
402.729	406.06
403.107	416.91
403.486	419.62
403.864	413.97
404.242	417.59
404.62	432.05
404.999	420.07
405.377	436.57
405.755	434.99
406.133	439.96
406.511	443.12
406.889	432.5
407.267	437.93
407.645	440.86
408.023	444.71
408.401	441.77
408.779	446.74
409.156	462.78
409.534	460.3
409.912	461.2
410.29	465.04
410.667	469.79
411.045	451.26
411.422	478.6
411.8	488.77
412.178	465.04
412.555	496.23
412.933	460.52
413.31	482.22
413.687	481.09
414.065	497.59
414.442	492.84
414.819	501.2
415.197	501.65
415.574	508.43
415.951	518.15
416.328	509.56
416.705	504.82
417.082	516.79
417.46	518.15
417.837	515.89
418.214	539.84
418.591	531.26
418.967	530.35
419.344	531.26
419.721	554.76
420.098	551.14
420.475	531.94
420.852	516.79
421.228	524.7
421.605	558.38
421.982	521.99
422.358	552.95
422.735	559.05
423.111	547.75
423.488	574.19
423.864	564.93
424.241	581.65
424.617	580.3
424.994	566.51
425.37	600.86
425.746	595.89
426.123	599.73
426.499	599.05
426.875	599.5
427.251	613.06
427.627	599.96
428.003	624.81
428.379	588.2
428.756	624.14
429.132	649.67
429.507	632.27
429.883	640.41
430.259	652.61
430.635	640.86
431.011	663.01
431.387	649.67
431.763	651.93
432.138	681.31
432.514	674.08
432.89	675.21
433.265	667.07
433.641	674.76
434.016	697.35
434.392	703.68
434.767	722.89
435.143	727.86
435.518	708.2
435.894	711.59
436.269	712.95
436.644	734.19
437.02	738.94
437.395	729.22
437.77	751.59
438.145	755.43
438.52	768.31
438.895	769.44
439.271	754.98
439.646	785.04
440.021	782.78
440.395	782.32
440.77	805.6
441.145	797.24
441.52	802.21
441.895	800.4
442.27	830.46
442.645	819.16
443.019	819.84
443.394	827.07
443.769	839.05
444.143	839.05
444.518	815.09
444.892	846.96
445.267	831.59
445.641	839.05
446.016	845.15
446.39	873.17
446.764	870.01
447.139	873.62
447.513	884.69
447.887	891.02
448.262	855.09
448.636	868.2
449.01	914.3
449.384	911.36
449.758	921.3
450.132	909.33
450.506	931.47
450.88	943.22
451.254	928.08
451.628	963.56
452.002	943.45
452.376	956.33
452.75	972.15
453.123	957.23
453.497	973.51
453.871	989.1
454.244	997.23
454.618	996.33
454.992	1012.37
455.365	1038.81
455.739	1028.65
456.112	1039.04
456.486	1047.4
456.859	1083.33
457.232	1081.98
457.606	1089.21
457.979	1123.11
458.352	1102.54
458.725	1128.98
459.099	1144.35
459.472	1147.96
459.845	1146.38
460.218	1164.23
460.591	1179.6
460.964	1173.95
461.337	1208.98
461.71	1238.58
462.083	1232.03
462.456	1262.31
462.829	1244.68
463.201	1259.15
463.574	1277
463.947	1314.29
464.32	1312.71
464.692	1338.02
465.065	1336.21
465.438	1380.05
465.81	1373.49
466.183	1384.12
466.555	1427.28
466.928	1416.66
467.3	1424.79
467.672	1456.66
468.045	1479.71
468.417	1478.58
468.789	1509.31
469.161	1535.52
469.534	1586.14
469.906	1608.07
470.278	1617.1
470.65	1623.66
471.022	1652.36
471.394	1702.3
471.766	1703.88
472.138	1769.64
472.51	1802.86
472.882	1818.91
473.253	1831.34
473.625	1886.25
473.997	1933.48
474.369	1957.66
474.74	1970.99
475.112	1998.11
475.484	2043.53
475.855	2077.88
476.227	2102.52
476.598	2171.44
476.97	2228.16
477.341	2288.73
477.713	2293.02
478.084	2347.93
478.455	2427.48
478.827	2459.79
479.198	2504.09
479.569	2544.09
479.94	2649.39
480.311	2691.43
480.682	2777.3
481.053	2796.73
481.424	2855.49
481.795	2954.92
482.166	3033.11
482.537	3085.54
482.908	3152.88
483.279	3206.89
483.65	3331.64
484.021	3364.86
484.391	3416.61
484.762	3483.04
485.133	3521.24
485.503	3630.84
485.874	3761
486.244	3804.39
486.615	3913.32
486.985	4004.16
487.356	4096.14
487.726	4151.95
488.097	4241.22
488.467	4285.96
488.837	4449.8
489.207	4468.33
489.578	4579.06
489.948	4702
490.318	4745.38
490.688	4838.04
491.058	4914.42
491.428	5012.72
491.798	5132.04
492.168	5291.36
492.538	5292.26
492.908	5402.09
493.278	5477.12
493.648	5523.67
494.017	5633.95
494.387	5728.18
494.757	5824.23
495.126	5878.91
495.496	5874.17
495.866	5987.84
496.235	6040.49
496.605	6216.53
496.974	6275.74
497.344	6351.44
497.713	6377.66
498.082	6482.29
498.452	6564.54
498.821	6553.7
499.19	6646.35
499.559	6737.87
499.928	6824.65
500.298	6889.06
500.667	7026.68
501.036	6985.1
501.405	7106
501.774	7118.65
502.143	7217.18
502.512	7225.54
502.88	7354.13
503.249	7342.83
503.618	7432.32
503.987	7459.89
504.356	7523.39
504.724	7645.87
505.093	7707.57
505.462	7722.93
505.83	7772.42
506.199	7937.16
506.567	7971.74
506.936	8010.61
507.304	8143.26
507.672	8203.15
508.041	8162.47
508.409	8293.76
508.777	8372.41
509.145	8344.39
509.514	8381.45
509.882	8517.71
510.25	8507.32
510.618	8559.75
510.986	8601.55
511.354	8699.63
511.722	8720.65
512.09	8808.1
512.458	8718.84
512.826	8860.3
513.193	8918.83
513.561	8952.96
513.929	9102.33
514.297	9184.14
514.664	9208.32
515.032	9216.68
515.4	9266.85
515.767	9332.83
516.135	9362.66
516.502	9305.72
516.869	9476.33
517.237	9500.29
517.604	9497.8
517.972	9683.78
518.339	9655.76
518.706	9709.55
519.073	9730.34
519.44	9763.78
519.808	9854.85
520.175	9905.93
520.542	9971.23
520.909	10091.23
521.276	10035.19
521.643	10151.8
522.009	10176.88
522.376	10218.69
522.743	10269.31
523.11	10372.81
523.477	10484.44
523.843	10458.45
524.21	10694.61
524.577	10655.28
524.943	10720.14
525.31	10796.98
525.676	10824.32
526.043	10899.35
526.409	10923.75
526.776	11086.23
527.142	11099.11
527.508	11126.23
527.874	11244.87
528.241	11300.01
528.607	11341.37
528.973	11435.38
529.339	11407.81
529.705	11546.79
530.071	11611.87
530.437	11639.21
530.803	11715.14
531.169	11789.04
531.535	11773.45
531.901	11840.56
532.267	11923.95
532.632	11962.37
532.998	12027
533.364	12098.64
533.73	12110.61
534.095	12212.98
534.461	12325.98
534.826	12314.68
535.192	12394.9
535.557	12439.19
535.923	12493.88
536.288	12502.24
536.653	12627.66
537.019	12589.92
537.384	12599.87
537.749	12667.66
538.114	12776.58
538.479	12747.43
538.845	12826.75
539.21	12784.49
539.575	12868.11
539.94	12906.3
540.305	12994.88
540.67	13000.08
541.034	13205.05
541.399	13172.51
541.764	13230.13
542.129	13224.93
542.494	13283.01
542.858	13364.14
543.223	13372.73
543.587	13475.32
543.952	13512.84
544.316	13614.53
544.681	13513.51
545.045	13671.02
545.41	13734.98
545.774	13744.7
546.138	13707.41
546.503	13848.2
546.867	13847.52
547.231	13967.06
547.595	14059.04
547.959	14102.88
548.324	14066.95
548.688	14123.67
549.052	14191.46
549.416	14234.85
549.779	14229.43
550.143	14342.42
550.507	14393.72
550.871	14380.16
551.235	14468.97
551.599	14513.49
551.962	14618.12
552.326	14576.99
552.689	14656.31
553.053	14608.63
553.417	14714.16
553.78	14867.38
554.143	14834.84
554.507	14937.88
554.87	14953.7
555.234	15088.39
555.597	14975.85
555.96	15107.6
556.323	15137.88
556.686	15172.68
557.05	15318.67
557.413	15266.01
557.776	15304.2
558.139	15463.29
558.502	15465.33
558.865	15540.81
559.228	15608.83
559.59	15562.27
559.953	15652.44
560.316	15833.91
560.679	15799.56
561.041	15929.27
561.404	16087.23
561.767	16075.26
562.129	16008.59
562.492	16170.17
562.854	16185.99
563.217	16172.88
563.579	16219.43
563.941	16352.99
564.304	16341.24
564.666	16512.08
565.028	16437.28
565.39	16545.53
565.753	16683.6
566.115	16633.43
566.477	16675.92
566.839	16789.59
567.201	16896.02
567.563	16917.49
567.925	17043.37
568.287	17036.59
568.648	17144.15
569.01	17189.58
569.372	17308.9
569.734	17238.61
570.095	17329.23
570.457	17521.32
570.819	17572.62
571.18	17539.4
571.542	17624.14
571.903	17693.97
572.265	17786.17
572.626	17869.33
572.987	17917.24
573.349	18029.55
573.71	18169.89
574.071	18152.94
574.432	18262.09
574.794	18477.23
575.155	18442.2
575.516	18439.71
575.877	18728.07
576.238	18754.05
576.599	18829.31
576.96	18918.34
577.32	19138
577.681	19195.63
578.042	19326.24
578.403	19469.97
578.763	19597.87
579.124	19660.25
579.485	19891.88
579.845	20074.02
580.206	20213
580.566	20291.42
580.927	20547.45
581.287	20704.06
581.648	20753.1
582.008	20963.49
582.368	21121.22
582.728	21351.05
583.089	21454.55
583.449	21723.47
583.809	21920.53
584.169	21957.13
584.529	22207.98
584.889	22589.89
585.249	22662.43
585.609	22850.44
585.969	23217.44
586.329	23309.19
586.688	23508.28
587.048	23792.11
587.408	23964.54
587.768	24145.33
588.127	24438.88
588.487	24606.1
588.846	25065.08
589.206	25134.23
589.565	25355.24
589.925	25761.55
590.284	25804.72
590.643	26169.91
591.003	26468.88
591.362	26827.74
591.721	26970.34
592.08	27178.69
592.44	27485.12
592.799	27815.06
593.158	27958.11
593.517	28158.78
593.876	28504.98
594.235	28723.06
594.593	28957.4
594.952	29391.74
595.311	29410.95
595.67	29801.22
596.029	30125.51
596.387	30301.1
596.746	30704.48
597.104	30765.26
597.463	30983.56
597.822	31395.08
598.18	31477.11
598.538	31756.42
598.897	32139.92
599.255	32094.04
599.613	32656.97
599.972	32732.67
600.33	32958.65
600.688	33131.98
601.046	33388.02
601.404	33699.42
601.762	33928.57
602.12	34245.4
602.478	34513.19
602.836	34595.45
603.194	34670.02
603.552	34855.78
603.91	34985.27
604.268	35335.99
604.625	35451.24
604.983	35698.92
605.341	35784.12
605.698	36197.66
606.056	36443.99
606.413	36551.1
606.771	36762.17
607.128	37055.49
607.485	36982.95
607.843	37108.15
608.2	37469.95
608.557	37691.41
608.914	37633.11
609.272	38020.89
609.629	38186.09
609.986	38396.48
610.343	38397.15
610.7	38869.46
611.057	38920.53
611.414	38934.77
611.771	39174.53
612.127	39316
612.484	39440.74
612.841	39574.75
613.198	39659.95
613.554	39734.97
613.911	40071.69
614.267	40232.81
614.624	40173.15
614.98	40394.16
615.337	40738.34
615.693	40716.19
616.05	40772.46
616.406	41043.41
616.762	40986.46
617.118	41111.43
617.475	41301.48
617.831	41400.69
618.187	41525.21
618.543	41590.97
618.899	41775.6
619.255	41849.72
619.611	41980.56
619.967	42005.42
620.323	42219.88
620.678	42084.74
621.034	42192.99
621.39	42245.41
621.746	42313.44
622.101	42714.78
622.457	42553.43
622.812	42593.65
623.168	42784.84
623.523	42731.05
623.879	43011.95
624.234	42861.9
624.589	42915.23
624.945	43123.58
625.3	43300.3
625.655	43233.64
626.01	43144.15
626.365	43180.76
626.72	43355.22
627.075	43269.57
627.43	43351.37
627.785	43369.23
628.14	43522.67
628.495	43523.35
628.85	43369.45
629.205	43380.53
629.559	43644.7
629.914	43432.5
630.269	43595.21
630.623	43636.11
630.978	43468.89
631.332	43646.51
631.687	43777.35
632.041	43689.67
632.396	43879.04
632.75	43579.62
633.104	43760.4
633.459	43482.67
633.813	43628.66
634.167	43554.53
634.521	43614.87
634.875	43669.33
635.229	43597.92
635.583	43380.75
635.937	43643.34
636.291	43508.88
636.645	43508.43
636.999	43446.06
637.352	43584.36
637.706	43344.82
638.06	43602.22
638.413	43478.38
638.767	43343.46
639.121	43493.52
639.474	43136.01
639.828	43290.13
640.181	43235.45
640.534	43461.43
640.888	43247.65
641.241	43057.14
641.594	43191.6
641.947	43441.54
642.301	43266.63
642.654	43296.69
643.007	43182.34
643.36	43179.63
643.713	43127.43
644.066	43366.74
644.419	43089.01
644.771	42835
645.124	42552.3
645.477	42551.85
645.83	42174.23
646.182	42104.18
646.535	41915.93
646.888	42054.46
647.24	41874.58
647.593	42014.01
647.945	41868.02
648.298	41791.19
648.65	41837.74
649.002	41767.01
649.355	41829.15
649.707	41762.72
650.059	41929.72
650.411	42370.38
650.763	42421.46
651.115	42905.96
651.467	42650.6
651.819	42638.62
652.171	42669.58
652.523	42604.73
652.875	42648.57
653.227	42380.78
653.578	42603.82
653.93	42565.63
654.282	42423.94
654.633	42409.93
654.985	42459.19
655.337	42511.17
655.688	42294
656.039	42496.93
656.391	42172.65
656.742	42417.39
657.094	42517.05
657.445	42559.98
657.796	42430.27
658.147	42368.58
658.498	42300.33
658.849	42395.02
659.2	42249.93
659.551	42222.59
659.902	42417.16
660.253	42217.17
660.604	42253.55
660.955	42099.88
661.306	42440.21
661.656	42255.58
662.007	42325.19
662.358	42232.31
662.708	42193.66
663.059	42143.72
663.409	42124.97
663.76	42178.75
664.11	42049.71
664.461	42273.89
664.811	42236.15
665.161	42168.13
665.511	42024.18
665.862	42079.77
666.212	42326.09
666.562	42045.65
666.912	42096.49
667.262	42121.58
667.612	42155.47
667.962	42075.25
668.312	41944.63
668.662	42263.95
669.011	42019.21
669.361	42078.41
669.711	42024.63
670.06	42017.62
670.41	42008.13
670.76	41783.28
671.109	42075.25
671.459	42064.18
671.808	41870.28
672.157	41997.06
672.507	41694.47
672.856	41708.48
673.205	41876.84
673.554	41764.98
673.904	41914.8
674.253	41922.03
674.602	41774.01
674.951	41283.86
675.3	40989.85
675.649	41768.59
675.998	41572.21
676.346	41669.61
676.695	41972.88
677.044	41416.06
677.393	41488.15
677.741	41593.45
678.09	41629.16
678.438	41495.15
678.787	41465.1
679.135	41578.31
679.484	41177.65
679.832	41388.04
680.181	41135.39
680.529	41261.94
680.877	41228.04
681.225	41209.96
681.573	41263.52
681.922	41120.92
682.27	40965
682.618	41028.27
682.966	40795.74
683.314	41007.48
683.661	40850.65
684.009	40654.04
684.357	40647.26
684.705	40708.51
685.053	40511.9
685.4	40726.58
685.748	40426.93
686.095	40507.83
686.443	40244.56
686.79	40228.52
687.138	40327.95
687.485	40232.59
687.832	40158.24
688.18	40120.05
688.527	39884.35
688.874	39872.14
689.221	39746.72
689.568	39665.14
689.915	39617.69
690.262	39785.59
690.609	39552.38
690.956	39464.92
691.303	39360.07
691.65	39211.6
691.997	39205.04
692.344	38848.67
692.69	38739.29
693.037	38983.81
693.383	38605.28
693.73	38802.79
694.077	38571.61
694.423	38617.49
694.769	38485.97
695.116	38365.97
695.462	38137.73
695.808	38273.54
696.155	38325.29
696.501	37931.4
696.847	37903.83
697.193	37808.47
697.539	37820.22
697.885	37637.63
698.231	37610.73
698.577	37579.32
698.923	37463.39
699.269	37405.32
699.614	37139.56
699.96	37136.62
700.306	37166.68
700.651	37017.76
700.997	36912.45
701.342	36756.07
701.688	36607.14
702.033	36619.8
702.379	36547.49
702.724	36441.73
703.069	36508.39
703.415	36156.08
703.76	36263.2
704.105	36012.58
704.45	35940.04
704.795	35815.08
705.14	35662.54
705.485	35728.52
705.83	35586.38
706.175	35752.03
706.52	35528.53
706.865	35445.82
707.209	35337.12
707.554	35223.68
707.899	35347.06
708.243	35108.2
708.588	35036.11
708.932	34930.13
709.277	34963.12
709.621	34822.11
709.966	34743.01
710.31	34748.21
710.654	34369.69
710.998	34511.38
711.342	34441.33
711.687	34457.14
712.031	34379.41
712.375	34141.45
712.719	34129.7
713.063	34085.63
713.407	34101.9
713.75	33882.7
714.094	33972.86
714.438	33817.61
714.782	33756.15
715.125	33750.04
715.469	33766.32
715.812	33557.06
716.156	33512.99
716.499	33317.51
716.843	33487.23
717.186	33147.12
717.53	33371.07
717.873	33389.38
718.216	33237.29
718.559	33047.24
718.902	32896.06
719.246	32930.18
719.589	32833.68
719.932	32706.91
720.275	32742.16
720.617	32651.54
720.96	32595.27
721.303	32716.4
721.646	32685.67
721.989	32513.24
722.331	32594.14
722.674	32533.58
723.016	32475.95
723.359	32399.12
723.701	32379.69
724.044	32245.23
724.386	32069.19
724.729	32262.17
725.071	32058.34
725.413	32141.05
725.755	32031.67
726.097	31871.22
726.439	31666.48
726.782	31648.41
727.124	31803.43
727.465	31648.86
727.807	31673.49
728.149	31634.62
728.491	31604.34
728.833	31629.65
729.175	31524.57
729.516	31473.04
729.858	31356.89
730.199	31389.43
730.541	31306.72
730.882	31231.24
731.224	31378.13
731.565	31101.53
731.906	31033.51
732.248	31034.41
732.589	30977.24
732.93	30814.75
733.271	30936.33
733.612	30907.41
733.953	30924.58
734.294	30841.42
734.635	30735.66
734.976	30885.26
735.317	30599.39
735.658	30562.78
735.999	30559.62
736.339	30528.21
736.68	30571.37
737.021	30462
737.361	30397.82
737.702	30554.87
738.042	30365.5
738.383	30360.08
738.723	30262.9
739.063	30199.18
739.404	30331.83
739.744	30193.53
740.084	30011.61
740.424	30140.87
740.764	30036.47
741.104	30107.65
741.444	29903.14
741.784	29886.42
742.124	29914.89
742.464	29890.03
742.804	29773.2
743.143	29650.27
743.483	29673.32
743.823	29650.27
744.162	29555.13
744.502	29639.64
744.841	29459.08
745.181	29528.23
745.52	29422.93
745.86	29486.65
746.199	29438.07
746.538	29372.98
746.877	29428.8
747.216	29354.68
747.556	29269.48
747.895	29267.9
748.234	29128.25
748.573	29079.43
748.911	29100
749.25	29063.84
749.589	28907.23
749.928	29030.39
750.267	29104.29
750.605	28870.63
750.944	28766.67
751.283	28729.84
751.621	28841.25
751.96	28643.74
752.298	28556.28
752.636	28619.78
752.975	28477.42
753.313	28450.98
753.651	28605.32
753.989	28393.8
754.327	28373.24
754.666	28197.65
755.004	28193.81
755.342	28282.39
755.679	28196.07
756.017	28108.61
756.355	28132.11
756.693	27995.17
757.031	27935.73
757.368	27885.11
757.706	27827.49
758.044	27695.29
758.381	27628.17
758.719	27653.48
759.056	27585.01
759.394	27536.65
759.731	27318.35
760.068	27282.64
760.405	27142.99
760.743	27120.39
761.08	27239.26
761.417	27042.2
761.754	26930.11
762.091	27020.96
762.428	26849.44
762.765	26587.52
763.102	26785.71
763.438	26655.09
763.775	26483.34
764.112	26594.07
764.449	26552.49
764.785	26236.12
765.122	26230.92
765.458	25993.19
765.795	26119.06
766.131	25938.05
766.467	25908.67
766.804	25799.52
767.14	25672.07
767.476	25757.71
767.812	25646.53
768.148	25630.26
768.485	25469.81
768.821	25291.74
769.157	25288.12
769.492	25287.67
769.828	25197.05
770.164	24997.51
770.5	24990.95
770.836	24892.2
771.171	24682.26
771.507	24745.76
771.842	24552.32
772.178	24557.29
772.513	24447.24
772.849	24331.54
773.184	24226.91
773.519	24315.94
773.855	24202.5
774.19	24073.24
774.525	23997.53
774.86	23916.41
775.195	23833.02
775.53	23792.34
775.865	23623.53
776.2	23426.93
776.535	23441.39
776.87	23509.64
777.205	23163.66
777.539	23161.17
777.874	23179.02
778.209	22940.84
778.543	22965.24
778.878	22884.79
779.212	22866.49
779.547	22711.24
779.881	22672.37
780.215	22580.62
780.55	22597.57
780.884	22391.25
781.218	22400.29
781.552	22276.67
781.886	22275.54
782.22	22076
782.554	21990.81
782.888	21761.89
783.222	21774.09
783.556	21680.31
783.889	21675.33
784.223	21521.44
784.557	21422.69
784.89	21514.66
785.224	21477.37
785.557	21262.46
785.891	21215.23
786.224	21202.8
786.558	21147.89
786.891	20811.4
787.224	20789.26
787.557	20781.8
787.891	20772.31
788.224	20720.1
788.557	20639.2
788.89	20600.33
789.223	20663.16
789.556	20316.73
789.888	20387.68
790.221	20295.94
790.554	20253.68
790.887	20109.05
791.219	20077.18
791.552	20001.48
791.884	20024.53
792.217	19865.66
792.549	19815.5
792.882	19745.89
793.214	19632.45
793.546	19566.46
793.879	19515.84
794.211	19359.91
794.543	19411.21
794.875	19336.19
795.207	19335.06
795.539	19237.21
795.871	19279.01
796.203	18941.85
796.535	18975.52
796.867	18927.38
797.198	18960.38
797.53	18922.86
797.862	18797.67
798.193	18770.55
798.525	18618.92
798.856	18685.36
799.188	18419.6
799.519	18378.47
799.85	18396.32
800.182	18333.95
800.513	18381.18
800.844	18145.71
801.175	18306.16
801.506	18224.8
801.837	18135.54
802.168	18093.96
802.499	17937.35
802.83	17884.02
803.161	17967.86
803.491	17888.09
803.822	17815.77
804.153	17737.13
804.483	17622.33
804.814	17463.47
805.145	17613.75
805.475	17533.75
805.805	17321.55
806.136	17481.55
806.466	17482.45
806.796	17340.31
807.126	17194.1
807.457	17317.03
807.787	17184.83
808.117	17132.63
808.447	17045.85
808.777	17043.37
809.107	16934.67
809.436	16881.79
809.766	16924.5
810.096	16767.89
810.426	16769.47
810.755	16803.37
811.085	16739.19
811.414	16703.26
811.744	16507.33
812.073	16487.67
812.403	16535.36
812.732	16408.35
813.061	16458.52
813.39	16351.18
813.719	16280.67
814.049	16371.97
814.378	16285.87
814.707	16138.53
815.036	16162.03
815.365	16103.28
815.693	16001.13
816.022	15935.15
816.351	15922.49
816.68	15884.53
817.008	15870.97
817.337	15812.66
817.665	15709.84
817.994	15770.18
818.322	15776.73
818.651	15609.96
818.979	15550.07
819.307	15720.69
819.636	15586.91
819.964	15468.27
820.292	15505.1
820.62	15495.61
820.948	15521.82
821.276	15510.98
821.604	15437.76
821.932	15505.1
822.259	15547.13
822.587	15460.13
822.915	15332.68
823.243	15444.31
823.57	15436.18
823.898	15404.09
824.225	15301.49
824.553	15329.96
824.88	15374.48
825.207	15478.66
825.535	15482.95
825.862	15356.63
826.189	15361.6
826.516	15376.97
826.843	15414.48
827.17	15415.84
827.497	15408.15
827.824	15350.75
828.151	15354.14
828.478	15305.11
828.805	15430.3
829.131	15288.38
829.458	15341.26
829.785	15205
830.111	15268.27
830.438	15340.13
830.764	15320.92
831.09	15359.79
831.417	15168.16
831.743	15344.88
832.069	15260.14
832.395	15201.61
832.722	15231.66
833.048	15229.85
833.374	15240.93
833.7	15149.86
834.026	15226.01
834.351	15183.98
834.677	15130.2
835.003	15236.41
835.329	15219.46
835.654	15171.78
835.98	15066.02
836.306	15154.38
836.631	14997.32
836.956	15065.34
837.282	15069.86
837.607	15059.46
837.932	14932.91
838.258	14951.44
838.583	14962.74
838.908	14767.27
839.233	14788.74
839.558	14843.2
839.883	14756.65
840.208	14722.07
840.533	14740.15
840.858	14725.23
841.182	14706.03
841.507	14708.51
841.832	14598.46
842.156	14612.69
842.481	14544.22
842.805	14599.14
843.13	14594.62
843.454	14515.52
843.778	14369.09
844.103	14349.42
844.427	14334.74
844.751	14326.37
845.075	14255.19
845.399	14275.08
845.723	14105.59
846.047	14158.7
846.371	13984.01
846.695	14080.96
847.019	13939.94
847.343	13839.61
847.666	13758.93
847.99	13819.27
848.313	13734.75
848.637	13731.81
848.96	13727.97
849.284	13588.32
849.607	13519.16
849.931	13515.1
850.254	13380.18
850.577	13354.65
850.9	13311.49
851.223	13219.96
851.546	13217.48
851.869	13160.76
852.192	13160.3
852.515	13004.15
852.838	13002.57
853.161	13036.92
853.483	12912.4
853.806	12853.42
854.129	12897.03
854.451	12765.74
854.774	12750.82
855.096	12672.41
855.419	12757.83
855.741	12679.64
856.063	12592.86
856.385	12505.18
856.708	12495.01
857.03	12439.64
857.352	12423.6
857.674	12351.06
857.996	12369.36
858.318	12282.59
858.64	12236.49
858.961	12165.98
859.283	12153.1
859.605	12142.7
859.926	12116.94
860.248	12120.56
860.57	12029.26
860.891	12163.04
861.212	11993.78
861.534	12010.05
861.855	11935.25
862.176	11940.22
862.498	11986.1
862.819	11996.94
863.14	11839.43
863.461	11829.94
863.782	11765.09
864.103	11838.08
864.424	11694.13
864.745	11808.02
865.065	11658.42
865.386	11721.92
865.707	11638.99
866.027	11722.83
866.348	11587.46
866.668	11630.85
866.989	11620.01
867.309	11428.6
867.63	11532.55
867.95	11446.22
868.27	11406.23
868.59	11456.39
868.91	11468.82
869.23	11462.72
869.55	11370.75
869.87	11515.15
870.19	11385.66
870.51	11316.74
870.83	11366.23
871.15	11372.55
871.469	11273.8
871.789	11331.43
872.109	11354.25
872.428	11201.49
872.748	11228.38
873.067	11211.88
873.386	11191.54
873.706	11186.34
874.025	11136.85
874.344	11170.3
874.663	11094.82
874.982	11040.59
875.301	11075.39
875.62	11081.71
875.939	11061.6
876.258	11082.39
876.577	11002.62
876.896	10964.2
877.214	10922.17
877.533	10957.88
877.852	10934.83
878.17	10860.93
878.489	10902.51
878.807	10874.94
879.125	10870.65
879.444	10896.18
879.762	10825.22
880.08	10867.26
880.398	10763.3
880.716	10817.09
881.034	10758.33
881.352	10731.67
881.67	10722.4
881.988	10744.32
882.306	10674.72
882.624	10666.58
882.941	10516.76
883.259	10580.94
883.577	10580.26
883.894	10501.39
884.212	10520.37
884.529	10520.15
884.846	10380.04
885.164	10440.83
885.481	10422.75
885.798	10441.28
886.115	10338.68
886.432	10299.59
886.75	10308.63
887.067	10290.77
887.383	10234.05
887.7	10203.32
888.017	10241.28
888.334	10239.48
888.651	10190.44
888.967	10207.84
889.284	10074.51
889.6	10096.88
889.917	9987.51
890.233	9999.71
890.55	9997.22
890.866	10005.81
891.182	10004.45
891.498	9884.68
891.815	9911.58
892.131	9814.18
892.447	9810.79
892.763	9771.47
893.079	9753.16
893.395	9715.87
893.71	9691.02
894.026	9703.9
894.342	9641.07
894.657	9614.41
894.973	9585.26
895.289	9526.27
895.604	9588.87
895.92	9453.06
896.235	9391.14
896.55	9454.41
896.865	9457.35
897.181	9292.83
897.496	9428.42
897.811	9359.27
898.126	9317.69
898.441	9216.23
898.756	9175.78
899.071	9171.03
899.386	9160.41
899.7	9074.76
900.015	9089.22
900.33	8985.27
900.644	9037.7
900.959	9010.58
901.273	8968.78
901.588	8933.07
901.902	8895.11
902.216	8835.67
902.531	8825.95
902.845	8820.53
903.159	8763.36
903.473	8678.61
903.787	8705.73
904.101	8576.02
904.415	8654.66
904.729	8619.63
905.042	8474.55
905.356	8539.86
905.67	8460.99
905.984	8467.55
906.297	8504.61
906.611	8417.83
906.924	8478.17
907.237	8366.76
907.551	8353.88
907.864	8263.94
908.177	8279.98
908.491	8234.33
908.804	8156.14
909.117	8176.93
909.43	8110.72
909.743	8133.32
910.056	8098.06
910.368	8029.37
910.681	7955.69
910.994	8006.09
911.307	7919.09
911.619	7952.31
911.932	7884.51
912.244	7779.88
912.557	7817.85
912.869	7761.12
913.181	7771.29
913.494	7718.64
913.806	7626.89
914.118	7662.82
914.43	7616.95
914.742	7618.98
915.054	7525.88
915.366	7517.51
915.678	7476.39
915.99	7456.27
916.302	7404.07
916.613	7330.4
916.925	7346.67
917.236	7337.86
917.548	7313
917.859	7257.18
918.171	7208.6
918.482	7153.68
918.794	7129.5
919.105	7123.17
919.416	7053.8
919.727	7104.19
920.038	7053.12
920.349	7060.58
920.66	6916.63
920.971	6965.44
921.282	6941.03
921.593	6940.35
921.903	6904.87
922.214	6861.49
922.525	6811.54
922.835	6801.37
923.146	6748.04
923.456	6707.37
923.767	6669.17
924.077	6635.73
924.387	6636.63
924.697	6561.83
925.008	6551.44
925.318	6565.67
925.628	6586.92
925.938	6482.29
926.248	6458.78
926.558	6399.13
926.867	6365.68
927.177	6419.01
927.487	6307.83
927.796	6282.97
928.106	6302.63
928.416	6275.51
928.725	6292.46
929.034	6183.09
929.344	6240.49
929.653	6175.4
929.962	6182.63
930.271	6120.94
930.581	6130.88
930.89	6106.03
931.199	6062.64
931.508	6057.21
931.817	6011.57
932.125	5919.14
932.434	5936.09
932.743	5883.43
933.051	5924.79
933.36	5889.08
933.669	5862.19
933.977	5804.79
934.286	5798.92
934.594	5795.75
934.902	5777.45
935.21	5734.06
935.519	5657.9
935.827	5700.16
936.135	5632.37
936.443	5637.56
936.751	5543.1
937.059	5593.95
937.367	5511.69
937.674	5521.63
937.982	5541.75
938.29	5487.51
938.597	5490.22
938.905	5412.26
939.213	5397.12
939.52	5368.42
939.827	5365.71
940.135	5355.09
940.442	5336.1
940.749	5273.96
941.056	5266.27
941.363	5241.64
941.67	5257.23
941.977	5214.3
942.284	5172.49
942.591	5129.55
942.898	5122.32
943.205	5153.96
943.511	5108.09
943.818	5086.17
944.125	5066.51
944.431	5002.78
944.738	5016.34
945.044	4989.67
945.35	4918.71
945.657	4891.14
945.963	4917.58
946.269	4861.31
946.575	4873.29
946.881	4868.32
947.187	4847.75
947.493	4798.26
947.799	4814.76
948.105	4759.85
948.41	4705.16
948.716	4780.19
949.022	4723.69
949.327	4676.01
949.633	4659.28
949.938	4665.39
950.244	4675.1
950.549	4602.56
950.854	4607.76
951.16	4577.25
951.465	4525.5
951.77	4585.84
952.075	4497.25
952.38	4482.79
952.685	4487.54
952.99	4483.24
953.294	4414.32
953.599	4433.98
953.904	4347.2
954.209	4350.82
954.513	4359.18
954.818	4350.59
955.122	4325.96
955.426	4261.1
955.731	4264.49
956.035	4241.67
956.339	4220.88
956.643	4258.16
956.948	4223.36
957.252	4173.42
957.556	4182.01
957.86	4126.87
958.163	4128.68
958.467	4102.46
958.771	4077.83
959.075	4083.93
959.378	4032.41
959.682	4059.3
959.985	4056.36
960.289	4023.37
960.592	3980.21
960.896	3996.25
961.199	3957.38
961.502	3969.58
961.805	3957.61
962.108	3916.93
962.411	3909.47
962.714	3897.72
963.017	3831.51
963.32	3834.67
963.623	3827.22
963.926	3826.99
964.228	3806.88
964.531	3801.45
964.833	3783.15
965.136	3718.52
965.438	3709.7
965.741	3698.18
966.043	3677.84
966.345	3666.99
966.648	3697.28
966.95	3630.38
967.252	3624.96
967.554	3644.4
967.856	3626.77
968.158	3575.92
968.46	3595.81
968.761	3539.77
969.063	3555.81
969.365	3527.56
969.666	3516.94
969.968	3467
970.269	3477.62
970.571	3468.13
970.872	3474.68
971.174	3407.11
971.475	3395.81
971.776	3411.41
972.077	3341.13
972.378	3394.01
972.679	3359.21
972.98	3315.14
973.281	3341.13
973.582	3306.78
973.883	3250.28
974.183	3266.1
974.484	3250.73
974.785	3225.2
975.085	3247.8
975.386	3259.1
975.686	3194.46
975.986	3195.59
976.287	3150.62
976.587	3186.33
976.887	3148.82
977.187	3132.77
977.487	3112.43
977.787	3133.22
978.087	3057.74
978.387	3113.34
978.687	3042.83
978.987	3040.57
979.286	3032.66
979.586	3025.43
979.885	2996.28
980.185	2981.81
980.484	2978.42
980.784	2976.39
981.083	2965.09
981.382	2928.71
981.682	2944.98
981.981	2888.94
982.28	2930.74
982.579	2872.21
982.878	2897.75
983.177	2822.72
983.475	2840.58
983.774	2843.29
984.073	2831.08
984.372	2808.03
984.67	2789.28
984.969	2793.8
985.267	2764.87
985.566	2773.46
985.864	2766.9
986.162	2756.06
986.461	2705.66
986.759	2712.67
987.057	2670.41
987.355	2694.82
987.653	2664.99
987.951	2648.26
988.249	2645.78
988.547	2638.09
988.844	2622.73
989.142	2643.29
989.44	2618.21
989.737	2608.04
990.035	2587.7
990.332	2585.67
990.63	2546.35
990.927	2529.4
991.224	2539.11
991.521	2526.46
991.819	2536.4
992.116	2505.89
992.413	2527.36
992.71	2481.71
993.006	2464.77
993.303	2451.21
993.6	2432
993.897	2441.72
994.193	2436.52
994.49	2413.24
994.787	2412.11
995.083	2394.03
995.379	2376.86
995.676	2364.2
995.972	2355.39
996.268	2356.07
996.565	2349.06
996.861	2320.59
997.157	2309.97
997.453	2314.26
997.749	2303.41
998.044	2276.3
998.34	2273.81
998.636	2236.3
998.932	2260.48
999.227	2231.1
999.523	2230.65
999.818	2212.34
1000.114	2196.3
1000.409	2169.18
1000.704	2157.66
1001	2159.01
1001.295	2151.78
1001.59	2160.59
1001.885	2121.95
1002.18	2084.21
1002.475	2076.75
1002.77	2083.76
1003.065	2080.82
1003.359	2052.12
1003.654	2050.77
1003.949	2063.87
1004.243	2027.72
1004.538	2016.64
1004.832	2011.22
1005.127	1999.47
1005.421	1974.38
1005.715	1986.81
1006.009	1952.46
1006.304	1965.12
1006.598	1952.24
1006.892	1945.91
1007.186	1938.68
1007.48	1917.66
1007.773	1912.24
1008.067	1891
1008.361	1890.32
1008.655	1872.01
1008.948	1877.44
1009.242	1882.41
1009.535	1834.05
1009.829	1832.24
1010.122	1828.85
1010.415	1809.64
1010.708	1800.83
1011.001	1775.29
1011.295	1774.84
1011.588	1773.03
1011.881	1744.11
1012.173	1708.63
1012.466	1716.76
1012.759	1718.34
1013.052	1719.25
1013.344	1715.18
1013.637	1698.46
1013.93	1715.63
1014.222	1672.7
1014.514	1653.26
1014.807	1661.85
1015.099	1634.05
1015.391	1629.99
1015.683	1631.57
1015.976	1633.15
1016.268	1639.48
1016.56	1585.92
1016.851	1571.23
1017.143	1575.98
1017.435	1591.34
1017.727	1558.12
1018.018	1538.91
1018.31	1552.7
1018.602	1550.67
1018.893	1533.49
1019.185	1509.31
1019.476	1505.92
1019.767	1467.96
1020.058	1501.18
1020.35	1471.35
1020.641	1471.35
1020.932	1457.33
1021.223	1442.87
1021.514	1440.84
1021.804	1429.54
1022.095	1408.97
1022.386	1397.22
1022.677	1380.05
1022.967	1391.35
1023.258	1408.97
1023.548	1356.77
1023.839	1354.74
1024.129	1354.29
1024.419	1336.66
1024.709	1372.14
1025	1338.24
1025.29	1323.1
1025.58	1323.1
1025.87	1301.86
1026.16	1300.5
1026.449	1286.49
1026.739	1273.16
1027.029	1268.19
1027.319	1257.57
1027.608	1274.29
1027.898	1232.93
1028.187	1238.81
1028.477	1240.84
1028.766	1206.27
1029.055	1215.76
1029.344	1194.29
1029.634	1205.59
1029.923	1190.45
1030.212	1173.05
1030.501	1187.51
1030.79	1153.39
1031.078	1147.51
1031.367	1124.46
1031.656	1144.57
1031.945	1134.86
1032.233	1130.34
1032.522	1140.51
1032.81	1150
1033.099	1099.6
1033.387	1113.61
1033.675	1100.28
1033.963	1053.5
1034.251	1080.85
1034.54	1056.67
1034.828	1059.15
1035.116	1067.74
1035.403	1056.44
1035.691	1036.1
1035.979	1020.96
1036.267	1041.53
1036.554	1025.71
1036.842	992.71
1037.129	1012.15
1037.417	1006.05
1037.704	976.67
1037.992	1005.14
1038.279	977.8
1038.566	980.06
1038.853	980.06
1039.14	980.06
