Data from hue_80_FLMS001491_66.txt Node
Date: Mon Feb 06 15:23:23 GMT 2017
User: dcchb
Spectrometer: FLMS00149
Trigger mode: 0
Integration Time (sec): 2.000000E-2
Scans to average: 10
Electric dark correction enabled: true
Nonlinearity correction enabled: false
Boxcar width: 0
XAxis mode: Wavelengths
Number of Pixels in Spectrum: 2048
>>>>>Begin Spectral Data<<<<<
341.393	-15.07
341.776	-15.07
342.16	-15.07
342.543	-50.32
342.927	-61.17
343.31	-54.39
343.693	-79.25
344.077	-50.1
344.46	-64.11
344.843	-50.78
345.226	-51.45
345.61	-35.86
345.993	-14.84
346.376	-19.59
346.759	8.21
347.142	33.29
347.525	44.36
347.908	32.39
348.291	74.42
348.674	103.57
349.057	124.14
349.44	120.75
349.823	148.54
350.206	131.59
350.588	196
350.971	207.3
351.354	190.8
351.737	248.65
352.119	225.83
352.502	273.96
352.884	255.43
353.267	297.24
353.65	268.31
354.032	267.63
354.414	301.53
354.797	316.45
355.179	337.24
355.562	314.64
355.944	339.95
356.326	333.62
356.709	334.75
357.091	316.67
357.473	312.15
357.855	331.81
358.238	342.66
358.62	333.17
359.002	320.97
359.384	325.71
359.766	314.86
360.148	316.45
360.53	323.9
360.912	340.17
361.294	345.15
361.676	333.85
362.057	326.39
362.439	317.12
362.821	327.75
363.203	325.49
363.584	320.74
363.966	332.49
364.348	309.89
364.729	315.32
365.111	309.67
365.493	318.71
365.874	303.34
366.256	310.57
366.637	308.76
367.019	321.87
367.4	309.89
367.781	320.51
368.163	311.47
368.544	300.4
368.925	310.8
369.306	304.47
369.688	307.86
370.069	318.48
370.45	329.1
370.831	302.66
371.212	330.01
371.593	321.19
371.974	294.53
372.355	308.31
372.736	337.24
373.117	295.43
373.498	296.56
373.879	306.05
374.26	300.63
374.641	303.57
375.021	313.51
375.402	311.7
375.783	310.57
376.163	291.36
376.544	311.25
376.925	327.07
377.305	319.61
377.686	326.84
378.066	303.79
378.447	338.37
378.827	315.09
379.208	330.01
379.588	330.46
379.968	322.77
380.349	338.37
380.729	310.8
381.109	330.46
381.489	292.72
381.87	344.69
382.25	324.81
382.63	332.72
383.01	313.28
383.39	333.62
383.77	319.61
384.15	329.55
384.53	359.61
384.91	336.56
385.29	338.59
385.67	357.12
386.049	366.61
386.429	335.88
386.809	351.7
387.189	344.24
387.568	330.23
387.948	344.92
388.328	351.02
388.707	334.98
389.087	373.39
389.466	357.35
389.846	346.05
390.225	345.6
390.605	356.22
390.984	342.66
391.363	330.91
391.743	335.88
392.122	364.13
392.501	361.42
392.881	383.34
393.26	363.9
393.639	370
394.018	368.87
394.397	354.41
394.776	368.2
395.155	350.57
395.534	344.92
395.913	375.2
396.292	380.4
396.671	360.97
397.05	376.11
397.429	377.24
397.808	382.66
398.186	361.64
398.565	361.19
398.944	367.52
399.323	380.17
399.701	365.26
400.08	384.02
400.458	398.25
400.837	396.44
401.215	392.15
401.594	388.76
401.972	380.4
402.351	383.56
402.729	390.79
403.107	381.76
403.486	400.51
403.864	364.58
404.242	386.5
404.62	382.66
404.999	413.62
405.377	393.96
405.755	398.93
406.133	416.56
406.511	419.27
406.889	416.33
407.267	395.99
407.645	400.74
408.023	408.87
408.401	411.81
408.779	434.18
409.156	417.46
409.534	425.6
409.912	437.8
410.29	427.18
410.667	428.31
411.045	434.41
411.422	430.12
411.8	454.3
412.178	441.87
412.555	454.75
412.933	445.26
413.31	447.06
413.687	446.16
414.065	446.39
414.442	464.24
414.819	459.04
415.197	458.36
415.574	466.95
415.951	451.36
416.328	476.44
416.705	467.63
417.082	445.48
417.46	444.58
417.837	468.76
418.214	470.79
418.591	501.75
418.967	456.33
419.344	486.39
419.721	471.47
420.098	490.91
420.475	501.3
420.852	503.11
421.228	497.91
421.605	515.76
421.982	514.63
422.358	504.46
422.735	502.88
423.111	517.57
423.488	520.28
423.864	542.2
424.241	538.14
424.617	525.48
424.994	546.95
425.37	551.69
425.746	527.51
426.123	528.87
426.499	547.17
426.875	543.79
427.251	567.29
427.627	572.71
428.003	550.34
428.379	558.7
428.756	567.97
429.132	595.54
429.507	560.51
429.883	576.55
430.259	578.59
430.635	593.95
431.011	584.01
431.387	598.02
431.763	591.92
432.138	600.96
432.514	589.43
432.89	612.48
433.265	609.77
433.641	620.39
434.016	629.66
434.392	628.08
434.767	650.22
435.143	642.99
435.518	644.8
435.894	658.58
436.269	670.79
436.644	691.8
437.02	656.32
437.395	660.17
437.77	670.11
438.145	664.69
438.52	689.77
438.895	685.02
439.271	702.43
439.646	713.5
440.021	724.57
440.395	698.81
440.77	706.27
441.145	746.72
441.52	725.48
441.895	738.13
442.27	726.61
442.645	707.85
443.019	743.78
443.394	731.8
443.769	721.63
444.143	712.82
444.518	750.79
444.892	725.7
445.267	761.86
445.641	761.63
446.016	766.38
446.39	755.76
446.764	758.92
447.139	766.38
447.513	775.19
447.887	793.27
448.262	822.2
448.636	809.31
449.01	793.95
449.384	804.8
449.758	837.34
450.132	799.15
450.506	816.77
450.88	812.48
451.254	830.78
451.628	868.75
452.002	830.33
452.376	855.64
452.75	862.19
453.123	872.14
453.497	877.34
453.871	877.56
454.244	897
454.618	904.91
454.992	905.13
455.365	904.23
455.739	932.25
456.112	930.44
456.486	909.88
456.859	959.59
457.232	975.86
457.606	975.41
457.979	971.12
458.352	985.36
458.725	1001.17
459.099	995.07
459.472	1040.72
459.845	1031.68
460.218	1058.57
460.591	1059.7
460.964	1071.23
461.337	1092.92
461.71	1117.1
462.083	1113.94
462.456	1122.98
462.829	1125.24
463.201	1124.79
463.574	1145.58
463.947	1179.25
464.32	1198.91
464.692	1209.98
465.065	1210.89
465.438	1228.96
465.81	1260.83
466.183	1266.48
466.555	1302.86
466.928	1285.23
467.3	1326.82
467.672	1339.24
468.045	1347.83
468.417	1347.38
468.789	1406.36
469.161	1425.57
469.534	1432.12
469.906	1456.53
470.278	1510.09
470.65	1505.57
471.022	1541.05
471.394	1548.28
471.766	1601.16
472.138	1605.9
472.51	1684.77
472.882	1703.98
473.253	1762.06
473.625	1793.92
473.997	1819.23
474.369	1833.02
474.74	1870.3
475.112	1910.75
475.484	1983.3
475.855	2018.55
476.227	2058.77
476.598	2095.38
476.97	2182.16
477.341	2228.49
477.713	2271.65
478.084	2313.46
478.455	2416.05
478.827	2478.2
479.198	2526.33
479.569	2588.48
479.94	2641.36
480.311	2756.16
480.682	2823.73
481.053	2863.72
481.424	2978.52
481.795	3060.33
482.166	3174
482.537	3215.58
482.908	3321.79
483.279	3388.91
483.65	3521.79
484.021	3620.99
484.391	3741.89
484.762	3837.94
485.133	3900.31
485.503	3989.57
485.874	4176.46
486.244	4212.39
486.615	4392.5
486.985	4489.22
487.356	4583.23
487.726	4691.92
488.097	4870.68
488.467	4927.4
488.837	5137.11
489.207	5275.19
489.578	5361.96
489.948	5454.84
490.318	5633.37
490.688	5715.63
491.058	5887.83
491.428	6010.76
491.798	6130.53
492.168	6326.46
492.538	6446.68
492.908	6592.44
493.278	6755.37
493.648	6811.87
494.017	6983.62
494.387	7120.79
494.757	7283.95
495.126	7431.51
495.496	7546.99
495.866	7632.86
496.235	7812.07
496.605	7925.74
496.974	8060.2
497.344	8179.52
497.713	8314.43
498.082	8492.73
498.452	8574.31
498.821	8714.87
499.19	8793.74
499.559	8994.41
499.928	9113.73
500.298	9170
500.667	9370.22
501.036	9406.15
501.405	9571.57
501.774	9651.57
502.143	9791.45
502.512	9868.29
502.88	10049.52
503.249	10089.52
503.618	10239.58
503.987	10341.27
504.356	10370.65
504.724	10528.38
505.093	10576.52
505.462	10726.79
505.83	10862.84
506.199	10932.89
506.567	11071.42
506.936	11137.18
507.304	11291.3
507.672	11386.44
508.041	11421.69
508.409	11512.08
508.777	11619.65
509.145	11758.18
509.514	11794.11
509.882	12013.77
510.25	11954.56
510.618	12141.22
510.986	12113.2
511.354	12293.98
511.722	12354.1
512.09	12441.33
512.458	12434.77
512.826	12639.06
513.193	12660.08
513.561	12722.67
513.929	12910.24
514.297	12943.46
514.664	13010.8
515.032	13156.11
515.4	13252.38
515.767	13222.55
516.135	13352.49
516.502	13295.54
516.869	13523.56
517.237	13570.34
517.604	13535.76
517.972	13712.03
518.339	13758.35
518.706	13653.72
519.073	13795.19
519.44	13860.27
519.808	14008.97
520.175	14063.66
520.542	14137.1
520.909	14249.64
521.276	14247.15
521.643	14394.49
522.009	14405.79
522.376	14410.31
522.743	14618.44
523.11	14724.43
523.477	14751.77
523.843	14746.8
524.21	14989.96
524.577	15035.16
524.943	15053.46
525.31	15125.32
525.676	15139.56
526.043	15256.39
526.409	15337.29
526.776	15393.79
527.142	15351.76
527.508	15417.07
527.874	15616.61
528.241	15695.7
528.607	15655.7
528.973	15717.62
529.339	15706.55
529.705	15789.94
530.071	15897.51
530.437	15876.94
530.803	15976.6
531.169	15965.07
531.535	15931.86
531.901	15928.47
532.267	15986.99
532.632	16050.95
532.998	16057.95
533.364	16187.22
533.73	16181.11
534.095	16264.73
534.461	16211.4
534.826	16298.4
535.192	16299.98
535.557	16317.38
535.923	16310.38
536.288	16322.58
536.653	16362.35
537.019	16250.49
537.384	16306.31
537.749	16408.45
538.114	16440.09
538.479	16411.62
538.845	16438.73
539.21	16313.77
539.575	16442.12
539.94	16413.2
540.305	16424.95
540.67	16402.8
541.034	16386.98
541.399	16432.86
541.764	16417.49
542.129	16395.57
542.494	16407.77
542.858	16293.88
543.223	16296.82
543.587	16459.3
543.952	16419.53
544.316	16389.92
544.681	16226.08
545.045	16432.18
545.41	16320.77
545.774	16342.92
546.138	16401
546.503	16335.23
546.867	16364.16
547.231	16368.45
547.595	16349.02
547.959	16358.51
548.324	16428.79
548.688	16464.04
549.052	16385.4
549.416	16444.84
549.779	16335.01
550.143	16263.37
550.507	16415.91
550.871	16302.92
551.235	16290.26
551.599	16377.27
551.962	16330.71
552.326	16304.5
552.689	16375.46
553.053	16365.06
553.417	16406.19
553.78	16391.96
554.143	16370.04
554.507	16352.86
554.87	16314.9
555.234	16537.26
555.597	16450.71
555.96	16444.84
556.323	16452.52
556.686	16329.13
557.05	16477.83
557.413	16379.75
557.776	16521.22
558.139	16525.51
558.502	16509.69
558.865	16523.25
559.228	16623.81
559.59	16626.98
559.953	16559.18
560.316	16647.32
560.679	16648.45
561.041	16747.43
561.404	16746.07
561.767	16910.36
562.129	16796.24
562.492	16906.97
562.854	16842.11
563.217	16842.34
563.579	16844.83
563.941	16913.98
564.304	16858.38
564.666	17067.87
565.028	16967.99
565.39	17098.15
565.753	17105.38
566.115	17189.22
566.477	17096.12
566.839	17163.91
567.201	17184.25
567.563	17215.89
567.925	17246.17
568.287	17239.17
568.648	17283.23
569.01	17349.67
569.372	17476.67
569.734	17360.52
570.095	17434.41
570.457	17525.26
570.819	17409.56
571.18	17537.01
571.542	17617.23
571.903	17681.64
572.265	17608.2
572.626	17556.22
572.987	17676.44
573.349	17653.84
573.71	17752.6
574.071	17754.63
574.432	17845.03
574.794	17893.84
575.155	17816.78
575.516	17814.52
575.877	17940.16
576.238	17892.93
576.599	17959.6
576.96	17886.83
577.32	17981.52
577.681	17895.42
578.042	17949.88
578.403	18046.15
578.763	18036.21
579.124	17946.94
579.485	18106.71
579.845	18072.14
580.206	17999.15
580.566	18064.91
580.927	18030.33
581.287	18123.66
581.648	17955.76
582.008	18098.8
582.368	18033.27
582.728	18128.41
583.089	17999.6
583.449	18050.22
583.809	17993.27
584.169	18090.44
584.529	18001.63
584.889	18197.78
585.249	18079.37
585.609	17938.36
585.969	18090.44
586.329	17949.66
586.688	18034.85
587.048	17955.76
587.408	17933.84
587.768	17933.16
588.127	18020.39
588.487	17902.88
588.846	18003.21
589.206	17915.08
589.565	17905.14
589.925	18047.05
590.284	17933.84
590.643	17916.21
591.003	18006.38
591.362	18056.54
591.721	17960.95
592.08	17974.97
592.44	18069.65
592.799	18047.51
593.158	17948.07
593.517	17961.41
593.876	17990.11
594.235	17968.19
594.593	17948.53
594.952	17976.77
595.311	17870.56
595.67	17947.4
596.029	17976.32
596.387	17950.33
596.746	17937
597.104	17874.18
597.463	17859.71
597.822	17956.89
598.18	17895.19
598.538	17866.72
598.897	17942.88
599.255	17822.88
599.613	18094.28
599.972	17991.46
600.33	17998.02
600.688	17831.01
601.046	17908.75
601.404	18080.5
601.762	18007.05
602.12	18081.4
602.478	18062.42
602.836	18052.93
603.194	17930.67
603.552	18000.05
603.91	17968.19
604.268	18044.79
604.625	17892.26
604.983	18028.75
605.341	18041.18
605.698	18033.72
606.056	17998.69
606.413	18089.09
606.771	18053.61
607.128	18169.31
607.485	18053.38
607.843	18015.42
608.2	18139.25
608.557	18171.34
608.914	18068.07
609.272	18188.07
609.629	18234.17
609.986	18215.41
610.343	18224.9
610.7	18218.35
611.057	18331.79
611.414	18209.99
611.771	18260.83
612.127	18301.51
612.484	18351.23
612.841	18356.42
613.198	18351.9
613.554	18346.48
613.911	18338.12
614.267	18476.19
614.624	18297.22
614.98	18462.41
615.337	18460.83
615.693	18517.1
616.05	18412.69
616.406	18554.39
616.762	18500.83
617.118	18539.47
617.475	18522.75
617.831	18547.15
618.187	18580.37
618.543	18615.85
618.899	18637.32
619.255	18730.65
619.611	18585.12
619.967	18689.97
620.323	18728.62
620.678	18651.33
621.034	18645.91
621.39	18592.12
621.746	18629.64
622.101	18847.71
622.457	18672.35
622.812	18793.93
623.168	18774.49
623.523	18775.17
623.879	18741.05
624.234	18665.12
624.589	18793.02
624.945	18737.21
625.3	18771.78
625.655	18785.11
626.01	18867.82
626.365	18826.47
626.72	18814.49
627.075	18747.15
627.43	18784.44
627.785	18737.21
628.14	18772.46
628.495	18728.62
628.85	18746.7
629.205	18709.41
629.559	18732.91
629.914	18685.68
630.269	18599.81
630.623	18695.62
630.978	18569.3
631.332	18776.07
631.687	18772.68
632.041	18632.12
632.396	18672.57
632.75	18574.5
633.104	18582.41
633.459	18415.41
633.813	18507.83
634.167	18511
634.521	18454.05
634.875	18494.27
635.229	18442.75
635.583	18386.71
635.937	18416.08
636.291	18331.79
636.645	18311.68
636.999	18334.96
637.352	18432.58
637.706	18231.23
638.06	18376.08
638.413	18324.56
638.767	18209.31
639.121	18313.04
639.474	18266.71
639.828	18261.06
640.181	18192.81
640.534	18219.7
640.888	18200.95
641.241	18068.97
641.594	18151.91
641.947	18201.85
642.301	18173.15
642.654	18094.28
643.007	18164.34
643.36	18118.24
643.713	18131.8
644.066	18160.5
644.419	17985.36
644.771	17857.23
645.124	17796.89
645.477	17578.59
645.83	17574.07
646.182	17604.81
646.535	17392.61
646.888	17534.52
647.24	17356.22
647.593	17490.23
647.945	17518.48
648.298	17487.29
648.65	17413.17
649.002	17275.32
649.355	17401.87
649.707	17360.74
650.059	17512.83
650.411	17738.36
650.763	17624.24
651.115	17949.88
651.467	17829.43
651.819	17787.17
652.171	17899.49
652.523	17778.13
652.875	17807.96
653.227	17737.23
653.578	17780.39
653.93	17784.69
654.282	17812.94
654.633	17727.06
654.985	17740.85
655.337	17824.01
655.688	17740.17
656.039	17856.1
656.391	17646.16
656.742	17681.64
657.094	17868.3
657.445	17880.96
657.796	17769.09
658.147	17787.17
658.498	17787.85
658.849	17853.39
659.2	17818.36
659.551	17742.88
659.902	17814.74
660.253	17830.11
660.604	17759.38
660.955	17783.33
661.306	17883.67
661.656	17694.52
662.007	17807.06
662.358	17814.52
662.708	17872.82
663.059	17916.89
663.409	17748.98
663.76	17906.27
664.11	17672.83
664.461	17840.05
664.811	17806.38
665.161	17856.32
665.511	17741.53
665.862	17853.16
666.212	17911.69
666.562	17949.43
666.912	17753.05
667.262	17784.46
667.612	17760.96
667.962	17824.46
668.312	17747.85
668.662	17828.3
669.011	17817.46
669.361	17817.91
669.711	17812.48
670.06	17833.5
670.41	17825.59
670.76	17734.07
671.109	17726.84
671.459	17806.83
671.808	17688.42
672.157	17868.53
672.507	17684.35
672.856	17662.66
673.205	17800.51
673.554	17754.63
673.904	17676.89
674.253	17796.44
674.602	17743.78
674.951	17509.67
675.3	17441.65
675.649	17713.73
675.998	17616.1
676.346	17613.84
676.695	17699.94
677.044	17530.23
677.393	17549.67
677.741	17546.28
678.09	17539.72
678.438	17493.85
678.787	17561.42
679.135	17531.36
679.484	17327.75
679.832	17420.18
680.181	17395.55
680.529	17372.5
680.877	17315.32
681.225	17211.82
681.573	17387.18
681.922	17207.08
682.27	17090.92
682.618	17179.05
682.966	17222.44
683.314	17235.32
683.661	17135.44
684.009	17044.37
684.357	17017.02
684.705	16973.86
685.053	16940.42
685.4	16985.16
685.748	16816.13
686.095	16891.38
686.443	16804.15
686.79	16770.25
687.138	16839.85
687.485	16757.6
687.832	16729.57
688.18	16736.13
688.527	16545.4
688.874	16623.81
689.221	16608
689.568	16500.88
689.915	16428.11
690.262	16451.16
690.609	16352.41
690.956	16306.53
691.303	16307.44
691.65	16158.52
691.997	16220.89
692.344	16124.39
692.69	16008.01
693.037	16129.36
693.383	15933.89
693.73	16034
694.077	15942.7
694.423	15845.08
694.769	15763.5
695.116	15748.58
695.462	15629.26
695.808	15646.66
696.155	15633.11
696.501	15592.2
696.847	15462.71
697.193	15354.24
697.539	15453.45
697.885	15307.01
698.231	15246.68
698.577	15295.26
698.923	15260.46
699.269	15166.9
699.614	15051.88
699.96	15005.1
700.306	15051.65
700.651	14989.96
700.997	14850.75
701.342	14892.33
701.688	14825.22
702.033	14697.09
702.379	14619.35
702.724	14547.03
703.069	14614.38
703.415	14439.46
703.76	14498.67
704.105	14458.22
704.45	14463.65
704.795	14370.54
705.14	14269.3
705.485	14316.53
705.83	14242.63
706.175	14252.13
706.52	14209.19
706.865	14160.15
707.209	14078.8
707.554	14026.59
707.899	14014.84
708.243	14006.26
708.588	13940.5
708.932	13742.99
709.277	13851.91
709.621	13880.16
709.966	13738.24
710.31	13864.11
710.654	13605.36
710.998	13679.94
711.342	13646.94
711.687	13539.15
712.031	13526.49
712.375	13521.52
712.719	13481.98
713.063	13490.34
713.407	13424.12
713.75	13494.18
714.094	13394.52
714.438	13382.77
714.782	13368.76
715.125	13310.68
715.469	13242.66
715.812	13216.45
716.156	13132.38
716.499	13146.84
716.843	13251.7
717.186	13044.25
717.53	13129.67
717.873	13105.49
718.216	13100.52
718.559	13127.18
718.902	13027.52
719.246	13042.89
719.589	13054.19
719.932	12955.66
720.275	12992.27
720.617	12965.83
720.96	12886.51
721.303	12962.67
721.646	12886.74
721.989	12888.77
722.331	12833.18
722.674	12778.49
723.016	12748.89
723.359	12748.89
723.701	12790.69
724.044	12709.57
724.386	12693.3
724.729	12780.07
725.071	12682
725.413	12702.11
725.755	12691.26
726.097	12681.32
726.439	12589.57
726.782	12601.32
727.124	12643.35
727.465	12674.31
727.807	12562.23
728.149	12503.7
728.491	12585.28
728.833	12562.45
729.175	12541.44
729.516	12512.96
729.858	12555.22
730.199	12566.52
730.541	12571.49
730.882	12617.59
731.224	12554.99
731.565	12506.18
731.906	12506.63
732.248	12526.75
732.589	12479.52
732.93	12451.27
733.271	12406.07
733.612	12497.82
733.953	12461.44
734.294	12449.69
734.635	12392.29
734.976	12459.86
735.317	12432.74
735.658	12455.56
735.999	12447.88
736.339	12417.37
736.68	12511.83
737.021	12481.78
737.361	12362.46
737.702	12483.81
738.042	12452.17
738.383	12483.13
738.723	12536.24
739.063	12364.04
739.404	12502.34
739.744	12466.64
740.084	12466.86
740.424	12508.67
740.764	12415.79
741.104	12559.29
741.444	12538.5
741.784	12467.54
742.124	12506.86
742.464	12563.81
742.804	12536.24
743.143	12568.55
743.483	12559.74
743.823	12554.54
744.162	12549.35
744.502	12587.99
744.841	12660.98
745.181	12736.23
745.52	12718.83
745.86	12732.62
746.199	12699.62
746.538	12787.31
746.877	12868.88
747.216	12868.66
747.556	12914.99
747.895	12982.55
748.234	13029.78
748.573	13013.51
748.911	13033.17
749.25	13137.35
749.589	13079.73
749.928	13224.81
750.267	13311.59
750.605	13309.55
750.944	13417.8
751.283	13468.64
751.621	13574.4
751.96	13641.29
752.298	13703.21
752.636	13794.06
752.975	13787.28
753.313	13913.83
753.651	14131.45
753.989	14112.69
754.327	14158.34
754.666	14202.41
755.004	14395.62
755.342	14590.42
755.679	14714.26
756.017	14749.74
756.355	14879.91
756.693	14899.34
757.031	15072.22
757.368	15180.01
757.706	15236.28
758.044	15415.26
758.381	15448.03
758.719	15554.01
759.056	15789.26
759.394	15761.01
759.731	15854.79
760.068	15906.77
760.405	16043.26
760.743	16124.62
761.08	16362.13
761.417	16346.99
761.754	16411.62
762.091	16546.75
762.428	16613.19
762.765	16667.43
763.102	16832.17
763.438	16900.87
763.775	16880.53
764.112	16999.4
764.449	17123.24
764.785	17352.16
765.122	17289.11
765.458	17299.28
765.795	17483.68
766.131	17602.55
766.467	17658.82
766.804	17591.47
767.14	17682.32
767.476	17797.34
767.812	17852.71
768.148	17913.5
768.485	17857.23
768.821	17964.57
769.157	18078.92
769.492	18053.38
769.828	18128.63
770.164	18081.18
770.5	18055.19
770.836	18207.5
771.171	18184.45
771.507	18241.62
771.842	18091.57
772.178	18289.31
772.513	18348.29
772.849	18301.96
773.184	18341.51
773.519	18325.92
773.855	18303.77
774.19	18283.88
774.525	18278.91
774.86	18338.12
775.195	18308.97
775.53	18242.75
775.865	18250.89
776.2	18162.3
776.535	18226.71
776.87	18244.79
777.205	18155.3
777.539	18082.98
777.874	18246.6
778.209	18108.07
778.543	18097.22
778.878	18029.43
779.212	18015.42
779.547	17944.23
779.881	18045.47
780.215	18001.41
780.55	18146.49
780.884	17931.8
781.218	17941.97
781.552	18030.78
781.886	17855.19
782.22	17854.74
782.554	17863.1
782.888	17725.48
783.222	17576.33
783.556	17656.56
783.889	17625.82
784.223	17477.58
784.557	17618.59
784.89	17469.67
785.224	17418.14
785.557	17293.63
785.891	17276.45
786.224	17320.75
786.558	17396
786.891	17183.35
787.224	17119.17
787.557	17029.91
787.891	17105.16
788.224	17200.97
788.557	17158.04
788.89	17017.7
789.223	16972.28
789.556	16807.54
789.888	16929.12
790.221	16838.27
790.554	16658.39
790.887	16776.8
791.219	16678.5
791.552	16687.09
791.884	16586.53
792.217	16570.93
792.549	16540.65
792.882	16274.22
793.214	16286.65
793.546	16315.12
793.879	16297.5
794.211	16114.22
794.543	16267.44
794.875	16243.03
795.207	16247.55
795.539	16108.8
795.871	16062.93
796.203	16005.53
796.535	15991.74
796.867	15890.27
797.198	15885.98
797.53	15954
797.862	15755.36
798.193	15775.25
798.525	15703.16
798.856	15673.33
799.188	15581.81
799.519	15546.55
799.85	15523.96
800.182	15441.7
800.513	15458.42
800.844	15341.81
801.175	15358.76
801.506	15339.33
801.837	15277.86
802.168	15276.96
802.499	15183.63
802.83	15111.31
803.161	15094.81
803.491	15053.69
803.822	15054.36
804.153	14969.85
804.483	14878.78
804.814	14807.36
805.145	14974.59
805.475	14809.85
805.805	14745.22
806.136	14757.65
806.466	14755.16
806.796	14680.36
807.126	14525.79
807.457	14543.19
807.787	14571.21
808.117	14541.84
808.447	14443.08
808.777	14498.22
809.107	14394.27
809.436	14431.56
809.766	14346.36
810.096	14220.26
810.426	14247.61
810.755	14244.67
811.085	14277.44
811.414	14148.4
811.744	14122.86
812.073	14138.46
812.403	14093.71
812.732	13945.01
813.061	14005.13
813.39	13878.35
813.719	13873.38
814.049	13973.04
814.378	13860.27
814.707	13819.14
815.036	13851.01
815.365	13789.09
815.693	13689.65
816.022	13644.46
816.351	13666.15
816.68	13559.49
817.008	13571.92
817.337	13462.54
817.665	13497.79
817.994	13442.66
818.322	13506.16
818.651	13395.42
818.979	13275.65
819.307	13331.25
819.636	13353.62
819.964	13205.6
820.292	13339.61
820.62	13314.07
820.948	13139.16
821.276	13279.5
821.604	13202.66
821.932	13258.71
822.259	13221.19
822.587	13213.28
822.915	13252.15
823.243	13255.09
823.57	13224.36
823.898	13170.57
824.225	13154.98
824.553	13178.48
824.88	13182.55
825.207	13158.82
825.535	13103.45
825.862	13145.49
826.189	13163.11
826.516	13248.31
826.843	13172.61
827.17	13228.88
827.497	13274.3
827.824	13248.99
828.151	13255.54
828.478	13193.17
828.805	13234.98
829.131	13231.36
829.458	13150.23
829.785	13087.18
830.111	13166.73
830.438	13223.9
830.764	13190.23
831.09	13234.98
831.417	13092.61
831.743	13178.03
832.069	13168.54
832.395	13103
832.722	13211.7
833.048	13092.83
833.374	13116.11
833.7	12989.56
834.026	13120.4
834.351	13184.36
834.677	13105.71
835.003	13092.83
835.329	13114.98
835.654	13093.06
835.98	12955.89
836.306	13023.46
836.631	12909.79
836.956	12980.29
837.282	12907.53
837.607	12931.93
837.932	12885.83
838.258	12901.65
838.583	12821.88
838.908	12791.37
839.233	12877.7
839.558	12822.11
839.883	12692.62
840.208	12664.6
840.533	12743.46
840.858	12599.06
841.182	12697.36
841.507	12635.44
841.832	12554.54
842.156	12633.18
842.481	12529.46
842.805	12538.27
843.13	12586.18
843.454	12468.44
843.778	12408.78
844.103	12464.6
844.427	12439.52
844.751	12380.99
845.075	12355.23
845.399	12313.19
845.723	12294.44
846.047	12257.6
846.371	12145.51
846.695	12212.18
847.019	12063.93
847.343	12050.38
847.666	11958.4
847.99	11967.89
848.313	11888.57
848.637	11806.09
848.96	11822.13
849.284	11797.05
849.607	11632.76
849.931	11662.36
850.254	11582.82
850.577	11466.21
850.9	11480.45
851.223	11444.97
851.546	11377.17
851.869	11369.72
852.192	11331.52
852.515	11235.03
852.838	11215.59
853.161	11193.67
853.483	11128.14
853.806	11088.37
854.129	11058.76
854.451	10971.99
854.774	10973.79
855.096	11001.82
855.419	10913.46
855.741	10861.93
856.063	10895.15
856.385	10793.46
856.708	10820.13
857.03	10738.77
857.352	10812.22
857.674	10675.5
857.996	10667.81
858.318	10711.88
858.64	10658.55
858.961	10596.18
859.283	10545.56
859.605	10533.58
859.926	10487.25
860.248	10505.78
860.57	10465.78
860.891	10474.37
861.212	10410.64
861.534	10350.98
861.855	10362.28
862.176	10387.37
862.498	10297.65
862.819	10291.78
863.14	10244.55
863.461	10233.02
863.782	10223.98
864.103	10259.46
864.424	10149.41
864.745	10166.81
865.065	10097.66
865.386	10099.01
865.707	10104.21
866.027	10048.62
866.348	10113.48
866.668	10021.05
866.989	9983.76
867.309	9991.9
867.63	10052.91
867.95	9994.38
868.27	9935.63
868.59	9935.4
868.91	9921.84
869.23	9944.67
869.55	9902.41
869.87	9910.09
870.19	9875.74
870.51	9917.32
870.83	9858.12
871.15	9802.98
871.469	9789.42
871.789	9861.05
872.109	9772.7
872.428	9723.2
872.748	9756.65
873.067	9812.24
873.386	9746.93
873.706	9713.49
874.025	9748.97
874.344	9700.83
874.663	9737.67
874.982	9613.83
875.301	9658.57
875.62	9591.46
875.939	9611.12
876.258	9555.3
876.577	9510.1
876.896	9532.25
877.214	9457.45
877.533	9515.98
877.852	9490.67
878.17	9476.21
878.489	9447.28
878.807	9474.62
879.125	9439.14
879.444	9400.5
879.762	9360.05
880.08	9363.44
880.398	9379.71
880.716	9302.88
881.034	9376.77
881.352	9350.56
881.67	9287.06
881.988	9262.88
882.306	9245.48
882.624	9278.92
882.941	9210.9
883.259	9155.54
883.577	9169.32
883.894	9121.64
884.212	9140.62
884.529	9054.07
884.846	9166.61
885.164	9048.87
885.481	9023.34
885.798	8988.31
886.115	8937.91
886.432	8963
886.75	8943.11
887.067	8978.37
887.383	8915.77
887.7	8800.29
888.017	8811.59
888.334	8791.7
888.651	8840.29
888.967	8888.2
889.284	8741.99
889.6	8785.15
889.917	8698.82
890.233	8727.3
890.55	8652.5
890.866	8705.38
891.182	8590.81
891.498	8598.04
891.815	8510.13
892.131	8521.65
892.447	8532.05
892.763	8478.49
893.079	8498.83
893.395	8472.16
893.71	8432.17
894.026	8402.56
894.342	8359.62
894.657	8335.9
894.973	8283.47
895.289	8304.49
895.604	8304.03
895.92	8228.1
896.235	8190.36
896.55	8159.63
896.865	8170.93
897.181	8135.9
897.496	8122.79
897.811	8101.55
898.126	8017.71
898.441	7974.1
898.756	7982.01
899.071	7915.57
899.386	7912.86
899.7	7913.31
900.015	7878.73
900.33	7845.29
900.644	7780.21
900.959	7826.98
901.273	7770.49
901.588	7715.8
901.902	7657.27
902.216	7679.19
902.531	7690.26
902.845	7627.44
903.159	7567.33
903.473	7532.53
903.787	7527.56
904.101	7504.05
904.415	7477.84
904.729	7384.28
905.042	7411.4
905.356	7355.58
905.67	7325.53
905.984	7343.83
906.297	7334.57
906.611	7243.5
906.924	7209.37
907.237	7228.81
907.551	7221.12
907.864	7172.31
908.177	7180.45
908.491	7152.88
908.804	7090.96
909.117	7022.03
909.43	6977.51
909.743	6991.75
910.056	7024.52
910.368	6974.12
910.681	6928.93
910.994	6900.45
911.307	6858.87
911.619	6808.25
911.932	6835.37
912.244	6717.63
912.557	6736.39
912.869	6723.96
913.181	6675.15
913.494	6719.89
913.806	6648.94
914.118	6621.59
914.43	6577.52
914.742	6560.58
915.054	6499.11
915.366	6515.83
915.678	6491.43
915.99	6479.9
916.302	6419.11
916.613	6417.08
916.925	6413.46
917.236	6362.39
917.548	6318.77
917.859	6329.4
918.171	6298.89
918.482	6226.57
918.794	6253.69
919.105	6248.49
919.416	6127.14
919.727	6128.27
920.038	6132.11
920.349	6109.74
920.66	6082.85
920.971	6117.88
921.282	6048.05
921.593	5966.02
921.903	5963.53
922.214	5951.55
922.525	5890.31
922.835	5886.47
923.146	5863.19
923.456	5900.03
923.767	5818
924.077	5853.93
924.387	5796.53
924.697	5752.91
925.008	5754.04
925.318	5710.88
925.628	5708.85
925.938	5685.34
926.248	5597.89
926.558	5550.21
926.867	5589.53
927.177	5574.61
927.487	5514.95
927.796	5451.68
928.106	5486.93
928.416	5516.31
928.725	5486.03
929.034	5442.64
929.344	5428.63
929.653	5420.95
929.962	5362.64
930.271	5302.53
930.581	5301.63
930.89	5243.77
931.199	5271.57
931.508	5266.15
931.817	5260.72
932.125	5213.04
932.434	5166.04
932.743	5195.19
933.051	5113.38
933.36	5107.51
933.669	5088.52
933.977	5114.96
934.286	5064.57
934.594	5035.64
934.902	4981.86
935.21	5032.48
935.519	4938.92
935.827	4964.69
936.135	4947.51
936.443	4900.51
936.751	4847.17
937.059	4861.19
937.367	4861.19
937.674	4778.48
937.982	4780.51
938.29	4761.08
938.597	4747.06
938.905	4743.45
939.213	4739.38
939.52	4672.26
939.827	4699.16
940.135	4633.17
940.442	4627.07
940.749	4648.08
941.056	4643.34
941.363	4552.04
941.67	4575.32
941.977	4572.38
942.284	4542.55
942.591	4516.79
942.898	4467.07
943.205	4490.12
943.511	4450.35
943.818	4425.94
944.125	4387.07
944.431	4402.89
944.738	4380.52
945.044	4372.84
945.35	4358.37
945.657	4290.81
945.963	4326.96
946.269	4294.19
946.575	4237.47
946.881	4297.58
947.187	4237.93
947.493	4211.26
947.799	4202.45
948.105	4191.82
948.41	4129.45
948.716	4116.8
949.022	4123.58
949.327	4141.88
949.633	4107.31
949.938	4062.11
950.244	4045.39
950.549	4041.77
950.854	4051.26
951.16	4000.64
951.465	4012.17
951.77	3947.99
952.075	3942.11
952.38	3938.5
952.685	3952.51
952.99	3912.06
953.294	3922
953.599	3858.73
953.904	3838.16
954.209	3820.76
954.513	3794.32
954.818	3816.24
955.122	3757.94
955.426	3732.4
955.731	3724.49
956.035	3768.11
956.339	3738.5
956.643	3733.08
956.948	3671.84
957.252	3651.27
957.556	3669.35
957.86	3644.49
958.163	3630.26
958.467	3593.65
958.771	3564.72
959.075	3581.22
959.378	3603.82
959.682	3571.5
959.985	3504.16
960.289	3499.64
960.592	3541.22
960.896	3501.67
961.199	3459.87
961.502	3490.15
961.805	3429.81
962.108	3448.34
962.411	3400.89
962.714	3373.54
963.017	3369.02
963.32	3361.11
963.623	3344.39
963.926	3320.44
964.228	3330.38
964.531	3307.1
964.833	3317.05
965.136	3274.56
965.438	3285.86
965.741	3198.63
966.043	3248.8
966.345	3222.36
966.648	3167.9
966.95	3183.26
967.252	3158.18
967.554	3187.33
967.856	3176.71
968.158	3127.9
968.46	3151.85
968.761	3139.42
969.063	3102.36
969.365	3088.35
969.666	3103.27
969.968	3065.53
970.269	3068.92
970.571	3050.39
970.872	3023.95
971.174	3009.26
971.475	3007
971.776	2992.53
972.077	3018.07
972.378	2981.46
972.679	2981.46
972.98	2909.82
973.281	2942.14
973.582	2937.17
973.883	2849.94
974.183	2901.92
974.484	2881.35
974.785	2907.79
975.085	2869.15
975.386	2854.23
975.686	2799.09
975.986	2781.92
976.287	2834.12
976.587	2785.08
976.887	2794.35
977.187	2748.7
977.487	2787.12
977.787	2723.84
978.087	2730.17
978.387	2726.78
978.687	2700.11
978.987	2669.83
979.286	2680.68
979.586	2649.94
979.885	2654.24
980.185	2627.12
980.484	2621.02
980.784	2594.13
981.083	2594.35
981.382	2599.1
981.682	2598.42
981.981	2579.21
982.28	2568.59
982.579	2546.67
982.878	2589.83
983.177	2534.02
983.475	2547.8
983.774	2503.73
984.073	2479.55
984.372	2471.19
984.67	2473
984.969	2480.91
985.267	2452.44
985.566	2442.49
985.864	2446.33
986.162	2406.56
986.461	2390.52
986.759	2390.52
987.057	2380.8
987.355	2376.73
987.653	2354.81
987.951	2355.26
988.249	2365.21
988.547	2336.73
988.844	2301.93
989.142	2346.22
989.44	2299.22
989.737	2269.39
990.035	2301.03
990.332	2303.29
990.63	2231.42
990.927	2264.42
991.224	2223.51
991.521	2213.57
991.819	2235.94
992.116	2225.55
992.413	2183.97
992.71	2199.33
993.006	2164.76
993.303	2183.06
993.6	2158.88
993.897	2153.23
994.193	2163.4
994.49	2108.04
994.787	2144.2
995.083	2098.32
995.379	2131.77
995.676	2098.32
995.972	2076.17
996.268	2059
996.565	2047.7
996.861	2072.56
997.157	2069.85
997.453	2019.68
997.749	2037.08
998.044	1995.95
998.34	2006.57
998.636	2003.63
998.932	1957.08
999.227	1999.79
999.523	1983.3
999.818	1942.39
1000.114	1946.23
1000.409	1920.47
1000.704	1926.8
1001	1924.99
1001.295	1873.69
1001.59	1873.24
1001.885	1854.94
1002.18	1855.39
1002.475	1885.44
1002.77	1869.63
1003.065	1827.59
1003.359	1855.16
1003.654	1833.02
1003.949	1809.51
1004.243	1812.9
1004.538	1805.67
1004.832	1754.37
1005.127	1742.17
1005.421	1737.2
1005.715	1767.48
1006.009	1746.69
1006.304	1714.38
1006.598	1722.96
1006.892	1734.94
1007.186	1729.74
1007.48	1698.78
1007.773	1683.64
1008.067	1674.6
1008.361	1677.54
1008.655	1682.29
1008.948	1660.82
1009.242	1677.31
1009.535	1659.24
1009.829	1609.29
1010.122	1581.27
1010.415	1612.01
1010.708	1605.45
1011.001	1572.01
1011.295	1582.63
1011.588	1565.68
1011.881	1561.61
1012.173	1544.21
1012.466	1574.04
1012.759	1499.69
1013.052	1492.91
1013.344	1531.56
1013.637	1529.75
1013.93	1520.93
1014.222	1491.1
1014.514	1479.58
1014.807	1507.6
1015.099	1469.18
1015.391	1466.25
1015.683	1497.43
1015.976	1444.33
1016.268	1431.22
1016.56	1429.19
1016.851	1429.64
1017.143	1436.87
1017.435	1378.11
1017.727	1367.49
1018.018	1387.83
1018.31	1397.77
1018.602	1383.31
1018.893	1351
1019.185	1359.36
1019.476	1352.8
1019.767	1311.9
1020.058	1297.66
1020.35	1317.32
1020.641	1313.93
1020.932	1311
1021.223	1285.46
1021.514	1277.33
1021.804	1271
1022.095	1265.12
1022.386	1251.79
1022.677	1236.2
1022.967	1231.9
1023.258	1273.26
1023.548	1228.51
1023.839	1236.87
1024.129	1218.12
1024.419	1214.95
1024.709	1206.82
1025	1199.36
1025.29	1177.44
1025.58	1174.5
1025.87	1170.66
1026.16	1173.37
1026.449	1161.62
1026.739	1151.68
1027.029	1131.79
1027.319	1133.6
1027.608	1108.74
1027.898	1103.09
1028.187	1122.75
1028.477	1102.19
1028.766	1105.58
1029.055	1061.06
1029.344	1082.98
1029.634	1088.4
1029.923	1082.3
1030.212	1062.42
1030.501	1053.38
1030.79	1036.65
1031.078	1033.26
1031.367	1042.3
1031.656	1033.49
1031.945	1016.54
1032.233	1009.31
1032.522	1015.86
1032.81	986.71
1033.099	994.17
1033.387	978.8
1033.675	1014.96
1033.963	983.32
1034.251	993.94
1034.54	973.83
1034.828	962.31
1035.116	946.94
1035.403	924.79
1035.691	948.29
1035.979	936.77
1036.267	929.99
1036.554	928.41
1036.842	934.28
1037.129	919.59
1037.417	902.65
1037.704	889.09
1037.992	908.3
1038.279	888.41
1038.566	899.71
1038.853	899.71
1039.14	899.71
