Data from hue_20_FLMS001491_38.txt Node
Date: Mon Feb 06 15:33:59 GMT 2017
User: dcchb
Spectrometer: FLMS00149
Trigger mode: 0
Integration Time (sec): 2.000000E-2
Scans to average: 10
Electric dark correction enabled: true
Nonlinearity correction enabled: false
Boxcar width: 0
XAxis mode: Wavelengths
Number of Pixels in Spectrum: 2048
>>>>>Begin Spectral Data<<<<<
341.393	-15.52
341.776	-15.52
342.16	-15.52
342.543	-62.3
342.927	-70.66
343.31	-63.88
343.693	-62.07
344.077	-59.14
344.46	-52.13
344.843	-67.5
345.226	-44.22
345.61	-31.79
345.993	-28.4
346.376	-4
346.759	2.33
347.142	16.79
347.525	42.56
347.908	80.07
348.291	80.52
348.674	92.72
349.057	98.15
349.44	119.39
349.823	127.3
350.206	159.84
350.588	189.44
350.971	209.78
351.354	229.44
351.737	232.15
352.119	250.91
352.502	262.21
352.884	285.94
353.267	261.98
353.65	282.32
354.032	300.4
354.414	302.44
354.797	304.47
355.179	324.13
355.562	323.45
355.944	328.88
356.326	320.29
356.709	326.62
357.091	326.16
357.473	342.43
357.855	358.71
358.238	330.91
358.62	334.07
359.002	326.16
359.384	340.85
359.766	342.89
360.148	352.15
360.53	326.62
360.912	326.39
361.294	318.93
361.676	340.4
362.057	333.62
362.439	342.43
362.821	339.95
363.203	325.26
363.584	334.98
363.966	303.79
364.348	312.15
364.729	301.98
365.111	327.52
365.493	296.79
365.874	298.59
366.256	297.69
366.637	310.12
367.019	312.83
367.4	304.02
367.781	305.37
368.163	292.94
368.544	306.5
368.925	312.83
369.306	301.08
369.688	310.57
370.069	301.08
370.45	299.05
370.831	314.86
371.212	300.4
371.593	329.1
371.974	323.23
372.355	314.86
372.736	306.28
373.117	306.28
373.498	321.42
373.879	285.49
374.26	309.22
374.641	305.37
375.021	320.51
375.402	299.72
375.783	318.48
376.163	306.5
376.544	315.77
376.925	325.49
377.305	315.99
377.686	323.9
378.066	319.38
378.447	312.6
378.827	312.83
379.208	318.71
379.588	312.38
379.968	330.91
380.349	329.1
380.729	321.64
381.109	340.85
381.489	351.25
381.87	330.46
382.25	331.14
382.63	331.81
383.01	330.46
383.39	316.9
383.77	315.32
384.15	342.43
384.53	330.23
384.91	330.91
385.29	359.84
385.67	338.82
386.049	353.73
386.429	337.24
386.809	342.66
387.189	324.58
387.568	347.63
387.948	342.66
388.328	345.15
388.707	325.26
389.087	338.14
389.466	345.15
389.846	351.02
390.225	348.08
390.605	352.6
390.984	339.27
391.363	348.76
391.743	355.77
392.122	358.03
392.501	353.96
392.881	353.06
393.26	374.3
393.639	362.09
394.018	366.39
394.397	379.72
394.776	350.12
395.155	357.12
395.534	355.77
395.913	374.07
396.292	385.37
396.671	372.94
397.05	372.04
397.429	348.76
397.808	361.87
398.186	351.93
398.565	374.52
398.944	372.49
399.323	399.38
399.701	362.55
400.08	385.37
400.458	388.31
400.837	388.31
401.215	370
401.594	391.7
401.972	398.03
402.351	397.35
402.729	398.48
403.107	385.15
403.486	391.02
403.864	390.79
404.242	411.59
404.62	395.09
404.999	392.6
405.377	384.69
405.755	383.56
406.133	408.2
406.511	420.4
406.889	393.51
407.267	417.69
407.645	385.82
408.023	422.21
408.401	412.26
408.779	414.97
409.156	403.45
409.534	419.72
409.912	407.74
410.29	433.05
410.667	407.74
411.045	442.77
411.422	431.7
411.8	430.57
412.178	450.91
412.555	438.48
412.933	455.88
413.31	426.95
413.687	436.67
414.065	456.1
414.442	461.08
414.819	438.25
415.197	460.4
415.574	452.71
415.951	461.53
416.328	466.95
416.705	470.79
417.082	465.14
417.46	452.94
417.837	471.02
418.214	468.98
418.591	466.95
418.967	485.48
419.344	470.11
419.721	463.11
420.098	481.41
420.475	467.18
420.852	482.09
421.228	480.28
421.605	464.47
421.982	490.68
422.358	477.8
422.735	486.39
423.111	485.03
423.488	491.36
423.864	482.77
424.241	505.37
424.617	506.27
424.994	508.31
425.37	517.8
425.746	491.58
426.123	512.6
426.499	514.86
426.875	505.14
427.251	515.09
427.627	533.39
428.003	534.29
428.379	539.49
428.756	533.39
429.132	548.53
429.507	558.25
429.883	563.9
430.259	571.58
430.635	579.49
431.011	555.08
431.387	564.12
431.763	576.55
432.138	586.95
432.514	595.08
432.89	580.62
433.265	581.3
433.641	606.61
434.016	600.28
434.392	589.43
434.767	594.41
435.143	598.25
435.518	612.03
435.894	612.71
436.269	623.78
436.644	630.34
437.02	626.27
437.395	639.15
437.77	643.22
438.145	666.72
438.52	662.43
438.895	640.28
439.271	661.75
439.646	647.29
440.021	670.34
440.395	664.46
440.77	669.43
441.145	675.08
441.52	667.17
441.895	686.15
442.27	670.79
442.645	687.28
443.019	680.5
443.394	669.88
443.769	711.69
444.143	693.84
444.518	704.68
444.892	710.56
445.267	704.91
445.641	704.91
446.016	687.51
446.39	688.87
446.764	711.46
447.139	745.36
447.513	729.77
447.887	706.49
448.262	734.97
448.636	725.7
449.01	729.32
449.384	732.25
449.758	722.99
450.132	765.47
450.506	754.85
450.88	787.85
451.254	779.26
451.628	755.98
452.002	782.2
452.376	772.93
452.75	790.33
453.123	780.62
453.497	806.38
453.871	783.78
454.244	802.99
454.618	805.02
454.992	816.32
455.365	814.74
455.739	851.57
456.112	848.18
456.486	852.7
456.859	840.95
457.232	865.58
457.606	858.58
457.979	870.33
458.352	893.38
458.725	881.18
459.099	893.15
459.472	899.03
459.845	922.53
460.218	928.86
460.591	935.87
460.964	925.02
461.337	918.46
461.71	963.89
462.083	974.96
462.456	993.04
462.829	1009.99
463.201	983.32
463.574	1000.5
463.947	1020.38
464.32	1007.05
464.692	1024.45
465.065	1019.7
465.438	1057.22
465.81	1054.73
466.183	1091.34
466.555	1088.86
466.928	1087.73
467.3	1095.18
467.672	1081.62
468.045	1140.38
468.417	1145.58
468.789	1153.49
469.161	1163.88
469.534	1183.09
469.906	1200.72
470.278	1202.3
470.65	1214.73
471.022	1244.56
471.394	1266.93
471.766	1263.31
472.138	1305.57
472.51	1308.51
472.882	1346.7
473.253	1336.98
473.625	1358.9
473.997	1396.42
474.369	1422.41
474.74	1401.39
475.112	1414.04
475.484	1476.19
475.855	1498.56
476.227	1534.49
476.598	1546.24
476.97	1546.92
477.341	1602.06
477.713	1621.04
478.084	1668.28
478.455	1659.01
478.827	1696.07
479.198	1749.4
479.569	1762.51
479.94	1810.19
480.311	1827.59
480.682	1856.07
481.053	1899.23
481.424	1901.94
481.795	1928.61
482.166	1966.35
482.537	2017.87
482.908	2055.38
483.279	2082.95
483.65	2141.71
484.021	2172.44
484.391	2172.22
484.762	2221.26
485.133	2252.89
485.503	2269.39
485.874	2304.64
486.244	2353.46
486.615	2389.39
486.985	2425.54
487.356	2483.17
487.726	2499.67
488.097	2583.51
488.467	2545.77
488.837	2624.41
489.207	2667.8
489.578	2695.59
489.948	2702.37
490.318	2752.99
490.688	2794.57
491.058	2839.32
491.428	2887.45
491.798	2917.73
492.168	3000.9
492.538	2981.24
492.908	3025.3
493.278	3092.19
493.648	3099.88
494.017	3099.2
494.387	3174.68
494.757	3156.6
495.126	3218.97
495.496	3245.41
495.866	3270.27
496.235	3324.73
496.605	3312.07
496.974	3333.09
497.344	3398.85
497.713	3444.05
498.082	3413.77
498.452	3482.92
498.821	3461.9
499.19	3513.88
499.559	3559.75
499.928	3542.58
500.298	3624.83
500.667	3602.69
501.036	3644.95
501.405	3657.6
501.774	3640.65
502.143	3726.07
502.512	3701.67
502.88	3766.75
503.249	3776.47
503.618	3797.94
503.987	3806.98
504.356	3808.11
504.724	3798.84
505.093	3857.82
505.462	3843.81
505.83	3890.36
506.199	3935.33
506.567	3940.98
506.936	3940.76
507.304	4034.77
507.672	4012.39
508.041	4031.15
508.409	4058.27
508.777	4092.84
509.145	4118.83
509.514	4061.88
509.882	4135.33
510.25	4103.47
510.618	4130.13
510.986	4213.07
511.354	4214.65
511.722	4216.68
512.09	4285.38
512.458	4242.44
512.826	4250.58
513.193	4343.01
513.561	4336.45
513.929	4326.28
514.297	4387.3
514.664	4403.34
515.032	4409.9
515.4	4423.23
515.767	4454.42
516.135	4471.59
516.502	4425.49
516.869	4503.68
517.237	4549.78
517.604	4486.96
517.972	4528.54
518.339	4587.75
518.706	4523.57
519.073	4543.45
519.44	4602.66
519.808	4688.31
520.175	4605.37
520.542	4662.55
520.909	4692.15
521.276	4685.6
521.643	4691.25
522.009	4729.44
522.376	4731.02
522.743	4800.17
523.11	4825.03
523.477	4839.72
523.843	4822.77
524.21	4899.38
524.577	4914.97
524.943	4949.32
525.31	4972.37
525.676	5022.09
526.043	5046.49
526.409	5034.29
526.776	5061.86
527.142	5105.25
527.508	5114.29
527.874	5161.06
528.241	5114.29
528.607	5208.97
528.973	5187.28
529.339	5289.88
529.705	5281.74
530.071	5333.26
530.437	5336.43
530.803	5385.92
531.169	5359.48
531.535	5417.78
531.901	5438.35
532.267	5380.27
532.632	5467.95
532.998	5482.19
533.364	5532.13
533.73	5531.45
534.095	5564.44
534.461	5581.17
534.826	5606.02
535.192	5589.3
535.557	5681.5
535.923	5669.07
536.288	5695.06
536.653	5717.89
537.019	5726.7
537.384	5744.55
537.749	5714.5
538.114	5808.05
538.479	5777.32
538.845	5821.39
539.21	5832.01
539.575	5865.45
539.94	5859.58
540.305	5907.03
540.67	5921.95
541.034	5939.12
541.399	6027.26
541.764	6041.49
542.129	6027.71
542.494	6078.55
542.858	6099.57
543.223	6074.71
543.587	6147.93
543.952	6122.4
544.316	6149.74
544.681	6140.47
545.045	6212.34
545.41	6251.21
545.774	6335.72
546.138	6291.66
546.503	6309.96
546.867	6303.63
547.231	6377.98
547.595	6322.84
547.959	6471.31
548.324	6422.27
548.688	6420.92
549.052	6497.75
549.416	6460.69
549.779	6508.83
550.143	6548.82
550.507	6565.32
550.871	6588.37
551.235	6570.52
551.599	6633.12
551.962	6645.32
552.326	6627.47
552.689	6688.26
553.053	6698.88
553.417	6645.32
553.78	6800.12
554.143	6795.82
554.507	6800.12
554.87	6803.28
555.234	6853
555.597	6860
555.96	6828.14
556.323	6898.19
556.686	6897.29
557.05	7027.23
557.413	6948.81
557.776	6996.5
558.139	7000.79
558.502	7031.75
558.865	7047.34
559.228	7152.65
559.59	7091.18
559.953	7097.96
560.316	7135.93
560.679	7188.36
561.041	7179.09
561.404	7290.27
561.767	7296.6
562.129	7229.71
562.492	7350.39
562.854	7278.75
563.217	7360.78
563.579	7365.75
563.941	7437.84
564.304	7410.27
564.666	7376.6
565.028	7488.69
565.39	7413.44
565.753	7508.57
566.115	7584.5
566.477	7586.31
566.839	7676.7
567.201	7649.81
567.563	7664.05
567.925	7675.12
568.287	7671.96
568.648	7767.78
569.01	7830.83
569.372	7884.16
569.734	7815.46
570.095	7859.98
570.457	7905.63
570.819	7973.65
571.18	8012.29
571.542	7986.53
571.903	8048.45
572.265	8130.03
572.626	8132.51
572.987	8154.43
573.349	8165.51
573.71	8258.16
574.071	8250.02
574.432	8343.81
574.794	8440.75
575.155	8383.13
575.516	8491.37
575.877	8545.83
576.238	8547.87
576.599	8605.95
576.96	8677.36
577.32	8700.86
577.681	8786.73
578.042	8909.21
578.403	8937.69
578.763	9051.81
579.124	9080.74
579.485	9214.97
579.845	9381.07
580.206	9349.43
580.566	9510.1
580.927	9529.76
581.287	9680.27
581.648	9767.72
582.008	9888.17
582.368	10029.64
582.728	10189.86
583.089	10202.74
583.449	10379.91
583.809	10489.74
584.169	10701.26
584.529	10826.45
584.889	11073.45
585.249	11129.72
585.609	11205.43
585.969	11487.9
586.329	11621.69
586.688	11854.67
587.048	11982.58
587.408	12252.4
587.768	12430.03
588.127	12651.49
588.487	12836.57
588.846	13088.77
589.206	13222.1
589.565	13493.28
589.925	13702.54
590.284	13975.97
590.643	14218.23
591.003	14491.67
591.362	14740.7
591.721	14938.43
592.08	15278.54
592.44	15623.84
592.799	15760.11
593.158	16114.68
593.517	16292.52
593.876	16586.08
594.235	16813.19
594.593	17103.8
594.952	17446.39
595.311	17700.85
595.67	17948.75
596.029	18336.09
596.387	18496.31
596.746	18925.22
597.104	19172
597.463	19410.41
597.822	19703.28
598.18	20096.94
598.538	20299.88
598.897	20710.26
599.255	20779.41
599.613	21359.06
599.972	21414.87
600.33	21833.39
600.688	21979.38
601.046	22427.28
601.404	22741.62
601.762	22873.14
602.12	23292.11
602.478	23593.8
602.836	23765.32
603.194	23978.88
603.552	24321.24
603.91	24468.58
604.268	24894.56
604.625	24999.19
604.983	25462.9
605.341	25579.96
605.698	25880.97
606.056	26203.22
606.413	26330.45
606.771	26630.1
607.128	26996.65
607.485	27035.74
607.843	27409.29
608.2	27689.51
608.557	27999.79
608.914	28077.75
609.272	28324.75
609.629	28698.53
609.986	28939.87
610.343	29056.93
610.7	29360.88
611.057	29531.5
611.414	29672.96
611.771	29913.18
612.127	30306.84
612.484	30434.75
612.841	30740.28
613.198	30689.89
613.554	30931.46
613.911	31281.73
614.267	31310.43
614.624	31532.8
614.98	31755.17
615.337	32009.17
615.693	32072.22
616.05	32180.24
616.406	32485.77
616.762	32535.03
617.118	32726.89
617.475	32779.1
617.831	33087.56
618.187	33357.61
618.543	33524.61
618.899	33664.04
619.255	33823.14
619.611	33944.71
619.967	34097.25
620.323	34317.81
620.678	34222.67
621.034	34334.54
621.39	34450.92
621.746	34407.08
622.101	35007.29
622.457	34857.91
622.812	35017.91
623.168	35211.57
623.523	35225.81
623.879	35423.77
624.234	35295.87
624.589	35323.21
624.945	35574.28
625.3	35587.61
625.655	35742.41
626.01	35910.99
626.365	35991.89
626.72	35937.2
627.075	36021.95
627.43	36038.9
627.785	36066.01
628.14	36219.23
628.495	36305.33
628.85	36344.65
629.205	36295.16
629.559	36681.37
629.914	36387.81
630.269	36626.9
630.623	36584.87
630.978	36514.59
631.332	36674.59
631.687	36929.04
632.041	36725.43
632.396	36792.78
632.75	36713.46
633.104	36837.97
633.459	36795.04
633.813	36843.17
634.167	36779.22
634.521	36780.35
634.875	36929.72
635.229	36798.43
635.583	36670.52
635.937	36850.18
636.291	36865.54
636.645	36794.13
636.999	36798.43
637.352	36927.69
637.706	36754.36
638.06	36938.08
638.413	36806.33
638.767	36891.76
639.121	36853.79
639.474	36610.63
639.828	36870.51
640.181	36805.88
640.534	36893.34
640.888	36833.68
641.241	36612.67
641.594	36918.2
641.947	36949.38
642.301	36818.99
642.654	36758.88
643.007	36618.77
643.36	36690.41
643.713	36663.29
644.066	36857.41
644.419	36585.78
644.771	36485.89
645.124	36197.54
645.477	36084.77
645.83	35985.79
646.182	35684.56
646.535	35710.09
646.888	35777.66
647.24	35692.47
647.593	35837.55
647.945	35735.4
648.298	35604.11
648.65	35633.94
649.002	35458.57
649.355	35604.33
649.707	35547.38
650.059	35831.44
650.411	36149.18
650.763	36247.71
651.115	36529.73
651.467	36563.63
651.819	36467.13
652.171	36304.65
652.523	36307.36
652.875	36363.63
653.227	36265.33
653.578	36462.84
653.93	36383.97
654.282	36392.56
654.633	36120.7
654.985	36295.16
655.337	36181.94
655.688	36214.71
656.039	36351.21
656.391	36049.74
656.742	36113.02
657.094	36162.28
657.445	36234.15
657.796	36224.88
658.147	36193.47
658.498	36098.1
658.849	36335.61
659.2	36246.58
659.551	36021.72
659.902	36325.67
660.253	36177.42
660.604	36281.38
660.955	35962.74
661.306	36136.75
661.656	35933.82
662.007	36002.74
662.358	36167.03
662.708	36044.32
663.059	36028.73
663.409	35861.05
663.76	36077.09
664.11	35964.32
664.461	36095.17
664.811	36070.31
665.161	35981.27
665.511	36022.63
665.862	36051.78
666.212	36080.7
666.562	36116.86
666.912	35978.79
667.262	35908.5
667.612	35903.53
667.962	36030.54
668.312	35958.9
668.662	36111.89
669.011	35944.66
669.361	35910.31
669.711	36097.65
670.06	35929.3
670.41	35838.68
670.76	35846.36
671.109	35963.19
671.459	35882.97
671.808	35781.28
672.157	35889.07
672.507	35595.29
672.856	35726.14
673.205	35759.58
673.554	35946.02
673.904	35701.5
674.253	35875.74
674.602	35818.34
674.951	35245.92
675.3	35110.79
675.649	35671.45
675.998	35594.61
676.346	35584.9
676.695	35841.16
677.044	35488.85
677.393	35569.76
677.741	35567.72
678.09	35423.32
678.438	35427.16
678.787	35568.63
679.135	35471.45
679.484	35270.78
679.832	35539.7
680.181	35248.41
680.529	35320.05
680.877	35199.6
681.225	35263.1
681.573	35484.34
681.922	35160.05
682.27	35059.04
682.618	34991.92
682.966	34979.49
683.314	34995.08
683.661	34910.34
684.009	34803
684.357	34646.39
684.705	34635.77
685.053	34713.73
685.4	34581.53
685.748	34445.49
686.095	34507.64
686.443	34390.35
686.79	34268.55
687.138	34368.66
687.485	34327.53
687.832	34159.62
688.18	34306.29
688.527	34104.94
688.874	34092.73
689.221	34018.16
689.568	34047.99
689.915	33823.36
690.262	33917.82
690.609	33783.14
690.956	33661.56
691.303	33635.34
691.65	33436.93
691.997	33569.81
692.344	33271.51
692.69	33261.57
693.037	33362.36
693.383	33020.45
693.73	33103.61
694.077	33019.99
694.423	32951.07
694.769	32761.7
695.116	32789.49
695.462	32794.91
695.808	32587.46
696.155	32749.49
696.501	32388.15
696.847	32480.57
697.193	32308.15
697.539	32379.56
697.885	32071.77
698.231	31918.55
698.577	31945.67
698.923	31883.75
699.269	31868.39
699.614	31650.99
699.96	31589.07
700.306	31634.72
700.651	31397.44
700.997	31384.56
701.342	31373.26
701.688	31267.5
702.033	31234.05
702.379	31132.36
702.724	30996.09
703.069	31107.95
703.415	30697.57
703.76	30928.97
704.105	30834.29
704.45	30850.33
704.795	30503.22
705.14	30451.93
705.485	30425.03
705.83	30273.85
706.175	30349.33
706.52	30288.77
706.865	30147.3
707.209	30134.19
707.554	30096.23
707.899	30161.76
708.243	29947.98
708.588	29846.52
708.932	29719.06
709.277	29696.01
709.621	29781.66
709.966	29497.83
710.31	29665.73
710.654	29416.92
710.998	29492.4
711.342	29470.03
711.687	29231.39
712.031	29279.53
712.375	29102.36
712.719	29164.73
713.063	29076.59
713.407	29197.49
713.75	28884.96
714.094	29002.7
714.438	28815.36
714.782	28900.78
715.125	28715.02
715.469	28781.91
715.812	28680.22
716.156	28541.24
716.499	28440.9
716.843	28571.52
717.186	28377.18
717.53	28452.2
717.873	28376.95
718.216	28308.7
718.559	28178.09
718.902	28047.47
719.246	28115.04
719.589	28014.48
719.932	27819
720.275	27894.48
720.617	27889.28
720.96	27680.7
721.303	27873.01
721.646	27826.68
721.989	27587.14
722.331	27703.97
722.674	27594.83
723.016	27665.56
723.359	27471.21
723.701	27595.28
724.044	27471.44
724.386	27278.45
724.729	27349.18
725.071	27223.99
725.413	27296.98
725.755	27230.54
726.097	27127.04
726.439	27021.96
726.782	27127.04
727.124	27173.37
727.465	26913.26
727.807	26995.29
728.149	26934.73
728.491	26858.35
728.833	26858.57
729.175	26804.79
729.516	26871.45
729.858	26776.99
730.199	26804.11
730.541	26708.07
730.882	26661.74
731.224	26737.22
731.565	26518.24
731.906	26414.74
732.248	26466.27
732.589	26443.22
732.93	26252.26
733.271	26370.9
733.612	26421.07
733.953	26405.25
734.294	26229.21
734.635	26133.62
734.976	26145.37
735.317	26138.59
735.658	26128.88
735.999	26096.56
736.339	26068.54
736.68	26092.94
737.021	25939.5
737.361	25875.1
737.702	25914.87
738.042	25926.62
738.383	25910.58
738.723	25836
739.063	25752.84
739.404	25791.48
739.744	25620.64
740.084	25671.94
740.424	25568.66
740.764	25503.81
741.104	25615.89
741.444	25407.76
741.784	25378.84
742.124	25470.36
742.464	25386.3
742.804	25331.83
743.143	25423.13
743.483	25244.38
743.823	25138.17
744.162	25260.88
744.502	25302.91
744.841	25211.39
745.181	25197.83
745.52	25135.68
745.86	25096.81
746.199	25044.84
746.538	25048.9
746.877	25149.24
747.216	25066.98
747.556	24910.38
747.895	24981.79
748.234	24945.86
748.573	24812.3
748.911	24801
749.25	24681.91
749.589	24670.83
749.928	24704.96
750.267	24730.49
750.605	24671.06
750.944	24567.33
751.283	24573.44
751.621	24570.5
751.96	24329.37
752.298	24393.78
752.636	24421.58
752.975	24354.46
753.313	24102.49
753.651	24305.87
753.989	24175.03
754.327	24165.08
754.666	24055.71
755.004	24085.76
755.342	24075.37
755.679	24043.51
756.017	23820.24
756.355	24009.16
756.693	23905.66
757.031	23901.14
757.368	23619.79
757.706	23647.81
758.044	23652.33
758.381	23645.55
758.719	23633.35
759.056	23639.68
759.394	23439.91
759.731	23300.7
760.068	23249.18
760.405	23162.4
760.743	23195.39
761.08	23225.45
761.417	23073.14
761.754	22936.42
762.091	22965.79
762.428	22898.9
762.765	22734.84
763.102	22908.62
763.438	22720.38
763.775	22556.31
764.112	22650.1
764.449	22685.8
764.785	22562.64
765.122	22361.52
765.458	22255.3
765.795	22239.26
766.131	22279.48
766.467	22080.62
766.804	21984.35
767.14	21922.43
767.476	21960.4
767.812	21809.44
768.148	21830.68
768.485	21645.15
768.821	21665.04
769.157	21621.87
769.492	21534.42
769.828	21491.03
770.164	21354.31
770.5	21328.78
770.836	21278.38
771.171	21075.45
771.507	21030.7
771.842	20969.91
772.178	20911.84
772.513	20910.71
772.849	20810.37
773.184	20647.21
773.519	20722.69
773.855	20580.32
774.19	20535.35
774.525	20442.24
774.86	20430.49
775.195	20347.78
775.53	20280.44
775.865	20274.34
776.2	19914.12
776.535	19931.98
776.87	19930.17
777.205	19870.96
777.539	19790.96
777.874	19774.69
778.209	19567.47
778.543	19582.61
778.878	19473
779.212	19488.37
779.547	19377.87
779.881	19275.95
780.215	19318.66
780.55	19237.08
780.884	19100.36
781.218	18995.96
781.552	19064.43
781.886	18915.73
782.22	18855.62
782.554	18794.83
782.888	18635.74
783.222	18579.92
783.556	18542.41
783.889	18537.66
784.223	18373.37
784.557	18371.11
784.89	18352.81
785.224	18246.14
785.557	18057
785.891	18184.23
786.224	18091.35
786.558	17961.86
786.891	17806.38
787.224	17820.39
787.557	17798.02
787.891	17697.23
788.224	17680.51
788.557	17640.06
788.89	17560.06
789.223	17598.7
789.556	17454.98
789.888	17372.72
790.221	17229.45
790.554	17194.87
790.887	17234.87
791.219	17155.55
791.552	17039.85
791.884	16955.33
792.217	16885.28
792.549	16871.04
792.882	16877.59
793.214	16731.16
793.546	16750.82
793.879	16638.28
794.211	16570.71
794.543	16554.66
794.875	16495.91
795.207	16455.23
795.539	16445.29
795.871	16353.54
796.203	16332.3
796.535	16181.11
796.867	16185.41
797.198	16104.96
797.53	16061.8
797.862	15994.23
798.193	16026.99
798.525	15888.47
798.856	15918.07
799.188	15723.5
799.519	15730.05
799.85	15611.86
800.182	15725.98
800.513	15634.69
800.844	15542.03
801.175	15634.91
801.506	15512.66
801.837	15462.04
802.168	15302.95
802.499	15346.56
802.83	15340.01
803.161	15201.25
803.491	15203.96
803.822	15103.4
804.153	15036.29
804.483	14999.22
804.814	14862.73
805.145	14943.63
805.475	14890.98
805.805	14853.47
806.136	14860.24
806.466	14787.93
806.796	14838.1
807.126	14690.76
807.457	14629.74
807.787	14651.66
808.117	14541.16
808.447	14479.24
808.777	14526.92
809.107	14423.87
809.436	14492.8
809.766	14475.62
810.096	14400.37
810.426	14344.33
810.755	14310.2
811.085	14308.85
811.414	14253.03
811.744	14098.01
812.073	14159.7
812.403	14044.67
812.732	14033.6
813.061	13998.35
813.39	13966.26
813.719	13900.04
814.049	13954.28
814.378	13901.85
814.707	13835.87
815.036	13795.87
815.365	13806.04
815.693	13618.47
816.022	13655.98
816.351	13607.4
816.68	13513.61
817.008	13566.72
817.337	13467.06
817.665	13425.71
817.994	13457.12
818.322	13420.73
818.651	13411.47
818.979	13295.54
819.307	13427.29
819.636	13345.93
819.964	13270.68
820.292	13265.48
820.62	13256.22
820.948	13220.51
821.276	13265.26
821.604	13095.32
821.932	13176
822.259	13203.79
822.587	13148.88
822.915	13133.96
823.243	13240.85
823.57	13183
823.898	13196.33
824.225	13098.94
824.553	13042.44
824.88	13126.05
825.207	13166.73
825.535	13123.79
825.862	13183.45
826.189	13076.34
826.516	13145.04
826.843	13100.97
827.17	13143.45
827.497	13110.91
827.824	13185.26
828.151	13194.98
828.478	13055.09
828.805	13213.06
829.131	13040.63
829.458	13083.34
829.785	13044.25
830.111	13090.57
830.438	13158.82
830.764	13087.18
831.09	13081.08
831.417	13115.43
831.743	13086.51
832.069	13079.5
832.395	12997.92
832.722	13014.19
833.048	13012.84
833.374	12955.44
833.7	12949.11
834.026	12932.61
834.351	12980.07
834.677	12955.66
835.003	12950.69
835.329	12961.76
835.654	12916.79
835.98	12830.92
836.306	12879.28
836.631	12763.12
836.956	12860.75
837.282	12884.7
837.607	12696.91
837.932	12773.75
838.258	12707.76
838.583	12723.13
838.908	12681.77
839.233	12735.55
839.558	12612.85
839.883	12612.39
840.208	12537.14
840.533	12608.78
840.858	12529.23
841.182	12512.74
841.507	12531.27
841.832	12473.41
842.156	12473.19
842.481	12487.88
842.805	12461.89
843.13	12395
843.454	12418.73
843.778	12288.34
844.103	12282.46
844.427	12291.95
844.751	12256.92
845.075	12229.35
845.399	12263.25
845.723	12124.27
846.047	12161.11
846.371	12046.76
846.695	12006.31
847.019	11968.57
847.343	11830.95
847.666	11831.85
847.99	11755.47
848.313	11785.75
848.637	11661.68
848.96	11738.07
849.284	11688.8
849.607	11582.36
849.931	11540.11
850.254	11466.21
850.577	11388.92
850.9	11308.47
851.223	11236.61
851.546	11299.21
851.869	11156.84
852.192	11316.84
852.515	11111.64
852.838	11065.99
853.161	11026.45
853.483	11049.95
853.806	10950.07
854.129	10889.95
854.451	10866.23
854.774	10804.98
855.096	10847.24
855.419	10823.51
855.741	10788.49
856.063	10739.22
856.385	10679.56
856.708	10672.78
857.03	10712.33
857.352	10593.24
857.674	10556.86
857.996	10535.39
858.318	10465.56
858.64	10471.66
858.961	10479.8
859.283	10389.4
859.605	10345.79
859.926	10400.02
860.248	10306.24
860.57	10242.06
860.891	10381.27
861.212	10240.48
861.534	10228.5
861.855	10188.5
862.176	10228.5
862.498	10212.23
862.819	10180.59
863.14	10147.83
863.461	10158.9
863.782	10098.56
864.103	10120.03
864.424	10042.07
864.745	10051.78
865.065	9995.74
865.386	9999.36
865.707	9966.36
866.027	10008.17
866.348	9932.01
866.668	9975.85
866.989	9894.5
867.309	9829.64
867.63	9895.86
867.95	9888.17
868.27	9811.34
868.59	9779.93
868.91	9759.81
869.23	9831.68
869.55	9775.41
869.87	9849.3
870.19	9764.79
870.51	9761.4
870.83	9709.19
871.15	9662.19
871.469	9585.36
871.789	9663.09
872.109	9635.75
872.428	9642.75
872.748	9622.19
873.067	9584.45
873.386	9597.33
873.706	9637.11
874.025	9532.48
874.344	9560.5
874.663	9529.99
874.982	9527.73
875.301	9471.91
875.62	9515.75
875.939	9442.76
876.258	9461.74
876.577	9442.76
876.896	9449.54
877.214	9405.7
877.533	9382.2
877.852	9381.74
878.17	9347.85
878.489	9343.1
878.807	9349.66
879.125	9299.26
879.444	9341.97
879.762	9267.17
880.08	9246.83
880.398	9207.51
880.716	9254.74
881.034	9181.52
881.352	9184.01
881.67	9171.13
881.988	9226.04
882.306	9153.5
882.624	9152.37
882.941	9070.34
883.259	9042.09
883.577	8993.28
883.894	9035.99
884.212	9001.64
884.529	9007.52
884.846	8978.14
885.164	8970.91
885.481	8853.17
885.798	8924.36
886.115	8904.24
886.432	8815.21
886.75	8807.52
887.067	8820.4
887.383	8767.3
887.7	8793.96
888.017	8785.38
888.334	8720.97
888.651	8664.48
888.967	8725.72
889.284	8658.83
889.6	8617.7
889.917	8586.51
890.233	8539.51
890.55	8510.36
890.866	8541.09
891.182	8580.64
891.498	8495.21
891.815	8430.81
892.131	8424.03
892.447	8426.06
892.763	8350.36
893.079	8379.06
893.395	8338.16
893.71	8287.31
894.026	8299.97
894.342	8259.06
894.657	8232.4
894.973	8250.25
895.289	8117.82
895.604	8150.82
895.92	8126.64
896.235	8094.32
896.55	8107.43
896.865	8085.06
897.181	8069.24
897.496	8003.02
897.811	7968.67
898.126	7955.79
898.441	7935.68
898.756	7892.97
899.071	7817.72
899.386	7926.87
899.7	7818.4
900.015	7812.75
900.33	7695.69
900.644	7651.85
900.959	7740.21
901.273	7716.25
901.588	7599.87
901.902	7641.68
902.216	7607.55
902.531	7629.25
902.845	7528.01
903.159	7538.63
903.473	7472.19
903.787	7445.07
904.101	7350.39
904.415	7390.38
904.729	7387.45
905.042	7359.65
905.356	7362.81
905.67	7278.52
905.984	7295.7
906.297	7185.87
906.611	7167.11
906.924	7161.24
907.237	7155.59
907.551	7165.08
907.864	7154.23
908.177	7115.36
908.491	7055.03
908.804	7034.24
909.117	6988.81
909.43	6920.34
909.743	6952.2
910.056	6922.83
910.368	6903.84
910.681	6836.95
910.994	6845.54
911.307	6799.21
911.619	6766.45
911.932	6698.2
912.244	6734.58
912.557	6671.31
912.869	6647.58
913.181	6633.12
913.494	6658.88
913.806	6580.24
914.118	6537.53
914.43	6496.17
914.742	6565.32
915.054	6501.82
915.366	6439.68
915.678	6362.84
915.99	6344.99
916.302	6372.11
916.613	6301.37
916.925	6347.7
917.236	6312.67
917.548	6288.49
917.859	6288.94
918.171	6161.26
918.482	6180.02
918.794	6184.54
919.105	6196.29
919.416	6090.76
919.727	6035.84
920.038	6029.29
920.349	6044.21
920.66	5973.47
920.971	6019.8
921.282	5982.96
921.593	5937.77
921.903	5894.83
922.214	5887.15
922.525	5837.43
922.835	5875.85
923.146	5811.9
923.456	5851.89
923.767	5761.05
924.077	5772.12
924.387	5778.9
924.697	5704.1
925.008	5728.51
925.318	5612.35
925.628	5653.48
925.938	5640.6
926.248	5605.8
926.558	5558.12
926.867	5497.33
927.177	5524.22
927.487	5494.39
927.796	5460.49
928.106	5453.94
928.416	5430.66
928.725	5396.99
929.034	5394.05
929.344	5366.94
929.653	5362.87
929.962	5258.24
930.271	5269.31
930.581	5234.96
930.89	5205.13
931.199	5162.42
931.508	5198.8
931.817	5170.56
932.125	5146.15
932.434	5156.32
932.743	5082.42
933.051	5068.86
933.36	5077.68
933.669	5031.12
933.977	5029.99
934.286	5004.91
934.594	5020.5
934.902	4945.03
935.21	4900.05
935.519	4928.3
935.827	4926.49
936.135	4881.07
936.443	4837.46
936.751	4820.73
937.059	4808.31
937.367	4755.88
937.674	4769.66
937.982	4765.6
938.29	4708.87
938.597	4718.14
938.905	4662.32
939.213	4637.46
939.52	4608.99
939.827	4616.22
940.135	4564.24
940.442	4582.1
940.749	4560.63
941.056	4523.12
941.363	4523.34
941.67	4496.45
941.977	4516.34
942.284	4466.17
942.591	4453.06
942.898	4405.15
943.205	4403.8
943.511	4428.65
943.818	4396.11
944.125	4369.22
944.431	4349.11
944.738	4327.64
945.044	4318.38
945.35	4296.68
945.657	4246.74
945.963	4251.94
946.269	4213.29
946.575	4233.86
946.881	4166.97
947.187	4188.89
947.493	4166.97
947.799	4140.75
948.105	4116.35
948.41	4107.76
948.716	4124.48
949.022	4059.62
949.327	4058.95
949.633	4020.98
949.938	4029.12
950.244	3967.2
950.549	3995.67
950.854	3944.83
951.16	3965.39
951.465	3958.84
951.77	3905.96
952.075	3909.35
952.38	3841.55
952.685	3855.56
952.99	3831.83
953.294	3842.23
953.599	3821.67
953.904	3818.95
954.209	3775.56
954.513	3763.36
954.818	3708.45
955.122	3726.3
955.426	3700.99
955.731	3667.77
956.035	3672.97
956.339	3696.02
956.643	3663.25
956.948	3648.56
957.252	3581.22
957.556	3596.81
957.86	3576.7
958.163	3599.07
958.467	3536.47
958.771	3529.7
959.075	3537.15
959.378	3492.86
959.682	3512.75
959.985	3517.27
960.289	3455.57
960.592	3411.96
960.896	3471.62
961.199	3436.59
961.502	3416.03
961.805	3382.81
962.108	3391.85
962.411	3354.33
962.714	3310.49
963.017	3346.65
963.32	3341.68
963.623	3311.85
963.926	3338.97
964.228	3322.7
964.531	3282.47
964.833	3220.32
965.136	3260.55
965.438	3240.89
965.741	3223.71
966.043	3228.46
966.345	3167.44
966.648	3198.86
966.95	3167.9
967.252	3114.34
967.554	3115.24
967.856	3098.07
968.158	3095.36
968.46	3086.54
968.761	3087.22
969.063	3093.77
969.365	3015.36
969.666	3036.6
969.968	3001.8
970.269	3010.39
970.571	3025.75
970.872	3005.42
971.174	2959.77
971.475	2985.75
971.776	2978.98
972.077	2903.72
972.378	2937.85
972.679	2932.2
972.98	2882.71
973.281	2877.06
973.582	2880.22
973.883	2861.46
974.183	2842.71
974.484	2795.03
974.785	2829.6
975.085	2826.66
975.386	2810.62
975.686	2783.27
975.986	2783.73
976.287	2775.36
976.587	2731.3
976.887	2731.98
977.187	2733.78
977.487	2710.28
977.787	2700.34
978.087	2648.59
978.387	2660.79
978.687	2640.23
978.987	2651.98
979.286	2634.58
979.586	2647.68
979.885	2611.53
980.185	2606.33
980.484	2613.11
980.784	2595.48
981.083	2562.26
981.382	2576.27
981.682	2534.69
981.981	2556.84
982.28	2541.47
982.579	2510.51
982.878	2524.07
983.177	2482.49
983.475	2486.33
983.774	2473.9
984.073	2460.12
984.372	2461.7
984.67	2438.88
984.969	2449.72
985.267	2431.42
985.566	2427.58
985.864	2401.14
986.162	2378.77
986.461	2375.15
986.759	2376.51
987.057	2345.77
987.355	2334.47
987.653	2334.02
987.951	2335.83
988.249	2290.18
988.547	2285.89
988.844	2323.4
989.142	2305.09
989.44	2285.21
989.737	2291.08
990.035	2214.25
990.332	2251.08
990.63	2247.24
990.927	2220.13
991.224	2222.84
991.521	2210.86
991.819	2195.95
992.116	2207.24
992.413	2193.91
992.71	2163.63
993.006	2151.2
993.303	2164.99
993.6	2133.12
993.897	2132.22
994.193	2131.31
994.49	2141.26
994.787	2102.39
995.083	2089.96
995.379	2074.59
995.676	2077.08
995.972	2081.82
996.268	2021.26
996.565	2041.37
996.861	2019.9
997.157	2060.36
997.453	2013.8
997.749	1987.81
998.044	1983.3
998.34	1975.61
998.636	1982.84
998.932	1977.87
999.227	1930.42
999.523	1971.32
999.818	1916.18
1000.114	1931.32
1000.409	1908.5
1000.704	1881.15
1001	1887.7
1001.295	1876.41
1001.59	1859
1001.885	1874.37
1002.18	1865.56
1002.475	1849.74
1002.77	1829.4
1003.065	1809.06
1003.359	1826.69
1003.654	1833.69
1003.949	1817.65
1004.243	1821.27
1004.538	1789.4
1004.832	1771.32
1005.127	1769.74
1005.421	1761.61
1005.715	1761.15
1006.009	1742.4
1006.304	1733.36
1006.598	1705.11
1006.892	1699.69
1007.186	1686.35
1007.48	1703.53
1007.773	1659.91
1008.067	1671.67
1008.361	1649.29
1008.655	1649.97
1008.948	1667.82
1009.242	1598.22
1009.535	1621.04
1009.829	1641.38
1010.122	1581.95
1010.415	1593.93
1010.708	1591.67
1011.001	1572.68
1011.295	1579.24
1011.588	1565.45
1011.881	1558
1012.173	1553.48
1012.466	1538.56
1012.759	1572.91
1013.052	1515.29
1013.344	1520.93
1013.637	1491.33
1013.93	1479.35
1014.222	1474.61
1014.514	1495.62
1014.807	1479.13
1015.099	1453.37
1015.391	1449.52
1015.683	1416.3
1015.976	1424.44
1016.268	1421.05
1016.56	1384.67
1016.851	1416.76
1017.143	1387.38
1017.435	1403.88
1017.727	1368.62
1018.018	1367.94
1018.31	1370.43
1018.602	1354.39
1018.893	1348.28
1019.185	1306.93
1019.476	1332.01
1019.767	1317.78
1020.058	1335.18
1020.35	1294.5
1020.641	1294.5
1020.932	1291.79
1021.223	1270.55
1021.514	1270.77
1021.804	1275.74
1022.095	1245.46
1022.386	1252.69
1022.677	1265.8
1022.967	1252.69
1023.258	1212.02
1023.548	1185.58
1023.839	1197.33
1024.129	1223.54
1024.419	1215.63
1024.709	1201.62
1025	1187.38
1025.29	1161.62
1025.58	1150.77
1025.87	1145.8
1026.16	1168.85
1026.449	1131.34
1026.739	1152.81
1027.029	1127.27
1027.319	1140.15
1027.608	1139.25
1027.898	1109.65
1028.187	1115.07
1028.477	1088.86
1028.766	1071
1029.055	1098.57
1029.344	1106.71
1029.634	1050.66
1029.923	1085.69
1030.212	1040.5
1030.501	1040.04
1030.79	1040.95
1031.078	1028.74
1031.367	1047.05
1031.656	1021.06
1031.945	1007.05
1032.233	1013.6
1032.522	998.24
1032.81	997.78
1033.099	993.94
1033.387	987.39
1033.675	985.36
1033.963	993.72
1034.251	960.27
1034.54	949.65
1034.828	951.01
1035.116	939.71
1035.403	949.2
1035.691	928.41
1035.979	930.44
1036.267	933.38
1036.554	927.05
1036.842	918.92
1037.129	920.05
1037.417	890.67
1037.704	887.28
1037.992	894.28
1038.279	903.32
1038.566	903.32
1038.853	903.32
1039.14	903.32
