Data from hue_200_FLMS001491_00019.txt Node
Date: Tue Feb 07 16:42:54 GMT 2017
User: dcchb
Spectrometer: FLMS00149
Trigger mode: 0
Integration Time (sec): 2.000000E-2
Scans to average: 10
Electric dark correction enabled: true
Nonlinearity correction enabled: false
Boxcar width: 0
XAxis mode: Wavelengths
Number of Pixels in Spectrum: 2048
>>>>>Begin Spectral Data<<<<<
341.393	-7.68
341.776	-7.68
342.16	-7.68
342.543	-61.92
342.927	-60.34
343.31	-69.6
343.693	-72.77
344.077	-74.35
344.46	-46.78
344.843	-58.98
345.226	-46.78
345.61	-24.18
345.993	-25.54
346.376	-4.97
346.759	27.8
347.142	14.69
347.525	37.97
347.908	71.64
348.291	82.48
348.674	82.03
349.057	107.34
349.44	135.36
349.823	164.74
350.206	172.2
350.588	192.54
350.971	194.57
351.354	237.51
351.737	227.79
352.119	255.59
352.502	265.08
352.884	277.05
353.267	306.43
353.65	286.32
354.032	286.77
354.414	305.75
354.797	319.54
355.179	320.67
355.562	317.05
355.944	324.29
356.326	319.31
356.709	338.3
357.091	326.77
357.473	344.62
357.855	335.13
358.238	356.37
358.62	349.82
359.002	338.52
359.384	341.46
359.766	343.49
360.148	341.91
360.53	350.95
360.912	323.83
361.294	328.35
361.676	331.29
362.057	331.06
362.439	333.1
362.821	317.28
363.203	333.1
363.584	324.29
363.966	307.56
364.348	327.22
364.729	320.67
365.111	332.87
365.493	329.48
365.874	315.25
366.256	319.31
366.637	318.64
367.019	317.28
367.4	304.62
367.781	305.75
368.163	330.16
368.544	324.51
368.925	316.6
369.306	334.45
369.688	331.06
370.069	301.46
370.45	290.39
370.831	309.14
371.212	324.29
371.593	310.5
371.974	324.51
372.355	314.12
372.736	329.26
373.117	314.34
373.498	334.23
373.879	313.44
374.26	312.53
374.641	325.64
375.021	326.55
375.402	334.91
375.783	316.38
376.163	310.05
376.544	329.93
376.925	326.55
377.305	328.8
377.686	335.81
378.066	329.93
378.447	334
378.827	332.19
379.208	329.93
379.588	321.35
379.968	324.06
380.349	333.32
380.729	350.73
381.109	349.82
381.489	323.16
381.87	348.47
382.25	343.27
382.63	335.13
383.01	337.39
383.39	350.95
383.77	350.73
384.15	339.88
384.53	342.14
384.91	355.92
385.29	359.76
385.67	350.73
386.049	372.65
386.429	338.07
386.809	366.09
387.189	326.55
387.568	351.4
387.948	367.22
388.328	364.96
388.707	356.15
389.087	355.92
389.466	365.87
389.846	359.31
390.225	375.36
390.605	378.75
390.984	393.66
391.363	356.6
391.743	383.04
392.122	370.61
392.501	374.68
392.881	366.09
393.26	385.53
393.639	350.95
394.018	387.56
394.397	397.5
394.776	379.88
395.155	391.18
395.534	376.71
395.913	392.31
396.292	392.76
396.671	392.53
397.05	410.84
397.429	406.54
397.808	403.83
398.186	398.41
398.565	407.45
398.944	393.66
399.323	427.79
399.701	396.83
400.08	421.68
400.458	429.59
400.837	435.47
401.215	420.33
401.594	435.92
401.972	426.2
402.351	430.27
402.729	416.71
403.107	425.53
403.486	438.18
403.864	438.18
404.242	444.28
404.62	442.93
404.999	446.32
405.377	474.34
405.755	440.21
406.133	463.04
406.511	473.66
406.889	485.18
407.267	476.37
407.645	487.9
408.023	504.85
408.401	498.74
408.779	496.48
409.156	507.56
409.534	521.79
409.912	526.31
410.29	543.71
410.667	546.65
411.045	559.99
411.422	551.85
411.8	547.78
412.178	548.69
412.555	576.71
412.933	581.68
413.31	595.01
413.687	609.25
414.065	614.45
414.442	618.06
414.819	649.02
415.197	647.21
415.574	635.01
415.951	670.72
416.328	666.65
416.705	692.41
417.082	674.11
417.46	682.69
417.837	726.08
418.214	735.12
418.591	722.47
418.967	752.3
419.344	733.09
419.721	771.73
420.098	752.97
420.475	783.93
420.852	777.15
421.228	804.72
421.605	814.89
421.982	834.1
422.358	836.14
422.735	843.59
423.111	891.05
423.488	877.72
423.864	909.35
424.241	940.31
424.617	953.42
424.994	943.48
425.37	972.63
425.746	967.66
426.123	983.93
426.499	1006.75
426.875	1051.05
427.251	1028.45
427.627	1048.56
428.003	1064.6
428.379	1064.38
428.756	1063.93
429.132	1081.78
429.507	1129.01
429.883	1144.83
430.259	1171.27
430.635	1143.02
431.011	1145.73
431.387	1193.41
431.763	1209.23
432.138	1240.19
432.514	1248.1
432.89	1295.79
433.265	1302.11
433.641	1313.86
434.016	1334.2
434.392	1353.64
434.767	1394.77
435.143	1414.2
435.518	1418.72
435.894	1457.59
436.269	1470.47
436.644	1543.46
437.02	1512.5
437.395	1557.7
437.77	1600.64
438.145	1603.8
438.52	1630.47
438.895	1657.13
439.271	1676.57
439.646	1700.52
440.021	1765.38
440.395	1752.95
440.77	1742.1
441.145	1801.99
441.52	1844.7
441.895	1869.33
442.27	1863.68
442.645	1878.59
443.019	1940.51
443.394	1945.49
443.769	1956.78
444.143	1987.07
444.518	2004.92
444.892	2025.03
445.267	2052.83
445.641	2048.53
446.016	2079.49
446.39	2095.99
446.764	2100.51
447.139	2091.47
447.513	2114.52
447.887	2185.93
448.262	2162.2
448.636	2187.74
449.01	2201.3
449.384	2245.59
449.758	2237.91
450.132	2289.21
450.506	2244.01
450.88	2319.71
451.254	2318.13
451.628	2378.02
452.002	2360.39
452.376	2409.2
452.75	2417.11
453.123	2439.94
453.497	2466.38
453.871	2481.74
454.244	2561.74
454.618	2539.14
454.992	2594.96
455.365	2582.98
455.739	2675.41
456.112	2680.38
456.486	2674.28
456.859	2728.29
457.232	2744.11
457.606	2763.77
457.979	2815.07
458.352	2841.96
458.725	2912.47
459.099	2912.24
459.472	2938.45
459.845	3003.31
460.218	2968.28
460.591	3071.11
460.964	3038.56
461.337	3092.12
461.71	3178.22
462.083	3177.09
462.456	3248.28
462.829	3229.52
463.201	3274.49
463.574	3308.16
463.947	3364.43
464.32	3394.94
464.692	3441.49
465.065	3457.76
465.438	3510.64
465.81	3578.44
466.183	3592.9
466.555	3704.76
466.928	3696.85
467.3	3708.15
467.672	3752.67
468.045	3812.1
468.417	3822.05
468.789	3882.38
469.161	3983.4
469.534	4012.78
469.906	4053.45
470.278	4046.45
470.65	4160.34
471.022	4205.99
471.394	4306.78
471.766	4304.07
472.138	4331.64
472.51	4420.67
472.882	4503.61
473.253	4549.48
473.625	4620.67
473.997	4668.13
474.369	4714.68
474.74	4797.61
475.112	4863.37
475.484	4932.98
475.855	5044.16
476.227	5017.04
476.598	5177.04
476.97	5235.34
477.341	5289.58
477.713	5389.46
478.084	5391.04
478.455	5559.18
478.827	5582.23
479.198	5767.98
479.569	5789.9
479.94	5882.56
480.311	5895.66
480.682	5981.99
481.053	6176.56
481.424	6276.67
481.795	6294.52
482.166	6292.94
482.537	6474.86
482.908	6629.88
483.279	6626.49
483.65	6781.52
484.021	6889.76
484.391	6952.81
484.762	7007.05
485.133	7007.5
485.503	7111.45
485.874	7221.28
486.244	7307.38
486.615	7432.12
486.985	7541.04
487.356	7605.45
487.726	7674.83
488.097	7819.91
488.467	7859.23
488.837	7981.49
489.207	8097.87
489.578	8192.1
489.948	8257.86
490.318	8323.4
490.688	8324.3
491.058	8492.66
491.428	8561.81
491.798	8597.74
492.168	8784.63
492.538	8767
492.908	8895.81
493.278	8999.54
493.648	8975.81
494.017	9069.82
494.387	9132.87
494.757	9229.14
495.126	9260.77
495.496	9331.28
495.866	9310.26
496.235	9349.13
496.605	9453.76
496.974	9526.08
497.344	9526.76
497.713	9642.23
498.082	9672.06
498.452	9754.55
498.821	9702.8
499.19	9750.25
499.559	9854.66
499.928	9896.01
500.298	9875.67
500.667	9984.14
501.036	9954.54
501.405	9984.82
501.774	9998.61
502.143	10169.45
502.512	10113.41
502.88	10217.58
503.249	10152.95
503.618	10263.91
503.987	10225.72
504.356	10269.11
504.724	10295.55
505.093	10338.71
505.462	10341.2
505.83	10334.87
506.199	10427.52
506.567	10541.87
506.936	10432.04
507.304	10643.56
507.672	10514.53
508.041	10598.14
508.409	10621.19
508.777	10700.28
509.145	10787.06
509.514	10741.86
509.882	10766.5
510.25	10807.4
510.618	10825.93
510.986	10813.73
511.354	10859.38
511.722	10867.28
512.09	11015.98
512.458	10901.63
512.826	10976.66
513.193	10896.21
513.561	10957.45
513.929	11048.52
514.297	11070.9
514.664	11146.6
515.032	11135.3
515.4	11222.98
515.767	11180.72
516.135	11177.56
516.502	11112.48
516.869	11258.24
517.237	11248.29
517.604	11166.94
517.972	11191.57
518.339	11296.65
518.706	11205.81
519.073	11174.4
519.44	11216.2
519.808	11289.19
520.175	11179.37
520.542	11381.85
520.909	11386.14
521.276	11290.32
521.643	11340.27
522.009	11346.82
522.376	11471.79
522.743	11410.32
523.11	11488.74
523.477	11380.94
523.843	11432.02
524.21	11479.92
524.577	11549.07
524.943	11543.2
525.31	11539.13
525.676	11605.57
526.043	11609.19
526.409	11610.32
526.776	11660.03
527.142	11587.72
527.508	11616.19
527.874	11704.55
528.241	11643.31
528.607	11621.39
528.973	11634.04
529.339	11554.95
529.705	11651.9
530.071	11655.51
530.437	11645.8
530.803	11654.16
531.169	11615.29
531.535	11486.93
531.901	11562.41
532.267	11555.85
532.632	11492.81
532.998	11444.44
533.364	11485.12
533.73	11498.23
534.095	11495.52
534.461	11434.28
534.826	11495.74
535.192	11450.55
535.557	11415.52
535.923	11369.64
536.288	11315.63
536.653	11298.69
537.019	11226.15
537.384	11210.55
537.749	11192.93
538.114	11123.32
538.479	11076.54
538.845	11091.01
539.21	11034.96
539.575	11006.72
539.94	10907.06
540.305	10935.76
540.67	10881.75
541.034	10810.34
541.399	10834.07
541.764	10826.61
542.129	10767.4
542.494	10760.85
542.858	10697.12
543.223	10631.13
543.587	10590.46
543.952	10512.49
544.316	10518.59
544.681	10442.66
545.045	10429.56
545.41	10413.29
545.774	10378.71
546.138	10354.08
546.503	10259.62
546.867	10296.68
547.231	10264.14
547.595	10266.85
547.959	10174.42
548.324	10110.47
548.688	10089.68
549.052	10070.92
549.416	10014.88
549.779	9958.83
550.143	9907.31
550.507	9910.02
550.871	9907.08
551.235	9850.59
551.599	9843.58
551.962	9776.47
552.326	9757.26
552.689	9746.86
553.053	9669.8
553.417	9617.6
553.78	9645.85
554.143	9624.83
554.507	9655.11
554.87	9523.82
555.234	9585.06
555.597	9511.39
555.96	9511.16
556.323	9479.3
556.686	9404.27
557.05	9398.4
557.413	9355.69
557.776	9352.97
558.139	9378.96
558.502	9345.97
558.865	9355.23
559.228	9341.22
559.59	9323.82
559.953	9335.12
560.316	9310.04
560.679	9205.41
561.041	9242.47
561.404	9244.28
561.767	9245.86
562.129	9200.66
562.492	9294.44
562.854	9243.37
563.217	9231.62
563.579	9218.06
563.941	9147.1
564.304	9236.14
564.666	9210.83
565.028	9258.06
565.39	9159.53
565.753	9180.32
566.115	9152.08
566.477	9188.46
566.839	9241.56
567.201	9194.79
567.563	9218.06
567.925	9216.03
568.287	9161.57
568.648	9168.35
569.01	9204.5
569.372	9296.48
569.734	9162.7
570.095	9184.39
570.457	9236.14
570.819	9237.27
571.18	9192.53
571.542	9256.93
571.903	9180.1
572.265	9262.81
572.626	9202.7
572.987	9300.55
573.349	9286.08
573.71	9199.76
574.071	9273.43
574.432	9238.85
574.794	9296.48
575.155	9280.21
575.516	9273.88
575.877	9271.17
576.238	9225.97
576.599	9272.75
576.96	9330.38
577.32	9218.74
577.681	9316.37
578.042	9313.2
578.403	9238.63
578.763	9241.11
579.124	9277.27
579.485	9342.35
579.845	9228.23
580.206	9283.82
580.566	9328.34
580.927	9246.31
581.287	9319.08
581.648	9253.09
582.008	9260.1
582.368	9248.57
582.728	9262.81
583.089	9237.5
583.449	9269.36
583.809	9177.39
584.169	9232.98
584.529	9265.75
584.889	9318.85
585.249	9197.72
585.609	9132.42
585.969	9251.51
586.329	9178.29
586.688	9174.9
587.048	9133.32
587.408	9184.84
587.768	9145.52
588.127	9137.84
588.487	9182.36
588.846	9238.85
589.206	9111.85
589.565	9150.95
589.925	9175.8
590.284	9130.38
590.643	9112.53
591.003	9122.25
591.362	9129.03
591.721	9117.27
592.08	9072.98
592.44	9067.11
592.799	9126.31
593.158	9077.05
593.517	9026.88
593.876	9105.98
594.235	9081.12
594.593	9080.21
594.952	9073.21
595.311	9014.9
595.67	9050.84
596.029	9066.2
596.387	9117.5
596.746	9071.85
597.104	8994.57
597.463	9032.98
597.822	9047.45
598.18	8962.25
598.538	8961.35
598.897	9052.42
599.255	8945.53
599.613	9002.7
599.972	9012.87
600.33	9086.99
600.688	9002.93
601.046	9034.11
601.404	9008.35
601.762	9007.45
602.12	9041.34
602.478	9050.38
602.836	9085.86
603.194	8952.08
603.552	8992.98
603.91	8933.55
604.268	8998.41
604.625	8914.57
604.983	9059.65
605.341	8939.2
605.698	8990.72
606.056	8988.24
606.413	8979.65
606.771	9009.25
607.128	8922.93
607.485	8995.92
607.843	8939.88
608.2	8981.68
608.557	9008.12
608.914	9045.41
609.272	9105.07
609.629	9031.4
609.986	9138.52
610.343	9025.53
610.7	9023.94
611.057	9067.33
611.414	9030.05
611.771	9056.71
612.127	9021.23
612.484	9115.24
612.841	9150.72
613.198	9094.22
613.554	9087.22
613.911	9112.75
614.267	9115.69
614.624	9105.98
614.98	9102.59
615.337	9117.73
615.693	9108.46
616.05	9091.51
616.406	9162.47
616.762	9128.8
617.118	9102.81
617.475	9174.9
617.831	9190.94
618.187	9218.06
618.543	9166.76
618.899	9203.37
619.255	9185.97
619.611	9198.4
619.967	9260.1
620.323	9263.94
620.678	9163.37
621.034	9145.07
621.39	9152.53
621.746	9110.95
622.101	9189.81
622.457	9182.13
622.812	9133.77
623.168	9222.36
623.523	9182.58
623.879	9242.24
624.234	9188.23
624.589	9154.79
624.945	9182.81
625.3	9188.91
625.655	9150.95
626.01	9176.93
626.365	9137.61
626.72	9166.31
627.075	9141.23
627.43	9160.66
627.785	9084.96
628.14	9199.31
628.495	9159.08
628.85	9154.11
629.205	9188.01
629.559	9164.28
629.914	9167.89
630.269	9139.19
630.623	9131.51
630.978	9072.53
631.332	9106.43
631.687	9104.17
632.041	9061.46
632.396	9032.53
632.75	9019.88
633.104	8999.09
633.459	9024.85
633.813	9004.73
634.167	9015.36
634.521	9004.28
634.875	8961.8
635.229	8955.02
635.583	8910.27
635.937	8887
636.291	8905.08
636.645	8872.31
636.999	8849.71
637.352	8863.95
637.706	8807.9
638.06	8893.1
638.413	8878.86
638.767	8872.31
639.121	8843.61
639.474	8763.16
639.828	8737.85
640.181	8861.69
640.534	8858.52
640.888	8818.53
641.241	8771.07
641.594	8776.72
641.947	8800.45
642.301	8767.68
642.654	8710.96
643.007	8769.94
643.36	8721.35
643.713	8709.38
644.066	8755.93
644.419	8646.78
644.771	8622.6
645.124	8591.64
645.477	8517.74
645.83	8494.47
646.182	8436.16
646.535	8450.4
646.888	8405.65
647.24	8361.14
647.593	8453.56
647.945	8438.87
648.298	8412.21
648.65	8416.05
649.002	8323.4
649.355	8417.63
649.707	8387.8
650.059	8506.89
650.411	8544.86
650.763	8538.98
651.115	8608.14
651.467	8673.67
651.819	8643.61
652.171	8583.96
652.523	8627.34
652.875	8662.37
653.227	8551.19
653.578	8650.17
653.93	8643.16
654.282	8568.14
654.633	8609.04
654.985	8618.76
655.337	8635.48
655.688	8618.08
656.039	8637.29
656.391	8605.65
656.742	8539.44
657.094	8557.29
657.445	8623.5
657.796	8623.28
658.147	8622.15
658.498	8631.19
658.849	8595.71
659.2	8599.32
659.551	8585.08
659.902	8642.03
660.253	8689.49
660.604	8661.47
660.955	8608.59
661.306	8653.78
661.656	8692.65
662.007	8694.46
662.358	8732.2
662.708	8698.3
663.059	8696.49
663.409	8657.17
663.76	8663.05
664.11	8740.34
664.461	8672.09
664.811	8707.34
665.161	8680.45
665.511	8704.86
665.862	8697.17
666.212	8693.78
666.562	8727.68
666.912	8670.51
667.262	8753.44
667.612	8695.36
667.962	8765.87
668.312	8667.12
668.662	8696.04
669.011	8710.05
669.361	8744.4
669.711	8731.75
670.06	8716.16
670.41	8636.16
670.76	8631.64
671.109	8670.73
671.459	8716.38
671.808	8662.15
672.157	8676.61
672.507	8591.19
672.856	8656.5
673.205	8598.19
673.554	8629.83
673.904	8558.87
674.253	8703.95
674.602	8660.34
674.951	8456.5
675.3	8483.39
675.649	8590.28
675.998	8511.19
676.346	8608.14
676.695	8623.5
677.044	8539.21
677.393	8571.3
677.741	8584.18
678.09	8497.86
678.438	8528.14
678.787	8483.39
679.135	8503.73
679.484	8402.04
679.832	8449.72
680.181	8426.22
680.529	8411.08
680.877	8392.1
681.225	8395.26
681.573	8475.48
681.922	8353.45
682.27	8380.34
682.618	8341.93
682.966	8311.87
683.314	8366.56
683.661	8302.38
684.009	8266.22
684.357	8265.09
684.705	8235.49
685.053	8226.68
685.4	8286.11
685.748	8127.7
686.095	8122.72
686.443	8122.5
686.79	8098.09
687.138	8171.76
687.485	8144.87
687.832	8081.6
688.18	8160.46
688.527	8075.27
688.874	8016.96
689.221	7980.36
689.568	7931.54
689.915	7961.6
690.262	7933.35
690.609	7891.09
690.956	7836.63
691.303	7856.97
691.65	7809.29
691.997	7786.01
692.344	7749.17
692.69	7753.92
693.037	7716.41
693.383	7654.94
693.73	7674.6
694.077	7622.62
694.423	7570.87
694.769	7615.17
695.116	7572.23
695.462	7544.21
695.808	7502.85
696.155	7509.18
696.501	7439.58
696.847	7421.73
697.193	7393.03
697.539	7357.55
697.885	7368.62
698.231	7298.79
698.577	7279.36
698.923	7295.4
699.269	7263.31
699.614	7180.15
699.96	7118.91
700.306	7217.89
700.651	7156.65
700.997	7069.64
701.342	7113.49
701.688	7120.72
702.033	7079.81
702.379	7055.63
702.724	6945.35
703.069	6935.18
703.415	6931.8
703.76	6860.38
704.105	6854.96
704.45	6887.95
704.795	6847.96
705.14	6741.52
705.485	6803.44
705.83	6749.2
706.175	6793.27
706.52	6789.2
706.865	6757.79
707.209	6677.34
707.554	6693.16
707.899	6693.16
708.243	6631.92
708.588	6610.67
708.932	6588.98
709.277	6553.05
709.621	6559.83
709.966	6540.17
710.31	6595.31
710.654	6523.9
710.998	6490.45
711.342	6467.4
711.687	6498.81
712.031	6475.54
712.375	6393.05
712.719	6403.67
713.063	6412.26
713.407	6420.62
713.75	6426.5
714.094	6378.59
714.438	6383.79
714.782	6393.05
715.125	6317.12
715.469	6336.33
715.812	6307.18
716.156	6274.64
716.499	6238.93
716.843	6266.95
717.186	6243
717.53	6215.2
717.873	6276.9
718.216	6228.99
718.559	6221.53
718.902	6186.73
719.246	6177.92
719.589	6141.53
719.932	6155.77
720.275	6121.42
720.617	6144.7
720.96	6104.02
721.303	6138.14
721.646	6096.11
721.989	6125.04
722.331	6115.32
722.674	6123.91
723.016	6159.61
723.359	6113.51
723.701	6083.68
724.044	6123.68
724.386	6060.63
724.729	6148.31
725.071	6111.03
725.413	6105.38
725.755	6085.49
726.097	6068.77
726.439	6033.29
726.782	6012.27
727.124	6069.67
727.465	6036
727.807	6015.44
728.149	6075.09
728.491	6061.31
728.833	6104.47
729.175	6027.86
729.516	6078.03
729.858	6025.6
730.199	6042.33
730.541	5996.68
730.882	6012.27
731.224	6047.07
731.565	5980.86
731.906	6022.21
732.248	5978.37
732.589	6005.49
732.93	6023.57
733.271	5974.76
733.612	6008.88
733.953	6014.31
734.294	6010.46
734.635	5999.16
734.976	6001.42
735.317	6018.15
735.658	5975.66
735.999	6024.47
736.339	6043.91
736.68	6090.24
737.021	6069.67
737.361	6090.24
737.702	6028.54
738.042	6049.33
738.383	6050.91
738.723	6023.34
739.063	6008.2
739.404	6103.12
739.744	6072.83
740.084	6105.15
740.424	6092.27
740.764	6052.04
741.104	6147.63
741.444	6121.42
741.784	6158.71
742.124	6130.46
742.464	6196.9
742.804	6182.21
743.143	6198.03
743.483	6235.54
743.823	6247.29
744.162	6291.81
744.502	6339.95
744.841	6323
745.181	6379.95
745.52	6426.27
745.86	6447.06
746.199	6473.5
746.538	6480.06
746.877	6536.78
747.216	6578.36
747.556	6601.86
747.895	6716.43
748.234	6727.73
748.573	6726.83
748.911	6826.49
749.25	6847.5
749.589	6955.98
749.928	6979.03
750.267	7081.62
750.605	7140.15
750.944	7154.61
751.283	7290.88
751.621	7378.79
751.96	7466.24
752.298	7502.63
752.636	7623.53
752.975	7736.52
753.313	7743.98
753.651	7862.62
753.989	7955.72
754.327	8161.14
754.666	8208.82
755.004	8320.23
755.342	8472.09
755.679	8613.56
756.017	8696.72
756.355	8768.13
756.693	8942.36
757.031	9066.2
757.368	9242.24
757.706	9372.63
758.044	9571.73
758.381	9638.16
758.719	9806.97
759.056	10004.03
759.394	10171.03
759.731	10257.36
760.068	10387.07
760.405	10486.28
760.743	10689.66
761.08	10935.53
761.417	11050.33
761.754	11234.28
762.091	11369.87
762.428	11639.92
762.765	11802.4
763.102	11942.74
763.438	12083.07
763.775	12254.37
764.112	12462.95
764.449	12633.79
764.785	12809.83
765.122	12886.21
765.458	13012.99
765.795	13230.16
766.131	13494.56
766.467	13509.25
766.804	13710.6
767.14	13831.5
767.476	13940.42
767.812	14091.38
768.148	14271.72
768.485	14343.13
768.821	14383.12
769.157	14699.5
769.492	14735.21
769.828	14793.28
770.164	14932.26
770.5	15059.04
770.836	15238.02
771.171	15310.11
771.507	15387.84
771.842	15432.81
772.178	15648.63
772.513	15684.56
772.849	15790.55
773.184	15866.48
773.519	15942.41
773.855	16051.33
774.19	16146.24
774.525	16115.73
774.86	16292.23
775.195	16301.04
775.53	16390.76
775.865	16310.31
776.2	16455.61
776.535	16447.48
776.87	16503.97
777.205	16581.26
777.539	16600.47
777.874	16766.56
778.209	16725.66
778.543	16743.29
778.878	16707.36
779.212	16828.26
779.547	16819.67
779.881	16952.77
780.215	16859.22
780.55	16980.12
780.884	16955.49
781.218	16996.39
781.552	16989.61
781.886	17022.83
782.22	16973.79
782.554	16968.59
782.888	16958.65
783.222	16949.38
783.556	16988.25
783.889	16931.53
784.223	16757.07
784.557	16883.4
784.89	17028.25
785.224	17010.85
785.557	16985.77
785.891	16887.47
786.224	16902.38
786.558	16988.25
786.891	16866.22
787.224	16738.77
787.557	16828.03
787.891	16833.68
788.224	16838.65
788.557	16847.01
788.89	16823.74
789.223	16875.26
789.556	16777.19
789.888	16809.05
790.221	16787.13
790.554	16584.2
790.887	16625.55
791.219	16708.04
791.552	16667.58
791.884	16543.52
792.217	16676.85
792.549	16653.12
792.882	16509.4
793.214	16356.63
793.546	16502.39
793.879	16405.9
794.211	16339.23
794.543	16439.57
794.875	16373.81
795.207	16415.61
795.539	16268.72
795.871	16321.15
796.203	16200.93
796.535	16118.22
796.867	16131.1
797.198	16102.63
797.53	16203.64
797.862	16078
798.193	16049.97
798.525	16002.52
798.856	16017.21
799.188	15849.98
799.519	15885.46
799.85	15753.94
800.182	15781.73
800.513	15855.4
800.844	15629.42
801.175	15723.65
801.506	15677.33
801.837	15609.31
802.168	15646.37
802.499	15593.94
802.83	15546.94
803.161	15485.24
803.491	15555.98
803.822	15551.46
804.153	15413.38
804.483	15344.68
804.814	15259.49
805.145	15294.97
805.475	15268.75
805.805	15245.93
806.136	15271.01
806.466	15210.45
806.796	15118.02
807.126	15079.38
807.457	14939.04
807.787	15083.9
808.117	14998.48
808.447	14945.6
808.777	15112.6
809.107	14915.31
809.436	14906.95
809.766	14802.77
810.096	14824.24
810.426	14814.07
810.755	14680.07
811.085	14783.57
811.414	14826.95
811.744	14666.73
812.073	14533.63
812.403	14572.05
812.732	14564.36
813.061	14506.51
813.39	14433.74
813.719	14508.77
814.049	14576.11
814.378	14477.59
814.707	14382.9
815.036	14385.16
815.365	14393.07
815.693	14196.69
816.022	14308.78
816.351	14300.41
816.68	14139.74
817.008	14233.75
817.337	14137.93
817.665	14128.89
817.994	14095
818.322	14127.76
818.651	14014.09
818.979	14037.15
819.307	14104.26
819.636	13974.1
819.964	13928.22
820.292	14034.21
820.62	13993.98
820.948	13950.59
821.276	14030.14
821.604	13943.81
821.932	13933.64
822.259	14007.77
822.587	13988.56
822.915	13851.16
823.243	13949.24
823.57	13931.61
823.898	13932.06
824.225	13899.52
824.553	13993.3
824.88	13937.49
825.207	13864.72
825.535	13903.82
825.862	13969.12
826.189	13901.78
826.516	13890.48
826.843	13964.83
827.17	14016.58
827.497	13975.45
827.824	14058.61
828.151	14067.43
828.478	13975
828.805	14094.77
829.131	13986.98
829.458	13935
829.785	13909.92
830.111	13936.36
830.438	13978.39
830.764	13939.29
831.09	14034.21
831.417	13929.35
831.743	13994.21
832.069	13983.59
832.395	13955.11
832.722	13918.05
833.048	13997.15
833.374	13926.64
833.7	13837.83
834.026	13891.16
834.351	13977.26
834.677	13856.13
835.003	13882.12
835.329	13873.08
835.654	13887.77
835.98	13765.29
836.306	13792.86
836.631	13778.62
836.956	13832.18
837.282	13833.99
837.607	13736.81
837.932	13731.39
838.258	13701.79
838.583	13684.61
838.908	13647.1
839.233	13568.23
839.558	13615.24
839.883	13554.9
840.208	13464.73
840.533	13508.12
840.858	13619.98
841.182	13562.13
841.507	13520.77
841.832	13439.19
842.156	13482.36
842.481	13402.13
842.805	13311.97
843.13	13338.41
843.454	13351.06
843.778	13283.72
844.103	13258.18
844.427	13243.27
844.751	13234.45
845.075	13215.7
845.399	13155.36
845.723	13089.83
846.047	13005.76
846.371	13013.44
846.695	12946.1
847.019	12821.13
847.343	12840.11
847.666	12755.6
847.99	12715.37
848.313	12677.18
848.637	12600.12
848.96	12555.83
849.284	12566
849.607	12445.32
849.931	12404.65
850.254	12363.52
850.577	12316.29
850.9	12172.34
851.223	12236.06
851.546	12095.05
851.869	12132.79
852.192	12082.62
852.515	11973.02
852.838	11915.84
853.161	12054.37
853.483	11882.4
853.806	11835.85
854.129	11849.18
854.451	11773.25
854.774	11746.58
855.096	11720.6
855.419	11643.08
855.741	11654.61
856.063	11585.46
856.385	11552.92
856.708	11501.62
857.03	11488.96
857.352	11472.47
857.674	11448.29
857.996	11472.01
858.318	11314.28
858.64	11358.35
858.961	11254.85
859.283	11249.42
859.605	11184.11
859.926	11250.1
860.248	11188.86
860.57	11139.59
860.891	11141.63
861.212	11103.21
861.534	10985.02
861.855	11079.93
862.176	11063.66
862.498	11109.54
862.819	11034.29
863.14	10968.07
863.461	10994.06
863.782	10886.49
864.103	10933.5
864.424	10834.29
864.745	10804.46
865.065	10757.23
865.386	10849.21
865.707	10835.65
866.027	10773.5
866.348	10823.22
866.668	10719.27
866.989	10773.5
867.309	10672.49
867.63	10764.91
867.95	10692.37
868.27	10679.04
868.59	10658.93
868.91	10616.22
869.23	10616.22
869.55	10558.82
869.87	10603.79
870.19	10585.48
870.51	10547.07
870.83	10615.09
871.15	10495.54
871.469	10486.05
871.789	10524.47
872.109	10568.08
872.428	10445.15
872.748	10484.47
873.067	10369.67
873.386	10462.1
873.706	10381.65
874.025	10371.48
874.344	10291.25
874.663	10292.38
874.982	10277.7
875.301	10375.77
875.62	10275.89
875.939	10273.63
876.258	10259.84
876.577	10240.63
876.896	10208.09
877.214	10234.53
877.533	10212.84
877.852	10219.17
878.17	10126.06
878.489	10135.1
878.807	10084.71
879.125	10093.75
879.444	10049
879.762	10111.37
880.08	9990.02
880.398	10030.92
880.716	9936.46
881.034	10023.92
881.352	10036.57
881.67	9878.16
881.988	9930.59
882.306	9906.86
882.624	9875.45
882.941	9777.6
883.259	9787.77
883.577	9737.82
883.894	9818.27
884.212	9755.45
884.529	9765.62
884.846	9704.6
885.164	9626.64
885.481	9678.16
885.798	9644.49
886.115	9612.85
886.432	9636.81
886.75	9612.63
887.067	9526.53
887.383	9543.93
887.7	9569.24
888.017	9487.89
888.334	9538.28
888.651	9433.65
888.967	9432.97
889.284	9379.41
889.6	9310.72
889.917	9288.34
890.233	9318.17
890.55	9295.12
890.866	9335.12
891.182	9140.1
891.498	9189.36
891.815	9216.93
892.131	9175.13
892.447	9129.7
892.763	9054
893.079	9078.18
893.395	9054.23
893.71	9049.25
894.026	8984.85
894.342	8979.65
894.657	8867.34
894.973	8917.28
895.289	8902.36
895.604	8832.99
895.92	8800.67
896.235	8777.17
896.55	8737.17
896.865	8775.59
897.181	8744.18
897.496	8696.27
897.811	8620.34
898.126	8617.85
898.441	8614.69
898.756	8596.84
899.071	8515.93
899.386	8497.18
899.7	8457.63
900.015	8447.24
900.33	8384.64
900.644	8307.13
900.959	8311.65
901.273	8310.06
901.588	8235.26
901.902	8222.61
902.216	8184.42
902.531	8191.2
902.845	8126.57
903.159	8078.21
903.473	8079.11
903.787	8054.48
904.101	8018.55
904.415	7971.77
904.729	7992.11
905.042	7960.02
905.356	7903.97
905.67	7912.79
905.984	7859.23
906.297	7842.28
906.611	7727.93
906.924	7731.1
907.237	7756.41
907.551	7721.6
907.864	7617.2
908.177	7627.6
908.491	7586.02
908.804	7563.42
909.117	7534.04
909.43	7524.77
909.743	7450.2
910.056	7455.85
910.368	7403.42
910.681	7376.53
910.994	7405.23
911.307	7313.71
911.619	7299.02
911.932	7260.83
912.244	7215.86
912.557	7251.79
912.869	7160.26
913.181	7099.93
913.494	7131.79
913.806	7089.08
914.118	7038.23
914.43	6993.04
914.742	7069.42
915.054	6954.17
915.366	6994.84
915.678	6902.19
915.99	6914.85
916.302	6858.58
916.613	6818.35
916.925	6775.64
917.236	6719.82
917.548	6754.4
917.859	6740.39
918.171	6671.46
918.482	6644.35
918.794	6650.67
919.105	6609.09
919.416	6541.75
919.727	6556.21
920.038	6561.18
920.349	6485.25
920.66	6439.6
920.971	6492.94
921.282	6435.76
921.593	6384.46
921.903	6333.17
922.214	6349.89
922.525	6385.59
922.835	6297.91
923.146	6266.05
923.456	6290.91
923.767	6225.6
924.077	6144.7
924.387	6194.64
924.697	6160.06
925.008	6143.79
925.318	6081.65
925.628	6087.98
925.938	6079.61
926.248	5972.05
926.558	5975.21
926.867	5980.63
927.177	5989.22
927.487	5935.89
927.796	5828.77
928.106	5876.46
928.416	5826.06
928.725	5840.75
929.034	5751.94
929.344	5755.33
929.653	5744.26
929.962	5687.08
930.271	5679.4
930.581	5689.12
930.89	5690.25
931.199	5624.03
931.508	5654.31
931.817	5610.47
932.125	5574.77
932.434	5538.39
932.743	5480.31
933.051	5516.24
933.36	5493.64
933.669	5426.98
933.977	5454.09
934.286	5422.46
934.594	5409.35
934.902	5386.53
935.21	5347.88
935.519	5388.33
935.827	5323.25
936.135	5274.44
936.443	5238.73
936.751	5265.85
937.059	5256.13
937.367	5210.94
937.674	5193.31
937.982	5146.08
938.29	5125.51
938.597	5175.46
938.905	5055.01
939.213	5067.89
939.52	5024.27
939.827	5040.77
940.135	5035.57
940.442	5019.76
940.749	4979.76
941.056	4985.63
941.363	4878.74
941.67	4918.29
941.977	4847.1
942.284	4873.09
942.591	4847.1
942.898	4848.69
943.205	4822.25
943.511	4810.49
943.818	4790.83
944.125	4667.45
944.431	4734.34
944.738	4730.72
945.044	4680.33
945.35	4598.3
945.657	4582.03
945.963	4629.93
946.269	4601.91
946.575	4590.16
946.881	4572.54
947.187	4532.99
947.493	4525.76
947.799	4478.98
948.105	4514.91
948.41	4429.04
948.716	4449.6
949.022	4401.69
949.327	4395.82
949.633	4355.14
949.938	4357.85
950.244	4376.61
950.549	4366.21
950.854	4284.18
951.16	4344.29
951.465	4300.68
951.77	4290.06
952.075	4244.63
952.38	4238.76
952.685	4194.24
952.99	4120.8
953.294	4165.09
953.599	4142.04
953.904	4124.19
954.209	4111.53
954.513	4059.78
954.818	4079.21
955.122	4034.92
955.426	4048.48
955.731	3980.91
956.035	3982.72
956.339	3975.71
956.643	3972.1
956.948	3983.17
957.252	3919.9
957.556	3917.41
957.86	3920.8
958.163	3901.14
958.467	3914.25
958.771	3850.29
959.075	3857.75
959.378	3869.05
959.682	3849.16
959.985	3768.71
960.289	3745.44
960.592	3768.94
960.896	3768.04
961.199	3725.33
961.502	3673.12
961.805	3730.52
962.108	3687.36
962.411	3712.9
962.714	3635.61
963.017	3650.75
963.32	3657.76
963.623	3608.27
963.926	3613.92
964.228	3582.05
964.531	3549.96
964.833	3543.41
965.136	3513.81
965.438	3516.07
965.741	3503.86
966.043	3458.21
966.345	3432.68
966.648	3427.93
966.95	3429.97
967.252	3407.82
967.554	3426.35
967.856	3405.56
968.158	3370.53
968.46	3355.62
968.761	3396.29
969.063	3349.74
969.365	3314.94
969.666	3323.98
969.968	3291.89
970.269	3256.41
970.571	3274.04
970.872	3262.74
971.174	3257.99
971.475	3225
971.776	3244.89
972.077	3183.42
972.378	3150.65
972.679	3209.18
972.98	3161.5
973.281	3123.31
973.582	3157.88
973.883	3134.61
974.183	3069.75
974.484	3082.63
974.785	3050.32
975.085	3102.29
975.386	3026.36
975.686	3064.55
975.986	3045.12
976.287	2975.06
976.587	2991.79
976.887	2973.03
977.187	3004.67
977.487	2960.37
977.787	2935.06
978.087	2952.69
978.387	2863.65
978.687	2909.08
978.987	2914.27
979.286	2872.47
979.586	2864.56
979.885	2869.98
980.185	2820.72
980.484	2846.48
980.784	2828.4
981.083	2810.77
981.382	2793.6
981.682	2770.77
981.981	2747.05
982.28	2747.05
982.579	2753.83
982.878	2709.08
983.177	2734.17
983.475	2689.65
983.774	2672.47
984.073	2686.48
984.372	2661.4
984.67	2664.56
984.969	2616.2
985.267	2630.89
985.566	2649.2
985.864	2637.67
986.162	2604.23
986.461	2569.65
986.759	2574.4
987.057	2578.24
987.355	2573.72
987.653	2546.6
987.951	2468.86
988.249	2491.69
988.547	2514.96
988.844	2474.29
989.142	2467.73
989.44	2467.51
989.737	2454.62
990.035	2430.9
990.332	2438.13
990.63	2432.03
990.927	2387.73
991.224	2377.34
991.521	2406.72
991.819	2381.41
992.116	2355.42
992.413	2334.4
992.71	2342.76
993.006	2351.8
993.303	2321.52
993.6	2306.38
993.897	2309.77
994.193	2287.85
994.49	2264.57
994.787	2271.13
995.083	2259.6
995.379	2246.95
995.676	2230.22
995.972	2221.64
996.268	2211.47
996.565	2219.15
996.861	2224.35
997.157	2168.3
997.453	2158.14
997.749	2155.42
998.044	2153.39
998.34	2166.95
998.636	2175.31
998.932	2132.6
999.227	2095.31
999.523	2081.53
999.818	2093.5
1000.114	2083.56
1000.409	2062.09
1000.704	2040.62
1001	2065.03
1001.295	2020.29
1001.59	2041.53
1001.885	2030.46
1002.18	1990.91
1002.475	1997.91
1002.77	1963.34
1003.065	1994.07
1003.359	1975.32
1003.654	1926.73
1003.949	1940.06
1004.243	1920.4
1004.538	1940.51
1004.832	1880.18
1005.127	1944.58
1005.421	1868.2
1005.715	1858.03
1006.009	1883.79
1006.304	1840.86
1006.598	1841.53
1006.892	1818.03
1007.186	1828.43
1007.48	1814.42
1007.773	1801.53
1008.067	1788.65
1008.361	1787.52
1008.655	1752.04
1008.948	1762.21
1009.242	1766.28
1009.535	1737.13
1009.829	1711.37
1010.122	1719.05
1010.415	1717.92
1010.708	1712.5
1011.001	1678.15
1011.295	1679.05
1011.588	1695.32
1011.881	1661.2
1012.173	1635.44
1012.466	1642.89
1012.759	1640.18
1013.052	1640.63
1013.344	1632.5
1013.637	1595.44
1013.93	1587.53
1014.222	1573.29
1014.514	1554.99
1014.807	1564.7
1015.099	1564.25
1015.391	1526.74
1015.683	1541.43
1015.976	1518.83
1016.268	1502.79
1016.56	1483.8
1016.851	1511.37
1017.143	1492.39
1017.435	1477.93
1017.727	1477.25
1018.018	1453.75
1018.31	1443.58
1018.602	1464.82
1018.893	1449.68
1019.185	1438.61
1019.476	1403.35
1019.767	1435.67
1020.058	1404.93
1020.35	1390.25
1020.641	1382.79
1020.932	1390.7
1021.223	1378.04
1021.514	1360.19
1021.804	1344.6
1022.095	1343.24
1022.386	1345.05
1022.677	1332.62
1022.967	1303.02
1023.258	1294.43
1023.548	1297.82
1023.839	1290.14
1024.129	1306.18
1024.419	1293.53
1024.709	1261.66
1025	1242
1025.29	1255.79
1025.58	1253.98
1025.87	1227.31
1026.16	1228.67
1026.449	1229.8
1026.739	1219.18
1027.029	1216.01
1027.319	1199.97
1027.608	1179.4
1027.898	1166.75
1028.187	1202
1028.477	1173.53
1028.766	1165.62
1029.055	1162
1029.344	1162.68
1029.634	1141.44
1029.923	1127.43
1030.212	1123.59
1030.501	1118.84
1030.79	1107.77
1031.078	1092.63
1031.367	1072.29
1031.656	1074.77
1031.945	1104.83
1032.233	1066.19
1032.522	1071.84
1032.81	1066.19
1033.099	1076.81
1033.387	1051.5
1033.675	1070.03
1033.963	1032.52
1034.251	1043.36
1034.54	1018.28
1034.828	1023.93
1035.116	1010.59
1035.403	1004.27
1035.691	1023.02
1035.979	986.19
1036.267	974.89
1036.554	982.12
1036.842	989.13
1037.129	966.3
1037.417	975.34
1037.704	959.3
1037.992	959.75
1038.279	933.08
1038.566	929.69
1038.853	929.69
1039.14	929.69
