Data from hue_24_FLMS001491_00044.txt Node
Date: Tue Feb 07 17:12:19 GMT 2017
User: dcchb
Spectrometer: FLMS00149
Trigger mode: 0
Integration Time (sec): 2.000000E-2
Scans to average: 10
Electric dark correction enabled: true
Nonlinearity correction enabled: false
Boxcar width: 0
XAxis mode: Wavelengths
Number of Pixels in Spectrum: 2048
>>>>>Begin Spectral Data<<<<<
341.393	-7.15
341.776	-7.15
342.16	-7.15
342.543	-53.02
342.927	-63.64
343.31	-79.01
343.693	-60.25
344.077	-65.22
344.46	-70.87
344.843	-40.59
345.226	-32.91
345.61	-26.36
345.993	-35.85
346.376	-15.73
346.759	28.78
347.142	30.82
347.525	57.71
347.908	41.21
348.291	89.35
348.674	85.96
349.057	92.96
349.44	127.77
349.823	140.42
350.206	159.4
350.588	180.87
350.971	219.29
351.354	222.9
351.737	231.49
352.119	247.54
352.502	267.65
352.884	285.95
353.267	284.82
353.65	275.33
354.032	314.2
354.414	291.6
354.797	311.71
355.179	318.04
355.562	335.9
355.944	320.08
356.326	320.53
356.709	357.14
357.091	348.1
357.473	353.07
357.855	358.27
358.238	357.14
358.62	348.32
359.002	350.36
359.384	340.41
359.766	321.88
360.148	343.35
360.53	359.4
360.912	340.19
361.294	325.95
361.676	344.48
362.057	346.97
362.439	337.7
362.821	350.13
363.203	315.56
363.584	338.15
363.966	323.01
364.348	339.51
364.729	316.91
365.111	305.84
365.493	332.96
365.874	326.18
366.256	320.98
366.637	335.22
367.019	331.83
367.4	315.1
367.781	315.33
368.163	333.18
368.544	345.39
368.925	322.11
369.306	339.51
369.688	321.43
370.069	296.8
370.45	324.37
370.831	321.21
371.212	322.34
371.593	317.82
371.974	305.84
372.355	323.47
372.736	317.59
373.117	313.07
373.498	321.21
373.879	310.13
374.26	314.65
374.641	343.58
375.021	317.59
375.402	319.62
375.783	307.65
376.163	353.75
376.544	338.38
376.925	341.54
377.305	329.34
377.686	313.52
378.066	344.26
378.447	333.86
378.827	345.39
379.208	321.88
379.588	344.03
379.968	331.38
380.349	335.22
380.729	347.19
381.109	338.15
381.489	336.12
381.87	354.2
382.25	357.14
382.63	338.15
383.01	347.19
383.39	336.35
383.77	347.87
384.15	356.23
384.53	338.38
384.91	333.64
385.29	347.87
385.67	343.35
386.049	398.49
386.429	370.47
386.809	361.43
387.189	367.53
387.568	365.72
387.948	358.95
388.328	355.56
388.707	359.85
389.087	370.02
389.466	371.37
389.846	340.19
390.225	373.86
390.605	366.4
390.984	375.67
391.363	372.5
391.743	365.95
392.122	371.6
392.501	385.39
392.881	384.26
393.26	362.56
393.639	405.05
394.018	369.57
394.397	387.87
394.776	381.32
395.155	376.8
395.534	385.16
395.913	372.96
396.292	386.52
396.671	386.06
397.05	397.14
397.429	395.55
397.808	404.82
398.186	419.06
398.565	395.1
398.944	415.67
399.323	385.61
399.701	402.56
400.08	413.86
400.458	387.65
400.837	419.51
401.215	430.81
401.594	421.99
401.972	408.21
402.351	422.67
402.729	409.34
403.107	446.17
403.486	428.32
403.864	426.97
404.242	423.58
404.62	409.57
404.999	453.63
405.377	437.59
405.755	437.36
406.133	425.84
406.511	430.36
406.889	445.04
407.267	463.58
407.645	434.65
408.023	450.69
408.401	458.6
408.779	450.24
409.156	438.49
409.534	467.87
409.912	432.39
410.29	464.03
410.667	466.74
411.045	457.25
411.422	472.16
411.8	480.52
412.178	481.65
412.555	467.19
412.933	495.44
413.31	482.56
413.687	503.8
414.065	498.6
414.442	493.18
414.819	494.31
415.197	491.6
415.574	507.19
415.951	510.81
416.328	515.33
416.705	497.47
417.082	513.07
417.46	490.69
417.837	505.38
418.214	527.53
418.591	534.76
418.967	515.78
419.344	509.68
419.721	551.26
420.098	533.86
420.475	540.86
420.852	530.92
421.228	558.49
421.605	546.29
421.982	558.94
422.358	550.8
422.735	535.21
423.111	555.78
423.488	555.1
423.864	558.94
424.241	582.67
424.617	570.47
424.994	554.19
425.37	583.35
425.746	588.54
426.123	570.92
426.499	579.28
426.875	589.45
427.251	617.7
427.627	619.28
428.003	624.7
428.379	610.46
428.756	609.56
429.132	629.45
429.507	631.03
429.883	621.76
430.259	629.9
430.635	666.51
431.011	650.46
431.387	667.86
431.763	669.45
432.138	650.46
432.514	682.1
432.89	678.71
433.265	676.23
433.641	694.3
434.016	685.49
434.392	715.77
434.767	705.38
435.143	698.6
435.518	726.85
435.894	711.03
436.269	728.43
436.644	741.08
437.02	753.51
437.395	767.52
437.77	752.61
438.145	746.51
438.52	749.22
438.895	753.51
439.271	753.96
439.646	778.6
440.021	771.59
440.395	778.14
440.77	782.89
441.145	767.97
441.52	773.17
441.895	802.1
442.27	808.43
442.645	809.55
443.019	812.72
443.394	814.3
443.769	811.36
444.143	829.89
444.518	826.05
444.892	826.73
445.267	831.02
445.641	832.61
446.016	828.54
446.39	838.03
446.764	841.64
447.139	867.18
447.513	857.46
447.887	855.43
448.262	859.95
448.636	868.76
449.01	900.85
449.384	908.76
449.758	898.37
450.132	894.07
450.506	890.91
450.88	904.47
451.254	902.21
451.628	922.77
452.002	938.59
452.376	965.26
452.75	970.23
453.123	932.72
453.497	979.49
453.871	977.23
454.244	977.46
454.618	993.5
454.992	984.69
455.365	984.92
455.739	1023.11
456.112	1035.09
456.486	1025.37
456.859	1031.7
457.232	1050.9
457.606	1049.32
457.979	1068.08
458.352	1080.96
458.725	1088.87
459.099	1102.88
459.472	1131.13
459.845	1139.49
460.218	1138.13
460.591	1154.4
460.964	1165.93
461.337	1181.3
461.71	1209.09
462.083	1191.92
462.456	1209.32
462.829	1206.61
463.201	1228.53
463.574	1231.69
463.947	1223.56
464.32	1271.46
464.692	1287.28
465.065	1304.23
465.438	1307.4
465.81	1316.89
466.183	1337.9
466.555	1359.15
466.928	1355.53
467.3	1366.6
467.672	1423.55
468.045	1396.88
468.417	1453.83
468.789	1456.77
469.161	1450.44
469.534	1494.73
469.906	1525.69
470.278	1527.73
470.65	1564.11
471.022	1580.16
471.394	1604.79
471.766	1624.45
472.138	1630.32
472.51	1680.27
472.882	1697.89
473.253	1696.31
473.625	1736.54
473.997	1775.41
474.369	1790.32
474.74	1826.93
475.112	1845.46
475.484	1892.46
475.855	1936.31
476.227	1940.37
476.598	1976.76
476.97	2009.98
477.341	2049.75
477.713	2080.03
478.084	2130.65
478.455	2176.07
478.827	2211.55
479.198	2258.56
479.569	2248.61
479.94	2306.92
480.311	2358.21
480.682	2408.38
481.053	2477.31
481.424	2502.84
481.795	2548.72
482.166	2581.71
482.537	2609.51
482.908	2673.23
483.279	2704.87
483.65	2783.06
484.021	2831.87
484.391	2866.22
484.762	2912.1
485.133	2951.19
485.503	2983.28
485.874	3070.29
486.244	3113.45
486.615	3172.43
486.985	3213.33
487.356	3253.56
487.726	3275.93
488.097	3390.5
488.467	3417.85
488.837	3453.1
489.207	3500.33
489.578	3570.39
489.948	3618.52
490.318	3669.37
490.688	3679.76
491.058	3759.53
491.428	3857.16
491.798	3893.09
492.168	3937.83
492.538	3966.76
492.908	4060.99
493.278	4091.05
493.648	4103.25
494.017	4133.08
494.387	4185.06
494.757	4252.18
495.126	4239.52
495.496	4339.63
495.866	4286.75
496.235	4408.78
496.605	4443.36
496.974	4483.36
497.344	4523.58
497.713	4534.2
498.082	4642
498.452	4649.23
498.821	4659.17
499.19	4689
499.559	4745.27
499.928	4798.38
500.298	4794.08
500.667	4794.53
501.036	4889.45
501.405	4877.92
501.774	4936.23
502.143	4959.05
502.512	5030.69
502.88	5066.17
503.249	5087.86
503.618	5114.75
503.987	5109.55
504.356	5115.43
504.724	5151.14
505.093	5139.61
505.462	5239.04
505.83	5291.47
506.199	5231.81
506.567	5311.81
506.936	5327.85
507.304	5377.8
507.672	5419.6
508.041	5456.44
508.409	5455.76
508.777	5475.42
509.145	5504.12
509.514	5509.54
509.882	5576.44
510.25	5588.86
510.618	5639.03
510.986	5671.8
511.354	5679.26
511.722	5728.52
512.09	5773.27
512.458	5697.34
512.826	5830.89
513.193	5816.43
513.561	5846.71
513.929	5882.42
514.297	5935.07
514.664	5974.39
515.032	5983.2
515.4	6030.43
515.767	6016.65
516.135	6033.82
516.502	5982.3
516.869	6063.65
517.237	6057.33
517.604	6156.53
517.972	6149.53
518.339	6182.97
518.706	6195.63
519.073	6178.23
519.44	6241.5
519.808	6257.77
520.175	6285.12
520.542	6322.4
520.909	6369.63
521.276	6381.39
521.643	6446.02
522.009	6478.33
522.376	6523.76
522.743	6519.69
523.11	6603.98
523.477	6693.02
523.843	6658.44
524.21	6694.82
524.577	6766.91
524.943	6810.53
525.31	6830.87
525.676	6885.33
526.043	6915.38
526.409	6926.23
526.776	6985.21
527.142	6977.53
527.508	7076.06
527.874	7115.83
528.241	7124.87
528.607	7152.21
528.973	7210.74
529.339	7219.1
529.705	7287.12
530.071	7365.31
530.437	7366.9
530.803	7353.34
531.169	7485.76
531.535	7416.39
531.901	7439.66
532.267	7491.64
532.632	7521.24
532.998	7620.68
533.364	7611.86
533.73	7604.18
534.095	7702.26
534.461	7729.83
534.826	7760.56
535.192	7811.86
535.557	7815.92
535.923	7877.62
536.288	7915.13
536.653	7945.19
537.019	7902.93
537.384	7938.41
537.749	7990.38
538.114	8024.51
538.479	8051.17
538.845	8124.16
539.21	8098.85
539.575	8092.53
539.94	8131.62
540.305	8230.6
540.67	8203.94
541.034	8223.6
541.399	8273.09
541.764	8295.91
542.129	8366.42
542.494	8406.87
542.858	8380.2
543.223	8456.36
543.587	8494.32
543.952	8515.79
544.316	8511.05
544.681	8542.91
545.045	8627.88
545.41	8694.55
545.774	8591.27
546.138	8664.94
546.503	8743.36
546.867	8773.87
547.231	8826.97
547.595	8825.16
547.959	8877.14
548.324	8845.5
548.688	8866.74
549.052	8950.36
549.416	8964.59
549.779	8966.63
550.143	9080.75
550.507	9063.58
550.871	9196.23
551.235	9081.2
551.599	9103.57
551.962	9205.04
552.326	9161.65
552.689	9239.16
553.053	9276
553.417	9243.01
553.78	9393.51
554.143	9305.38
554.507	9383.57
554.87	9387.63
555.234	9460.63
555.597	9446.39
555.96	9534.75
556.323	9539.49
556.686	9537.69
557.05	9647.97
557.413	9628.76
557.776	9669.21
558.139	9737.68
558.502	9698.13
558.865	9746.95
559.228	9825.59
559.59	9914.4
559.953	9908.98
560.316	10043.89
560.679	10030.33
561.041	10024.91
561.404	10056.54
561.767	10111.46
562.129	10147.39
562.492	10139.71
562.854	10201.62
563.217	10139.48
563.579	10231.45
563.941	10180.16
564.304	10235.3
564.666	10311
565.028	10281.85
565.39	10351.9
565.753	10375.63
566.115	10534.95
566.477	10533.14
566.839	10525.68
567.201	10565.68
567.563	10591.44
567.925	10679.58
568.287	10783.3
568.648	10804.32
569.01	10794.38
569.372	10817.2
569.734	10905.56
570.095	10950.08
570.457	10996.63
570.819	10967.93
571.18	11070.98
571.542	11074.37
571.903	11220.13
572.265	11235.27
572.626	11284.08
572.987	11314.36
573.349	11296.28
573.71	11436.85
574.071	11386.23
574.432	11509.16
574.794	11576.05
575.155	11609.05
575.516	11671.87
575.877	11781.47
576.238	11870.51
576.599	11913.22
576.96	11998.19
577.32	12030.28
577.681	12093.1
578.042	12235.7
578.403	12326.77
578.763	12416.71
579.124	12396.14
579.485	12655.35
579.845	12734.89
580.206	12834.1
580.566	12898.05
580.927	13136.46
581.287	13230.25
581.648	13288.1
582.008	13430.92
582.368	13608.54
582.728	13805.15
583.089	13878.82
583.449	14051.92
583.809	14200.39
584.169	14484.22
584.529	14526.03
584.889	14872.46
585.249	14914.04
585.609	15090.99
585.969	15381.38
586.329	15546.57
586.688	15811.87
587.048	15970.51
587.408	16227.68
587.768	16356.49
588.127	16582.93
588.487	16836.03
588.846	17167.54
589.206	17271.5
589.565	17611.15
589.925	17944.47
590.284	18114.64
590.643	18348.75
591.003	18743.32
591.362	19095.85
591.721	19274.15
592.08	19578.33
592.44	19957.3
592.799	20176.5
593.158	20384.41
593.517	20790.72
593.876	21007.22
594.235	21293.08
594.593	21678.84
594.952	21968.32
595.311	22107.3
595.67	22525.37
596.029	22865.25
596.387	23180.27
596.746	23556.08
597.104	23768.05
597.463	24120.81
597.822	24438.99
598.18	24685.99
598.538	24955.59
598.897	25356.71
599.255	25502.47
599.613	26115.1
599.972	26231.26
600.33	26605.71
600.688	26759.16
601.046	27181.74
601.404	27551.68
601.762	27839.58
602.12	28183.75
602.478	28334.03
602.836	28698.99
603.194	28704.87
603.552	29180.11
603.91	29445.19
604.268	29879.3
604.625	29945.51
604.983	30322
605.341	30453.75
605.698	30818.71
606.056	31208.98
606.413	31384.34
606.771	31662.08
607.128	32085.12
607.485	32090.54
607.843	32331.21
608.2	32808.49
608.557	33029.05
608.914	33164.64
609.272	33545.19
609.629	33868.57
609.986	34091.17
610.343	34239.86
610.7	34593.07
611.057	34759.17
611.414	34903.8
611.771	35049.78
612.127	35395.31
612.484	35614.97
612.841	36000.72
613.198	35722.76
613.554	36044.56
613.911	36429.86
614.267	36428.73
614.624	36673.24
614.98	36927.48
615.337	37313
615.693	37294.92
616.05	37411.08
616.406	37740.11
616.762	37860.56
617.118	37924.29
617.475	38159.08
617.831	38510.94
618.187	38589.58
618.543	38675.9
618.899	39000.87
619.255	39124.25
619.611	39163.8
619.967	39498.26
620.323	39608.99
620.678	39599.72
621.034	39630.68
621.39	39763.56
621.746	39673.17
622.101	40243.77
622.457	40026.38
622.812	40223.43
623.168	40383.66
623.523	40478.57
623.879	40677.66
624.234	40412.81
624.589	40907.03
624.945	40818.9
625.3	40933.47
625.655	40954.26
626.01	41153.58
626.365	41199
626.72	41201.49
627.075	41250.3
627.43	41248.72
627.785	41391.54
628.14	41448.03
628.495	41583.62
628.85	41573.91
629.205	41508.82
629.559	41804.64
629.914	41587.69
630.269	41828.14
630.623	41543.85
630.978	41721.02
631.332	41892.32
631.687	42048.92
632.041	41981.81
632.396	41911.07
632.75	41981.81
633.104	42044.85
633.459	41934.8
633.813	42027
634.167	42058.19
634.521	42089.6
634.875	42060.22
635.229	42133.44
635.583	42079.43
635.937	42069.04
636.291	41905.65
636.645	41984.97
636.999	41977.74
637.352	42233.78
637.706	41855.26
638.06	42012.99
638.413	42121.24
638.767	42058.87
639.121	42142.93
639.474	41817.29
639.828	41987.46
640.181	41932.09
640.534	42076.27
640.888	41949.72
641.241	41899.1
641.594	41953.56
641.947	42008.92
642.301	41941.58
642.654	42054.57
643.007	41990.39
643.36	41959.66
643.713	41805.99
644.066	42028.13
644.419	41860
644.771	41635.37
645.124	41108.38
645.477	41304.54
645.83	40955.17
646.182	40841.27
646.535	40900.25
646.888	40930.08
647.24	40706.81
647.593	40906.35
647.945	40843.76
648.298	40666.36
648.65	40671.56
649.002	40547.49
649.355	40769.18
649.707	40640.15
650.059	40897.77
650.411	41382.05
650.763	41142.73
651.115	41816.61
651.467	41654.81
651.819	41583.62
652.171	41533.46
652.523	41459.33
652.875	41482.16
653.227	41313.57
653.578	41624.08
653.93	41457.3
654.282	41353.57
654.633	41265.44
654.985	41391.54
655.337	41398.77
655.688	41458.66
656.039	41454.81
656.391	41312.9
656.742	41327.81
657.094	41431.31
657.445	41523.51
657.796	41480.8
658.147	41339.34
658.498	41347.92
658.849	41325.78
659.2	41361.26
659.551	41109.06
659.902	41396.96
660.253	41233.35
660.604	41306.57
660.955	41142.05
661.306	41321.48
661.656	41250.75
662.007	41303.86
662.358	41307.47
662.708	41210.75
663.059	41139.12
663.409	41116.74
663.76	41319.45
664.11	41245.33
664.461	41380.24
664.811	41156.29
665.161	41257.98
665.511	41128.04
665.862	41100.47
666.212	41263.63
666.562	41358.77
666.912	41271.32
667.262	41017.76
667.612	41064.77
667.962	41180.24
668.312	41209.62
668.662	41314.03
669.011	41123.75
669.361	41015.5
669.711	41061.83
670.06	40930.31
670.41	40924.66
670.76	40933.25
671.109	41148.16
671.459	41017.76
671.808	40902.29
672.157	41055.05
672.507	40693.03
672.856	40733.25
673.205	40990.87
673.554	40973.47
673.904	40872.23
674.253	41175.95
674.602	40875.62
674.951	40329.19
675.3	40184.34
675.649	40806.24
675.998	40810.76
676.346	40943.19
676.695	40935.28
677.044	40638.11
677.393	40733.25
677.741	40736.41
678.09	40692.12
678.438	40486.7
678.787	40696.19
679.135	40528.96
679.484	40455.97
679.832	40391.11
680.181	40189.76
680.529	40292.13
680.877	40174.62
681.225	40229.08
681.573	40484.9
681.922	40039.71
682.27	40091.69
682.618	40063.66
682.966	40009.65
683.314	40084.91
683.661	40027.96
684.009	39740.73
684.357	39724.69
684.705	39767.85
685.053	39759.49
685.4	39658.03
685.748	39472.04
686.095	39548.88
686.443	39380.97
686.79	39418.03
687.138	39364.25
687.485	39515.66
687.832	39343.68
688.18	39249.67
688.527	39114.31
688.874	39096.23
689.221	39021.88
689.568	38942.79
689.915	38855.33
690.262	38900.53
690.609	38746.64
690.956	38585.06
691.303	38505.51
691.65	38369.92
691.997	38419.64
692.344	38113.43
692.69	38118.86
693.037	38133.32
693.383	37846.32
693.73	37978.97
694.077	37799.54
694.423	37813.78
694.769	37633.9
695.116	37561.36
695.462	37581.47
695.808	37522.71
696.155	37487.23
696.501	37150.29
696.847	37198.88
697.193	36964.54
697.539	37061.48
697.885	36828.95
698.231	36780.36
698.577	36834.6
698.923	36744.2
699.269	36668.05
699.614	36333.37
699.96	36315.97
700.306	36327.27
700.651	36252.24
700.997	36181.51
701.342	36087.27
701.688	36013.6
702.033	35823.55
702.379	35818.35
702.724	35779.26
703.069	35863.77
703.415	35413.62
703.76	35419.04
704.105	35498.13
704.45	35326.61
704.795	35169.78
705.14	35193.28
705.485	35053.17
705.83	34960.07
706.175	35017.24
706.52	34920.3
706.865	34792.84
707.209	34597.82
707.554	34467.88
707.899	34691.38
708.243	34462
708.588	34474.66
708.932	34158.51
709.277	34365.96
709.621	34277.83
709.966	33927.55
710.31	33932.3
710.654	33771.63
710.998	33727.11
711.342	33829.48
711.687	33768.91
712.031	33709.03
712.375	33532.76
712.719	33489.37
713.063	33514.01
713.407	33561.46
713.75	33351.98
714.094	33408.7
714.438	33158.31
714.782	33241.47
715.125	33055.71
715.469	33111.98
715.812	32878.77
716.156	32794.02
716.499	32800.8
716.843	32799.22
717.186	32636.51
717.53	32824.31
717.873	32702.05
718.216	32728.04
718.559	32553.81
718.902	32396.07
719.246	32400.81
719.589	32305.45
719.932	32215.28
720.275	32126.7
720.617	32187.26
720.96	32007.38
721.303	32112.91
721.646	32018.45
721.989	31839.47
722.331	31893.03
722.674	31889.19
723.016	31938.23
723.359	31823.88
723.701	31769.87
724.044	31606.49
724.386	31584.11
724.729	31644
725.071	31548.41
725.413	31539.82
725.755	31492.59
726.097	31335.76
726.439	31166.95
726.782	31247.4
727.124	31211.02
727.465	31239.26
727.807	31195.65
728.149	31079.49
728.491	31017.8
728.833	31013.51
729.175	31013.51
729.516	30787.52
729.858	30806.96
730.199	30847.41
730.541	30764.93
730.882	30736.23
731.224	30797.69
731.565	30449.23
731.906	30525.84
732.248	30578.72
732.589	30431.37
732.93	30366.52
733.271	30444.71
733.612	30363.58
733.953	30356.57
734.294	30286.29
734.635	30193.42
734.976	30307.76
735.317	30110.03
735.658	30045.62
735.999	30200.19
736.339	30062.35
736.68	30096.24
737.021	30046.75
737.361	29883.82
737.702	30029.13
738.042	29902.35
738.383	29865.97
738.723	29819.19
739.063	29647.67
739.404	29784.61
739.744	29686.08
740.084	29592.08
740.424	29556.37
740.764	29460.1
741.104	29581.45
741.444	29466.65
741.784	29266.66
742.124	29512.53
742.464	29383.49
742.804	29348.69
743.143	29355.47
743.483	29281.35
743.823	29019.89
744.162	29070.73
744.502	29211.97
744.841	29083.39
745.181	29198.41
745.52	29000
745.86	29128.81
746.199	28967.91
746.538	28999.1
746.877	28921.58
747.216	29076.38
747.556	28936.95
747.895	28913.45
748.234	28807.24
748.573	28821.47
748.911	28683.62
749.25	28625.55
749.589	28614.02
749.928	28616.06
750.267	28655.15
750.605	28597.75
750.944	28440.69
751.283	28444.53
751.621	28375.61
751.96	28233.01
752.298	28330.64
752.636	28282.28
752.975	28066.47
753.313	28089.74
753.651	28108.5
753.989	28029.4
754.327	27903.98
754.666	27847.71
755.004	27939.69
755.342	27928.62
755.679	27878.67
756.017	27742.18
756.355	27854.72
756.693	27655.63
757.031	27669.19
757.368	27562.75
757.706	27626.93
758.044	27351
758.381	27335.64
758.719	27340.61
759.056	27364.79
759.394	27186.26
759.731	26966.83
760.068	27071.92
760.405	26958.47
760.743	26824.01
761.08	26864.01
761.417	26787.85
761.754	26771.13
762.091	26622.89
762.428	26586.05
762.765	26374.98
763.102	26506.96
763.438	26420.86
763.775	26203.24
764.112	26276.91
764.449	26356.45
764.785	26129.79
765.122	25919.86
765.458	25844.6
765.795	25837.6
766.131	25832.63
766.467	25721.89
766.804	25582.24
767.14	25458.62
767.476	25542.69
767.812	25421.11
768.148	25443.26
768.485	25171.63
768.821	25091.85
769.157	25049.14
769.492	24995.13
769.828	24969.37
770.164	24770.51
770.5	24780.45
770.836	24684.63
771.171	24502.72
771.507	24498.2
771.842	24353.79
772.178	24275.15
772.513	24271.31
772.849	24202.84
773.184	24080.81
773.519	24009.17
773.855	23980.92
774.19	23918.78
774.525	23808.72
774.86	23761.72
775.195	23660.03
775.53	23486.25
775.865	23457.77
776.2	23269.08
776.535	23223.65
776.87	23194.05
777.205	23110.21
777.539	22925.13
777.874	22968.75
778.209	22801.07
778.543	22740.28
778.878	22704.12
779.212	22621.64
779.547	22497.12
779.881	22646.04
780.215	22307.07
780.55	22380.29
780.884	22210.35
781.218	22286.73
781.552	22283.34
781.886	22069.11
782.22	21899.4
782.554	21933.07
782.888	21681.32
783.222	21657.82
783.556	21507.09
783.889	21531.04
784.223	21317.94
784.557	21378.05
784.89	21252.86
785.224	21115.46
785.557	21140.55
785.891	21017.16
786.224	21023.26
786.558	20958.4
786.891	20610.84
787.224	20686.09
787.557	20544.86
787.891	20557.28
788.224	20647.45
788.557	20592.31
788.89	20385.99
789.223	20378.76
789.556	20227.12
789.888	20213.56
790.221	20065.77
790.554	19987.81
790.887	20012.67
791.219	19868.49
791.552	19833.46
791.884	19770.86
792.217	19667.82
792.549	19578.1
792.882	19534.03
793.214	19416.98
793.546	19487.26
793.879	19310.54
794.211	19155.97
794.543	19221.5
794.875	19171.78
795.207	19321.61
795.539	19124.55
795.871	19146.93
796.203	18972.47
796.535	18825.35
796.867	18863.54
797.198	18755.3
797.53	18807.27
797.862	18588.07
798.193	18682.98
798.525	18569.09
798.856	18579.94
799.188	18309.89
799.519	18301.3
799.85	18293.16
800.182	18171.58
800.513	18288.19
800.844	18034.64
801.175	18121.19
801.506	18036.67
801.837	17958.71
802.168	17911.7
802.499	17922.33
802.83	17789.45
803.161	17692.5
803.491	17822.44
803.822	17752.61
804.153	17624.71
804.483	17509.23
804.814	17447.08
805.145	17406.18
805.475	17367.99
805.805	17310.59
806.136	17346.75
806.466	17334.77
806.796	17221.33
807.126	17141.78
807.457	17066.98
807.787	17028.56
808.117	17040.31
808.447	16945.18
808.777	17056.36
809.107	16819.76
809.436	16724.16
809.766	16742.47
810.096	16680.32
810.426	16586.09
810.755	16545.86
811.085	16584.06
811.414	16502.93
811.744	16356.04
812.073	16374.57
812.403	16357.17
812.732	16248.7
813.061	16202.37
813.39	16275.36
813.719	16143.84
814.049	16224.74
814.378	16137.97
814.707	16057.06
815.036	16090.06
815.365	15963.05
815.693	15844.64
816.022	15859.1
816.351	15770.74
816.68	15768.03
817.008	15877.18
817.337	15711.76
817.665	15578.43
817.994	15617.08
818.322	15682.61
818.651	15484.2
818.979	15558.32
819.307	15627.24
819.636	15469.96
819.964	15474.03
820.292	15554.7
820.62	15556.96
820.948	15349.06
821.276	15427.02
821.604	15441.71
821.932	15464.31
822.259	15372.11
822.587	15372.11
822.915	15318.78
823.243	15386.57
823.57	15319.46
823.898	15307.7
824.225	15224.32
824.553	15147.26
824.88	15258.44
825.207	15357.42
825.535	15260.25
825.862	15367.82
826.189	15220.7
826.516	15331.21
826.843	15351.09
827.17	15336.63
827.497	15303.64
827.824	15298.67
828.151	15321.26
828.478	15322.62
828.805	15296.18
829.131	15296.63
829.458	15195.17
829.785	15181.83
830.111	15178.67
830.438	15327.82
830.764	15243.53
831.09	15250.76
831.417	15157.43
831.743	15218.89
832.069	15189.97
832.395	15092.12
832.722	15171.44
833.048	15136.18
833.374	15197.88
833.7	15114.94
834.026	15082.4
834.351	15121.95
834.677	15114.49
835.003	15098.67
835.329	15148.84
835.654	15073.36
835.98	14985.91
836.306	15033.81
836.631	15002.4
836.956	14982.52
837.282	14886.25
837.607	14948.39
837.932	14832.69
838.258	14892.35
838.583	14887.6
838.908	14766.25
839.233	14798.34
839.558	14724.22
839.883	14662.52
840.208	14613.26
840.533	14667.5
840.858	14568.97
841.182	14555.41
841.507	14593.83
841.832	14516.99
842.156	14469.99
842.481	14497.78
842.805	14509.76
843.13	14412.81
843.454	14392.47
843.778	14342.53
844.103	14320.16
844.427	14291.23
844.751	14258.69
845.075	14273.61
845.399	14091.01
845.723	14107.28
846.047	14071.35
846.371	13903.22
846.695	13964.01
847.019	13942.32
847.343	13881.75
847.666	13798.14
847.99	13643.34
848.313	13639.73
848.637	13675.43
848.96	13608.99
849.284	13572.38
849.607	13393.63
849.931	13414.2
850.254	13378.72
850.577	13264.59
850.9	13218.95
851.223	13207.65
851.546	13088.78
851.869	13005.84
852.192	13137.14
852.515	13010.59
852.838	12950.48
853.161	12947.54
853.483	12902.34
853.806	12787.32
854.129	12775.79
854.451	12715.23
854.774	12684.72
855.096	12605.4
855.419	12592.75
855.741	12571.96
856.063	12498.97
856.385	12525.63
856.708	12435.01
857.03	12432.98
857.352	12478.4
857.674	12376.71
857.996	12309.59
858.318	12245.19
858.64	12278.41
858.961	12116.83
859.283	12166.77
859.605	12111.63
859.926	12135.81
860.248	11969.49
860.57	12019.66
860.891	12032.54
861.212	11981.92
861.534	11919.55
861.855	11868.93
862.176	11823.28
862.498	11850.85
862.819	11864.63
863.14	11767.91
863.461	11728.59
863.782	11759.55
864.103	11747.8
864.424	11698.31
864.745	11710.74
865.065	11624.86
865.386	11566.56
865.707	11580.8
866.027	11583.51
866.348	11642.72
866.668	11588.25
866.989	11535.37
867.309	11528.82
867.63	11499.44
867.95	11529.73
868.27	11421.71
868.59	11379.67
868.91	11316.62
869.23	11349.16
869.55	11326.11
869.87	11299.22
870.19	11327.24
870.51	11267.13
870.83	11323.63
871.15	11298.32
871.469	11244.76
871.789	11300.8
872.109	11213.12
872.428	11093.58
872.748	11146.46
873.067	11187.14
873.386	11164.54
873.706	11188.94
874.025	11121.15
874.344	11049.51
874.663	11115.27
874.982	11038.89
875.301	11041.83
875.62	10954.15
875.939	10948.5
876.258	10963.41
876.577	11018.55
876.896	10929.51
877.214	10949.85
877.533	10910.08
877.852	10889.52
878.17	10875.96
878.489	10892
878.807	10828.73
879.125	10805.68
879.444	10783.08
879.762	10746.92
880.08	10768.62
880.398	10679.8
880.716	10743.08
881.034	10705.57
881.352	10656.98
881.67	10644.55
881.988	10579.92
882.306	10695.62
882.624	10543.08
882.941	10526.59
883.259	10509.64
883.577	10431
883.894	10480.94
884.212	10443.43
884.529	10433.03
884.846	10463.09
885.164	10456.76
885.481	10274.39
885.798	10388.96
886.115	10359.59
886.432	10247.27
886.75	10240.04
887.067	10301.96
887.383	10280.04
887.7	10280.04
888.017	10165.69
888.334	10172.47
888.651	10133.83
888.967	10122.98
889.284	10011.12
889.6	10041.85
889.917	10010.89
890.233	10001.63
890.55	9938.58
890.866	9977.9
891.182	9945.13
891.498	9926.6
891.815	9854.29
892.131	9800.51
892.447	9826.04
892.763	9748.3
893.079	9678.25
893.395	9722.99
893.71	9632.83
894.026	9697.91
894.342	9642.32
894.657	9507.18
894.973	9570.91
895.289	9551.7
895.604	9516.22
895.92	9433.51
896.235	9448.65
896.55	9397.35
896.865	9363.68
897.181	9376.34
897.496	9360.74
897.811	9293.63
898.126	9304.47
898.441	9231.48
898.756	9215.21
899.071	9077.59
899.386	9100.86
899.7	9079.17
900.015	8987.87
900.33	8958.27
900.644	8984.71
900.959	8953.52
901.273	8934.99
901.588	8799.18
901.902	8802.34
902.216	8800.31
902.531	8862.45
902.845	8814.99
903.159	8737.26
903.473	8702.45
903.787	8686.41
904.101	8608.9
904.415	8599.41
904.729	8626.52
905.042	8547.43
905.356	8471.95
905.67	8446.42
905.984	8449.81
906.297	8422.69
906.611	8412.29
906.924	8377.27
907.237	8336.14
907.551	8320.09
907.864	8208.91
908.177	8286.42
908.491	8205.07
908.804	8171.17
909.117	8090.49
909.43	8086.43
909.743	8068.8
910.056	8055.01
910.368	8010.5
910.681	8025.64
910.994	7913.32
911.307	7952.64
911.619	7836.71
911.932	7845.08
912.244	7767.79
912.557	7785.64
912.869	7779.54
913.181	7698.19
913.494	7674.01
913.806	7611.18
914.118	7551.07
914.43	7592.43
914.742	7551.52
915.054	7509.27
915.366	7480.11
915.678	7433.11
915.99	7411.42
916.302	7375.26
916.613	7382.04
916.925	7297.52
917.236	7314.02
917.548	7291.19
917.859	7236.05
918.171	7141.37
918.482	7196.51
918.794	7099.79
919.105	7101.59
919.416	7075.83
919.727	7075.83
920.038	7066.34
920.349	6982.27
920.66	6965.33
920.971	6939.11
921.282	6911.99
921.593	6889.62
921.903	6853.24
922.214	6817.53
922.525	6792.45
922.835	6753.81
923.146	6742.73
923.456	6730.98
923.767	6714.26
924.077	6640.81
924.387	6589.97
924.697	6644.2
925.008	6564.21
925.318	6580.25
925.628	6535.05
925.938	6495.96
926.248	6429.07
926.558	6397.88
926.867	6409.18
927.177	6385.68
927.487	6376.41
927.796	6284.21
928.106	6320.82
928.416	6260.71
928.725	6276.76
929.034	6223.42
929.344	6245.12
929.653	6200.83
929.962	6137.32
930.271	6067.04
930.581	6093.48
930.89	6083.09
931.199	6025.46
931.508	5981.17
931.817	6009.87
932.125	5948.4
932.434	5922.64
932.743	5888.97
933.051	5909.53
933.36	5842.19
933.669	5796.77
933.977	5806.26
934.286	5803.77
934.594	5790.67
934.902	5762.19
935.21	5659.37
935.519	5667.28
935.827	5688.97
936.135	5626.15
936.443	5597
936.751	5604.01
937.059	5609.2
937.367	5506.38
937.674	5565.36
937.982	5487.62
938.29	5446.27
938.597	5433.39
938.905	5430.45
939.213	5378.02
939.52	5345.93
939.827	5366.05
940.135	5328.53
940.442	5301.87
940.749	5253.73
941.056	5291.92
941.363	5216.67
941.67	5202.66
941.977	5149.78
942.284	5176.22
942.591	5121.98
942.898	5168.76
943.205	5093.28
943.511	5089.89
943.818	5060.29
944.125	5015.09
944.431	5030.46
944.738	5012.61
945.044	5014.42
945.35	4900.52
945.657	4909.33
945.963	4927.19
946.269	4901.65
946.575	4874.53
946.881	4826.17
947.187	4855.55
947.493	4795.44
947.799	4783.46
948.105	4772.84
948.41	4711.6
948.716	4721.77
949.022	4662.56
949.327	4682
949.633	4640.19
949.938	4663.46
950.244	4670.92
950.549	4604.94
950.854	4588.21
951.16	4570.36
951.465	4547.76
951.77	4535.11
952.075	4457.37
952.38	4414.43
952.685	4491.04
952.99	4400.87
953.294	4414.66
953.599	4386.86
953.904	4357.71
954.209	4340.54
954.513	4386.41
954.818	4326.52
955.122	4259.86
955.426	4301.44
955.731	4284.04
956.035	4202.01
956.339	4219.18
956.643	4251.95
956.948	4160.88
957.252	4165.17
957.556	4183.93
957.86	4110.71
958.163	4125.63
958.467	4082.24
958.771	4069.36
959.075	4095.12
959.378	4051.5
959.682	4042.24
959.985	4013.99
960.289	4016.25
960.592	3976.03
960.896	3968.57
961.199	3927.44
961.502	3947.78
961.805	3944.84
962.108	3885.41
962.411	3871.4
962.714	3891.73
963.017	3867.33
963.32	3814
963.623	3768.35
963.926	3853.09
964.228	3798.4
964.531	3771.06
964.833	3799.76
965.136	3727.67
965.438	3747.33
965.741	3697.16
966.043	3691.97
966.345	3661.68
966.648	3660.55
966.95	3694.22
967.252	3627.56
967.554	3605.41
967.856	3574.23
968.158	3568.35
968.46	3529.48
968.761	3561.8
969.063	3540.1
969.365	3530.84
969.666	3538.3
969.968	3453.33
970.269	3467.34
970.571	3452.65
970.872	3474.34
971.174	3460.11
971.475	3395.02
971.776	3378.98
972.077	3377.17
972.378	3351.64
972.679	3346.21
972.98	3361.35
973.281	3314.57
973.582	3307.79
973.883	3301.24
974.183	3248.13
974.484	3254.24
974.785	3259.89
975.085	3238.19
975.386	3227.57
975.686	3222.6
975.986	3244.97
976.287	3211.98
976.587	3137.4
976.887	3105.99
977.187	3147.12
977.487	3113.68
977.787	3092.21
978.087	3105.99
978.387	3053.34
978.687	3079.78
978.987	3055.15
979.286	3084.75
979.586	3001.36
979.885	3003.17
980.185	2978.76
980.484	2985.54
980.784	2998.65
981.083	2966.33
981.382	2940.57
981.682	2925.43
981.981	2912.78
982.28	2925.66
982.579	2869.39
982.878	2875.04
983.177	2870.07
983.475	2846.11
983.774	2835.26
984.073	2819.9
984.372	2803.63
984.67	2765.44
984.969	2776.06
985.267	2773.35
985.566	2776.96
985.864	2734.02
986.162	2747.13
986.461	2722.95
986.759	2719.56
987.057	2717.08
987.355	2684.99
987.653	2693.35
987.951	2654.48
988.249	2633.46
988.547	2632.33
988.844	2609.51
989.142	2623.97
989.44	2601.6
989.737	2634.82
990.035	2568.15
990.332	2575.61
990.63	2549.85
990.927	2527.7
991.224	2546.46
991.521	2519.57
991.819	2526.8
992.116	2479.12
992.413	2475.27
992.71	2493.35
993.006	2456.97
993.303	2439.12
993.6	2462.84
993.897	2402.96
994.193	2429.63
994.49	2431.21
994.787	2377.2
995.083	2391.21
995.379	2362.06
995.676	2364.99
995.972	2367.25
996.268	2323.87
996.565	2282.06
996.861	2293.81
997.157	2319.8
997.453	2275.73
997.749	2301.95
998.044	2268.73
998.34	2287.71
998.636	2251.1
998.932	2217.2
999.227	2203.64
999.523	2180.59
999.818	2217.2
1000.114	2201.61
1000.409	2167.71
1000.704	2144.89
1001	2142.18
1001.295	2155.28
1001.59	2155.73
1001.885	2156.19
1002.18	2107.83
1002.475	2073.93
1002.77	2136.53
1003.065	2060.14
1003.359	2085.45
1003.654	2054.49
1003.949	2053.14
1004.243	2039.58
1004.538	2020.6
1004.832	1998.68
1005.127	1993.25
1005.421	1987.15
1005.715	1989.41
1006.009	1993.03
1006.304	1956.87
1006.598	1957.55
1006.892	1949.41
1007.186	1911.22
1007.48	1916.87
1007.773	1904.67
1008.067	1907.61
1008.361	1871
1008.655	1851.11
1008.948	1878.23
1009.242	1883.88
1009.535	1866.7
1009.829	1850.88
1010.122	1816.08
1010.415	1841.39
1010.708	1820.15
1011.001	1800.49
1011.295	1774.95
1011.588	1793.48
1011.881	1740.38
1012.173	1722.98
1012.466	1757.33
1012.759	1751.23
1013.052	1731.11
1013.344	1705.35
1013.637	1680.72
1013.93	1703.32
1014.222	1691.57
1014.514	1684.33
1014.807	1658.35
1015.099	1624.45
1015.391	1650.44
1015.683	1619.48
1015.976	1602.3
1016.268	1605.01
1016.56	1599.82
1016.851	1607.5
1017.143	1578.12
1017.435	1581.96
1017.727	1586.71
1018.018	1542.87
1018.31	1539.25
1018.602	1548.74
1018.893	1518.01
1019.185	1501.74
1019.476	1523.43
1019.767	1469.2
1020.058	1480.95
1020.35	1475.75
1020.641	1468.97
1020.932	1465.13
1021.223	1461.29
1021.514	1411.12
1021.804	1435.75
1022.095	1443.44
1022.386	1402.31
1022.677	1405.25
1022.967	1402.08
1023.258	1409.31
1023.548	1386.26
1023.839	1343.33
1024.129	1361.63
1024.419	1351.69
1024.709	1364.57
1025	1352.14
1025.29	1326.38
1025.58	1313.27
1025.87	1286.15
1026.16	1308.75
1026.449	1283.44
1026.739	1291.35
1027.029	1274.63
1027.319	1253.16
1027.608	1278.02
1027.898	1242.31
1028.187	1252.26
1028.477	1210.45
1028.766	1216.78
1029.055	1202.31
1029.344	1196.44
1029.634	1195.08
1029.923	1192.6
1030.212	1175.42
1030.501	1177.91
1030.79	1166.16
1031.078	1147.4
1031.367	1136.1
1031.656	1170
1031.945	1130.9
1032.233	1123.45
1032.522	1133.84
1032.81	1091.36
1033.099	1115.99
1033.387	1102.88
1033.675	1097.23
1033.963	1085.71
1034.251	1097.46
1034.54	1069.21
1034.828	1061.75
1035.116	1052.26
1035.403	1057.68
1035.691	1041.64
1035.979	1024.92
1036.267	1012.04
1036.554	1004.8
1036.842	1024.46
1037.129	983.56
1037.417	979.72
1037.704	1003
1037.992	998.02
1038.279	983.11
1038.566	986.05
1038.853	986.05
1039.14	986.05
