Data from hue_270_FLMS001491_00070.txt Node
Date: Tue Feb 07 15:57:33 GMT 2017
User: dcchb
Spectrometer: FLMS00149
Trigger mode: 0
Integration Time (sec): 2.000000E-2
Scans to average: 10
Electric dark correction enabled: true
Nonlinearity correction enabled: false
Boxcar width: 0
XAxis mode: Wavelengths
Number of Pixels in Spectrum: 2048
>>>>>Begin Spectral Data<<<<<
341.393	-0.71
341.776	-0.71
342.16	-0.71
342.543	-41.38
342.927	-64.66
343.31	-84.09
343.693	-66.92
344.077	-73.02
344.46	-50.65
344.843	-46.13
345.226	-47.94
345.61	-12.23
345.993	-17.65
346.376	-9.29
346.759	11.04
347.142	36.35
347.525	43.81
347.908	63.47
348.291	68.22
348.674	95.34
349.057	89.69
349.44	131.04
349.823	151.83
350.206	166.07
350.588	185.5
350.971	223.02
351.354	226.18
351.737	230.7
352.119	252.17
352.502	274.31
352.884	262.34
353.267	250.13
353.65	292.85
354.032	297.59
354.414	307.53
354.797	301.43
355.179	324.93
355.562	330.81
355.944	334.43
356.326	336.01
356.709	337.59
357.091	359.06
357.473	327.42
357.855	317.48
358.238	352.73
358.62	333.75
359.002	340.3
359.384	332.62
359.766	336.91
360.148	339.62
360.53	345.73
360.912	332.17
361.294	331.94
361.676	346.63
362.057	333.3
362.439	331.04
362.821	339.62
363.203	331.49
363.584	317.7
363.966	318.61
364.348	316.12
364.729	294.65
365.111	312.51
365.493	298.72
365.874	315.22
366.256	318.16
366.637	310.7
367.019	311.15
367.4	316.8
367.781	312.28
368.163	337.82
368.544	317.25
368.925	307.08
369.306	324.48
369.688	310.7
370.069	303.47
370.45	306.4
370.831	312.96
371.212	291.94
371.593	316.57
371.974	297.82
372.355	301.88
372.736	314.77
373.117	322
373.498	324.03
373.879	324.93
374.26	308.21
374.641	305.05
375.021	302.79
375.402	307.08
375.783	322
376.163	339.85
376.544	319.74
376.925	313.86
377.305	312.28
377.686	329
378.066	311.83
378.447	313.41
378.827	328.78
379.208	320.64
379.588	329.91
379.968	327.65
380.349	330.36
380.729	331.49
381.109	333.75
381.489	348.89
381.87	335.56
382.25	341.21
382.63	332.17
383.01	342.79
383.39	367.65
383.77	361.09
384.15	340.3
384.53	339.17
384.91	368.55
385.29	341.43
385.67	332.39
386.049	346.63
386.429	352.96
386.809	340.75
387.189	357.48
387.568	347.08
387.948	355.22
388.328	380.53
388.707	348.44
389.087	363.8
389.466	353.41
389.846	365.39
390.225	369.45
390.605	364.71
390.984	375.33
391.363	376.69
391.743	387.31
392.122	366.29
392.501	344.37
392.881	365.84
393.26	375.56
393.639	368.32
394.018	401.09
394.397	383.69
394.776	385.95
395.155	397.25
395.534	371.26
395.913	370.81
396.292	383.46
396.671	388.89
397.05	378.04
397.429	393.86
397.808	406.06
398.186	407.64
398.565	393.18
398.944	397.93
399.323	414.2
399.701	402.9
400.08	422.79
400.458	433.63
400.837	424.82
401.215	411.71
401.594	425.72
401.972	427.31
402.351	438.15
402.729	426.4
403.107	446.74
403.486	448.32
403.864	447.87
404.242	455.55
404.62	439.73
404.999	439.96
405.377	434.54
405.755	447.64
406.133	456.68
406.511	447.87
406.889	449.23
407.267	468.43
407.645	492.16
408.023	477.25
408.401	485.61
408.779	491.48
409.156	508.43
409.534	494.42
409.912	506.17
410.29	494.87
410.667	512.05
411.045	514.31
411.422	536.23
411.8	539.17
412.178	547.3
412.555	550.92
412.933	556.12
413.31	559.05
413.687	577.13
414.065	597.02
414.442	579.62
414.819	591.14
415.197	578.04
415.574	586.85
415.951	605.38
416.328	601.76
416.705	618.94
417.082	592.5
417.46	621.65
417.837	615.1
418.214	642.21
418.591	631.14
418.967	658.26
419.344	661.42
419.721	642.21
420.098	662.33
420.475	686.73
420.852	702.33
421.228	711.82
421.605	701.65
421.982	735.09
422.358	717.24
422.735	724.02
423.111	737.35
423.488	750.46
423.864	764.92
424.241	770.57
424.617	777.35
424.994	797.92
425.37	816.22
425.746	806.5
426.123	810.35
426.499	829.1
426.875	839.05
427.251	840.18
427.627	861.42
428.003	875.88
428.379	874.3
428.756	898.71
429.132	896.45
429.507	895.32
429.883	899.16
430.259	929.21
430.635	944.35
431.011	933.73
431.387	963.34
431.763	972.6
432.138	971.7
432.514	989.32
432.89	1007.85
433.265	1057.8
433.641	1041.07
434.016	1041.3
434.392	1069.32
434.767	1100.96
435.143	1079.04
435.518	1103.9
435.894	1136.21
436.269	1148.87
436.644	1141.18
437.02	1174.63
437.395	1170.56
437.77	1210.34
438.145	1205.14
438.52	1233.84
438.895	1279.49
439.271	1280.39
439.646	1280.39
440.021	1267.74
440.395	1307.28
440.77	1331.46
441.145	1316.32
441.52	1320.16
441.895	1371.69
442.27	1399.48
442.645	1360.39
443.019	1405.58
443.394	1405.13
443.769	1411.46
444.143	1414.85
444.518	1451.23
444.892	1417.34
445.267	1478.58
445.641	1469.54
446.016	1477.22
446.39	1487.84
446.764	1495.75
447.139	1511.12
447.513	1502.31
447.887	1534.62
448.262	1520.61
448.636	1529.42
449.01	1534.62
449.384	1559.7
449.758	1577.33
450.132	1598.35
450.506	1584.34
450.88	1574.85
451.254	1576.65
451.628	1612.58
452.002	1642.19
452.376	1623.88
452.75	1666.14
453.123	1658.91
453.497	1681.06
453.871	1689.42
454.244	1733.26
454.618	1710.66
454.992	1742.98
455.365	1745.69
455.739	1780.94
456.112	1810.77
456.486	1786.82
456.859	1843.31
457.232	1853.71
457.606	1843.09
457.979	1866.36
458.352	1883.54
458.725	1938
459.099	1927.15
459.472	1962.63
459.845	1993.59
460.218	1976.19
460.591	1992.24
460.964	2018
461.337	2033.14
461.71	2092.57
462.083	2119.69
462.456	2119.24
462.829	2068.62
463.201	2135.51
463.574	2136.41
463.947	2143.64
464.32	2189.07
464.692	2223.42
465.065	2239.69
465.438	2267.26
465.81	2274.26
466.183	2301.15
466.555	2308.39
466.928	2347.71
467.3	2326.24
467.672	2368.05
468.045	2427.25
468.417	2437.42
468.789	2461.38
469.161	2473.81
469.534	2490.98
469.906	2529.4
470.278	2560.13
470.65	2569.85
471.022	2608.94
471.394	2633.35
471.766	2697.53
472.138	2667.7
472.51	2750.63
472.882	2782.27
473.253	2816.62
473.625	2827.24
473.997	2887.58
474.369	2860.69
474.74	2883.74
475.112	2940.46
475.484	2995.15
475.855	3051.42
476.227	3040.57
476.598	3125.54
476.97	3098.2
477.341	3182.94
477.713	3212.54
478.084	3286.21
478.455	3299.55
478.827	3325.99
479.198	3396.72
479.569	3410.28
479.94	3526.21
480.311	3516.94
480.682	3564.17
481.053	3638.75
481.424	3683.04
481.795	3706.54
482.166	3762.81
482.537	3786.54
482.908	3841
483.279	3837.38
483.65	3884.62
484.021	3934.56
484.391	3977.72
484.762	4015.69
485.133	4066.31
485.503	4109.92
485.874	4185.17
486.244	4214.32
486.615	4196.7
486.985	4298.84
487.356	4340.2
487.726	4380.2
488.097	4481.89
488.467	4466.52
488.837	4565.28
489.207	4619.29
489.578	4634.43
489.948	4648.21
490.318	4750.58
490.688	4707.42
491.058	4769.56
491.428	4863.8
491.798	4842.56
492.168	4949.22
492.538	4952.61
492.908	4972.27
493.278	5043.91
493.648	5062.89
494.017	5110.57
494.387	5113.06
494.757	5194.64
495.126	5230.12
495.496	5199.84
495.866	5204.13
496.235	5310.79
496.605	5286.61
496.974	5344.01
497.344	5386.72
497.713	5363.45
498.082	5423.11
498.452	5435.31
498.821	5452.48
499.19	5453.39
499.559	5551.01
499.928	5531.35
500.298	5503.56
500.667	5592.14
501.036	5626.72
501.405	5636.89
501.774	5671.91
502.143	5662.42
502.512	5628.07
502.88	5742.19
503.249	5728.63
503.618	5727.05
503.987	5748.3
504.356	5796.88
504.724	5766.37
505.093	5844.34
505.462	5835.52
505.83	5851.34
506.199	5832.36
506.567	5914.39
506.936	5957.56
507.304	5934.5
507.672	5944
508.041	6024.67
508.409	6042.52
508.777	6033.49
509.145	6156.87
509.514	6057.89
509.882	6061.28
510.25	6127.04
510.618	6090.21
510.986	6135.86
511.354	6156.65
511.722	6193.48
512.09	6182.41
512.458	6248.17
512.826	6255.85
513.193	6284.55
513.561	6260.15
513.929	6379.24
514.297	6308.96
514.664	6323.42
515.032	6385.11
515.4	6367.49
515.767	6360.48
516.135	6381.72
516.502	6387.83
516.869	6485.9
517.237	6435.06
517.604	6361.16
517.972	6454.04
518.339	6484.55
518.706	6490.65
519.073	6482.74
519.44	6531.33
519.808	6541.72
520.175	6519.35
520.542	6619.46
520.909	6664.43
521.276	6602.06
521.643	6621.27
522.009	6689.74
522.376	6695.16
522.743	6645.45
523.11	6690.64
523.477	6699.91
523.843	6738.1
524.21	6865.33
524.577	6849.74
524.943	6817.42
525.31	6867.81
525.676	6883.18
526.043	6861.71
526.409	6897.87
526.776	6959.34
527.142	6979.22
527.508	6982.84
527.874	7016.06
528.241	7036.4
528.607	6992.1
528.973	7096.73
529.339	7013.35
529.705	7178.31
530.071	7198.2
530.437	7149.84
530.803	7172.21
531.169	7157.52
531.535	7181.7
531.901	7184.19
532.267	7164.98
532.632	7263.06
532.998	7298.31
533.364	7244.08
533.73	7273.68
534.095	7262.83
534.461	7329.04
534.826	7371.08
535.192	7329.27
535.557	7431.87
535.923	7376.05
536.288	7400
536.653	7336.73
537.019	7362.04
537.384	7406.56
537.749	7483.39
538.114	7380.12
538.479	7462.15
538.845	7507.57
539.21	7402.04
539.575	7438.42
539.94	7498.08
540.305	7470.96
540.67	7421.92
541.034	7518.87
541.399	7505.99
541.764	7499.44
542.129	7506.67
542.494	7455.82
542.858	7595.25
543.223	7504.18
543.587	7574.91
543.952	7558.87
544.316	7600.68
544.681	7574.91
545.045	7575.14
545.41	7607.91
545.774	7611.97
546.138	7589.6
546.503	7662.37
546.867	7563.16
547.231	7584.41
547.595	7620.56
547.959	7665.53
548.324	7686.1
548.688	7686.55
549.052	7634.8
549.416	7684.74
549.779	7622.82
550.143	7655.14
550.507	7717.06
550.871	7775.36
551.235	7714.57
551.599	7718.64
551.962	7767.45
552.326	7754.34
552.689	7746.89
553.053	7820.56
553.417	7782.59
553.78	7817.39
554.143	7831.86
554.507	7833.89
554.87	7787.11
555.234	7918.86
555.597	7865.08
555.96	7850.61
556.323	7934
556.686	7869.37
557.05	8002.7
557.413	7943.49
557.776	7953.89
558.139	8043.83
558.502	8004.73
558.865	7977.62
559.228	8040.89
559.59	8060.32
559.953	8095.13
560.316	8189.36
560.679	8163.82
561.041	8180.55
561.404	8185.07
561.767	8243.6
562.129	8225.52
562.492	8313.43
562.854	8349.81
563.217	8252.86
563.579	8365.18
563.941	8317.95
564.304	8439.98
564.666	8458.05
565.028	8365.4
565.39	8472.29
565.753	8439.75
566.115	8503.48
566.477	8529.92
566.839	8580.54
567.201	8678.16
567.563	8573.53
567.925	8659.41
568.287	8681.33
568.648	8727.2
569.01	8694.66
569.372	8804.71
569.734	8731.49
570.095	8833.19
570.457	8819.4
570.819	8874.54
571.18	8849.46
571.542	8940.3
571.903	8913.18
572.265	9010.13
572.626	9011.26
572.987	9053.52
573.349	9070.47
573.71	9126.51
574.071	9150.92
574.432	9105.72
574.794	9216.45
575.155	9225.04
575.516	9158.6
575.877	9237.69
576.238	9378.03
576.599	9346.39
576.96	9392.49
577.32	9317.92
577.681	9401.76
578.042	9426.16
578.403	9468.65
578.763	9540.06
579.124	9534.86
579.485	9554.97
579.845	9622.77
580.206	9580.74
580.566	9663.22
580.927	9650.79
581.287	9721.75
581.648	9639.72
582.008	9709.55
582.368	9760.39
582.728	9798.81
583.089	9843.55
583.449	9865.25
583.809	9850.33
584.169	9891.24
584.529	9804.91
584.889	9976.21
585.249	9942.08
585.609	9944.57
585.969	10038.13
586.329	9982.99
586.688	10118.35
587.048	10000.16
587.408	10108.41
587.768	10102.98
588.127	10153.83
588.487	10142.53
588.846	10276.09
589.206	10153.15
589.565	10182.98
589.925	10319.02
590.284	10294.84
590.643	10363.32
591.003	10370.77
591.362	10406.7
591.721	10378.23
592.08	10383.43
592.44	10419.58
592.799	10434.05
593.158	10423.65
593.517	10518.34
593.876	10514.27
594.235	10532.58
594.593	10574.61
594.952	10565.34
595.311	10574.61
595.67	10608.73
596.029	10654.38
596.387	10712.91
596.746	10708.62
597.104	10650.54
597.463	10708.84
597.822	10745.68
598.18	10675.85
598.538	10733.47
598.897	10820.48
599.255	10748.16
599.613	10885.79
599.972	10857.31
600.33	10909.97
600.688	10782.06
601.046	10863.19
601.404	10921.27
601.762	10836.3
602.12	11024.99
602.478	10940.7
602.836	10982.06
603.194	10937.31
603.552	10937.54
603.91	10946.35
604.268	10965.33
604.625	10935.05
604.983	10951.1
605.341	10907.03
605.698	11047.14
606.056	11031.77
606.413	11025.22
606.771	11022.05
607.128	11084.65
607.485	11040.81
607.843	10997.2
608.2	11128.94
608.557	11090.3
608.914	11091.88
609.272	11170.07
609.629	11133.92
609.986	11276.29
610.343	11184.54
610.7	11284.19
611.057	11304.76
611.414	11219.79
611.771	11207.13
612.127	11292.56
612.484	11283.74
612.841	11344.76
613.198	11284.87
613.554	11226.12
613.911	11405.77
614.267	11341.14
614.624	11348.37
614.98	11340.46
615.337	11471.31
615.693	11314.7
616.05	11423.63
616.406	11420.69
616.762	11436.96
617.118	11403.29
617.475	11439.22
617.831	11463.4
618.187	11466.56
618.543	11460.01
618.899	11475.15
619.255	11512.21
619.611	11439.67
619.967	11585.43
620.323	11493.45
620.678	11504.3
621.034	11530.74
621.39	11486.22
621.746	11435.38
622.101	11724.86
622.457	11509.73
622.812	11516.96
623.168	11543.85
623.523	11552.66
623.879	11621.14
624.234	11487.81
624.589	11482.61
624.945	11587.24
625.3	11552.89
625.655	11638.08
626.01	11556.96
626.365	11577.29
626.72	11575.49
627.075	11557.41
627.43	11494.13
627.785	11514.92
628.14	11579.33
628.495	11488.26
628.85	11538.88
629.205	11520.35
629.559	11540.91
629.914	11455.94
630.269	11452.1
630.623	11445.09
630.978	11460.91
631.332	11491.42
631.687	11467.69
632.041	11397.41
632.396	11384.31
632.75	11365.77
633.104	11377.07
633.459	11338.66
633.813	11359.9
634.167	11333.69
634.521	11366.45
634.875	11293.91
635.229	11321.03
635.583	11300.24
635.937	11312.67
636.291	11217.98
636.645	11331.88
636.999	11172.56
637.352	11227.7
637.706	11176.63
638.06	11221.6
638.413	11208.94
638.767	11186.34
639.121	11234.25
639.474	11095.05
639.828	11223.18
640.181	11103.63
640.534	11167.14
640.888	11110.87
641.241	11092.79
641.594	11086.46
641.947	11186.8
642.301	11121.94
642.654	11097.31
643.007	11057.08
643.36	11041.94
643.713	11011.66
644.066	11064.31
644.419	11017.31
644.771	10963.98
645.124	10848.95
645.477	10875.62
645.83	10815.96
646.182	10734.6
646.535	10668.62
646.888	10684.66
647.24	10618.22
647.593	10754.04
647.945	10750.2
648.298	10694.83
648.65	10599.47
649.002	10661.61
649.355	10622.97
649.707	10705
650.059	10700.26
650.411	10787.71
650.763	10884.88
651.115	10973.47
651.467	10927.14
651.819	10857.31
652.171	10932.11
652.523	10840.82
652.875	10812.79
653.227	10829.07
653.578	10945.67
653.93	10854.6
654.282	10823.87
654.633	10810.99
654.985	10839.46
655.337	10822.51
655.688	10830.2
656.039	10892.34
656.391	10752.01
656.742	10923.3
657.094	10846.92
657.445	10828.16
657.796	10829.52
658.147	10828.16
658.498	10832
658.849	10816.41
659.2	10861.16
659.551	10827.94
659.902	10924.88
660.253	10797.65
660.604	10855.73
660.955	10780.48
661.306	10836.52
661.656	10855.28
662.007	10814.15
662.358	10876.3
662.708	10883.75
663.059	10860.93
663.409	10865.67
663.76	10847.82
664.11	10820.7
664.461	10841.49
664.811	10817.31
665.161	10829.52
665.511	10839.46
665.862	10841.72
666.212	10885.56
666.562	10840.14
666.912	10846.01
667.262	10827.94
667.612	10770.99
667.962	10818.67
668.312	10864.32
668.662	10883.3
669.011	10817.54
669.361	10847.82
669.711	10871.1
670.06	10770.54
670.41	10729.86
670.76	10789.29
671.109	10795.17
671.459	10779.35
671.808	10674.27
672.157	10786.13
672.507	10746.36
672.856	10687.6
673.205	10724.66
673.554	10719.92
673.904	10702.74
674.253	10738.22
674.602	10770.31
674.951	10545.23
675.3	10567.6
675.649	10730.54
675.998	10732.8
676.346	10711.1
676.695	10725.57
677.044	10657.77
677.393	10705.9
677.741	10688.73
678.09	10619.13
678.438	10596.98
678.787	10625.68
679.135	10592.69
679.484	10563.76
679.832	10578.9
680.181	10531.45
680.529	10570.09
680.877	10455.52
681.225	10469.75
681.573	10474.27
681.922	10473.59
682.27	10401.51
682.618	10403.77
682.966	10347.27
683.314	10360.15
683.661	10364.22
684.009	10347.27
684.357	10301.85
684.705	10301.4
685.053	10294.84
685.4	10302.98
685.748	10230.66
686.095	10211
686.443	10173.26
686.79	10157.44
687.138	10095.07
687.485	10175.52
687.832	10170.55
688.18	10167.61
688.527	10066.37
688.874	10079.71
689.221	10030.22
689.568	9985.47
689.915	9981.86
690.262	9926.72
690.609	9924.23
690.956	9917.9
691.303	9794.06
691.65	9798.81
691.997	9772.6
692.344	9783.9
692.69	9709.77
693.037	9790.9
693.383	9632.71
693.73	9668.42
694.077	9680.85
694.423	9629.78
694.769	9546.39
695.116	9511.36
695.462	9546.61
695.808	9483.11
696.155	9471.36
696.501	9444.92
696.847	9371.7
697.193	9309.33
697.539	9399.5
697.885	9307.98
698.231	9279.73
698.577	9245.38
698.923	9210.58
699.269	9198.37
699.614	9148.21
699.96	9092.16
700.306	9081.54
700.651	9021.2
700.997	9073.18
701.342	9043.8
701.688	8980.07
702.033	8888.33
702.379	8944.6
702.724	8911.6
703.069	8889.91
703.415	8805.84
703.76	8847.2
704.105	8805.84
704.45	8755.9
704.795	8701.21
705.14	8686.3
705.485	8689.69
705.83	8615.34
706.175	8643.59
706.52	8627.54
706.865	8567.2
707.209	8538.73
707.554	8532.85
707.899	8534.44
708.243	8484.95
708.588	8469.13
708.932	8428.68
709.277	8400.43
709.621	8383.71
709.966	8363.14
710.31	8350.49
710.654	8255.12
710.998	8266.65
711.342	8260.09
711.687	8320.88
712.031	8250.15
712.375	8168.12
712.719	8225.29
713.063	8237.04
713.407	8196.59
713.75	8181.45
714.094	8125.41
714.438	8108.69
714.782	8149.14
715.125	8109.14
715.469	8075.24
715.812	8065.97
716.156	8029.82
716.499	8008.57
716.843	8086.31
717.186	7987.33
717.53	8061.91
717.873	8044.96
718.216	8032.3
718.559	7975.36
718.902	7941.23
719.246	7942.81
719.589	7940.55
719.932	7896.26
720.275	7884.06
720.617	7914.11
720.96	7901.91
721.303	7841.8
721.646	7849.48
721.989	7838.86
722.331	7804.51
722.674	7821.91
723.016	7861.23
723.359	7816.49
723.701	7821.24
724.044	7765.19
724.386	7774.91
724.729	7836.83
725.071	7787.11
725.413	7780.11
725.755	7769.71
726.097	7689.71
726.439	7745.3
726.782	7690.39
727.124	7731.07
727.465	7627.34
727.807	7732.88
728.149	7674.35
728.491	7696.49
728.833	7715.93
729.175	7680.9
729.516	7676.61
729.858	7654.91
730.199	7632.09
730.541	7666.21
730.882	7703.27
731.224	7692.42
731.565	7668.47
731.906	7613.1
732.248	7662.14
732.589	7601.58
732.93	7691.97
733.271	7608.81
733.612	7579.89
733.953	7605.87
734.294	7569.49
734.635	7622.82
734.976	7648.36
735.317	7605.87
735.658	7642.71
735.999	7617.62
736.339	7608.81
736.68	7627.79
737.021	7598.19
737.361	7524.52
737.702	7585.99
738.042	7582.82
738.383	7604.52
738.723	7624.18
739.063	7618.98
739.404	7649.04
739.744	7676.38
740.084	7661.92
740.424	7742.14
740.764	7658.3
741.104	7743.72
741.444	7680.22
741.784	7718.86
742.124	7742.37
742.464	7704.4
742.804	7720.45
743.143	7738.75
743.483	7762.71
743.823	7722.71
744.162	7777.62
744.502	7769.03
744.841	7805.42
745.181	7855.13
745.52	7776.72
745.86	7854
746.199	7953.21
746.538	7923.15
746.877	7939.2
747.216	8052.19
747.556	7992.76
747.895	8065.97
748.234	8038.86
748.573	8120.21
748.911	8096.71
749.25	8180.77
749.589	8249.02
749.928	8308.45
750.267	8335.12
750.605	8460.54
750.944	8475.46
751.283	8512.06
751.621	8644.04
751.96	8642.68
752.298	8752.96
752.636	8874.31
752.975	8866.86
753.313	8907.76
753.651	9060.3
753.989	9189.11
754.327	9237.69
754.666	9221.65
755.004	9465.26
755.342	9527.4
755.679	9630.45
756.017	9708.87
756.355	9899.6
756.693	9943.44
757.031	10136.88
757.368	10152.47
757.706	10339.59
758.044	10433.37
758.381	10622.97
758.719	10715.62
759.056	10851.44
759.394	11045.78
759.731	11116.74
760.068	11288.26
760.405	11373.46
760.743	11514.25
761.08	11775.03
761.417	11807.34
761.754	11932.99
762.091	12107
762.428	12231.29
762.765	12363.26
763.102	12621.11
763.438	12734.33
763.775	12884.15
764.112	13092.96
764.449	13260.41
764.785	13358.26
765.122	13362.78
765.458	13566.85
765.795	13801.42
766.131	13924.8
766.467	14093.39
766.804	14155.08
767.14	14279.37
767.476	14466.94
767.812	14543.09
768.148	14673.94
768.485	14755.06
768.821	14908.73
769.157	14977.66
769.492	15213.13
769.828	15310.08
770.164	15351.21
770.5	15497.42
770.836	15659
771.171	15692.67
771.507	15770.63
771.842	15880.01
772.178	16030.96
772.513	16135.37
772.849	16130.85
773.184	16213.33
773.519	16367.45
773.855	16260.11
774.19	16565.41
774.525	16483.15
774.86	16693.32
775.195	16694.67
775.53	16740.55
775.865	16782.36
776.2	16732.41
776.535	16739.19
776.87	16991.62
777.205	16903.26
777.539	16906.65
777.874	17122.01
778.209	16948
778.543	17019.19
778.878	17010.6
779.212	17108.45
779.547	17155.68
779.881	17220.08
780.215	17159.97
780.55	17376.69
780.884	17248.78
781.218	17312.74
781.552	17325.84
781.886	17311.83
782.22	17279.07
782.554	17347.09
782.888	17121.78
783.222	17252.63
783.556	17217.15
783.889	17283.36
784.223	17129.69
784.557	17117.94
784.89	17264.15
785.224	17206.3
785.557	17155.45
785.891	17215.11
786.224	17153.42
786.558	17207.88
786.891	17154.1
787.224	17060.77
787.557	17074.55
787.891	17135.57
788.224	17131.27
788.557	17179.86
788.89	17135.79
789.223	17039.07
789.556	17059.86
789.888	17024.83
790.221	16974.44
790.554	16846.08
790.887	16996.59
791.219	16900.32
791.552	16915.46
791.884	16835.69
792.217	16745.75
792.549	16804.5
792.882	16758.18
793.214	16622.36
793.546	16664.62
793.879	16630.27
794.211	16534.45
794.543	16660.1
794.875	16569.71
795.207	16581.46
795.539	16560.21
795.871	16619.87
796.203	16456.49
796.535	16449.93
796.867	16363.84
797.198	16370.16
797.53	16385.76
797.862	16221.69
798.193	16277.06
798.525	16150.28
798.856	16212.43
799.188	16044.52
799.519	16026.89
799.85	16004.07
800.182	15986.9
800.513	16059.44
800.844	15983.28
801.175	16064.41
801.506	15909.16
801.837	15871.42
802.168	15831.65
802.499	15776.51
802.83	15676.62
803.161	15664.42
803.491	15710.75
803.822	15743.96
804.153	15659.67
804.483	15504.42
804.814	15474.14
805.145	15504.65
805.475	15526.57
805.805	15408.15
806.136	15470.3
806.466	15398.44
806.796	15319.57
807.126	15235.5
807.457	15237.09
807.787	15332.22
808.117	15169.97
808.447	15088.84
808.777	15150.31
809.107	15153.47
809.436	15119.35
809.766	15202.28
810.096	15057.88
810.426	15102.17
810.755	15000.26
811.085	15018.11
811.414	14977.21
811.744	14868.28
812.073	14779.47
812.403	14838.68
812.732	14856.3
813.061	14852.24
813.39	14709.87
813.719	14733.14
814.049	14646.59
814.378	14699.25
814.707	14610.44
815.036	14600.04
815.365	14585.12
815.693	14427.39
816.022	14508.52
816.351	14449.31
816.68	14419.48
817.008	14538.57
817.337	14303.32
817.665	14214.06
817.994	14362.76
818.322	14270.56
818.651	14279.82
818.979	14197.34
819.307	14280.95
819.636	14182.65
819.964	14141.52
820.292	14166.6
820.62	14237.56
820.948	14143.78
821.276	14165.25
821.604	14131.58
821.932	14174.06
822.259	14124.12
822.587	14107.62
822.915	14130.9
823.243	14171.35
823.57	14099.04
823.898	14192.14
824.225	14058.36
824.553	14107.85
824.88	14141.52
825.207	14192.37
825.535	14094.97
825.862	14191.69
826.189	14097
826.516	14211.8
826.843	14186.04
827.17	14207.96
827.497	14192.37
827.824	14143.78
828.151	14271.01
828.478	14199.15
828.805	14308.3
829.131	14159.37
829.458	14135.87
829.785	14071.24
830.111	14075.08
830.438	14142.88
830.764	14175.19
831.09	14185.81
831.417	14205.02
831.743	14140.16
832.069	14195.53
832.395	14134.74
832.722	14176.77
833.048	14100.62
833.374	14109.21
833.7	14038.47
834.026	14084.12
834.351	14087.28
834.677	14059.94
835.003	14128.87
835.329	14035.31
835.654	14031.02
835.98	13918.02
836.306	13993.05
836.631	13890.91
836.956	13943.56
837.282	14027.63
837.607	13979.72
837.932	13857.46
838.258	13919.83
838.583	13880.28
838.908	13830.57
839.233	13803.45
839.558	13788.54
839.883	13654.98
840.208	13729.55
840.533	13656.11
840.858	13658.14
841.182	13711.7
841.507	13663.34
841.832	13626.28
842.156	13584.47
842.481	13521.2
842.805	13506.28
843.13	13533.63
843.454	13465.38
843.778	13452.95
844.103	13389.9
844.427	13361.43
844.751	13441.43
845.075	13248.44
845.399	13309.9
845.723	13259.06
846.047	13173.41
846.371	13146.74
846.695	13074.2
847.019	13059.06
847.343	13026.97
847.666	12952.17
847.99	12815.68
848.313	12865.17
848.637	12756.47
848.96	12734.1
849.284	12736.81
849.607	12658.62
849.931	12605.29
850.254	12574.1
850.577	12495.01
850.9	12391.74
851.223	12329.37
851.546	12264.73
851.869	12293.89
852.192	12280.1
852.515	12208.69
852.838	12233.32
853.161	12145.42
853.483	12128.69
853.806	12064.51
854.129	12026.55
854.451	11944.29
854.774	12006.66
855.096	11903.84
855.419	11808.25
855.741	11881.02
856.063	11718.99
856.385	11645.54
856.708	11690.96
857.03	11641.47
857.352	11631.53
857.674	11618.88
857.996	11587.46
858.318	11544.98
858.64	11437.86
858.961	11402.61
859.283	11386.11
859.605	11284.87
859.926	11404.19
860.248	11344.08
860.57	11210.3
860.891	11358.32
861.212	11237.42
861.534	11221.6
861.855	11134.82
862.176	11173.92
862.498	11186.8
862.819	11161.49
863.14	11087.82
863.461	11153.8
863.782	11051.88
864.103	11018.44
864.424	11017.31
864.745	11032.45
865.065	10997.2
865.386	10918.55
865.707	10899.57
866.027	10952.23
866.348	10906.8
866.668	10902.28
866.989	10928.95
867.309	10784.09
867.63	10815.73
867.95	10784.77
868.27	10711.33
868.59	10746.58
868.91	10806.92
869.23	10669.07
869.55	10715.85
869.87	10701.84
870.19	10797.43
870.51	10672.01
870.83	10662.29
871.15	10639.24
871.469	10617.32
871.789	10622.74
872.109	10642.18
872.428	10520.83
872.748	10542.29
873.067	10569.64
873.386	10534.16
873.706	10509.75
874.025	10488.74
874.344	10453.93
874.663	10444.89
874.982	10444.67
875.301	10427.49
875.62	10376.42
875.939	10315.86
876.258	10372.58
876.577	10285.13
876.896	10300.72
877.214	10300.49
877.533	10250.78
877.852	10256.88
878.17	10278.8
878.489	10240.38
878.807	10297.1
879.125	10215.75
879.444	10140.72
879.762	10218.69
880.08	10232.92
880.398	10076.09
880.716	10185.69
881.034	10057.33
881.352	10084.68
881.67	10003.32
881.988	10067.5
882.306	10032.25
882.624	10025.92
882.941	9927.17
883.259	9881.29
883.577	9899.6
883.894	9876.77
884.212	9906.6
884.529	9969.2
884.846	9896.89
885.164	9826.83
885.481	9878.81
885.798	9819.6
886.115	9736.21
886.432	9755.65
886.75	9655.76
887.067	9631.58
887.383	9624.8
887.7	9641.53
888.017	9581.19
888.334	9631.58
888.651	9555.43
888.967	9537.8
889.284	9473.39
889.6	9465.26
889.917	9407.63
890.233	9419.61
890.55	9465.49
890.866	9362.89
891.182	9329.67
891.498	9299.39
891.815	9248.54
892.131	9217.36
892.447	9204.02
892.763	9178.71
893.079	9210.58
893.395	9126.06
893.71	9120.64
894.026	9107.98
894.342	9040.19
894.657	8986.85
894.973	9007.19
895.289	8960.87
895.604	8892.85
895.92	8896.24
896.235	8921.55
896.55	8876.57
896.865	8834.77
897.181	8757.93
897.496	8751.38
897.811	8729.46
898.126	8692.4
898.441	8675.9
898.756	8710.03
899.071	8603.59
899.386	8616.02
899.7	8560.65
900.015	8550.03
900.33	8434.1
900.644	8460.77
900.959	8392.29
901.273	8385.51
901.588	8366.53
901.902	8292.86
902.216	8278.62
902.531	8315.46
902.845	8218.96
903.159	8171.28
903.473	8121.11
903.787	8144.62
904.101	7999.54
904.415	8015.81
904.729	8037.95
905.042	7919.54
905.356	7978.29
905.67	7904.17
905.984	7898.07
906.297	7931.06
906.611	7890.84
906.924	7880.44
907.237	7848.8
907.551	7805.64
907.864	7736.04
908.177	7717.28
908.491	7733.55
908.804	7754.12
909.117	7698.3
909.43	7581.47
909.743	7600.68
910.056	7494.01
910.368	7544.41
910.681	7480.45
910.994	7452.21
911.307	7383.96
911.619	7308.03
911.932	7360.46
912.244	7280.91
912.557	7258.31
912.869	7225.54
913.181	7209.27
913.494	7182.16
913.806	7158.43
914.118	7101.03
914.43	7063.74
914.742	7044.31
915.054	6969.96
915.366	7042.05
915.678	6937.42
915.99	6936.06
916.302	6920.02
916.613	6912.78
916.925	6865.1
917.236	6837.98
917.548	6804.09
917.859	6769.96
918.171	6702.39
918.482	6679.12
918.794	6652.23
919.105	6674.37
919.416	6674.82
919.727	6638.44
920.038	6610.42
920.349	6542.62
920.66	6514.6
920.971	6514.6
921.282	6526.58
921.593	6405.68
921.903	6461.04
922.214	6447.49
922.525	6380.37
922.835	6344.89
923.146	6326.36
923.456	6292.69
923.767	6219.7
924.077	6231.22
924.387	6256.98
924.697	6249.3
925.008	6155.52
925.318	6126.82
925.628	6133.14
925.938	6105.35
926.248	6074.84
926.558	6106.48
926.867	6048.17
927.177	6035.07
927.487	5994.16
927.796	5962.98
928.106	5975.86
928.416	5911.45
928.725	5881.4
929.034	5880.27
929.344	5866.71
929.653	5783.55
929.962	5793.04
930.271	5737
930.581	5774.51
930.89	5657.68
931.199	5653.38
931.508	5671.69
931.817	5649.09
932.125	5644.8
932.434	5619.49
932.743	5564.8
933.051	5541.75
933.36	5525.93
933.669	5473.73
933.977	5470.79
934.286	5436.21
934.594	5425.37
934.902	5409.32
935.21	5360.51
935.519	5385.59
935.827	5345.37
936.135	5318.02
936.443	5296.56
936.751	5291.36
937.059	5279.15
937.367	5257.91
937.674	5196.67
937.982	5208.65
938.29	5153.73
938.597	5210
938.905	5102.89
939.213	5085.49
939.52	5115.77
939.827	5090.23
940.135	5059.95
940.442	5018.6
940.749	5026.05
941.056	5017.24
941.363	4935.21
941.67	4993.96
941.977	4964.81
942.284	4898.6
942.591	4843.23
942.898	4813.18
943.205	4834.42
943.511	4830.58
943.818	4786.96
944.125	4774.54
944.431	4758.26
944.738	4739.51
945.044	4733.86
945.35	4722.56
945.657	4673.97
945.963	4651.37
946.269	4600.53
946.575	4634.65
946.881	4554.88
947.187	4581.77
947.493	4608.89
947.799	4540.42
948.105	4528.21
948.41	4503.58
948.716	4544.26
949.022	4503.13
949.327	4458.16
949.633	4391.27
949.938	4428.1
950.244	4452.06
950.549	4334.1
950.854	4353.3
951.16	4301.55
951.465	4320.54
951.77	4278.5
952.075	4306.53
952.38	4250.93
952.685	4226.3
952.99	4221.1
953.294	4178.17
953.599	4197.38
953.904	4159.41
954.209	4179.52
954.513	4113.08
954.818	4091.16
955.122	4074.67
955.426	4065.4
955.731	4064.05
956.035	4007.55
956.339	3971.39
956.643	3981.11
956.948	4029.24
957.252	3956.93
957.556	3924.39
957.86	3944.05
958.163	3943.6
958.467	3965.97
958.771	3896.14
959.075	3900.66
959.378	3868.34
959.682	3826.09
959.985	3839.19
960.289	3773.66
960.592	3769.82
960.896	3756.94
961.199	3774.79
961.502	3728.01
961.805	3732.08
962.108	3732.3
962.411	3723.04
962.714	3668.12
963.017	3682.81
963.32	3641.46
963.623	3602.81
963.926	3663.38
964.228	3618.86
964.531	3592.65
964.833	3589.03
965.136	3580.22
965.438	3540.9
965.741	3490.73
966.043	3489.82
966.345	3496.6
966.648	3505.64
966.95	3495.47
967.252	3483.72
967.554	3440.11
967.856	3384.29
968.158	3425.42
968.46	3371.41
968.761	3353.78
969.063	3413.89
969.365	3341.35
969.666	3311.98
969.968	3291.18
970.269	3313.78
970.571	3289.15
970.872	3259.77
971.174	3233.79
971.475	3241.92
971.776	3236.04
972.077	3165.54
972.378	3204.41
972.679	3190.62
972.98	3185.2
973.281	3145.88
973.582	3128.93
973.883	3166.89
974.183	3121.92
974.484	3133.22
974.785	3090.29
975.085	3056.39
975.386	3080.57
975.686	3090.51
975.986	3029.95
976.287	2999.21
976.587	2982.94
976.887	3008.03
977.187	2991.53
977.487	2973
977.787	2968.71
978.087	2935.04
978.387	2954.02
978.687	2918.54
978.987	2893.23
979.286	2866.34
979.586	2874.47
979.885	2861.37
980.185	2840.12
980.484	2840.58
980.784	2843.96
981.083	2787.24
981.382	2828.82
981.682	2784.76
981.981	2773.68
982.28	2767.36
982.579	2766
982.878	2753.57
983.177	2702.05
983.475	2722.16
983.774	2716.51
984.073	2704.31
984.372	2660.92
984.67	2637.87
984.969	2660.47
985.267	2657.3
985.566	2631.77
985.864	2640.13
986.162	2642.16
986.461	2601.49
986.759	2566.46
987.057	2566.46
987.355	2558.1
987.653	2573.24
987.951	2559.23
988.249	2531.2
988.547	2522.17
988.844	2523.52
989.142	2502.05
989.44	2467.25
989.737	2461.38
990.035	2453.92
990.332	2445.78
990.63	2445.33
990.927	2426.12
991.224	2409.17
991.521	2418.67
991.819	2394.71
992.116	2358.33
992.413	2359.46
992.71	2322.62
993.006	2322.4
993.303	2337.76
993.6	2332.57
993.897	2299.35
994.193	2320.14
994.49	2276.3
994.787	2281.49
995.083	2254.15
995.379	2262.29
995.676	2282.4
995.972	2230.87
996.268	2232.23
996.565	2236.75
996.861	2196.98
997.157	2210.08
997.453	2184.77
997.749	2182.74
998.044	2159.69
998.34	2153.14
998.636	2128.73
998.932	2102.29
999.227	2091.22
999.523	2117.88
999.818	2073.82
1000.114	2060.71
1000.409	2061.61
1000.704	2071.56
1001	2042.86
1001.295	2039.24
1001.59	2023.65
1001.885	2052.12
1002.18	1965.8
1002.475	1978.22
1002.77	1997.21
1003.065	1970.32
1003.359	1956.76
1003.654	1943.2
1003.949	1945.01
1004.243	1940.26
1004.538	1925.34
1004.832	1878.57
1005.127	1892.35
1005.421	1874.5
1005.715	1868.62
1006.009	1852.8
1006.304	1836.08
1006.598	1831.79
1006.892	1828.17
1007.186	1831.56
1007.48	1799.25
1007.773	1837.66
1008.067	1825.69
1008.361	1778
1008.655	1760.38
1008.948	1770.32
1009.242	1762.64
1009.535	1767.83
1009.829	1732.81
1010.122	1722.41
1010.415	1748.4
1010.708	1712.02
1011.001	1714.28
1011.295	1705.46
1011.588	1693.71
1011.881	1654.62
1012.173	1633.15
1012.466	1620.27
1012.759	1612.36
1013.052	1604.9
1013.344	1603.09
1013.637	1622.75
1013.93	1597.9
1014.222	1583.88
1014.514	1568.52
1014.807	1571.68
1015.099	1520.16
1015.391	1553.38
1015.683	1562.19
1015.976	1505.92
1016.268	1511.12
1016.56	1489.42
1016.851	1496.66
1017.143	1499.37
1017.435	1481.74
1017.727	1492.59
1018.018	1471.57
1018.31	1462.31
1018.602	1445.58
1018.893	1453.49
1019.185	1433.15
1019.476	1409.65
1019.767	1378.69
1020.058	1397.22
1020.35	1395.64
1020.641	1371.24
1020.932	1349.31
1021.223	1386.38
1021.514	1361.97
1021.804	1345.02
1022.095	1352.93
1022.386	1332.37
1022.677	1340.05
1022.967	1321.29
1023.258	1326.49
1023.548	1312.71
1023.839	1267.96
1024.129	1269.32
1024.419	1277.68
1024.709	1302.76
1025	1288.75
1025.29	1243.1
1025.58	1243.33
1025.87	1232.48
1026.16	1232.93
1026.449	1209.43
1026.739	1212.82
1027.029	1217.11
1027.319	1225.48
1027.608	1199.94
1027.898	1166.95
1028.187	1197.68
1028.477	1191.13
1028.766	1153.39
1029.055	1145.03
1029.344	1155.42
1029.634	1148.64
1029.923	1112.26
1030.212	1137.79
1030.501	1104.58
1030.79	1121.3
1031.078	1079.04
1031.367	1078.59
1031.656	1074.75
1031.945	1087.4
1032.233	1071.58
1032.522	1039.49
1032.81	1073.16
1033.099	1051.7
1033.387	1065.03
1033.675	1030.91
1033.963	1020.06
1034.251	1014.41
1034.54	1027.74
1034.828	1008.31
1035.116	1022.09
1035.403	1029.55
1035.691	1008.08
1035.979	981.64
1036.267	978.03
1036.554	966.05
1036.842	970.34
1037.129	940.29
1037.417	967.4
1037.704	944.13
1037.992	944.81
1038.279	958.59
1038.566	946.84
1038.853	946.84
1039.14	946.84
