Data from hue_270_FLMS001491_00059.txt Node
Date: Tue Feb 07 15:57:24 GMT 2017
User: dcchb
Spectrometer: FLMS00149
Trigger mode: 0
Integration Time (sec): 2.000000E-2
Scans to average: 10
Electric dark correction enabled: true
Nonlinearity correction enabled: false
Boxcar width: 0
XAxis mode: Wavelengths
Number of Pixels in Spectrum: 2048
>>>>>Begin Spectral Data<<<<<
341.393	-0.42
341.776	-0.42
342.16	-0.42
342.543	-82.91
342.927	-79.52
343.31	-64.6
343.693	-48.78
344.077	-65.28
344.46	-67.54
344.843	-48.33
345.226	-46.52
345.61	-21.44
345.993	-32.97
346.376	-0.65
346.759	10.88
347.142	31.67
347.525	37.77
347.908	50.42
348.291	65.79
348.674	77.99
349.057	121.61
349.44	132.45
349.823	136.3
350.206	160.48
350.588	203.19
350.971	186.24
351.354	218.55
351.737	190.08
352.119	254.48
352.502	254.03
352.884	252.23
353.267	279.12
353.65	294.26
354.032	279.57
354.414	308.49
354.797	297.87
355.179	314.6
355.562	299.91
355.944	320.7
356.326	306.91
356.709	315.05
357.091	323.86
357.473	336.74
357.855	335.39
358.238	334.26
358.62	327.93
359.002	329.51
359.384	357.08
359.766	331.77
360.148	319.34
360.53	312.11
360.912	321.38
361.294	333.58
361.676	313.69
362.057	328.38
362.439	312.34
362.821	321.6
363.203	314.82
363.584	294.71
363.966	343.3
364.348	318.21
364.729	318.44
365.111	305.1
365.493	293.13
365.874	313.01
366.256	315.27
366.637	299.46
367.019	321.38
367.4	300.81
367.781	310.53
368.163	303.3
368.544	313.69
368.925	321.83
369.306	302.62
369.688	299.23
370.069	301.94
370.45	298.33
370.831	304.43
371.212	293.35
371.593	340.58
371.974	305.33
372.355	326.57
372.736	294.71
373.117	326.35
373.498	306.46
373.879	313.24
374.26	285.44
374.641	302.85
375.021	323.41
375.402	317.31
375.783	311.66
376.163	316.86
376.544	320.7
376.925	327.25
377.305	338.78
377.686	329.06
378.066	336.06
378.447	318.44
378.827	326.8
379.208	325.9
379.588	303.07
379.968	328.16
380.349	321.6
380.729	296.97
381.109	329.51
381.489	343.52
381.87	338.55
382.25	328.38
382.63	344.43
383.01	324.31
383.39	352.11
383.77	342.17
384.15	339.45
384.53	337.19
384.91	333.58
385.29	346.69
385.67	343.07
386.049	362.96
386.429	327.25
386.809	346.01
387.189	350.08
387.568	346.23
387.948	338.32
388.328	362.73
388.707	374.26
389.087	371.54
389.466	362.73
389.846	386.91
390.225	365.89
390.605	367.48
390.984	370.41
391.363	351.66
391.743	358.44
392.122	375.39
392.501	372
392.881	370.87
393.26	370.41
393.639	374.48
394.018	366.35
394.397	377.65
394.776	399.34
395.155	385.1
395.534	383.3
395.913	402.5
396.292	387.59
396.671	389.85
397.05	398.44
397.429	403.18
397.808	404.31
398.186	379
398.565	418.55
398.944	417.19
399.323	411.32
399.701	418.1
400.08	417.42
400.458	420.58
400.837	432.79
401.215	443.86
401.594	399.79
401.972	417.64
402.351	434.14
402.729	430.07
403.107	431.43
403.486	436.17
403.864	429.4
404.242	468.94
404.62	460.13
404.999	421.26
405.377	477.53
405.755	483.18
406.133	467.13
406.511	470.75
406.889	448.6
407.267	488.6
407.645	470.07
408.023	457.19
408.401	493.57
408.779	499.9
409.156	498.09
409.534	519.79
409.912	528.15
410.29	510.75
410.667	516.17
411.045	541.71
411.422	556.4
411.8	531.54
412.178	579
412.555	528.15
412.933	565.21
413.31	552.1
413.687	556.17
414.065	578.32
414.442	617.41
414.819	586.91
415.197	586.23
415.574	609.73
415.951	617.41
416.328	627.13
416.705	617.64
417.082	619
417.46	653.12
417.837	641.59
418.214	663.06
418.591	662.38
418.967	661.93
419.344	665.1
419.721	698.99
420.098	672.33
420.475	691.08
420.852	677.98
421.228	712.78
421.605	716.39
421.982	714.81
422.358	754.58
422.735	770.18
423.111	770.86
423.488	791.87
423.864	772.21
424.241	785.09
424.617	821.25
424.994	815.83
425.37	813.57
425.746	840.23
426.123	864.41
426.499	856.5
426.875	852.44
427.251	871.19
427.627	890.85
428.003	892.89
428.379	914.58
428.756	929.27
429.132	933.34
429.507	951.87
429.883	937.63
430.259	933.34
430.635	965.88
431.011	939.89
431.387	1004.97
431.763	1007.91
432.138	999.78
432.514	1029.15
432.89	1053.33
433.265	1028.7
433.641	1090.4
434.016	1100.34
434.392	1112.77
434.767	1133.33
435.143	1151.41
435.518	1156.83
435.894	1174.91
436.269	1212.65
436.644	1204.74
437.02	1240.9
437.395	1237.06
437.77	1250.16
438.145	1289.94
438.52	1277.06
438.895	1319.99
439.271	1307.34
439.646	1329.71
440.021	1367.45
440.395	1359.99
440.77	1359.09
441.145	1374.46
441.52	1438.86
441.895	1422.36
442.27	1448.35
442.645	1437.05
443.019	1476.83
443.394	1472.31
443.769	1486.09
444.143	1462.81
444.518	1501.91
444.892	1517.05
445.267	1521.12
445.641	1510.27
446.016	1532.64
446.39	1545.3
446.764	1556.15
447.139	1569.7
447.513	1568.35
447.887	1604.51
448.262	1577.16
448.636	1588.24
449.01	1619.65
449.384	1631.62
449.758	1642.92
450.132	1659.42
450.506	1652.87
450.88	1653.54
451.254	1694
451.628	1656.26
452.002	1736.03
452.376	1700.1
452.75	1756.37
453.123	1769.02
453.497	1776.93
453.871	1776.25
454.244	1825.97
454.618	1827.32
454.992	1846.76
455.365	1854.22
455.739	1867.32
456.112	1896.7
456.486	1918.17
456.859	1906.19
457.232	1949.81
457.606	1953.88
457.979	1974.89
458.352	1997.49
458.725	2029.13
459.099	2011.27
459.472	2068.67
459.845	2069.13
460.218	2094.89
460.591	2085.85
460.964	2119.29
461.337	2195.9
461.71	2183.25
462.083	2190.93
462.456	2203.13
462.829	2194.32
463.201	2262.79
463.574	2253.53
463.947	2292.85
464.32	2368.78
464.692	2348.44
465.065	2338.72
465.438	2422.56
465.81	2453.98
466.183	2455.33
466.555	2497.14
466.928	2517.02
467.3	2500.75
467.672	2542.33
468.045	2618.26
468.417	2574.2
468.789	2573.29
469.161	2667.3
469.534	2671.6
469.906	2695.55
470.278	2743.46
470.65	2753.63
471.022	2781.42
471.394	2829.11
471.766	2847.86
472.138	2893.29
472.51	2931.93
472.882	2951.59
473.253	2991.59
473.625	3000.85
473.997	3101.87
474.369	3087.63
474.74	3098.48
475.112	3138.93
475.484	3214.41
475.855	3247.17
476.227	3321.3
476.598	3357.23
476.97	3380.28
477.341	3433.16
477.713	3490.11
478.084	3471.12
478.455	3559.26
478.827	3589.99
479.198	3665.69
479.569	3695.75
479.94	3787.5
480.311	3801.51
480.682	3869.31
481.053	3888.74
481.424	3950.66
481.795	4007.15
482.166	4044.22
482.537	4071.79
482.908	4137.09
483.279	4216.19
483.65	4250.31
484.021	4320.14
484.391	4319.46
484.762	4363.08
485.133	4391.78
485.503	4440.59
485.874	4570.53
486.244	4554.26
486.615	4626.57
486.985	4683.07
487.356	4731.2
487.726	4724.2
488.097	4848.49
488.467	4847.81
488.837	4905.44
489.207	4952.89
489.578	5013.46
489.948	5103.85
490.318	5097.52
490.688	5151.31
491.058	5220.23
491.428	5250.51
491.798	5308.14
492.168	5398.08
492.538	5438.98
492.908	5468.81
493.278	5482.82
493.648	5549.03
494.017	5551.75
494.387	5598.07
494.757	5666.32
495.126	5709.03
495.496	5683.49
495.866	5700.9
496.235	5817.05
496.605	5824.28
496.974	5846.43
497.344	5920.55
497.713	5926.2
498.082	6015.46
498.452	5972.07
498.821	5993.77
499.19	6012.07
499.559	6060.89
499.928	6065.18
500.298	6100.21
500.667	6154.22
501.036	6137.72
501.405	6186.98
501.774	6202.35
502.143	6292.74
502.512	6280.77
502.88	6258.85
503.249	6299.3
503.618	6307.88
503.987	6357.38
504.356	6429.46
504.724	6392.18
505.093	6353.08
505.462	6416.81
505.83	6433.31
506.199	6489.12
506.567	6548.78
506.936	6523.25
507.304	6619.52
507.672	6542.23
508.041	6664.94
508.409	6659.51
508.777	6675.56
509.145	6713.07
509.514	6677.14
509.882	6767.76
510.25	6738.16
510.618	6767.31
510.986	6826.74
511.354	6849.11
511.722	6851.15
512.09	6861.09
512.458	6910.36
512.826	6925.04
513.193	6899.73
513.561	6924.82
513.929	6992.61
514.297	7054.98
514.664	7041.88
515.032	7060.86
515.4	7041.65
515.767	7075.55
516.135	7076.45
516.502	7028.09
516.869	7187.41
517.237	7172.72
517.604	7110.12
517.972	7181.99
518.339	7186.28
518.706	7182.66
519.073	7184.02
519.44	7234.19
519.808	7236
520.175	7293.17
520.542	7335.88
520.909	7336.78
521.276	7333.17
521.643	7431.47
522.009	7496.33
522.376	7418.59
522.743	7544.91
523.11	7540.85
523.477	7587.63
523.843	7535.65
524.21	7651.8
524.577	7672.82
524.943	7637.34
525.31	7645.25
525.676	7725.47
526.043	7747.85
526.409	7768.19
526.776	7819.48
527.142	7775.64
527.508	7863.55
527.874	7842.31
528.241	7901.29
528.607	7892.02
528.973	7937.22
529.339	7905.81
529.705	8040.95
530.071	8082.3
530.437	8043.88
530.803	8004.56
531.169	8091.57
531.535	8048.4
531.901	8088.86
532.267	8106.93
532.632	8125.01
532.998	8152.81
533.364	8156.2
533.73	8108.74
534.095	8211.79
534.461	8218.8
534.826	8240.04
535.192	8244.78
535.557	8293.37
535.923	8280.04
536.288	8283.43
536.653	8318.23
537.019	8256.31
537.384	8277.1
537.749	8325.23
538.114	8278.45
538.479	8318.91
538.845	8289.08
539.21	8360.49
539.575	8284.78
539.94	8324.78
540.305	8402.29
540.67	8422.86
541.034	8439.58
541.399	8447.04
541.764	8448.85
542.129	8468.05
542.494	8500.6
542.858	8445
543.223	8459.69
543.587	8518.45
543.952	8559.8
544.316	8541.72
544.681	8520.71
545.045	8502.4
545.41	8592.57
545.774	8549.86
546.138	8640.48
546.503	8553.93
546.867	8580.37
547.231	8673.25
547.595	8587.83
547.959	8643.19
548.324	8683.64
548.688	8576.07
549.052	8651.33
549.416	8673.02
549.779	8642.96
550.143	8634.15
550.507	8705.34
550.871	8674.6
551.235	8716.18
551.599	8749.18
551.962	8757.99
552.326	8715.28
552.689	8763.87
553.053	8723.64
553.417	8777.65
553.78	8828.27
554.143	8814.26
554.507	8788.05
554.87	8844.09
555.234	8924.54
555.597	8906.23
555.96	8884.09
556.323	8877.76
556.686	8907.14
557.05	8950.98
557.413	8984.2
557.776	9011.99
558.139	8997.53
558.502	9036.17
558.865	8989.4
559.228	9059.23
559.59	9060.35
559.953	9147.36
560.316	9167.92
560.679	9176.74
561.041	9188.71
561.404	9196.4
561.767	9235.49
562.129	9257.64
562.492	9346.9
562.854	9303.06
563.217	9277.75
563.579	9327.69
563.941	9357.97
564.304	9374.7
564.666	9470.74
565.028	9481.13
565.39	9528.82
565.753	9512.32
566.115	9496.5
566.477	9612.2
566.839	9635.71
567.201	9672.99
567.563	9660.34
567.925	9751.18
568.287	9729.94
568.648	9748.92
569.01	9768.36
569.372	9817.85
569.734	9816.49
570.095	9835.7
570.457	9931.74
570.819	9941.46
571.18	9936.04
571.542	10012.87
571.903	9931.07
572.265	10028.24
572.626	10067.11
572.987	10094.23
573.349	10148.69
573.71	10177.16
574.071	10245.86
574.432	10242.47
574.794	10360.21
575.155	10292.19
575.516	10299.42
575.877	10395.69
576.238	10411.73
576.599	10399.08
576.96	10461
577.32	10469.36
577.681	10468
578.042	10527.44
578.403	10555
578.763	10589.13
579.124	10669.35
579.485	10712.97
579.845	10687.43
580.206	10740.76
580.566	10742.57
580.927	10810.82
581.287	10792.06
581.648	10848.56
582.008	10886.52
582.368	10894.21
582.728	10927.42
583.089	10951.15
583.449	10991.6
583.809	10968.78
584.169	11039.74
584.529	11008.1
584.889	11083.58
585.249	11097.59
585.609	11047.42
585.969	11171.03
586.329	11137.36
586.688	11254.2
587.048	11220.75
587.408	11216
587.768	11314.53
588.127	11241.54
588.487	11258.94
588.846	11398.37
589.206	11322.22
589.565	11425.26
589.925	11456.9
590.284	11380.75
590.643	11456.9
591.003	11450.8
591.362	11526.5
591.721	11523.79
592.08	11590.01
592.44	11599.72
592.799	11704.81
593.158	11625.26
593.517	11655.99
593.876	11722.66
594.235	11601.31
594.593	11795.88
594.952	11777.12
595.311	11670.46
595.67	11801.75
596.029	11858.47
596.387	11954.29
596.746	11914.74
597.104	11866.83
597.463	11813.73
597.822	11935.99
598.18	11938.25
598.538	11920.39
598.897	11974.4
599.255	11972.14
599.613	12133.27
599.972	11985.93
600.33	12046.94
600.688	12094.17
601.046	12034.29
601.404	12209.88
601.762	12024.57
602.12	12242.64
602.478	12142.99
602.836	12213.04
603.194	12108.86
603.552	12172.14
603.91	12137.34
604.268	12195.19
604.625	12107.05
604.983	12258.69
605.341	12153.16
605.698	12290.55
606.056	12226.37
606.413	12291.91
606.771	12340.72
607.128	12311.79
607.485	12324.45
607.843	12295.3
608.2	12330.55
608.557	12415.52
608.914	12377.33
609.272	12467.95
609.629	12436.54
609.986	12526.93
610.343	12441.96
610.7	12552.24
611.057	12494.39
611.414	12461.62
611.771	12471.56
612.127	12550.43
612.484	12593.37
612.841	12516.76
613.198	12562.64
613.554	12592.01
613.911	12696.19
614.267	12645.8
614.624	12650.32
614.98	12656.64
615.337	12686.47
615.693	12707.04
616.05	12693.48
616.406	12723.31
616.762	12730.54
617.118	12634.5
617.475	12739.58
617.831	12742.52
618.187	12698
618.543	12780.48
618.899	12816.19
619.255	12818.22
619.611	12687.15
619.967	12850.09
620.323	12824.1
620.678	12747.04
621.034	12734.83
621.39	12805.79
621.746	12814.83
622.101	12917.43
622.457	12836.07
622.812	12820.93
623.168	12925.56
623.523	12888.73
623.879	12956.07
624.234	12824.1
624.589	12883.53
624.945	12880.59
625.3	12937.77
625.655	12861.16
626.01	12911.78
626.365	12894.6
626.72	12861.38
627.075	12859.58
627.43	12844.44
627.785	12833.36
628.14	12836.98
628.495	12753.59
628.85	12856.87
629.205	12809.18
629.559	12881.72
629.914	12908.84
630.269	12857.77
630.623	12740.48
630.978	12775.96
631.332	12777.09
631.687	12815.28
632.041	12777.55
632.396	12747.26
632.75	12695.06
633.104	12670.43
633.459	12709.75
633.813	12683.31
634.167	12651.45
634.521	12639.24
634.875	12613.93
635.229	12629.98
635.583	12576.65
635.937	12591.56
636.291	12586.59
636.645	12621.84
636.999	12600.37
637.352	12590.43
637.706	12468.63
638.06	12497.78
638.413	12520.83
638.767	12461.85
639.121	12460.72
639.474	12426.37
639.828	12375.3
640.181	12384.56
640.534	12411.68
640.888	12331.23
641.241	12288.74
641.594	12399.93
641.947	12403.09
642.301	12275.19
642.654	12467.05
643.007	12377.1
643.36	12293.49
643.713	12329.65
644.066	12341.17
644.419	12262.53
644.771	12198.58
645.124	12156.54
645.477	12137.34
645.83	12034.74
646.182	11959.26
646.535	11888.76
646.888	11977.34
647.24	11833.16
647.593	11859.6
647.945	11950
648.298	11816.21
648.65	11804.46
649.002	11801.53
649.355	11883.78
649.707	11839.49
650.059	11887.4
650.411	11989.77
650.763	11967.17
651.115	12208.07
651.467	12154.96
651.819	12046.27
652.171	12095.98
652.523	12087.62
652.875	12141.18
653.227	12082.65
653.578	12178.69
653.93	12078.35
654.282	12044.68
654.633	12030.22
654.985	12056.89
655.337	12043.1
655.688	12084.68
656.039	12133.95
656.391	12032.48
656.742	12065.7
657.094	12081.97
657.445	12119.48
657.796	12127.84
658.147	12028.19
658.498	12082.42
658.849	12120.84
659.2	12108.64
659.551	12086.72
659.902	12165.81
660.253	12049.2
660.604	12111.12
660.955	12036.77
661.306	12110.9
661.656	12027.96
662.007	12058.24
662.358	12155.19
662.708	12094.17
663.059	12100.5
663.409	12041.29
663.76	12118.13
664.11	12052.14
664.461	12170.78
664.811	12112.03
665.161	12126.72
665.511	12081.07
665.862	12081.29
666.212	12129.2
666.562	12112.25
666.912	12138.24
667.262	12069.77
667.612	12051.69
667.962	12036.77
668.312	12025.7
668.662	12109.99
669.011	12071.12
669.361	12112.48
669.711	12098.24
670.06	12048.3
670.41	12009.66
670.76	11955.87
671.109	12076.32
671.459	12008.07
671.808	12014.85
672.157	11965.82
672.507	12021.41
672.856	11970.56
673.205	11959.49
673.554	12008.53
673.904	11948.64
674.253	12032.48
674.602	11949.32
674.951	11810.34
675.3	11798.36
675.649	11907.51
675.998	11934.18
676.346	11839.04
676.695	11948.87
677.044	11830.9
677.393	11919.94
677.741	11846.04
678.09	11918.36
678.438	11830.45
678.787	11763.11
679.135	11859.6
679.484	11739.83
679.832	11722.21
680.181	11654.41
680.529	11730.12
680.877	11693.51
681.225	11691.47
681.573	11680.17
681.922	11593.85
682.27	11552.94
682.618	11683.56
682.966	11633.39
683.314	11557.69
683.661	11476.11
684.009	11470.69
684.357	11531.93
684.705	11450.12
685.053	11437.24
685.4	11418.49
685.748	11432.95
686.095	11373.51
686.443	11364.25
686.79	11299.84
687.138	11341.65
687.485	11314.08
687.832	11189.11
688.18	11266.62
688.527	11187.53
688.874	11179.62
689.221	11137.36
689.568	11156.8
689.915	11063.69
690.262	11132.39
690.609	11093.52
690.956	10962.45
691.303	10979.85
691.65	10923.81
691.997	10956.35
692.344	10909.57
692.69	10813.98
693.037	10825.28
693.383	10710.03
693.73	10789.12
694.077	10732.18
694.423	10715.68
694.769	10623.48
695.116	10588.45
695.462	10623.25
695.808	10594.33
696.155	10526.53
696.501	10486.31
696.847	10421.22
697.193	10378.74
697.539	10393.43
697.885	10310.94
698.231	10266.65
698.577	10300.1
698.923	10218.52
699.269	10207.67
699.614	10188.23
699.96	10128.58
700.306	10188.46
700.651	10076.37
700.997	10049.03
701.342	10043.83
701.688	9956.6
702.033	9936.49
702.379	9893.55
702.724	9911.41
703.069	9932.87
703.415	9775.14
703.76	9754.57
704.105	9744.18
704.45	9727.91
704.795	9691.75
705.14	9692.88
705.485	9653.33
705.83	9639.32
706.175	9622.83
706.52	9574.92
706.865	9571.3
707.209	9519.33
707.554	9403.4
707.899	9550.06
708.243	9416.28
708.588	9414.7
708.932	9350.06
709.277	9339.67
709.621	9372.66
709.966	9273.46
710.31	9337.41
710.654	9226.23
710.998	9255.6
711.342	9174.7
711.687	9224.64
712.031	9216.96
712.375	9135.38
712.719	9146.45
713.063	9112.33
713.407	9164.76
713.75	9120.01
714.094	9099
714.438	8966.57
714.782	9028.72
715.125	9016.74
715.469	9054.93
715.812	8996.18
716.156	8993.92
716.499	8937.65
716.843	8953.47
717.186	8902.62
717.53	8939.45
717.873	8941.49
718.216	8898.55
718.559	8854.03
718.902	8829.4
719.246	8816.07
719.589	8754.15
719.932	8745.79
720.275	8738.56
720.617	8765.45
720.96	8730.42
721.303	8788.95
721.646	8687.71
721.989	8679.12
722.331	8756.63
722.674	8703.3
723.016	8743.3
723.359	8641.83
723.701	8689.97
724.044	8652.91
724.386	8621.27
724.729	8676.64
725.071	8577.66
725.413	8600.93
725.755	8601.61
726.097	8550.54
726.439	8542.4
726.782	8552.57
727.124	8572.68
727.465	8469.18
727.807	8544.44
728.149	8560.03
728.491	8508.96
728.833	8498.34
729.175	8453.82
729.516	8510.54
729.858	8498.34
730.199	8459.92
730.541	8417.66
730.882	8452.46
731.224	8488.84
731.565	8422.63
731.906	8432.8
732.248	8418.79
732.589	8392.58
732.93	8426.7
733.271	8452.01
733.612	8548.28
733.953	8418.34
734.294	8313.93
734.635	8459.69
734.976	8424.44
735.317	8451.56
735.658	8417.66
735.999	8346.7
736.339	8445.23
736.68	8461.5
737.021	8416.98
737.361	8407.26
737.702	8441.39
738.042	8400.71
738.383	8434.61
738.723	8448.85
739.063	8446.59
739.404	8478
739.744	8437.09
740.084	8463.08
740.424	8507.83
740.764	8486.13
741.104	8551.22
741.444	8474.83
741.784	8532.69
742.124	8532.91
742.464	8491.1
742.804	8539.46
743.143	8541.95
743.483	8544.21
743.823	8401.39
744.162	8596.19
744.502	8624.89
744.841	8557.32
745.181	8632.12
745.52	8596.19
745.86	8670.53
746.199	8650.2
746.538	8693.58
746.877	8841.6
747.216	8762.51
747.556	8802.06
747.895	8862.85
748.234	8830.08
748.573	8969.06
748.911	9016.97
749.25	9030.07
749.589	9023.97
749.928	9079.34
750.267	9206.79
750.605	9273.68
750.944	9273
751.283	9309.16
751.621	9465.32
751.96	9484.98
752.298	9572.43
752.636	9666.67
752.975	9706.44
753.313	9723.16
753.651	9844.97
753.989	9938.75
754.327	10027.34
754.666	10048.58
755.004	10205.18
755.342	10357.5
755.679	10457.15
756.017	10510.94
756.355	10681.1
756.693	10783.93
757.031	10935.33
757.368	10936.92
757.706	11123.58
758.044	11255.78
758.381	11433.4
758.719	11511.14
759.056	11725.6
759.394	11828.19
759.731	11870
760.068	12035.87
760.405	12165.36
760.743	12307.95
761.08	12576.42
761.417	12556.31
761.754	12752.91
762.091	12893.7
762.428	12951.55
762.765	13173.02
763.102	13319.23
763.438	13509.28
763.775	13552.44
764.112	13797.86
764.449	13868.82
764.785	14009.83
765.122	14143.84
765.458	14240.78
765.795	14518.52
766.131	14615.69
766.467	14814.55
766.804	14888.68
767.14	14840.54
767.476	15143.13
767.812	15193.53
768.148	15314.65
768.485	15424.48
768.821	15499.51
769.157	15741.08
769.492	15793.74
769.828	15962.09
770.164	15977.91
770.5	16070.57
770.836	16216.78
771.171	16291.58
771.507	16396.21
771.842	16391.01
772.178	16620.38
772.513	16678.91
772.849	16727.5
773.184	16828.96
773.519	17016.76
773.855	16873.71
774.19	17017.66
774.525	17162.51
774.86	17219.24
775.195	17270.08
775.53	17223.3
775.865	17295.84
776.2	17256.3
776.535	17278.67
776.87	17404.54
777.205	17466.24
777.539	17447.03
777.874	17569.28
778.209	17548.95
778.543	17603.41
778.878	17578.32
779.212	17667.36
779.547	17654.25
779.881	17716.17
780.215	17694.03
780.55	17758.66
780.884	17747.81
781.218	17674.14
781.552	17907.81
781.886	17817.41
782.22	17833.23
782.554	17827.81
782.888	17667.36
783.222	17707.59
783.556	17635.27
783.889	17683.18
784.223	17657.87
784.557	17601.83
784.89	17684.99
785.224	17757.75
785.557	17584.42
785.891	17587.59
786.224	17664.42
786.558	17585.78
786.891	17464.88
787.224	17591.66
787.557	17575.39
787.891	17574.93
788.224	17604.76
788.557	17503.97
788.89	17476.86
789.223	17544.65
789.556	17474.15
789.888	17486.35
790.221	17476.86
790.554	17364.32
790.887	17452
791.219	17340.82
791.552	17245.9
791.884	17198.9
792.217	17324.09
792.549	17258.11
792.882	17111.89
793.214	16991.67
793.546	17174.27
793.879	16982.41
794.211	16973.14
794.543	17114.83
794.875	16918.23
795.207	17030.09
795.539	17031.67
795.871	16976.53
796.203	16782.19
796.535	16755.07
796.867	16811.11
797.198	16748.29
797.53	16776.76
797.862	16625.81
798.193	16650.21
798.525	16636.2
798.856	16567.05
799.188	16533.6
799.519	16439.6
799.85	16327.06
800.182	16501.74
800.513	16473.72
800.844	16254.97
801.175	16353.5
801.506	16381.74
801.837	16273.5
802.168	16274.63
802.499	16190.56
802.83	16125.48
803.161	16024.24
803.491	16121.64
803.822	16199.6
804.153	16056.33
804.483	15911.25
804.814	15877.8
805.145	15889.1
805.475	15860.63
805.805	15811.82
806.136	15869.22
806.466	15720.52
806.796	15736.79
807.126	15583.57
807.457	15666.96
807.787	15679.16
808.117	15540.41
808.447	15516.68
808.777	15477.14
809.107	15426.74
809.436	15422.45
809.766	15427.19
810.096	15405.72
810.426	15350.36
810.755	15364.6
811.085	15266.75
811.414	15357.59
811.744	15256.12
812.073	15154.21
812.403	15175
812.732	15098.61
813.061	15148.78
813.39	15026.3
813.719	14966.64
814.049	15081.89
814.378	14950.37
814.707	14931.61
815.036	15011.61
815.365	14889.58
815.693	14743.6
816.022	14857.72
816.351	14731.39
816.68	14742.69
817.008	14876.47
817.337	14639.19
817.665	14698.4
817.994	14716.48
818.322	14701.56
818.651	14573.43
818.979	14563.94
819.307	14496.6
819.636	14606.88
819.964	14476.03
820.292	14527.78
820.62	14540.44
820.948	14447.78
821.276	14521.45
821.604	14444.62
821.932	14443.49
822.259	14490.95
822.587	14466.54
822.915	14398.97
823.243	14394.23
823.57	14389.93
823.898	14432.42
824.225	14420.89
824.553	14440.1
824.88	14385.86
825.207	14430.61
825.535	14305.41
825.862	14404.17
826.189	14353.1
826.516	14414.11
826.843	14594.22
827.17	14472.87
827.497	14471.74
827.824	14476.71
828.151	14572.75
828.478	14501.57
828.805	14512.87
829.131	14490.95
829.458	14510.38
829.785	14393.77
830.111	14449.82
830.438	14504.28
830.764	14478.29
831.09	14545.86
831.417	14431.06
831.743	14380.44
832.069	14466.77
832.395	14397.84
832.722	14436.94
833.048	14363.94
833.374	14438.52
833.7	14339.54
834.026	14418.63
834.351	14412.08
834.677	14419.08
835.003	14412.08
835.329	14368.24
835.654	14338.41
835.98	14275.59
836.306	14228.13
836.631	14242.37
836.956	14225.64
837.282	14281.91
837.607	14228.35
837.932	14169.83
838.258	14247.79
838.583	14149.49
838.908	14061.58
839.233	14137.74
839.558	14022.71
839.883	14011.19
840.208	14035.37
840.533	14041.47
840.858	14008.7
841.182	14075.82
841.507	14021.35
841.832	13995.37
842.156	13841.92
842.481	13942.03
842.805	13901.58
843.13	13842.15
843.454	13733.68
843.778	13662.49
844.103	13681.48
844.427	13576.85
844.751	13664.53
845.075	13591.99
845.399	13474.02
845.723	13495.27
846.047	13465.44
846.371	13336.63
846.695	13481.26
847.019	13257.98
847.343	13303.63
847.666	13154.48
847.99	13069.06
848.313	13105.22
848.637	13032.91
848.96	13047.37
849.284	12989.97
849.607	12913.59
849.931	12865.68
850.254	12795.17
850.577	12811.67
850.9	12653.93
851.223	12618
851.546	12582.97
851.869	12494.16
852.192	12564.9
852.515	12434.5
852.838	12435.86
853.161	12379.59
853.483	12321.74
853.806	12244.45
854.129	12281.97
854.451	12192.93
854.774	12214.17
855.096	12142.31
855.419	12103.44
855.741	12101.18
856.063	12033.84
856.385	12049.65
856.708	11857.12
857.03	11925.82
857.352	11833.62
857.674	11815.31
857.996	11835.2
858.318	11708.42
858.64	11656.44
858.961	11686.95
859.283	11665.26
859.605	11647.63
859.926	11689.44
860.248	11590.01
860.57	11465.49
860.891	11515.21
861.212	11440.41
861.534	11392.05
861.855	11350.92
862.176	11479.27
862.498	11405.15
862.819	11305.27
863.14	11360.41
863.461	11333.74
863.782	11372.16
864.103	11224.37
864.424	11245.61
864.745	11231.37
865.065	11234.99
865.386	11108.21
865.707	11168.55
866.027	11143.01
866.348	11132.84
866.668	11064.6
866.989	11142.33
867.309	11053.3
867.63	11096.91
867.95	11048.33
868.27	11001.09
868.59	10933.98
868.91	10933.07
869.23	10976.24
869.55	10933.75
869.87	10992.96
870.19	11055.78
870.51	10985.73
870.83	10919.74
871.15	10848.33
871.469	10799.52
871.789	10868.9
872.109	10804.72
872.428	10731.72
872.748	10816.69
873.067	10752.74
873.386	10776.69
873.706	10741.67
874.025	10688.56
874.344	10622.8
874.663	10728.33
874.982	10629.58
875.301	10754.55
875.62	10599.07
875.939	10571.28
876.258	10642.23
876.577	10587.32
876.896	10560.2
877.214	10508
877.533	10532.41
877.852	10469.13
878.17	10567.66
878.489	10501.22
878.807	10522.24
879.125	10458.06
879.444	10446.99
879.762	10397.04
880.08	10353.88
880.398	10365.86
880.716	10381.9
881.034	10327.21
881.352	10364.5
881.67	10306.2
881.988	10275.01
882.306	10234.79
882.624	10235.92
882.941	10223.26
883.259	10193.21
883.577	10131.06
883.894	10222.58
884.212	10083.15
884.529	10078.86
884.846	10043.61
885.164	9961.12
885.481	9929.03
885.798	10008.35
886.115	9933.33
886.432	9951.18
886.75	9914.12
887.067	9894.01
887.383	9879.09
887.7	9814.91
888.017	9768.13
888.334	9851.29
888.651	9801.8
888.967	9731.3
889.284	9673.22
889.6	9674.35
889.917	9663.5
890.233	9693.11
890.55	9536.73
890.866	9589.38
891.182	9494.92
891.498	9502.6
891.815	9497.41
892.131	9474.36
892.447	9470.51
892.763	9426
893.079	9372.89
893.395	9327.01
893.71	9273.46
894.026	9281.82
894.342	9320.91
894.657	9210.63
894.973	9174.02
895.289	9198.88
895.604	9197.3
895.92	9030.3
896.235	9059
896.55	9041.82
896.865	9021.94
897.181	9007.02
897.496	8949.85
897.811	8952.79
898.126	8883.86
898.441	8872.11
898.756	8872.11
899.071	8748.72
899.386	8824.43
899.7	8761.15
900.015	8684.55
900.33	8595.51
900.644	8569.75
900.959	8630.76
901.273	8521.84
901.588	8589.86
901.902	8521.39
902.216	8503.99
902.531	8441.39
902.845	8381.05
903.159	8374.5
903.473	8335.4
903.787	8355.06
904.101	8202.07
904.415	8193.71
904.729	8218.8
905.042	8093.37
905.356	8154.16
905.67	8196.87
905.984	8091.79
906.297	8113.26
906.611	7992.59
906.924	8012.25
907.237	7992.59
907.551	7915.3
907.864	7927.28
908.177	7880.72
908.491	7825.81
908.804	7797.11
909.117	7816.77
909.43	7782.42
909.743	7701.52
910.056	7661.75
910.368	7663.1
910.681	7624.23
910.994	7666.27
911.307	7533.39
911.619	7518.93
911.932	7557.8
912.244	7443.9
912.557	7438.93
912.869	7327.75
913.181	7280.29
913.494	7287.75
913.806	7224.02
914.118	7270.57
914.43	7269.67
914.742	7203.68
915.054	7149.22
915.366	7186.05
915.678	7078.94
915.99	7100.86
916.302	7000.3
916.613	6999.17
916.925	7010.69
917.236	7011.14
917.548	6959.62
917.859	6937.47
918.171	6874.2
918.482	6898.6
918.794	6810.47
919.105	6844.37
919.416	6761.21
919.727	6761.66
920.038	6704.26
920.349	6753.3
920.66	6669.23
920.971	6652.51
921.282	6664.49
921.593	6630.59
921.903	6555.79
922.214	6551.04
922.525	6498.16
922.835	6498.61
923.146	6442.12
923.456	6434.66
923.767	6413.42
924.077	6419.07
924.387	6365.51
924.697	6300.65
925.008	6328.68
925.318	6288
925.628	6286.64
925.938	6244.61
926.248	6196.7
926.558	6175.01
926.867	6136.59
927.177	6156.7
927.487	6070.38
927.796	6022.47
928.106	6048.23
928.416	6029.7
928.725	6016.37
929.034	5956.26
929.344	6062.02
929.653	5928.01
929.962	5880.33
930.271	5868.8
930.581	5835.81
930.89	5822.02
931.199	5797.62
931.508	5794.23
931.817	5748.8
932.125	5762.14
932.434	5746.09
932.743	5652.08
933.051	5650.73
933.36	5646.21
933.669	5632.65
933.977	5580.45
934.286	5600.33
934.594	5549.26
934.902	5519.66
935.21	5447.79
935.519	5439.43
935.827	5482.37
936.135	5439.43
936.443	5381.58
936.751	5431.98
937.059	5370.28
937.367	5351.07
937.674	5330.28
937.982	5302.94
938.29	5295.93
938.597	5241.25
938.905	5175.94
939.213	5220.68
939.52	5168.48
939.827	5173.68
940.135	5158.99
940.442	5118.76
940.749	5110.85
941.056	5112.21
941.363	5047.58
941.67	5050.74
941.977	5031.31
942.284	4954.25
942.591	4935.49
942.898	4946.34
943.205	4963.74
943.511	4924.19
943.818	4868.83
944.125	4841.03
944.431	4848.49
944.738	4865.66
945.044	4822.27
945.35	4770.75
945.657	4710.64
945.963	4721.71
946.269	4694.37
946.575	4710.64
946.881	4701.83
947.187	4669.96
947.493	4675.84
947.799	4665.22
948.105	4601.49
948.41	4617.99
948.716	4615.73
949.022	4516.52
949.327	4594.94
949.633	4480.59
949.938	4453.92
950.244	4516.29
950.549	4433.36
950.854	4463.19
951.16	4436.97
951.465	4399.23
951.77	4332.57
952.075	4389.74
952.38	4365.34
952.685	4337.99
952.99	4287.15
953.294	4265.45
953.599	4246.92
953.904	4238.79
954.209	4236.53
954.513	4250.09
954.818	4195.17
955.122	4175.96
955.426	4176.19
955.731	4187.71
956.035	4113.14
956.339	4090.09
956.643	4141.39
956.948	4032.24
957.252	4029.75
957.556	4045.12
957.86	3985.46
958.163	3975.97
958.467	3991.56
958.771	3933.03
959.075	3948.62
959.378	3931
959.682	3911.56
959.985	3920.15
960.289	3883.32
960.592	3880.83
960.896	3838.35
961.199	3825.24
961.502	3819.59
961.805	3745.24
962.108	3745.92
962.411	3787.5
962.714	3742.98
963.017	3710.67
963.32	3733.72
963.623	3735.3
963.926	3733.72
964.228	3660.72
964.531	3639.71
964.833	3651.23
965.136	3585.47
965.438	3598.35
965.741	3559.26
966.043	3545.47
966.345	3617.56
966.648	3596.54
966.95	3515.42
967.252	3503.44
967.554	3483.1
967.856	3477.9
968.158	3455.3
968.46	3446.49
968.761	3458.92
969.063	3421.63
969.365	3390
969.666	3418.47
969.968	3382.76
970.269	3345.7
970.571	3361.07
970.872	3298.02
971.174	3312.03
971.475	3315.65
971.776	3314.74
972.077	3258.7
972.378	3307.96
972.679	3247.4
972.98	3237.91
973.281	3210.34
973.582	3218.47
973.883	3184.13
974.183	3172.15
974.484	3168.53
974.785	3154.3
975.085	3114.3
975.386	3135.09
975.686	3091.47
975.986	3117.01
976.287	3105.48
976.587	3071.81
976.887	3079.04
977.187	3066.39
977.487	3035.43
977.787	3010.57
978.087	2989.78
978.387	2976.45
978.687	3004.47
978.987	2953.85
979.286	2950.23
979.586	2959.27
979.885	2941.65
980.185	2896.9
980.484	2917.69
980.784	2876.79
981.083	2868.65
981.382	2876.11
981.682	2853.51
981.981	2796.11
982.28	2832.27
982.579	2771.25
982.878	2793.63
983.177	2786.85
983.475	2781.2
983.774	2742.56
984.073	2713.18
984.372	2689.68
984.67	2719.96
984.969	2714.08
985.267	2698.71
985.566	2696
985.864	2675.89
986.162	2668.21
986.461	2641.09
986.759	2607.64
987.057	2622.11
987.355	2614.65
987.653	2601.54
987.951	2566.06
988.249	2546.85
988.547	2554.99
988.844	2551.15
989.142	2543.01
989.44	2505.73
989.737	2521.54
990.035	2495.1
990.332	2471.6
990.63	2504.6
990.927	2464.14
991.224	2463.92
991.521	2442.68
991.819	2436.35
992.116	2457.14
992.413	2380.98
992.71	2400.87
993.006	2396.8
993.303	2397.48
993.6	2346.41
993.897	2347.09
994.193	2349.35
994.49	2304.83
994.787	2326.97
995.083	2286.75
995.379	2272.28
995.676	2256.69
995.972	2262.34
996.268	2249.46
996.565	2235.68
996.861	2241.78
997.157	2225.05
997.453	2224.6
997.749	2190.03
998.044	2204.04
998.34	2190.71
998.636	2160.65
998.932	2170.37
999.227	2156.36
999.523	2142.8
999.818	2098.05
1000.114	2129.69
1000.409	2092.85
1000.704	2079.07
1001	2061.22
1001.295	2077.26
1001.59	2058.28
1001.885	2044.95
1002.18	2042.46
1002.475	2001.11
1002.77	2026.19
1003.065	2004.95
1003.359	1990.94
1003.654	1965.85
1003.949	1948.9
1004.243	1976.93
1004.538	1927.66
1004.832	1945.06
1005.127	1926.98
1005.421	1919.53
1005.715	1902.58
1006.009	1884.72
1006.304	1906.64
1006.598	1905.74
1006.892	1880.2
1007.186	1851.05
1007.48	1817.38
1007.773	1813.31
1008.067	1824.84
1008.361	1781.9
1008.655	1835.23
1008.948	1774.44
1009.242	1773.99
1009.535	1770.15
1009.829	1767.21
1010.122	1753.65
1010.415	1757.04
1010.708	1700.1
1011.001	1695.35
1011.295	1713.88
1011.588	1735.12
1011.881	1694.22
1012.173	1663.94
1012.466	1671.85
1012.759	1645.63
1013.052	1673.43
1013.344	1626.43
1013.637	1618.74
1013.93	1614
1014.222	1620.1
1014.514	1619.65
1014.807	1599.53
1015.099	1571.51
1015.391	1583.72
1015.683	1562.93
1015.976	1542.36
1016.268	1550.04
1016.56	1515.69
1016.851	1566.31
1017.143	1512.3
1017.435	1498.97
1017.727	1458.52
1018.018	1474.34
1018.31	1469.82
1018.602	1446.32
1018.893	1446.54
1019.185	1434.57
1019.476	1428.01
1019.767	1453.55
1020.058	1419.65
1020.35	1421.91
1020.641	1435.24
1020.932	1380.56
1021.223	1374.68
1021.514	1367.68
1021.804	1352.31
1022.095	1339.43
1022.386	1358.64
1022.677	1334.68
1022.967	1335.59
1023.258	1319.09
1023.548	1308.92
1023.839	1304.17
1024.129	1315.7
1024.419	1306.43
1024.709	1299.43
1025	1244.06
1025.29	1251.97
1025.58	1269.83
1025.87	1249.26
1026.16	1216.27
1026.449	1236.83
1026.739	1223.5
1027.029	1223.05
1027.319	1213.1
1027.608	1220.34
1027.898	1200.45
1028.187	1171.07
1028.477	1186.21
1028.766	1197.51
1029.055	1189.83
1029.344	1161.58
1029.634	1142.6
1029.923	1142.37
1030.212	1141.69
1030.501	1125.87
1030.79	1115.48
1031.078	1100.56
1031.367	1098.76
1031.656	1122.26
1031.945	1080.68
1032.233	1067.12
1032.522	1065.99
1032.81	1056.05
1033.099	1061.02
1033.387	1068.25
1033.675	1035.93
1033.963	1026.22
1034.251	1057.4
1034.54	1015.37
1034.828	1016.5
1035.116	1016.95
1035.403	1025.09
1035.691	975.82
1035.979	989.83
1036.267	985.09
1036.554	979.21
1036.842	984.64
1037.129	972.66
1037.417	945.31
1037.704	980.12
1037.992	950.29
1038.279	933.56
1038.566	979.66
1038.853	979.66
1039.14	979.66
