Data from hue_10_FLMS001491_12.txt Node
Date: Mon Feb 06 15:31:29 GMT 2017
User: dcchb
Spectrometer: FLMS00149
Trigger mode: 0
Integration Time (sec): 2.000000E-2
Scans to average: 10
Electric dark correction enabled: true
Nonlinearity correction enabled: false
Boxcar width: 0
XAxis mode: Wavelengths
Number of Pixels in Spectrum: 2048
>>>>>Begin Spectral Data<<<<<
341.393	-25.51
341.776	-25.51
342.16	-25.51
342.543	-65.05
342.927	-75.68
343.31	-52.4
343.693	-66.86
344.077	-54.66
344.46	-56.69
344.843	-39.97
345.226	-49.24
345.61	-41.55
345.993	-27.99
346.376	-2.23
346.759	1.84
347.142	11.78
347.525	39.8
347.908	65.56
348.291	83.42
348.674	94.72
349.057	94.49
349.44	128.39
349.823	147.14
350.206	146.47
350.588	183.3
350.971	220.14
351.354	224.43
351.737	235.95
352.119	256.07
352.502	268.5
352.884	265.33
353.267	278.44
353.65	293.58
354.032	304.65
354.414	320.92
354.797	314.82
355.179	318.89
355.562	310.3
355.944	348.27
356.326	324.31
356.709	319.12
357.091	320.92
357.473	341.94
357.855	330.42
358.238	327.03
358.62	332.9
359.002	344.43
359.384	343.07
359.766	317.76
360.148	318.21
360.53	345.78
360.912	315.05
361.294	326.12
361.676	329.96
362.057	334.48
362.439	314.82
362.821	317.53
363.203	318.89
363.584	324.99
363.966	314.14
364.348	317.53
364.729	307.59
365.111	322.28
365.493	331.32
365.874	316.18
366.256	306.69
366.637	305.1
367.019	311.66
367.4	302.62
367.781	310.08
368.163	309.62
368.544	295.84
368.925	301.72
369.306	313.92
369.688	309.62
370.069	312.11
370.45	306.23
370.831	297.65
371.212	297.87
371.593	318.21
371.974	312.79
372.355	326.35
372.736	341.49
373.117	315.5
373.498	307.59
373.879	293.81
374.26	316.63
374.641	333.13
375.021	319.79
375.402	302.62
375.783	311.66
376.163	313.01
376.544	313.24
376.925	317.99
377.305	313.24
377.686	311.88
378.066	316.4
378.447	317.99
378.827	326.12
379.208	331.77
379.588	330.87
379.968	318.66
380.349	314.14
380.729	307.59
381.109	315.05
381.489	329.29
381.87	306.01
382.25	317.76
382.63	334.93
383.01	347.59
383.39	332.22
383.77	333.35
384.15	344.43
384.53	341.49
384.91	358.44
385.29	327.93
385.67	322.28
386.049	342.39
386.429	335.84
386.809	351.21
387.189	343.52
387.568	337.42
387.948	345.78
388.328	338.1
388.707	355.5
389.087	343.97
389.466	354.14
389.846	335.84
390.225	345.78
390.605	347.82
390.984	343.52
391.363	359.57
391.743	340.13
392.122	353.01
392.501	350.53
392.881	349.4
393.26	356.63
393.639	348.49
394.018	361.6
394.397	357.53
394.776	336.74
395.155	363.63
395.534	376.52
395.913	345.78
396.292	368.61
396.671	361.37
397.05	337.42
397.429	354.14
397.808	388.27
398.186	366.57
398.565	378.1
398.944	356.4
399.323	389.85
399.701	383.3
400.08	387.14
400.458	366.35
400.837	380.81
401.215	383.75
401.594	364.99
401.972	377.42
402.351	382.62
402.729	386.68
403.107	366.35
403.486	382.39
403.864	383.52
404.242	402.05
404.62	402.96
404.999	377.87
405.377	385.55
405.755	406.57
406.133	376.06
406.511	395.5
406.889	408.38
407.267	410.41
407.645	409.51
408.023	393.69
408.401	417.87
408.779	407.48
409.156	416.74
409.534	403.63
409.912	404.76
410.29	432.56
410.667	415.38
411.045	431.43
411.422	433.01
411.8	422.16
412.178	428.72
412.555	431.88
412.933	437.53
413.31	447.02
413.687	433.46
414.065	450.41
414.442	437.76
414.819	445.44
415.197	425.55
415.574	452.22
415.951	454.93
416.328	453.35
416.705	471.88
417.082	451.99
417.46	465.78
417.837	481.37
418.214	464.87
418.591	473.46
418.967	464.42
419.344	475.72
419.721	446.8
420.098	486.57
420.475	459.45
420.852	477.76
421.228	482.05
421.605	502.61
421.982	496.74
422.358	482.28
422.735	499
423.111	477.3
423.488	520.47
423.864	464.42
424.241	494.7
424.617	504.87
424.994	520.24
425.37	503.07
425.746	512.11
426.123	508.72
426.499	525.21
426.875	499.68
427.251	518.43
427.627	534.03
428.003	534.03
428.379	528.6
428.756	557.53
429.132	541.48
429.507	562.95
429.883	541.03
430.259	544.87
430.635	539.22
431.011	564.31
431.387	564.31
431.763	556.4
432.138	583.52
432.514	569.5
432.89	550.07
433.265	579
433.641	554.59
434.016	595.49
434.392	599.79
434.767	588.71
435.143	612.44
435.518	592.1
435.894	593.91
436.269	609.05
436.644	613.8
437.02	634.36
437.395	610.18
437.77	632.55
438.145	644.53
438.52	640.46
438.895	644.98
439.271	646.79
439.646	653.34
440.021	660.12
440.395	661.71
440.77	661.25
441.145	659.67
441.52	673.68
441.895	650.18
442.27	677.52
442.645	664.64
443.019	676.62
443.394	668.94
443.769	692.21
444.143	686.11
444.518	692.89
444.892	676.39
445.267	729.05
445.641	691.54
446.016	716.85
446.39	717.3
446.764	694.93
447.139	728.14
447.513	694.47
447.887	733.12
448.262	713.23
448.636	716.17
449.01	725.43
449.384	731.53
449.758	728.6
450.132	741.7
450.506	749.39
450.88	761.82
451.254	725.88
451.628	749.61
452.002	768.14
452.376	781.25
452.75	757.75
453.123	780.35
453.497	767.69
453.871	781.7
454.244	795.04
454.618	795.26
454.992	801.82
455.365	792.55
455.739	831.64
456.112	878.65
456.486	844.53
456.859	818.31
457.232	852.21
457.606	862.38
457.979	838.88
458.352	864.41
458.725	895.82
459.099	892.21
459.472	873.9
459.845	891.3
460.218	864.86
460.591	895.37
460.964	910.06
461.337	928.59
461.71	936.27
462.083	961.13
462.456	949.61
462.829	958.42
463.201	972.21
463.574	975.82
463.947	991.64
464.32	1013.56
464.692	1022.6
465.065	1022.83
465.438	1018.76
465.81	1044.97
466.183	1037.74
466.555	1084.07
466.928	1060.57
467.3	1067.34
467.672	1069.15
468.045	1115.25
468.417	1131.3
468.789	1122.26
469.161	1120.9
469.534	1149.15
469.906	1185.53
470.278	1172.2
470.65	1198.64
471.022	1202.93
471.394	1256.94
471.766	1247.68
472.138	1265.53
472.51	1267.34
472.882	1299.43
473.253	1316.38
473.625	1335.13
473.997	1346.89
474.369	1379.65
474.74	1407
475.112	1433.66
475.484	1422.36
475.855	1461.91
476.227	1480.89
476.598	1516.82
476.97	1512.76
477.341	1534
477.713	1561.12
478.084	1611.06
478.455	1627.1
478.827	1670.04
479.198	1705.29
479.569	1704.84
479.94	1771.28
480.311	1760.89
480.682	1816.7
481.053	1881.56
481.424	1902.35
481.795	1930.15
482.166	1959.98
482.537	1964.95
482.908	2045.4
483.279	2059.86
483.65	2089.46
484.021	2124.72
484.391	2159.97
484.762	2200.87
485.133	2203.36
485.503	2256.24
485.874	2297.59
486.244	2326.29
486.615	2365.39
486.985	2439.96
487.356	2465.05
487.726	2502.34
488.097	2546.18
488.467	2543.46
488.837	2635.44
489.207	2657.81
489.578	2720.18
489.948	2732.39
490.318	2756.57
490.688	2762.89
491.058	2831.82
491.428	2874.75
491.798	2940.06
492.168	2975.77
492.538	2950.46
492.908	3026.84
493.278	3057.8
493.648	3053.28
494.017	3082.66
494.387	3147.29
494.757	3188.19
495.126	3206.05
495.496	3187.52
495.866	3258.93
496.235	3344.8
496.605	3306.16
496.974	3350.45
497.344	3388.19
497.713	3437
498.082	3430.45
498.452	3523.55
498.821	3528.07
499.19	3548.64
499.559	3545.25
499.928	3532.82
500.298	3606.26
500.667	3615.3
501.036	3626.83
501.405	3668.18
501.774	3690.33
502.143	3670.44
502.512	3739.36
502.88	3747.27
503.249	3793.6
503.618	3814.39
503.987	3820.49
504.356	3837.89
504.724	3815.97
505.093	3872.47
505.462	3888.97
505.83	3905.01
506.199	3932.81
506.567	3952.92
506.936	3970.09
507.304	4029.3
507.672	4015.52
508.041	4022.52
508.409	4052.35
508.777	4088.28
509.145	4138
509.514	4099.13
509.882	4156.08
510.25	4155.4
510.618	4192.91
510.986	4138.9
511.354	4194.72
511.722	4261.84
512.09	4206.7
512.458	4218.9
512.826	4286.02
513.193	4331.89
513.561	4274.94
513.929	4342.29
514.297	4342.06
514.664	4359.69
515.032	4374.38
515.4	4367.37
515.767	4454.6
516.135	4419.57
516.502	4418.67
516.869	4473.81
517.237	4475.39
517.604	4477.65
517.972	4485.56
518.339	4535.05
518.706	4494.83
519.073	4558.33
519.44	4583.18
519.808	4606.46
520.175	4579.12
520.542	4656.18
520.909	4627.25
521.276	4660.47
521.643	4682.17
522.009	4699.57
522.376	4689.62
522.743	4722.62
523.11	4774.82
523.477	4820.01
523.843	4802.84
524.21	4865.21
524.577	4912.44
524.943	4890.75
525.31	4917.41
525.676	4955.38
526.043	4899.11
526.409	4970.97
526.776	5006.68
527.142	5040.12
527.508	5086.45
527.874	5054.58
528.241	5083.06
528.607	5106.33
528.973	5207.8
529.339	5122.83
529.705	5182.26
530.071	5271.53
530.437	5262.26
530.803	5269.95
531.169	5308.82
531.535	5359.89
531.901	5373.45
532.267	5360.57
532.632	5387.91
532.998	5411.41
533.364	5459.77
533.73	5431.07
534.095	5536.61
534.461	5542.93
534.826	5532.54
535.192	5584.74
535.557	5573.22
535.923	5606.89
536.288	5577.51
536.653	5602.37
537.019	5647.56
537.384	5634
537.749	5677.39
538.114	5699.99
538.479	5752.65
538.845	5732.53
539.21	5748.13
539.575	5749.71
539.94	5780.44
540.305	5845.3
540.67	5839.2
541.034	5868.57
541.399	5896.37
541.764	5896.37
542.129	5957.16
542.494	5963.49
542.858	5958.74
543.223	5962.81
543.587	6050.26
543.952	6035.58
544.316	6077.38
544.681	6089.36
545.045	6067.44
545.41	6111.28
545.774	6164.16
546.138	6185.85
546.503	6236.25
546.867	6245.06
547.231	6296.36
547.595	6302.69
547.959	6327.32
548.324	6319.64
548.688	6379.75
549.052	6431.27
549.416	6413.64
549.779	6394.89
550.143	6429.01
550.507	6499.74
550.871	6492.74
551.235	6473.08
551.599	6552.4
551.962	6530.25
552.326	6548.1
552.689	6569.35
553.053	6612.74
553.417	6607.54
553.78	6691.38
554.143	6611.15
554.507	6649.8
554.87	6745.84
555.234	6814.76
555.597	6742.68
555.96	6798.27
556.323	6790.36
556.686	6766.4
557.05	6873.75
557.413	6812.28
557.776	6882.11
558.139	6894.54
558.502	6930.02
558.865	6959.39
559.228	6980.64
559.59	7000.97
559.953	6961.43
560.316	7092.5
560.679	7090.92
561.041	7127.52
561.404	7086.4
561.767	7137.24
562.129	7126.17
562.492	7218.37
562.854	7197.58
563.217	7195.77
563.579	7228.76
563.941	7321.64
564.304	7332.04
564.666	7343.56
565.028	7322.55
565.39	7377.01
565.753	7437.35
566.115	7408.87
566.477	7464.69
566.839	7470.79
567.201	7543.33
567.563	7550.34
567.925	7602.99
568.287	7573.61
568.648	7644.8
569.01	7671.69
569.372	7726.38
569.734	7700.16
570.095	7775.87
570.457	7769.99
570.819	7824.46
571.18	7831.46
571.542	7928.63
571.903	7891.8
572.265	7986.71
572.626	8008.63
572.987	8064.67
573.349	8026.48
573.71	8134.05
574.071	8167.72
574.432	8266.7
574.794	8320.49
575.155	8350.09
575.516	8319.81
575.877	8387.6
576.238	8447.04
576.599	8555.51
576.96	8668.05
577.32	8711.44
577.681	8739.23
578.042	8895.16
578.403	8974.26
578.763	8922.96
579.124	9095.61
579.485	9152.1
579.845	9220.35
580.206	9380.57
580.566	9421.48
580.927	9482.72
581.287	9643.84
581.648	9801.8
582.008	9878.86
582.368	10085.19
582.728	10184.17
583.089	10317.95
583.449	10454.89
583.809	10579.19
584.169	10729.24
584.529	10939.4
584.889	11122.45
585.249	11277.7
585.609	11410.8
585.969	11607.41
586.329	11771.47
586.688	12152.93
587.048	12213.04
587.408	12404.67
587.768	12638.11
588.127	12921.72
588.487	13091.89
588.846	13406.68
589.206	13519.67
589.565	13717.18
589.925	14009.15
590.284	14329.14
590.643	14489.36
591.003	14829.02
591.362	15081.89
591.721	15276.69
592.08	15595.78
592.44	15840.74
592.799	16125.93
593.158	16399.6
593.517	16619.48
593.876	17068.28
594.235	17191.89
594.593	17415.84
594.952	17841.59
595.311	18071.64
595.67	18477.28
596.029	18770.38
596.387	19065.29
596.746	19420.53
597.104	19602.45
597.463	19933.97
597.822	20150.68
598.18	20473.84
598.538	20706.83
598.897	21125.57
599.255	21205.8
599.613	21856.85
599.972	22041.03
600.33	22185.89
600.688	22446.22
601.046	22843.72
601.404	23210.49
601.762	23366.42
602.12	23810.25
602.478	24102.22
602.836	24364.36
603.194	24527.29
603.552	24952.14
603.91	24924.34
604.268	25386.93
604.625	25542.63
604.983	25938.56
605.341	26047.03
605.698	26467.13
606.056	26818.08
606.413	26951.86
606.771	27232.08
607.128	27489.02
607.485	27594.78
607.843	27824.83
608.2	28124.94
608.557	28571.25
608.914	28585.72
609.272	28877.69
609.629	29145.7
609.986	29535.52
610.343	29507.73
610.7	30033.81
611.057	30040.37
611.414	30265.45
611.771	30400.36
612.127	30634.48
612.484	30901.81
612.841	31247.34
613.198	31144.52
613.554	31364.63
613.911	31770.72
614.267	31783.83
614.624	32053.87
614.98	32285.73
615.337	32488.67
615.693	32582.22
616.05	32642.56
616.406	32941.08
616.762	33087.97
617.118	33199.61
617.475	33445.25
617.831	33720.27
618.187	33740.84
618.543	33877.33
618.899	34266.02
619.255	34232.8
619.611	34289.97
619.967	34603.86
620.323	34568.84
620.678	34637.99
621.034	34696.97
621.39	34820.58
621.746	34925.89
622.101	35498.76
622.457	35307.8
622.812	35421.47
623.168	35555.25
623.523	35785.08
623.879	35830.05
624.234	35811.74
624.589	36010.15
624.945	36007.22
625.3	36169.92
625.655	36166.08
626.01	36216.93
626.365	36423.7
626.72	36338.96
627.075	36386.42
627.43	36687.65
627.785	36413.53
628.14	36646.3
628.495	36784.37
628.85	36781.66
629.205	36670.48
629.559	36971.49
629.914	36998.15
630.269	36990.02
630.623	36886.74
630.978	36908.21
631.332	37078.15
631.687	37173.51
632.041	37131.71
632.396	37276.56
632.75	37083.12
633.104	37263.23
633.459	37031.14
633.813	37207.41
634.167	37220.29
634.521	37224.36
634.875	37277.92
635.229	37288.31
635.583	37136.9
635.937	37136
636.291	37090.8
636.645	37247.86
636.999	37160.18
637.352	37293.28
637.706	37132.84
638.06	37231.37
638.413	37185.49
638.767	37141.88
639.121	37189.78
639.474	36965.84
639.828	37209.45
640.181	37264.36
640.534	37300.06
640.888	37219.61
641.241	36997.25
641.594	37123.35
641.947	37235.89
642.301	37194.08
642.654	37243.12
643.007	37287.18
643.36	37180.52
643.713	37140.52
644.066	37230.46
644.419	37031.82
644.771	36816.69
645.124	36623.92
645.477	36531.95
645.83	36362.46
646.182	36225.06
646.535	36121.34
646.888	36242.92
647.24	36016.03
647.593	36198.85
647.945	36138.06
648.298	35991.85
648.65	35908.24
649.002	35962.7
649.355	36080.21
649.707	35981.23
650.059	36041.57
650.411	36555.23
650.763	36572.17
651.115	36913.63
651.467	36755.9
651.819	36853.75
652.171	36801.09
652.523	36837.03
652.875	36670.93
653.227	36561.55
653.578	36871.15
653.93	36692.4
654.282	36571.72
654.633	36408.56
654.985	36712.74
655.337	36623.7
655.688	36697.59
656.039	36732.17
656.391	36436.36
656.742	36561.1
657.094	36496.7
657.445	36688.33
657.796	36714.09
658.147	36567.88
658.498	36659.4
658.849	36609.69
659.2	36532.63
659.551	36487.88
659.902	36539.41
660.253	36517.49
660.604	36446.98
660.955	36363.14
661.306	36564.94
661.656	36374.21
662.007	36448.34
662.358	36456.47
662.708	36419.18
663.059	36406.53
663.409	36207.89
663.76	36482.01
664.11	36406.3
664.461	36476.58
664.811	36576.02
665.161	36398.17
665.511	36329.92
665.862	36388.68
666.212	36493.31
666.562	36562.46
666.912	36511.84
667.262	36349.81
667.612	36286.08
667.962	36559.07
668.312	36278.85
668.662	36331.5
669.011	36323.82
669.361	36358.62
669.711	36263.93
670.06	36195.01
670.41	36192.52
670.76	36159.53
671.109	36319.3
671.459	36326.08
671.808	36086.76
672.157	36225.97
672.507	36048.57
672.856	36184.16
673.205	36190.72
673.554	36244.95
673.904	36048.35
674.253	36312.29
674.602	36211.05
674.951	35585.08
675.3	35531.3
675.649	36160.89
675.998	36213.99
676.346	35975.58
676.695	36224.61
677.044	35872.98
677.393	36171.73
677.741	35990.72
678.09	35979.65
678.438	35807.22
678.787	35971.74
679.135	36063.71
679.484	35720.9
679.832	35924.06
680.181	35671.63
680.529	35711.18
680.877	35648.58
681.225	35742.82
681.573	35802.02
681.922	35561.35
682.27	35421.24
682.618	35518.87
682.966	35359.32
683.314	35435.25
683.661	35308.48
684.009	35167.24
684.357	35096.73
684.705	34976.28
685.053	35192.1
685.4	35058.54
685.748	34896.96
686.095	34818.1
686.443	34841.82
686.79	34738.32
687.138	34760.47
687.485	34835.27
687.832	34665.33
688.18	34638.21
688.527	34496.75
688.874	34480.93
689.221	34338.79
689.568	34338.33
689.915	34240.03
690.262	34306.47
690.609	34194.16
690.956	34184.67
691.303	34074.61
691.65	33984.45
691.997	33895.86
692.344	33711.91
692.69	33606.6
693.037	33720.27
693.383	33414.29
693.73	33596.88
694.077	33353.28
694.423	33405.03
694.769	33170.68
695.116	33218.59
695.462	33087.07
695.808	33033.74
696.155	33103.56
696.501	32878.49
696.847	32781.09
697.193	32498.61
697.539	32707.19
697.885	32362.12
698.231	32364.6
698.577	32349.91
698.923	32152.18
699.269	32170.71
699.614	31965.52
699.96	32006.42
700.306	31951.5
700.651	31916.03
700.997	31732.08
701.342	31626.77
701.688	31602.14
702.033	31510.16
702.379	31644.17
702.724	31377.51
703.069	31578.41
703.415	31123.5
703.76	31120.11
704.105	31171.64
704.45	31053.45
704.795	30989.5
705.14	30784.98
705.485	30872.21
705.83	30714.25
706.175	30804.64
706.52	30595.38
706.865	30672.89
707.209	30520.81
707.554	30284.43
707.899	30471.77
708.243	30263.19
708.588	30261.15
708.932	30052.57
709.277	29992.01
709.621	30116.52
709.966	29902.07
710.31	29815.52
710.654	29661.85
710.998	29756.31
711.342	29696.42
711.687	29592.24
712.031	29543.88
712.375	29355.87
712.719	29438.8
713.063	29327.84
713.407	29519.48
713.75	29196.55
714.094	29160.84
714.438	29085.37
714.782	29260.95
715.125	29070.68
715.469	29119.04
715.812	28919.72
716.156	28712.95
716.499	28803.79
716.843	28782.77
717.186	28593.4
717.53	28854.18
717.873	28693.96
718.216	28630.46
718.559	28441.31
718.902	28403.8
719.246	28423.01
719.589	28322.22
719.932	28217.14
720.275	28141.21
720.617	28110.25
720.96	28150.47
721.303	28048.33
721.646	27980.76
721.989	27989.35
722.331	28017.37
722.674	27942.8
723.016	27959.07
723.359	27841.33
723.701	27860.09
724.044	27695.57
724.386	27648.34
724.729	27689.24
725.071	27525.63
725.413	27586.65
725.755	27706.64
726.097	27564.05
726.439	27382.59
726.782	27338.74
727.124	27465.52
727.465	27285.41
727.807	27256.26
728.149	27282.7
728.491	27270.72
728.833	27241.35
729.175	27147.34
729.516	27044.29
729.858	27067.79
730.199	27094.68
730.541	27021.46
730.882	26930.39
731.224	27071.18
731.565	26898.98
731.906	26804.97
732.248	26838.42
732.589	26696.5
732.93	26510.97
733.271	26596.39
733.612	26644.98
733.953	26653.34
734.294	26530.63
734.635	26400.92
734.976	26536.51
735.317	26402.5
735.658	26347.36
735.999	26401.59
736.339	26268.94
736.68	26263.29
737.021	26260.81
737.361	26134.26
737.702	26251.99
738.042	26115.95
738.383	26170.41
738.723	26135.61
739.063	25912.34
739.404	26112.34
739.744	25911.44
740.084	25944.43
740.424	25959.12
740.764	25814.49
741.104	25986.92
741.444	26014.94
741.784	25802.74
742.124	25849.52
742.464	25739.92
742.804	25687.49
743.143	25671.22
743.483	25643.2
743.823	25552.8
744.162	25558.45
744.502	25540.15
744.841	25506.93
745.181	25465.35
745.52	25467.38
745.86	25546.7
746.199	25491.34
746.538	25285.69
746.877	25400.04
747.216	25247.5
747.556	25326.14
747.895	25221.29
748.234	25144.68
748.573	25197.78
748.911	25116.2
749.25	24980.39
749.589	25008.86
749.928	25000.95
750.267	25012.03
750.605	24879.83
750.944	24887.74
751.283	24739.49
751.621	24848.19
751.96	24687.97
752.298	24712.15
752.636	24720.51
752.975	24606.16
753.313	24438.03
753.651	24544.02
753.989	24527.52
754.327	24383.57
754.666	24333.85
755.004	24409.78
755.342	24324.36
755.679	24291.82
756.017	24271.25
756.355	24214.53
756.693	24110.58
757.031	24279.39
757.368	23955.78
757.706	23999.62
758.044	24010.24
758.381	24016.12
758.719	23850.02
759.056	23938.16
759.394	23762.34
759.731	23654.1
760.068	23664.04
760.405	23557.15
760.743	23472.86
761.08	23556.47
761.417	23434.67
761.754	23331.84
762.091	23387.21
762.428	23264.95
762.765	23156.26
763.102	23115.13
763.438	22909.71
763.775	22944.74
764.112	22906.77
764.449	22954.23
764.785	22855.47
765.122	22716.27
765.458	22621.81
765.795	22640.79
766.131	22554.69
766.467	22462.26
766.804	22436.05
767.14	22304.07
767.476	22315.37
767.812	22174.13
768.148	22199.44
768.485	21971.65
768.821	21977.98
769.157	21867.25
769.492	21871.09
769.828	21878.78
770.164	21697.99
770.5	21544.55
770.836	21582.51
771.171	21457.32
771.507	21390.88
771.842	21305.23
772.178	21251.9
772.513	21212.58
772.849	21107.27
773.184	21069.98
773.519	20991.11
773.855	20829.09
774.19	20919.93
774.525	20768.75
774.86	20866.15
775.195	20641.75
775.53	20563.56
775.865	20446.04
776.2	20264.58
776.535	20247.86
776.87	20282.43
777.205	20119.27
777.539	20096.67
777.874	20194.3
778.209	19917.24
778.543	19908.66
778.878	19741.2
779.212	19757.7
779.547	19608.1
779.881	19684.48
780.215	19504.37
780.55	19586.86
780.884	19412.63
781.218	19430.93
781.552	19398.61
781.886	19372.4
782.22	19125.63
782.554	19108.68
782.888	19026.19
783.222	18830.27
783.556	18727.22
783.889	18759.31
784.223	18586.88
784.557	18611.97
784.89	18644.96
785.224	18530.39
785.557	18450.84
785.891	18442.71
786.224	18272.09
786.558	18341.92
786.891	18084.3
787.224	18044.75
787.557	18100.34
787.891	18054.92
788.224	17995.94
788.557	17927.24
788.89	17844.08
789.223	17800.46
789.556	17758.21
789.888	17629.4
790.221	17546.46
790.554	17392.57
790.887	17472.34
791.219	17294.04
791.552	17325.22
791.884	17293.36
792.217	17204.32
792.549	17146.47
792.882	17024.67
793.214	16925.68
793.546	16974.5
793.879	16791.23
794.211	16835.07
794.543	16862.18
794.875	16690.21
795.207	16841.85
795.539	16686.82
795.871	16581.06
796.203	16546.49
796.535	16377.45
796.867	16352.82
797.198	16296.32
797.53	16275.08
797.862	16241.64
798.193	16262.65
798.525	16212.94
798.856	16138.13
799.188	15978.14
799.519	16029.44
799.85	15862.66
800.182	15901.53
800.513	15933.17
800.844	15791.7
801.175	15795.32
801.506	15742.89
801.837	15680.07
802.168	15579.73
802.499	15536.57
802.83	15536.57
803.161	15438.27
803.491	15474.42
803.822	15469.9
804.153	15290.7
804.483	15167.99
804.814	15218.61
805.145	15175.9
805.475	15131.83
805.805	15025.62
806.136	15091.83
806.466	15058.16
806.796	15022.68
807.126	14942.46
807.457	14922.12
807.787	14889.81
808.117	14831.5
808.447	14747.89
808.777	14882.57
809.107	14711.73
809.436	14666.08
809.766	14650.94
810.096	14588.57
810.426	14537.27
810.755	14535.69
811.085	14500.89
811.414	14439.42
811.744	14340.22
812.073	14271.07
812.403	14271.97
812.732	14224.51
813.061	14220.45
813.39	14107.45
813.719	14093.89
814.049	14154.23
814.378	14072.88
814.707	14031.98
815.036	14076.27
815.365	13932.32
815.693	13817.97
816.022	13829.04
816.351	13795.6
816.68	13742.27
817.008	13762.38
817.337	13624.98
817.665	13639.67
817.994	13627.01
818.322	13672.21
818.651	13588.82
818.979	13533.68
819.307	13525.1
819.636	13521.93
819.964	13434.03
820.292	13455.72
820.62	13487.36
820.948	13370.75
821.276	13420.24
821.604	13333.46
821.932	13387.02
822.259	13374.59
822.587	13371.2
822.915	13298.21
823.243	13356.29
823.57	13310.41
823.898	13313.12
824.225	13256.63
824.553	13362.84
824.88	13290.75
825.207	13317.19
825.535	13284.2
825.862	13276.06
826.189	13204.65
826.516	13337.53
826.843	13319.68
827.17	13314.03
827.497	13365.55
827.824	13348.83
828.151	13371.2
828.478	13346.57
828.805	13413.46
829.131	13240.13
829.458	13322.84
829.785	13226.35
830.111	13235.84
830.438	13349.73
830.764	13305.44
831.09	13363.97
831.417	13214.6
831.743	13269.51
832.069	13296.4
832.395	13148.38
832.722	13222.05
833.048	13217.31
833.374	13197.2
833.7	13073.36
834.026	13172.56
834.351	13141.15
834.677	13121.72
835.003	13148.61
835.329	13150.42
835.654	13038.56
835.98	12990.2
836.306	13030.42
836.631	13007.14
836.956	13021.38
837.282	13078.1
837.607	12980.93
837.932	12917.43
838.258	12915.85
838.583	12995.17
838.908	12834.49
839.233	12867.94
839.558	12899.12
839.883	12839.69
840.208	12748.39
840.533	12787.26
840.858	12747.94
841.182	12695.06
841.507	12735.29
841.832	12701.84
842.156	12641.28
842.481	12590.43
842.805	12574.84
843.13	12502.75
843.454	12589.98
843.778	12527.61
844.103	12465.46
844.427	12406.03
844.751	12460.94
845.075	12469.08
845.399	12396.76
845.723	12295.3
846.047	12255.53
846.371	12158.13
846.695	12225.7
847.019	12186.37
847.343	11991.13
847.666	12004.23
847.99	11979.15
848.313	11942.99
848.637	11934.86
848.96	11830
849.284	11809.66
849.607	11761.98
849.931	11698.03
850.254	11625.49
850.577	11571.48
850.9	11567.63
851.223	11553.17
851.546	11414.64
851.869	11307.3
852.192	11402.44
852.515	11254.42
852.838	11275.21
853.161	11191.6
853.483	11175.55
853.806	11161.99
854.129	11112.73
854.451	11092.17
854.774	11104.14
855.096	10990.02
855.419	10952.06
855.741	10953.41
856.063	10896.69
856.385	10904.37
856.708	10936.24
857.03	10783.25
857.352	10798.39
857.674	10710.71
857.996	10737.37
858.318	10624.16
858.64	10703.7
858.961	10626.87
859.283	10631.16
859.605	10482.01
859.926	10554.1
860.248	10486.53
860.57	10419.19
860.891	10477.04
861.212	10442.69
861.534	10393.43
861.855	10392.3
862.176	10389.36
862.498	10350.72
862.819	10371.73
863.14	10393.43
863.461	10326.54
863.782	10242.24
864.103	10250.38
864.424	10257.39
864.745	10197.5
865.065	10150.27
865.386	10192.75
865.707	10130.38
866.027	10143.94
866.348	10132.19
866.668	10095.58
866.989	10065.98
867.309	9990.5
867.63	9992.76
867.95	9941.01
868.27	9887
868.59	9886.55
868.91	9950.05
869.23	9981.46
869.55	9846.1
869.87	9903.5
870.19	9879.32
870.51	9896.72
870.83	9814.01
871.15	9850.16
871.469	9783.95
871.789	9853.55
872.109	9851.07
872.428	9785.76
872.748	9767.91
873.067	9788.92
873.386	9800.67
873.706	9769.94
874.025	9724.52
874.344	9646.33
874.663	9586.22
874.982	9649.94
875.301	9709.83
875.62	9604.97
875.939	9541.25
876.258	9551.64
876.577	9557.74
876.896	9577.4
877.214	9524.07
877.533	9510.06
877.852	9536.27
878.17	9507.12
878.489	9546.9
878.807	9476.84
879.125	9446.79
879.444	9359.1
879.762	9398.2
880.08	9342.16
880.398	9410.63
880.716	9374.7
881.034	9398.65
881.352	9350.74
881.67	9295.15
881.988	9254.7
882.306	9284.3
882.624	9327.24
882.941	9206.57
883.259	9200.46
883.577	9230.52
883.894	9144.87
884.212	9175.61
884.529	9097.64
884.846	9067.59
885.164	9071.88
885.481	8979.23
885.798	9038.43
886.115	8926.8
886.432	8975.61
886.75	8897.2
887.067	9014.03
887.383	8917.08
887.7	8910.3
888.017	8831.21
888.334	8867.59
888.651	8914.37
888.967	8845.9
889.284	8766.13
889.6	8711.89
889.917	8685.45
890.233	8664.66
890.55	8656.75
890.866	8641.61
891.182	8608.39
891.498	8659.46
891.815	8563.19
892.131	8565.68
892.447	8486.81
892.763	8512.35
893.079	8491.78
893.395	8460.14
893.71	8431.9
894.026	8398.23
894.342	8425.57
894.657	8352.58
894.973	8322.97
895.289	8303.99
895.604	8278.91
895.92	8294.5
896.235	8182.41
896.55	8261.28
896.865	8201.17
897.181	8124.11
897.496	8143.77
897.811	8108.97
898.126	8077.1
898.441	8052.02
898.756	7991.23
899.071	7963.21
899.386	7967.95
899.7	7935.64
900.015	7916.66
900.33	7847.73
900.644	7799.82
900.959	7887.96
901.273	7820.84
901.588	7746.72
901.902	7719.15
902.216	7676.89
902.531	7683.22
902.845	7585.59
903.159	7594.63
903.473	7537.23
903.787	7509.89
904.101	7524.12
904.415	7478.48
904.729	7411.58
905.042	7434.64
905.356	7379.5
905.67	7343.56
905.984	7372.72
906.297	7309.89
906.611	7271.48
906.924	7304.92
907.237	7302.21
907.551	7212.04
907.864	7170.46
908.177	7157.35
908.491	7140.63
908.804	7084.59
909.117	7064.25
909.43	7069.67
909.743	7020.41
910.056	7012.05
910.368	6955.55
910.681	6905.16
910.994	6880.07
911.307	6902.67
911.619	6849.11
911.932	6857.93
912.244	6767.08
912.557	6742.45
912.869	6741.32
913.181	6739.06
913.494	6703.13
913.806	6676.24
914.118	6619.74
914.43	6635.79
914.742	6630.81
915.054	6562.57
915.366	6560.08
915.678	6503.59
915.99	6461.1
916.302	6457.94
916.613	6426.75
916.925	6412.06
917.236	6434.66
917.548	6324.61
917.859	6397.37
918.171	6229.69
918.482	6209.81
918.794	6232.86
919.105	6223.37
919.416	6156.48
919.727	6180.88
920.038	6151.5
920.349	6118.06
920.66	6091.85
920.971	6115.8
921.282	6052.98
921.593	6020.66
921.903	5967.33
922.214	5974.11
922.525	6004.84
922.835	5928.91
923.146	5886.2
923.456	5876.71
923.767	5838.52
924.077	5830.38
924.387	5845.98
924.697	5820.44
925.008	5781.12
925.318	5722.14
925.628	5698.64
925.938	5664.74
926.248	5648.47
926.558	5629.03
926.867	5602.37
927.177	5592.88
927.487	5544.52
927.796	5501.58
928.106	5478.98
928.416	5513.1
928.725	5434.91
929.034	5422.26
929.344	5398.53
929.653	5417.06
929.962	5396.5
930.271	5317.4
930.581	5345.65
930.89	5315.14
931.199	5273.79
931.508	5281.47
931.817	5258.87
932.125	5228.14
932.434	5258.2
932.743	5156.5
933.051	5155.37
933.36	5082.15
933.669	5070.86
933.977	5017.07
934.286	5076.28
934.594	5006.22
934.902	4993.12
935.21	4955.38
935.519	4957.64
935.827	4932.78
936.135	4926.45
936.443	4886.23
936.751	4834.48
937.059	4867.7
937.367	4827.7
937.674	4800.13
937.982	4788.15
938.29	4816.4
938.597	4764.2
938.905	4715.61
939.213	4667.02
939.52	4705.89
939.827	4702.5
940.135	4641.71
940.442	4647.59
940.749	4610.75
941.056	4640.58
941.363	4608.49
941.67	4584.99
941.977	4547.71
942.284	4489.4
942.591	4483.98
942.898	4495.05
943.205	4438.1
943.511	4432
943.818	4415.96
944.125	4378.67
944.431	4406.01
944.738	4375.28
945.044	4368.5
945.35	4368.73
945.657	4311.78
945.963	4286.92
946.269	4294.83
946.575	4292.57
946.881	4243.76
947.187	4232.46
947.493	4244.21
947.799	4194.27
948.105	4179.81
948.41	4165.57
948.716	4131.45
949.022	4132.35
949.327	4094.38
949.633	4046.93
949.938	4080.37
950.244	4079.24
950.549	4026.82
950.854	3986.82
951.16	3966.93
951.465	3983.43
951.77	3959.25
952.075	3928.96
952.38	3954.73
952.685	3917.21
952.99	3882.41
953.294	3877.89
953.599	3842.19
953.904	3850.55
954.209	3812.58
954.513	3820.94
954.818	3793.83
955.122	3780.04
955.426	3797.67
955.731	3732.59
956.035	3718.8
956.339	3684.68
956.643	3706.82
956.948	3663.21
957.252	3668.63
957.556	3656.2
957.86	3646.49
958.163	3597.9
958.467	3600.61
958.771	3616.88
959.075	3582.76
959.378	3531.46
959.682	3534.17
959.985	3574.85
960.289	3526.49
960.592	3517.68
960.896	3492.37
961.199	3499.82
961.502	3449.43
961.805	3484.91
962.108	3392.03
962.411	3399.26
962.714	3407.85
963.017	3381.41
963.32	3416.21
963.623	3354.74
963.926	3362.2
964.228	3338.92
964.531	3289.21
964.833	3290.79
965.136	3263.45
965.438	3242.43
965.741	3228.42
966.043	3246.27
966.345	3251.24
966.648	3205.37
966.95	3230.9
967.252	3166.95
967.554	3155.2
967.856	3170.34
968.158	3125.14
968.46	3145.26
968.761	3078.82
969.063	3108.87
969.365	3095.99
969.666	3055.77
969.968	3055.77
970.269	3044.47
970.571	3007.41
970.872	3044.69
971.174	3026.16
971.475	2971.02
971.776	3007.63
972.077	2960.85
972.378	2925.83
972.679	2944.81
972.98	2926.96
973.281	2935.77
973.582	2925.38
973.883	2909.33
974.183	2872.04
974.484	2893.29
974.785	2879.05
975.085	2809.22
975.386	2813.51
975.686	2842.21
975.986	2774.42
976.287	2784.81
976.587	2725.38
976.887	2742.78
977.187	2769.45
977.487	2764.7
977.787	2734.42
978.087	2705.49
978.387	2681.31
978.687	2721.76
978.987	2668.21
979.286	2648.32
979.586	2649.68
979.885	2625.72
980.185	2623.46
980.484	2639.73
980.784	2613.52
981.083	2562.9
981.382	2613.52
981.682	2610.81
981.981	2559.51
982.28	2571.26
982.579	2570.58
982.878	2551.37
983.177	2559.06
983.475	2550.7
983.774	2510.02
984.073	2493.75
984.372	2444.26
984.67	2468.66
984.969	2506.63
985.267	2469.34
985.566	2418.04
985.864	2444.94
986.162	2420.3
986.461	2428.66
986.759	2403.35
987.057	2385.73
987.355	2377.59
987.653	2354.54
987.951	2362.23
988.249	2344.15
988.547	2343.47
988.844	2337.14
989.142	2293.98
989.44	2323.81
989.737	2274.54
990.035	2289.01
990.332	2285.62
990.63	2226.41
990.927	2229.12
991.224	2249.46
991.521	2240.42
991.819	2233.19
992.116	2160.65
992.413	2210.59
992.71	2183.93
993.006	2160.42
993.303	2110.48
993.6	2158.62
993.897	2137.6
994.193	2133.53
994.49	2151.16
994.787	2139.86
995.083	2106.64
995.379	2059.18
995.676	2068.45
995.972	2101.22
996.268	2093.98
996.565	2053.53
996.861	2050.6
997.157	2025.74
997.453	2010.37
997.749	2025.51
998.044	2007.43
998.34	2006.08
998.636	1990.94
998.932	1976.7
999.227	1972.63
999.523	1971.95
999.818	1944.84
1000.114	1923.82
1000.409	1930.37
1000.704	1885.85
1001	1933.99
1001.295	1917.49
1001.59	1877.04
1001.885	1866.65
1002.18	1879.07
1002.475	1865.52
1002.77	1839.3
1003.065	1847.89
1003.359	1853.31
1003.654	1827.1
1003.949	1821.45
1004.243	1797.95
1004.538	1775.8
1004.832	1792.98
1005.127	1797.5
1005.421	1777.83
1005.715	1751.17
1006.009	1760.66
1006.304	1721.56
1006.598	1724.95
1006.892	1750.26
1007.186	1678.18
1007.48	1706.65
1007.773	1685.86
1008.067	1654.67
1008.361	1682.92
1008.655	1652.64
1008.948	1642.02
1009.242	1643.83
1009.535	1642.7
1009.829	1650.38
1010.122	1588.01
1010.415	1628.46
1010.708	1579.2
1011.001	1591.4
1011.295	1587.11
1011.588	1549.59
1011.881	1574.22
1012.173	1558.86
1012.466	1556.15
1012.759	1550.72
1013.052	1512.08
1013.344	1499.88
1013.637	1519.31
1013.93	1467.56
1014.222	1497.84
1014.514	1478.63
1014.807	1487.45
1015.099	1486.99
1015.391	1485.86
1015.683	1463.49
1015.976	1426.66
1016.268	1445.41
1016.56	1429.6
1016.851	1424.17
1017.143	1413.78
1017.435	1421.01
1017.727	1370.84
1018.018	1387.56
1018.31	1403.61
1018.602	1380.78
1018.893	1388.01
1019.185	1352.99
1019.476	1354.12
1019.767	1328.35
1020.058	1335.59
1020.35	1298.53
1020.641	1303.95
1020.932	1298.3
1021.223	1324.06
1021.514	1294.23
1021.804	1271.18
1022.095	1252.2
1022.386	1274.12
1022.677	1251.07
1022.967	1254.01
1023.258	1246.1
1023.548	1209.26
1023.839	1227.34
1024.129	1224.18
1024.419	1201.13
1024.709	1210.84
1025	1182.14
1025.29	1157.29
1025.58	1163.16
1025.87	1183.95
1026.16	1176.27
1026.449	1138.53
1026.739	1139.21
1027.029	1132.88
1027.319	1117.29
1027.608	1138.98
1027.898	1115.48
1028.187	1098.08
1028.477	1101.69
1028.766	1086.55
1029.055	1079.32
1029.344	1069.6
1029.634	1059.21
1029.923	1064.41
1030.212	1051.07
1030.501	1059.89
1030.79	1062.83
1031.078	1060.79
1031.367	1043.39
1031.656	1049.72
1031.945	1047.23
1032.233	1017.63
1032.522	1014.01
1032.81	1028.7
1033.099	1000.45
1033.387	1007.23
1033.675	977.86
1033.963	986.22
1034.251	962.71
1034.54	963.62
1034.828	949.16
1035.116	968.82
1035.403	931.53
1035.691	975.6
1035.979	943.73
1036.267	922.72
1036.554	940.34
1036.842	913.9
1037.129	924.3
1037.417	927.91
1037.704	908.03
1037.992	894.24
1038.279	901.47
1038.566	903.73
1038.853	903.73
1039.14	903.73
