Data from hue_310_FLMS001491_30.txt Node
Date: Mon Feb 06 15:49:20 GMT 2017
User: dcchb
Spectrometer: FLMS00149
Trigger mode: 0
Integration Time (sec): 2.000000E-2
Scans to average: 10
Electric dark correction enabled: true
Nonlinearity correction enabled: false
Boxcar width: 0
XAxis mode: Wavelengths
Number of Pixels in Spectrum: 2048
>>>>>Begin Spectral Data<<<<<
341.393	-6.98
341.776	-6.98
342.16	-6.98
342.543	-48.33
342.927	-77.48
343.31	-74.55
343.693	-70.7
344.077	-60.99
344.46	-71.38
344.843	-62.57
345.226	-41.1
345.61	-23.7
345.993	-27.09
346.376	-0.88
346.759	-2.23
347.142	14.04
347.525	46.35
347.908	70.76
348.291	87.03
348.674	109.18
349.057	107.82
349.44	126.35
349.823	151.21
350.206	161.38
350.588	194.6
350.971	208.38
351.354	214.26
351.737	261.26
352.119	235.95
352.502	257.65
352.884	272.34
353.267	288.16
353.65	311.66
354.032	313.69
354.414	319.12
354.797	317.53
355.179	325.9
355.562	332
355.944	319.57
356.326	327.25
356.709	338.1
357.091	331.09
357.473	336.06
357.855	330.64
358.238	317.08
358.62	348.49
359.002	341.94
359.384	346.23
359.766	337.42
360.148	333.13
360.53	339.23
360.912	326.57
361.294	338.1
361.676	340.36
362.057	349.4
362.439	336.74
362.821	356.18
363.203	326.12
363.584	329.29
363.966	339.45
364.348	316.4
364.729	338.32
365.111	322.73
365.493	310.08
365.874	324.54
366.256	325.44
366.637	341.04
367.019	309.17
367.4	332.9
367.781	294.71
368.163	336.74
368.544	305.1
368.925	329.06
369.306	327.93
369.688	323.86
370.069	313.24
370.45	315.95
370.831	325.67
371.212	301.72
371.593	313.24
371.974	326.35
372.355	308.04
372.736	297.42
373.117	336.52
373.498	316.18
373.879	320.7
374.26	282.96
374.641	307.59
375.021	337.19
375.402	308.04
375.783	320.47
376.163	333.13
376.544	317.99
376.925	307.82
377.305	299.46
377.686	334.48
378.066	329.96
378.447	342.39
378.827	337.19
379.208	333.35
379.588	355.27
379.968	331.09
380.349	327.7
380.729	343.3
381.109	338.32
381.489	352.11
381.87	328.83
382.25	331.77
382.63	320.92
383.01	364.54
383.39	317.31
383.77	347.59
384.15	349.85
384.53	330.64
384.91	342.84
385.29	335.61
385.67	330.42
386.049	367.48
386.429	315.73
386.809	346.91
387.189	355.5
387.568	368.83
387.948	357.53
388.328	341.71
388.707	366.12
389.087	373.35
389.466	373.58
389.846	350.98
390.225	363.18
390.605	350.75
390.984	365.44
391.363	364.54
391.743	388.04
392.122	371.77
392.501	391.88
392.881	370.19
393.26	390.07
393.639	370.64
394.018	393.24
394.397	370.64
394.776	387.14
395.155	404.09
395.534	392.33
395.913	378.78
396.292	397.76
396.671	375.16
397.05	393.92
397.429	408.38
397.808	402.73
398.186	412.67
398.565	404.99
398.944	396.4
399.323	389.4
399.701	412.9
400.08	406.8
400.458	389.85
400.837	415.84
401.215	419.45
401.594	404.09
401.972	423.29
402.351	445.44
402.729	419.23
403.107	400.92
403.486	412.45
403.864	441.82
404.242	423.52
404.62	421.49
404.999	406.57
405.377	431.2
405.755	446.57
406.133	438.21
406.511	450.64
406.889	454.71
407.267	453.12
407.645	444.31
408.023	432.56
408.401	448.6
408.779	489.73
409.156	464.2
409.534	487.47
409.912	463.74
410.29	497.19
410.667	515.27
411.045	496.74
411.422	498.09
411.8	529.05
412.178	512.33
412.555	514.14
412.933	520.01
413.31	541.71
413.687	541.71
414.065	563.18
414.442	559.34
414.819	549.39
415.197	581.93
415.574	590.07
415.951	595.94
416.328	597.3
416.705	592.33
417.082	612.44
417.46	619
417.837	617.19
418.214	614.25
418.591	643.4
418.967	626.45
419.344	621.25
419.721	652.89
420.098	655.38
420.475	689.28
420.852	693.8
421.228	702.16
421.605	696.73
421.982	715.26
422.358	695.15
422.735	730.63
423.111	717.98
423.488	735.38
423.864	748.26
424.241	759.56
424.617	760.91
424.994	750.52
425.37	755.71
425.746	768.6
426.123	785.32
426.499	796.62
426.875	783.51
427.251	779.22
427.627	823.06
428.003	857.63
428.379	829.16
428.756	860.57
429.132	854.7
429.507	873.23
429.883	847.01
430.259	871.42
430.635	884.07
431.011	892.43
431.387	915.03
431.763	929.95
432.138	895.6
432.514	910.06
432.89	974.01
433.265	975.6
433.641	998.42
434.016	991.87
434.392	985.54
434.767	986.22
435.143	1008.59
435.518	1021.92
435.894	1035.93
436.269	1036.16
436.644	1064.86
437.02	1049.27
437.395	1057.63
437.77	1039.1
438.145	1080
438.52	1078.64
438.895	1094.46
439.271	1119.55
439.646	1110.51
440.021	1163.84
440.395	1140.56
440.77	1121.13
441.145	1162.03
441.52	1177.62
441.895	1163.39
442.27	1168.81
442.645	1197.06
443.019	1191.18
443.394	1174.01
443.769	1211.75
444.143	1211.52
444.518	1197.96
444.892	1196.61
445.267	1189.15
445.641	1234.35
446.016	1217.4
446.39	1240
446.764	1222.59
447.139	1211.3
447.513	1216.27
447.887	1261.01
448.262	1253.78
448.636	1247.91
449.01	1284.06
449.384	1270.73
449.758	1283.38
450.132	1278.64
450.506	1282.03
450.88	1295.14
451.254	1280.9
451.628	1293.55
452.002	1332.42
452.376	1334
452.75	1322.71
453.123	1365.42
453.497	1365.87
453.871	1345.98
454.244	1359.77
454.618	1363.61
454.992	1371.07
455.365	1371.29
455.739	1422.82
456.112	1432.98
456.486	1421.23
456.859	1459.65
457.232	1463.72
457.606	1455.81
457.979	1469.37
458.352	1497.16
458.725	1512.98
459.099	1493.1
459.472	1522.47
459.845	1517.73
460.218	1543.94
460.591	1524.06
460.964	1543.04
461.337	1567.67
461.71	1586.88
462.083	1605.86
462.456	1610.83
462.829	1613.77
463.201	1632.08
463.574	1613.09
463.947	1627.33
464.32	1640.44
464.692	1665.07
465.065	1721.11
465.438	1699.19
465.81	1722.47
466.183	1707.55
466.555	1731.28
466.928	1751.85
467.3	1737.84
467.672	1749.81
468.045	1758.63
468.417	1792.52
468.789	1810.15
469.161	1818.06
469.534	1853.99
469.906	1865.52
470.278	1898.51
470.65	1853.99
471.022	1906.42
471.394	1955.46
471.766	1944.16
472.138	1995.23
472.51	1991.39
472.882	2026.42
473.253	2034.33
473.625	2045.85
473.997	2090.59
474.369	2087.88
474.74	2103.7
475.112	2137.6
475.484	2175.56
475.855	2175.11
476.227	2191.38
476.598	2218.05
476.97	2226.86
477.341	2254.88
477.713	2277.71
478.084	2299.18
478.455	2373.53
478.827	2373.98
479.198	2385.05
479.569	2411.49
479.94	2478.61
480.311	2483.58
480.682	2519.28
481.053	2543.46
481.424	2564.93
481.795	2555.44
482.166	2591.37
482.537	2645.83
482.908	2674.99
483.279	2698.49
483.65	2699.39
484.021	2799.28
484.391	2778.49
484.762	2799.73
485.133	2823.46
485.503	2847.41
485.874	2881.99
486.244	2897.35
486.615	2952.72
486.985	2935.77
487.356	3008.54
487.726	3028.88
488.097	3073.85
488.467	3051.47
488.837	3096.9
489.207	3133.96
489.578	3200.62
489.948	3223.67
490.318	3231.36
490.688	3211.02
491.058	3285.37
491.428	3300.05
491.798	3298.47
492.168	3404.01
492.538	3383.22
492.908	3410.79
493.278	3431.8
493.648	3433.61
494.017	3477.68
494.387	3550.22
494.757	3554.06
495.126	3562.65
495.496	3573.95
495.866	3591.35
496.235	3603.55
496.605	3644
496.974	3637.45
497.344	3650.78
497.713	3652.59
498.082	3646.03
498.452	3765.35
498.821	3752.92
499.19	3749.53
499.559	3764.68
499.928	3772.58
500.298	3801.96
500.667	3832.47
501.036	3827.27
501.405	3827.72
501.774	3814.62
502.143	3849.64
502.512	3893.94
502.88	3908.17
503.249	3915.63
503.618	3922.19
503.987	3934.84
504.356	3960.6
504.724	4014.61
505.093	4011
505.462	3988.62
505.83	4029.07
506.199	4068.4
506.567	4039.24
506.936	4086.02
507.304	4074.72
507.672	4078.57
508.041	4131.45
508.409	4110.88
508.777	4119.02
509.145	4187.26
509.514	4165.57
509.882	4190.2
510.25	4218.67
510.618	4252.57
510.986	4190.88
511.354	4235.62
511.722	4257.09
512.09	4291.67
512.458	4304.55
512.826	4287.83
513.193	4294.15
513.561	4335.96
513.929	4352.23
514.297	4395.62
514.664	4396.52
515.032	4383.42
515.4	4385.22
515.767	4405.11
516.135	4431.55
516.502	4396.52
516.869	4483.98
517.237	4498.44
517.604	4446.69
517.972	4482.17
518.339	4503.41
518.706	4478.55
519.073	4544.99
519.44	4526.01
519.808	4524.43
520.175	4549.29
520.542	4601.04
520.909	4576.41
521.276	4601.49
521.643	4609.17
522.009	4613.69
522.376	4686.46
522.743	4665.44
523.11	4736.85
523.477	4749.06
523.843	4724.2
524.21	4757.87
524.577	4810.98
524.943	4804.87
525.31	4774.37
525.676	4836.74
526.043	4858.43
526.409	4923.51
526.776	4923.29
527.142	4914.93
527.508	4928.94
527.874	5004.19
528.241	5026.34
528.607	5012.55
528.973	5075.38
529.339	5032.21
529.705	5084.41
530.071	5181.36
530.437	5145.43
530.803	5165.09
531.169	5188.14
531.535	5227.91
531.901	5234.92
532.267	5239.66
532.632	5321.7
532.998	5322.83
533.364	5320.57
533.73	5342.49
534.095	5373.9
534.461	5361.47
534.826	5456.61
535.192	5434.24
535.557	5480.34
535.923	5496.61
536.288	5523.5
536.653	5588.36
537.019	5491.86
537.384	5568.02
537.749	5550.39
538.114	5603.04
538.479	5555.14
538.845	5625.64
539.21	5605.08
539.575	5672.65
539.94	5685.75
540.305	5736.15
540.67	5699.31
541.034	5711.52
541.399	5784.06
541.764	5847.33
542.129	5791.74
542.494	5833.55
542.858	5871.96
543.223	5879.65
543.587	5926.43
543.952	5897.73
544.316	5958.74
544.681	5983.37
545.045	6035.12
545.41	6052.75
545.774	6062.47
546.138	6029.47
546.503	6121.9
546.867	6118.29
547.231	6178.4
547.595	6154.67
547.959	6218.85
548.324	6183.59
548.688	6221.11
549.052	6265.4
549.416	6276.25
549.779	6328
550.143	6280.99
550.507	6368.22
550.871	6320.31
551.235	6383.14
551.599	6400.31
551.962	6431.27
552.326	6448.45
552.689	6455.68
553.053	6464.72
553.417	6494.55
553.78	6503.59
554.143	6539.07
554.507	6560.53
554.87	6582
555.234	6567.99
555.597	6610.02
555.96	6622.23
556.323	6643.47
556.686	6668.55
557.05	6691.15
557.413	6673.98
557.776	6738.38
558.139	6770.02
558.502	6727.53
558.865	6736.35
559.228	6787.87
559.59	6832.16
559.953	6808.89
560.316	6852.28
560.679	6855.44
561.041	6891.37
561.404	6946.51
561.767	7034.65
562.129	6961.65
562.492	6988.55
562.854	7059.73
563.217	7041.88
563.579	7086.4
563.941	7049.56
564.304	7103.8
564.666	7160.97
565.028	7187.64
565.39	7210.69
565.753	7195.77
566.115	7245.04
566.477	7212.04
566.839	7255.43
567.201	7317.8
567.563	7352.15
567.925	7364.81
568.287	7346.28
568.648	7415.43
569.01	7375.2
569.372	7470.57
569.734	7495.88
570.095	7597.12
570.457	7572.03
570.819	7604.35
571.18	7556.89
571.542	7648.19
571.903	7715.53
572.265	7704.46
572.626	7815.64
572.987	7779.26
573.349	7877.79
573.71	7928.18
574.071	7949.42
574.432	7963.89
574.794	8092.7
575.155	8128.85
575.516	8131.57
575.877	8217.89
576.238	8318.68
576.599	8343.09
576.96	8465.12
577.32	8533.36
577.681	8559.58
578.042	8674.83
578.403	8786.69
578.763	8896.29
579.124	8938.32
579.485	9028.94
579.845	9218.54
580.206	9237.3
580.566	9344.42
580.927	9478.42
581.287	9638.64
581.648	9664.18
582.008	9886.77
582.368	9921.58
582.728	10133.77
583.089	10283.37
583.449	10432.07
583.809	10581.67
584.169	10806.75
584.529	11011.94
584.889	11132.62
585.249	11307.98
585.609	11444.93
585.969	11795.2
586.329	11831.58
586.688	12131.91
587.048	12406.71
587.408	12580.71
587.768	12760.6
588.127	12961.95
588.487	13220.25
588.846	13453.01
589.206	13676.73
589.565	13934.58
589.925	14188.13
590.284	14404.4
590.643	14785.4
591.003	15027.43
591.362	15329.79
591.721	15580.41
592.08	15767.52
592.44	16074.41
592.799	16297.68
593.158	16686.37
593.517	17002.29
593.876	17238.22
594.235	17488.83
594.593	17901.25
594.952	18190.96
595.311	18313.22
595.67	18624.85
596.029	19051.28
596.387	19411.72
596.746	19660.75
597.104	19848.55
597.463	20164.92
597.822	20546.83
598.18	20696.66
598.538	20944.11
598.897	21432.46
599.255	21488.73
599.613	22101.37
599.972	22179.78
600.33	22514.69
600.688	22674.91
601.046	22995.81
601.404	23416.14
601.762	23622.68
602.12	23926.18
602.478	24354.87
602.836	24447.52
603.194	24694.75
603.552	24960.95
603.91	25189.42
604.268	25513.03
604.625	25625.34
604.983	25965.67
605.341	26044.54
605.698	26483.85
606.056	26811.53
606.413	26889.49
606.771	27332.19
607.128	27514.33
607.485	27641.34
607.843	27886.75
608.2	28183.92
608.557	28476.79
608.914	28634.76
609.272	28895.99
609.629	29106.38
609.986	29487.61
610.343	29515.41
610.7	29890.09
611.057	30010.99
611.414	30115.62
611.771	30326.91
612.127	30658.21
612.484	30877.18
612.841	31060.45
613.198	31184.97
613.554	31328.47
613.911	31643.94
614.267	31755.13
614.624	31956.48
614.98	32064.5
615.337	32369.35
615.693	32417.93
616.05	32584.48
616.406	32850.24
616.762	32920.07
617.118	33006.17
617.475	33094.98
617.831	33254.07
618.187	33401.18
618.543	33714.17
618.899	34007.95
619.255	34111.45
619.611	34038.46
619.967	34257.88
620.323	34412.91
620.678	34550.31
621.034	34572.68
621.39	34601.6
621.746	34727.48
622.101	35085.66
622.457	34837.53
622.812	35230.74
623.168	35267.12
623.523	35389.15
623.879	35541.69
624.234	35395.03
624.589	35598.41
624.945	35625.98
625.3	35799.31
625.655	35814.91
626.01	36071.62
626.365	36029.14
626.72	35948.69
627.075	36119.3
627.43	36247.66
627.785	36152.98
628.14	36350.94
628.495	36350.26
628.85	36319.07
629.205	36380.99
629.559	36728.78
629.914	36541.21
630.269	36593.19
630.623	36479.97
630.978	36654.88
631.332	36792.73
631.687	36929
632.041	36704.83
632.396	36847.65
632.75	36761.1
633.104	36860.08
633.459	36743.69
633.813	36812.39
634.167	36801.77
634.521	36859.4
634.875	37038.6
635.229	36996.12
635.583	36848.55
635.937	36854.2
636.291	36921.32
636.645	36927.42
636.999	36887.19
637.352	36913.41
637.706	36815.78
638.06	36990.24
638.413	36756.12
638.767	36824.82
639.121	37042.22
639.474	36857.36
639.828	36851.94
640.181	36791.83
640.534	37031.82
640.888	36780.08
641.241	36567.88
641.594	36758.84
641.947	36872.51
642.301	36830.02
642.654	36840.64
643.007	36841.77
643.36	36833.18
643.713	36676.8
644.066	36865.05
644.419	36678.39
644.771	36368.11
645.124	36067.33
645.477	36127.21
645.83	35930.16
646.182	35814.91
646.535	35724.96
646.888	35773.32
647.24	35608.36
647.593	35765.64
647.945	35687.45
648.298	35426.67
648.65	35466.89
649.002	35526.33
649.355	35612.43
649.707	35598.64
650.059	35758.86
650.411	36241.56
650.763	36302.12
651.115	36604.49
651.467	36446.98
651.819	36509.8
652.171	36495.34
652.523	36389.81
652.875	36463.48
653.227	36207.89
653.578	36500.54
653.93	36408.11
654.282	36239.75
654.633	36210.38
654.985	36179.64
655.337	36239.75
655.688	36272.29
656.039	36368.56
656.391	36043.6
656.742	36107.1
657.094	36154.78
657.445	36289.7
657.796	36118.4
658.147	36142.58
658.498	36199.75
658.849	36243.82
659.2	36133.32
659.551	36097.61
659.902	36189.81
660.253	36168.57
660.604	36313.2
660.955	36002.47
661.306	36246.98
661.656	36213.31
662.007	36122.02
662.358	36099.19
662.708	36056.93
663.059	36094.22
663.409	35844.74
663.76	36168.34
664.11	35941
664.461	36092.64
664.811	36032.75
665.161	36038.85
665.511	35892.19
665.862	35993.88
666.212	36020.55
666.562	36057.39
666.912	35995.92
667.262	35941
667.612	35934.9
667.962	35960.44
668.312	36043.6
668.662	36136.48
669.011	35935.35
669.361	35918.41
669.711	35915.02
670.06	35883.15
670.41	35720.9
670.76	35858.52
671.109	35956.82
671.459	35839.09
671.808	35733.55
672.157	35835.47
672.507	35630.5
672.856	35739.2
673.205	35780.33
673.554	35894
673.904	35703.95
674.253	35880.21
674.602	35810.61
674.951	35223.73
675.3	35177.18
675.649	35788.92
675.998	35613.33
676.346	35724.96
676.695	35790.27
677.044	35519.77
677.393	35633.67
677.741	35674.12
678.09	35518.42
678.438	35471.86
678.787	35602.93
679.135	35654.68
679.484	35348.7
679.832	35463.95
680.181	35201.81
680.529	35385.76
680.877	35321.36
681.225	35239.1
681.573	35394.13
681.922	35227.8
682.27	35072.1
682.618	35169.27
682.966	35012.89
683.314	35070.07
683.661	34990.97
684.009	34809.28
684.357	34675.95
684.705	34752.79
685.053	34769.51
685.4	34660.59
685.748	34450.42
686.095	34470.31
686.443	34371.55
686.79	34378.79
687.138	34406.81
687.485	34301.5
687.832	34247.94
688.18	34258.79
688.527	34234.16
688.874	34189.86
689.221	34063.31
689.568	33993.48
689.915	33900.15
690.262	33833.26
690.609	33835.07
690.956	33646.6
691.303	33696.77
691.65	33620.39
691.997	33573.61
692.344	33279.38
692.69	33372.48
693.037	33405.48
693.383	33131.13
693.73	33330
694.077	32953.29
694.423	33149.89
694.769	32930.24
695.116	32873.06
695.462	32749
695.808	32693.41
696.155	32810.69
696.501	32468.78
696.847	32542.45
697.193	32248.22
697.539	32491.15
697.885	32196.02
698.231	32073.31
698.577	32059.52
698.923	32019.75
699.269	31933.43
699.614	31858.17
699.96	31756.93
700.306	31706.77
700.651	31448.92
700.997	31547.9
701.342	31405.08
701.688	31442.37
702.033	31290.05
702.379	31329.83
702.724	31268.81
703.069	31158.31
703.415	30819.78
703.76	30934.58
704.105	30844.64
704.45	30830.63
704.795	30698.43
705.14	30594.93
705.485	30534.82
705.83	30450.08
706.175	30528.72
706.52	30419.34
706.865	30251.44
707.209	30181.83
707.554	30210.76
707.899	30294.37
708.243	30150.65
708.588	29958.11
708.932	29839.24
709.277	29838.79
709.621	29780.04
709.966	29649.42
710.31	29652.36
710.654	29361.97
710.998	29455.98
711.342	29542.75
711.687	29396.54
712.031	29347.73
712.375	29229.54
712.719	29181.63
713.063	29112.94
713.407	29222.31
713.75	29133.27
714.094	29113.84
714.438	28975.09
714.782	28929.44
715.125	28797.01
715.469	28873.17
715.812	28663.91
716.156	28563.12
716.499	28654.42
716.843	28669.33
717.186	28451.94
717.53	28584.81
717.873	28514.98
718.216	28434.31
718.559	28427.08
718.902	28245.16
719.246	28260.53
719.589	28113.19
719.932	28057.37
720.275	28046.3
720.617	28050.82
720.96	27980.54
721.303	27849.47
721.646	27924.49
721.989	27778.05
722.331	27887.88
722.674	27774.44
723.016	27799.98
723.359	27647.66
723.701	27658.51
724.044	27537.61
724.386	27502.36
724.729	27495.12
725.071	27436.82
725.413	27347.56
725.755	27390.72
726.097	27300.78
726.439	27072.54
726.782	27164.51
727.124	27297.39
727.465	27094.01
727.807	27134
728.149	27056.27
728.491	26974.91
728.833	27047.9
729.175	26798.42
729.516	26729.95
729.858	26749.38
730.199	26799.55
730.541	26734.69
730.882	26684.07
731.224	26814.24
731.565	26599.1
731.906	26684.98
732.248	26576.96
732.589	26559.1
732.93	26454.47
733.271	26490.41
733.612	26544.64
733.953	26489.73
734.294	26303.97
734.635	26306.23
734.976	26293.57
735.317	26190.07
735.658	26157.98
735.999	26132.67
736.339	26026.46
736.68	26270.52
737.021	26107.14
737.361	26000.25
737.702	26108.27
738.042	26024.65
738.383	25935.17
738.723	25936.97
739.063	25813.36
739.404	25934.49
739.744	25740.59
740.084	25676.19
740.424	25746.47
740.764	25697.88
741.104	25775.85
741.444	25553.48
741.784	25460.6
742.124	25517.55
742.464	25511.45
742.804	25357.78
743.143	25345.58
743.483	25393.48
743.823	25228.97
744.162	25259.25
744.502	25264.9
744.841	25117.79
745.181	25176.99
745.52	25171.34
745.86	25082.98
746.199	25066.26
746.538	25024.91
746.877	25099.48
747.216	25067.39
747.556	24994.17
747.895	24997.56
748.234	24834.63
748.573	24886.61
748.911	24810.45
749.25	24754.86
749.589	24672.83
749.928	24711.02
750.267	24698.14
750.605	24658.81
750.944	24446.17
751.283	24488.2
751.621	24565.03
751.96	24429.22
752.298	24370.69
752.636	24264.93
752.975	24323.68
753.313	24114.42
753.651	24190.35
753.989	24144.25
754.327	24087.98
754.666	23969.12
755.004	24064.25
755.342	24086.63
755.679	23972.96
756.017	23772.74
756.355	23967.08
756.693	23793.3
757.031	23783.58
757.368	23609.12
757.706	23499.98
758.044	23558.5
758.381	23481.22
758.719	23508.56
759.056	23419.98
759.394	23304.27
759.731	23120.55
760.068	23132.75
760.405	23119.87
760.743	22970.5
761.08	23038.74
761.417	23034.22
761.754	22744.74
762.091	22811.63
762.428	22738.64
762.765	22657.29
763.102	22608.7
763.438	22501.36
763.775	22315.83
764.112	22527.8
764.449	22428.14
764.785	22276.73
765.122	22096.4
765.458	22157.41
765.795	21996.96
766.131	21976.63
766.467	21897.31
766.804	21829.06
767.14	21745.45
767.476	21687.14
767.812	21624.54
768.148	21660.7
768.485	21548.16
768.821	21397.43
769.157	21412.35
769.492	21386.13
769.828	21246.7
770.164	21052.13
770.5	21127.83
770.836	21068.17
771.171	20943.21
771.507	20944.34
771.842	20831.34
772.178	20756.09
772.513	20726.26
772.849	20594.97
773.184	20546.61
773.519	20527.17
773.855	20379.61
774.19	20371.47
774.525	20319.04
774.86	20273.17
775.195	20219.16
775.53	20070.01
775.865	20044.7
776.2	19789.34
776.535	19755.89
776.87	19807.42
777.205	19678.61
777.539	19581.66
777.874	19687.65
778.209	19429.8
778.543	19380.08
778.878	19242.69
779.212	19223.25
779.547	19268.45
779.881	19199.52
780.215	18985.52
780.55	19009.7
780.884	18902.58
781.218	18846.09
781.552	18809.03
781.886	18716.82
782.22	18693.77
782.554	18551.18
782.888	18457.17
783.222	18378.3
783.556	18311.19
783.889	18315.7
784.223	18069.84
784.557	18096.5
784.89	18172.66
785.224	18016.05
785.557	17929.05
785.891	17970.86
786.224	17938.99
786.558	17794.59
786.891	17639.56
787.224	17599.11
787.557	17567.7
787.891	17530.87
788.224	17501.71
788.557	17478.89
788.89	17448.38
789.223	17395.5
789.556	17249.97
789.888	17236.19
790.221	17122.29
790.554	16958
790.887	17052.01
791.219	17000.49
791.552	16891.79
791.884	16856.31
792.217	16773.82
792.549	16629.42
792.882	16649.53
793.214	16605.69
793.546	16636.88
793.879	16458.8
794.211	16350.11
794.543	16448.64
794.875	16344.23
795.207	16438.47
795.539	16252.26
795.871	16232.37
796.203	16094.07
796.535	16005.26
796.867	16003.68
797.198	15937.24
797.53	15917.8
797.862	15781.08
798.193	15898.37
798.525	15774.53
798.856	15808.43
799.188	15640.52
799.519	15597.81
799.85	15528.66
800.182	15530.92
800.513	15495.44
800.844	15398.49
801.175	15318.27
801.506	15394.43
801.837	15323.47
802.168	15184.26
802.499	15144.49
802.83	15119.63
803.161	15060.88
803.491	15009.13
803.822	15132.29
804.153	15007.32
804.483	14914.21
804.814	14811.39
805.145	14808.23
805.475	14737.95
805.805	14611.85
806.136	14704.27
806.466	14622.47
806.796	14605.52
807.126	14484.85
807.457	14484.17
807.787	14481
808.117	14431.51
808.447	14372.53
808.777	14377.5
809.107	14345.19
809.436	14323.27
809.766	14234
810.096	14149.94
810.426	14143.16
810.755	14139.32
811.085	14135.93
811.414	14067.91
811.744	13969.15
812.073	13962.37
812.403	13935.93
812.732	13769.84
813.061	13849.16
813.39	13760.34
813.719	13703.62
814.049	13852.09
814.378	13696.39
814.707	13655.49
815.036	13706.33
815.365	13537.98
815.693	13481.48
816.022	13477.41
816.351	13470.63
816.68	13395.61
817.008	13420.24
817.337	13299.34
817.665	13235.84
817.994	13273.35
818.322	13335.95
818.651	13132.79
818.979	13147.25
819.307	13180.92
819.636	13146.12
819.964	13110.42
820.292	13183.41
820.62	13113.81
820.948	13072.68
821.276	13133.24
821.604	13018.44
821.932	13129.63
822.259	12996.75
822.587	13064.09
822.915	13015.96
823.243	13047.37
823.57	13004.66
823.898	12990.65
824.225	12959.24
824.553	13026.8
824.88	12964.66
825.207	13062.51
825.535	12978.44
825.862	12939.12
826.189	12965.79
826.516	13027.26
826.843	12985.9
827.17	12991.33
827.497	13001.27
827.824	12955.62
828.151	12966.92
828.478	13032.68
828.805	13034.49
829.131	12962.17
829.458	12960.37
829.785	12903.87
830.111	12862.51
830.438	13009.63
830.764	12942.06
831.09	12966.69
831.417	12907.03
831.743	12903.87
832.069	12902.29
832.395	12891.89
832.722	12899.35
833.048	12852.12
833.374	12855.96
833.7	12799.92
834.026	12905.45
834.351	12878.33
834.677	12761.27
835.003	12829.3
835.329	12778.68
835.654	12768.05
835.98	12689.86
836.306	12702.97
836.631	12692.8
836.956	12727.15
837.282	12657.32
837.607	12603.76
837.932	12643.31
838.258	12580.04
838.583	12574.39
838.908	12508.63
839.233	12599.02
839.558	12485.58
839.883	12484.45
840.208	12473.15
840.533	12466.14
840.858	12475.41
841.182	12435.18
841.507	12396.09
841.832	12372.58
842.156	12346.37
842.481	12362.19
842.805	12385.01
843.13	12214.85
843.454	12187.73
843.778	12236.54
844.103	12136.21
844.427	12121.07
844.751	12076.77
845.075	12102.31
845.399	12068.64
845.723	12036.55
846.047	12050.56
846.371	11876.1
846.695	11940.51
847.019	11793.16
847.343	11727.18
847.666	11678.14
847.99	11669.55
848.313	11598.14
848.637	11555.2
848.96	11599.27
849.284	11504.36
849.607	11444.02
849.931	11452.38
850.254	11370.35
850.577	11302.1
850.9	11235.89
851.223	11195.44
851.546	11122
851.869	11058.27
852.192	11140.75
852.515	11013.3
852.838	10926.97
853.161	10919.52
853.483	10949.57
853.806	10864.38
854.129	10841.33
854.451	10780.31
854.774	10797.48
855.096	10760.88
855.419	10753.64
855.741	10686.53
856.063	10601.78
856.385	10618.51
856.708	10513.88
857.03	10470.49
857.352	10458.51
857.674	10495.8
857.996	10423.48
858.318	10304.62
858.64	10372.18
858.961	10397.27
859.283	10313.66
859.605	10289.93
859.926	10293.99
860.248	10223.49
860.57	10244.96
860.891	10175.13
861.212	10169.93
861.534	10152.53
861.855	10191.62
862.176	10122.47
862.498	10073.21
862.819	10071.63
863.14	10037.5
863.461	10005.41
863.782	9950.73
864.103	9974
864.424	9986.88
864.745	9969.26
865.065	9956.6
865.386	9849.71
865.707	9863.27
866.027	9875.7
866.348	9862.59
866.668	9822.37
866.989	9829.83
867.309	9718.19
867.63	9770.17
867.95	9761.35
868.27	9713.22
868.59	9710.06
868.91	9699.21
869.23	9689.94
869.55	9665.76
869.87	9649.49
870.19	9606.78
870.51	9612.66
870.83	9647.23
871.15	9528.82
871.469	9568.82
871.789	9594.58
872.109	9599.78
872.428	9437.52
872.748	9568.14
873.067	9530.4
873.386	9515.26
873.706	9508.48
874.025	9441.14
874.344	9432.1
874.663	9443.4
874.982	9447.92
875.301	9426.45
875.62	9356.39
875.939	9370.18
876.258	9302.38
876.577	9282.27
876.896	9289.95
877.214	9305.32
877.533	9255.38
877.852	9285.43
878.17	9170.41
878.489	9207.24
878.807	9193.91
879.125	9188.71
879.444	9159.56
879.762	9145.1
880.08	9157.75
880.398	9128.15
880.716	9133.12
881.034	9139.22
881.352	9057.19
881.67	9114.59
881.988	9106.91
882.306	9042.5
882.624	9049.28
882.941	8938.78
883.259	8877.99
883.577	8935.61
883.894	8911.43
884.212	8909.17
884.529	8877.53
884.846	8881.83
885.164	8800.25
885.481	8871.66
885.798	8813.36
886.115	8782.17
886.432	8827.82
886.75	8739.91
887.067	8703.53
887.383	8687.26
887.7	8715.73
888.017	8605.23
888.334	8657.65
888.651	8616.07
888.967	8526.81
889.284	8556.19
889.6	8475.74
889.917	8500.82
890.233	8522.97
890.55	8362.75
890.866	8458.11
891.182	8439.81
891.498	8402.97
891.815	8350.54
892.131	8360.26
892.447	8351.67
892.763	8271
893.079	8291.56
893.395	8212.47
893.71	8206.37
894.026	8171.79
894.342	8178.57
894.657	8125.92
894.973	8088.86
895.289	8090.21
895.604	8116.43
895.92	8043.21
896.235	8038.23
896.55	7947.84
896.865	7998.91
897.181	7989.42
897.496	7939.93
897.811	7908.07
898.126	7875.3
898.441	7831.91
898.756	7848.18
899.071	7721.63
899.386	7735.42
899.7	7774.06
900.015	7672.37
900.33	7694.52
900.644	7600.05
900.959	7586.5
901.273	7636.21
901.588	7559.38
901.902	7520.28
902.216	7491.36
902.531	7441.41
902.845	7426.95
903.159	7381.3
903.473	7371.36
903.787	7308.54
904.101	7318.03
904.415	7291.59
904.729	7255.66
905.042	7166.39
905.356	7225.37
905.67	7160.52
905.984	7169.33
906.297	7171.82
906.611	7094.3
906.924	7076.23
907.237	7064.7
907.551	7044.59
907.864	7034.19
908.177	7018.83
908.491	6975.44
908.804	6968.88
909.117	6919.62
909.43	6899.51
909.743	6846.4
910.056	6844.14
910.368	6779.29
910.681	6793.3
910.994	6735.9
911.307	6718.04
911.619	6648.67
911.932	6651.15
912.244	6640.76
912.557	6629.01
912.869	6562.12
913.181	6525.51
913.494	6610.93
913.806	6473.3
914.118	6468.33
914.43	6464.27
914.742	6456.13
915.054	6442.8
915.366	6371.16
915.678	6336.58
915.99	6290.94
916.302	6286.19
916.613	6239.19
916.925	6264.04
917.236	6269.02
917.548	6221.79
917.859	6185.18
918.171	6142.24
918.482	6141.56
918.794	6071.28
919.105	6077.83
919.416	5983.15
919.727	5989.7
920.038	6022.69
920.349	5970.27
920.66	5930.27
920.971	5959.19
921.282	5912.64
921.593	5879.87
921.903	5857.95
922.214	5762.36
922.525	5769.37
922.835	5805.75
923.146	5748.35
923.456	5752.65
923.767	5645.53
924.077	5704.06
924.387	5678.07
924.697	5643.72
925.008	5632.42
925.318	5542.93
925.628	5564.4
925.938	5585.87
926.248	5494.12
926.558	5477.4
926.867	5472.2
927.177	5453.9
927.487	5372.54
927.796	5380.23
928.106	5402.82
928.416	5384.75
928.725	5379.1
929.034	5284.41
929.344	5313.33
929.653	5296.16
929.962	5217.29
930.271	5179.78
930.581	5211.64
930.89	5192.89
931.199	5111.98
931.508	5110.63
931.817	5143.4
932.125	5150.4
932.434	5106.79
932.743	5011.65
933.051	5028.82
933.36	4975.26
933.669	4987.02
933.977	4952.44
934.286	4913.57
934.594	4935.49
934.902	4897.3
935.21	4851.2
935.519	4834.25
935.827	4857.98
936.135	4822.27
936.443	4764.65
936.751	4726.23
937.059	4744.31
937.367	4755.84
937.674	4731.43
937.982	4694.37
938.29	4671.54
938.597	4702.28
938.905	4621.6
939.213	4604.65
939.52	4589.74
939.827	4566.01
940.135	4556.07
940.442	4523.3
940.749	4528.5
941.056	4532.34
941.363	4493.24
941.67	4470.19
941.977	4436.75
942.284	4380.7
942.591	4388.39
942.898	4334.6
943.205	4363.53
943.511	4357.43
943.818	4346.13
944.125	4253.48
944.431	4273.36
944.738	4285.11
945.044	4248.5
945.35	4235.4
945.657	4188.17
945.963	4177.77
946.269	4169.18
946.575	4211.67
946.881	4170.77
947.187	4130.32
947.493	4093.25
947.799	4109.3
948.105	4086.25
948.41	4081.95
948.716	4045.57
949.022	4033.59
949.327	4001.5
949.633	3953.6
949.938	3957.66
950.244	3943.43
950.549	3887.38
950.854	3914.5
951.16	3895.75
951.465	3877.21
951.77	3888.06
952.075	3813.49
952.38	3861.62
952.685	3784.34
952.99	3799.7
953.294	3805.35
953.599	3780.27
953.904	3720.83
954.209	3748.4
954.513	3739.36
954.818	3716.09
955.122	3672.02
955.426	3723.09
955.731	3646.03
956.035	3643.55
956.339	3613.49
956.643	3630.44
956.948	3608.97
957.252	3582.76
957.556	3544.79
957.86	3561.52
958.163	3580.05
958.467	3545.25
958.771	3506.15
959.075	3503.66
959.378	3475.64
959.682	3455.76
959.985	3412.82
960.289	3446.04
960.592	3423.67
960.896	3410.33
961.199	3401.52
961.502	3420.05
961.805	3365.14
962.108	3319.94
962.411	3318.13
962.714	3265.25
963.017	3306.16
963.32	3339.6
963.623	3283.56
963.926	3312.26
964.228	3236.1
964.531	3215.99
964.833	3218.7
965.136	3170.34
965.438	3188.19
965.741	3159.04
966.043	3099.83
966.345	3147.97
966.648	3147.29
966.95	3152.04
967.252	3127.86
967.554	3065.26
967.856	3082.43
968.158	3061.87
968.46	3067.74
968.761	3028.2
969.063	3044.02
969.365	3008.99
969.666	2993.4
969.968	2971.25
970.269	2964.92
970.571	2912.04
970.872	2966.5
971.174	2920.18
971.475	2913.17
971.776	2902.1
972.077	2889.44
972.378	2899.61
972.679	2919.5
972.98	2896
973.281	2857.13
973.582	2873.17
973.883	2853.74
974.183	2815.32
974.484	2827.3
974.785	2809.67
975.085	2813.51
975.386	2806.96
975.686	2768.32
975.986	2738.71
976.287	2743.23
976.587	2673.63
976.887	2738.94
977.187	2717.02
977.487	2690.13
977.787	2673.18
978.087	2660.75
978.387	2671.14
978.687	2655.55
978.987	2637.02
979.286	2631.37
979.586	2593.86
979.885	2593.63
980.185	2592.05
980.484	2563.12
980.784	2562.22
981.083	2541.43
981.382	2542.79
981.682	2505.05
981.981	2519.06
982.28	2479.06
982.579	2491.71
982.878	2484.26
983.177	2480.87
983.475	2455.1
983.774	2439.06
984.073	2476.8
984.372	2416.69
984.67	2431.15
984.969	2445.84
985.267	2413.3
985.566	2408.1
985.864	2374.43
986.162	2365.62
986.461	2350.93
986.759	2371.27
987.057	2336.01
987.355	2325.84
987.653	2327.42
987.951	2293.98
988.249	2305.5
988.547	2296.01
988.844	2256.01
989.142	2303.24
989.44	2252.85
989.737	2207.65
990.035	2241.1
990.332	2221.21
990.63	2225.73
990.927	2176.47
991.224	2195.22
991.521	2195.22
991.819	2204.26
992.116	2153.87
992.413	2156.58
992.71	2114.32
993.006	2144.15
993.303	2131.27
993.6	2135.11
993.897	2107.09
994.193	2067.54
994.49	2105.96
994.787	2096.47
995.083	2073.19
995.379	2061.22
995.676	2042.69
995.972	2029.81
996.268	2016.47
996.565	2015.34
996.861	2020.09
997.157	2020.09
997.453	1998.85
997.749	1999.52
998.044	1957.94
998.34	1953.42
998.636	1965.63
998.932	1932.18
999.227	1966.3
999.523	1922.69
999.818	1932.41
1000.114	1903.48
1000.409	1938.73
1000.704	1891.73
1001	1863.48
1001.295	1853.54
1001.59	1855.35
1001.885	1843.37
1002.18	1842.47
1002.475	1836.59
1002.77	1843.37
1003.065	1762.24
1003.359	1787.1
1003.654	1795.46
1003.949	1787.55
1004.243	1758.17
1004.538	1764.5
1004.832	1723.37
1005.127	1741.23
1005.421	1731.73
1005.715	1704.84
1006.009	1722.24
1006.304	1717.05
1006.598	1704.62
1006.892	1706.2
1007.186	1679.76
1007.48	1698.97
1007.773	1656.03
1008.067	1665.07
1008.361	1637.05
1008.655	1622.13
1008.948	1632.53
1009.242	1608.35
1009.535	1585.98
1009.829	1628.91
1010.122	1571.29
1010.415	1590.27
1010.708	1586.2
1011.001	1574.22
1011.295	1568.57
1011.588	1538.52
1011.881	1509.59
1012.173	1552.76
1012.466	1522.93
1012.759	1501.91
1013.052	1488.35
1013.344	1495.13
1013.637	1501.01
1013.93	1503.72
1014.222	1458.29
1014.514	1472.08
1014.807	1446.54
1015.099	1447
1015.391	1450.61
1015.683	1451.74
1015.976	1409.93
1016.268	1413.1
1016.56	1407.22
1016.851	1410.16
1017.143	1420.56
1017.435	1387.11
1017.727	1371.52
1018.018	1353.66
1018.31	1387.79
1018.602	1364.29
1018.893	1365.42
1019.185	1350.28
1019.476	1314.8
1019.767	1309.37
1020.058	1312.31
1020.35	1287.45
1020.641	1299.88
1020.932	1264.4
1021.223	1295.36
1021.514	1265.31
1021.804	1253.33
1022.095	1234.35
1022.386	1247.68
1022.677	1254.91
1022.967	1217.17
1023.258	1230.73
1023.548	1221.24
1023.839	1206.78
1024.129	1204.06
1024.419	1173.56
1024.709	1209.49
1025	1168.59
1025.29	1178.08
1025.58	1166.33
1025.87	1180.56
1026.16	1138.3
1026.449	1148.7
1026.739	1171.52
1027.029	1129.26
1027.319	1132.88
1027.608	1092.88
1027.898	1123.61
1028.187	1090.62
1028.477	1103.95
1028.766	1099.89
1029.055	1087.46
1029.344	1081.36
1029.634	1035.93
1029.923	1054.46
1030.212	1071.86
1030.501	1067.8
1030.79	1055.82
1031.078	1026.22
1031.367	1024.63
1031.656	1020.79
1031.945	1019.21
1032.233	1046.33
1032.522	1022.15
1032.81	1018.08
1033.099	1011.3
1033.387	960.68
1033.675	983.73
1033.963	957.07
1034.251	980.34
1034.54	953.68
1034.828	956.39
1035.116	950.06
1035.403	955.26
1035.691	962.04
1035.979	932.43
1036.267	917.74
1036.554	932.66
1036.842	866.45
1037.129	896.95
1037.417	921.81
1037.704	919.33
1037.992	920.23
1038.279	868.25
1038.566	864.86
1038.853	864.86
1039.14	864.86
