Data from hue_190_FLMS001491_00083.txt Node
Date: Tue Feb 07 16:45:53 GMT 2017
User: dcchb
Spectrometer: FLMS00149
Trigger mode: 0
Integration Time (sec): 2.000000E-2
Scans to average: 10
Electric dark correction enabled: true
Nonlinearity correction enabled: false
Boxcar width: 0
XAxis mode: Wavelengths
Number of Pixels in Spectrum: 2048
>>>>>Begin Spectral Data<<<<<
341.393	-1.92
341.776	-1.92
342.16	-1.92
342.543	-55.48
342.927	-59.55
343.31	-91.86
343.693	-72.43
344.077	-53.67
344.46	-67.46
344.843	-53.67
345.226	-41.24
345.61	-22.71
345.993	-22.26
346.376	15.48
346.759	24.29
347.142	12.99
347.525	41.02
347.908	55.25
348.291	85.08
348.674	81.24
349.057	109.94
349.44	149.49
349.823	159.2
350.206	157.62
350.588	230.62
350.971	210.28
351.354	212.54
351.737	259.32
352.119	249.15
352.502	243.5
352.884	258.86
353.267	271.29
353.65	294.79
354.032	320.33
354.414	319.65
354.797	308.35
355.179	324.85
355.562	330.73
355.944	302.48
356.326	328.24
356.709	345.41
357.091	341.12
357.473	353.32
357.855	353.1
358.238	342.25
358.62	353.1
359.002	349.93
359.384	331.63
359.766	317.84
360.148	355.81
360.53	342.48
360.912	338.18
361.294	350.16
361.676	337.05
362.057	340.44
362.439	337.51
362.821	347.45
363.203	319.43
363.584	309.94
363.966	346.32
364.348	336.6
364.729	311.07
365.111	326.88
365.493	313.78
365.874	330.5
366.256	318.52
366.637	298.41
367.019	321.46
367.4	312.65
367.781	316.04
368.163	330.73
368.544	314.46
368.925	308.13
369.306	349.71
369.688	307.45
370.069	325.3
370.45	309.03
370.831	312.2
371.212	322.14
371.593	311.07
371.974	326.66
372.355	306.55
372.736	323.95
373.117	312.42
373.498	297.28
373.879	312.87
374.26	330.27
374.641	331.86
375.021	312.2
375.402	320.78
375.783	331.18
376.163	339.77
376.544	342.7
376.925	332.08
377.305	307.9
377.686	330.73
378.066	324.17
378.447	345.19
378.827	335.25
379.208	325.53
379.588	332.08
379.968	334.12
380.349	334.79
380.729	322.82
381.109	335.02
381.489	321.91
381.87	323.72
382.25	337.73
382.63	333.66
383.01	327.79
383.39	349.48
383.77	344.74
384.15	344.96
384.53	338.86
384.91	349.48
385.29	336.15
385.67	344.06
386.049	361.23
386.429	340.89
386.809	325.98
387.189	356.49
387.568	343.38
387.948	354.23
388.328	351.74
388.707	369.37
389.087	372.53
389.466	359.65
389.846	353.1
390.225	376.83
390.605	384.06
390.984	358.75
391.363	372.76
391.743	365.98
392.122	363.95
392.501	369.59
392.881	364.85
393.26	386.09
393.639	375.24
394.018	382.93
394.397	408.01
394.776	398.29
395.155	397.16
395.534	373.44
395.913	399.2
396.292	380.67
396.671	404.62
397.05	403.72
397.429	378.86
397.808	391.52
398.186	417.05
398.565	391.52
398.944	404.85
399.323	383.83
399.701	407.11
400.08	417.5
400.458	436.71
400.837	414.34
401.215	422.7
401.594	427.45
401.972	419.54
402.351	450.04
402.729	419.54
403.107	407.56
403.486	441.68
403.864	448.91
404.242	454.11
404.62	437.62
404.999	452.76
405.377	459.99
405.755	455.02
406.133	439.2
406.511	450.27
406.889	456.37
407.267	476.03
407.645	470.61
408.023	496.37
408.401	481.23
408.779	482.13
409.156	502.47
409.534	513.55
409.912	506.31
410.29	515.81
410.667	515.35
411.045	522.59
411.422	509.03
411.8	540.21
412.178	554
412.555	548.12
412.933	554
413.31	575.47
413.687	574.34
414.065	613.88
414.442	601
414.819	592.64
415.197	619.08
415.574	601.23
415.951	606.88
416.328	641
416.705	628.8
417.082	651.4
417.46	655.01
417.837	695.24
418.214	692.98
418.591	699.3
418.967	711.28
419.344	688.68
419.721	717.16
420.098	690.94
420.475	743.14
420.852	750.38
421.228	743.6
421.605	768
421.982	781.34
422.358	776.59
422.735	801.45
423.111	805.52
423.488	820.43
423.864	822.69
424.241	833.54
424.617	836.25
424.994	872.18
425.37	894.1
425.746	877.6
426.123	904.27
426.499	912.41
426.875	891.61
427.251	960.09
427.627	944.27
428.003	965.06
428.379	973.87
428.756	1012.06
429.132	1012.97
429.507	1031.5
429.883	1026.3
430.259	1037.83
430.635	1026.75
431.011	1043.93
431.387	1074.44
431.763	1111.72
432.138	1102.68
432.514	1133.42
432.89	1130.7
433.265	1165.28
433.641	1192.17
434.016	1185.62
434.392	1202.57
434.767	1220.42
435.143	1260.87
435.518	1289.57
435.894	1306.29
436.269	1327.99
436.644	1347.42
437.02	1366.63
437.395	1362.11
437.77	1413.86
438.145	1437.82
438.52	1461.09
438.895	1481.66
439.271	1490.02
439.646	1506.74
440.021	1546.06
440.395	1553.74
440.77	1542.22
441.145	1570.47
441.52	1604.14
441.895	1605.27
442.27	1639.84
442.645	1667.41
443.019	1674.19
443.394	1690.92
443.769	1713.97
444.143	1725.49
444.518	1780.41
444.892	1723.68
445.267	1781.31
445.641	1812.04
446.016	1807.75
446.39	1838.26
446.764	1874.19
447.139	1845.71
447.513	1908.31
447.887	1895.88
448.262	1902.44
448.636	1911.25
449.01	1920.97
449.384	1941.53
449.758	1970.68
450.132	1977.46
450.506	2014.98
450.88	2033.73
451.254	2028.08
451.628	2025.14
452.002	2065.82
452.376	2092.26
452.75	2124.12
453.123	2151.47
453.497	2205.25
453.871	2205.48
454.244	2247.96
454.618	2237.57
454.992	2300.17
455.365	2275.53
455.739	2353.72
456.112	2370.9
456.486	2361.63
456.859	2442.53
457.232	2429.43
457.606	2468.3
457.979	2502.19
458.352	2544.45
458.725	2600.72
459.099	2587.16
459.472	2622.64
459.845	2658.57
460.218	2687.73
460.591	2736.54
460.964	2701.74
461.337	2783.77
461.71	2860.83
462.083	2872.58
462.456	2917.1
462.829	2891.79
463.201	2951.45
463.574	2981.96
463.947	3008.62
464.32	3061.73
464.692	3102.4
465.065	3149.41
465.438	3191.44
465.81	3220.14
466.183	3312.34
466.555	3327.48
466.928	3390.08
467.3	3336.3
467.672	3416.29
468.045	3519.79
468.417	3575.16
468.789	3598.89
469.161	3614.03
469.534	3720.69
469.906	3771.54
470.278	3752.56
470.65	3830.75
471.022	3906
471.394	3990.97
471.766	3984.64
472.138	4047.92
472.51	4152.09
472.882	4191.19
473.253	4232.32
473.625	4341.92
473.997	4431.63
474.369	4480.45
474.74	4484.29
475.112	4593.66
475.484	4636.15
475.855	4745.3
476.227	4809.7
476.598	4928.8
476.97	4992.75
477.341	5047.66
477.713	5166.76
478.084	5207.89
478.455	5366.3
478.827	5391.61
479.198	5556.13
479.569	5605.39
479.94	5764.93
480.311	5762.45
480.682	5880.64
481.053	6027.3
481.424	6119.05
481.795	6161.53
482.166	6250.57
482.537	6365.37
482.908	6500.51
483.279	6554.06
483.65	6734.4
484.021	6837.45
484.391	6935.3
484.762	6943.21
485.133	7013.71
485.503	7152.02
485.874	7338.68
486.244	7360.6
486.615	7483.08
486.985	7682.17
487.356	7785.67
487.726	7804.43
488.097	8042.16
488.467	7957.87
488.837	8208.94
489.207	8319.44
489.578	8367.58
489.948	8438.31
490.318	8577.74
490.688	8612.99
491.058	8697.96
491.428	8781.8
491.798	8878.98
492.168	9088.69
492.538	9084.62
492.908	9157.61
493.278	9231.28
493.648	9297.95
494.017	9515.57
494.387	9486.87
494.757	9600.76
495.126	9686.86
495.496	9676.24
495.866	9810.7
496.235	9849.8
496.605	9930.93
496.974	9993.3
497.344	10059.51
497.713	10136.34
498.082	10068.55
498.452	10221.31
498.821	10292.95
499.19	10157.13
499.559	10296.79
499.928	10458.14
500.298	10471.7
500.667	10502.21
501.036	10504.24
501.405	10575.65
501.774	10603.9
502.143	10689.32
502.512	10674.63
502.88	10777
503.249	10862.88
503.618	10839.38
503.987	10906.04
504.356	10929.54
504.724	10877.12
505.093	10973.16
505.462	10960.05
505.83	11028.98
506.199	11089.54
506.567	11223.55
506.936	11169.99
507.304	11263.32
507.672	11242.98
508.041	11235.07
508.409	11318.46
508.777	11336.76
509.145	11460.38
509.514	11439.59
509.882	11418.8
510.25	11450.21
510.618	11517.78
510.986	11468.06
511.354	11561.62
511.722	11587.6
512.09	11639.13
512.458	11555.06
512.826	11683.87
513.193	11783.31
513.561	11699.69
513.929	11700.37
514.297	11830.76
514.664	11840.48
515.032	11801.16
515.4	11867.82
515.767	11887.94
516.135	11894.72
516.502	11768.17
516.869	11946.47
517.237	11946.92
517.604	11861.27
517.972	11968.61
518.339	11959.57
518.706	11926.81
519.073	11948.95
519.44	12005.67
519.808	12044.54
520.175	11976.3
520.542	12079.8
520.909	12148.72
521.276	12068.27
521.643	12052
522.009	12112.34
522.376	12177.65
522.743	12106.91
523.11	12237.76
523.477	12311.88
523.843	12192.11
524.21	12331.31
524.577	12246.12
524.943	12231.66
525.31	12324.76
525.676	12333.12
526.043	12291.99
526.409	12416.28
526.776	12410.41
527.142	12433.68
527.508	12365.21
527.874	12356.4
528.241	12340.13
528.607	12301.48
528.973	12316.17
529.339	12242.95
529.705	12297.19
530.071	12323.4
530.437	12326.34
530.803	12266.91
531.169	12294.03
531.535	12242.28
531.901	12162.96
532.267	12201.15
532.632	12284.08
532.998	12164.31
533.364	12245.21
533.73	12038.67
534.095	12121.38
534.461	12091.55
534.826	12036.18
535.192	11984.88
535.557	12019.91
535.923	12007.93
536.288	11860.37
536.653	11901.49
537.019	11829.63
537.384	11755.51
537.749	11738.56
538.114	11733.82
538.479	11649.52
538.845	11707.15
539.21	11579.24
539.575	11534.5
539.94	11510.09
540.305	11541.5
540.67	11427.61
541.034	11455.86
541.399	11436.65
541.764	11277.33
542.129	11334.73
542.494	11303.54
542.858	11186.71
543.223	11144.9
543.587	11103.1
543.952	11054.29
544.316	10996.43
544.681	10980.39
545.045	10967.51
545.41	10937.9
545.774	10849.09
546.138	10759.83
546.503	10728.42
546.867	10657.01
547.231	10679.38
547.595	10632.15
547.959	10589.44
548.324	10525.94
548.688	10412.04
549.052	10503.57
549.416	10420.86
549.779	10367.3
550.143	10306.96
550.507	10414.3
550.871	10298.6
551.235	10227.87
551.599	10224.02
551.962	10177.7
552.326	10163.01
552.689	10120.98
553.053	10038.95
553.417	10043.69
553.78	10092.5
554.143	9939.29
554.507	9944.26
554.87	9919.63
555.234	9945.39
555.597	9798.95
555.96	9838.05
556.323	9771.61
556.686	9774.55
557.05	9753.75
557.413	9726.86
557.776	9710.37
558.139	9676.92
558.502	9630.14
558.865	9618.62
559.228	9630.82
559.59	9680.54
559.953	9596.24
560.316	9621.55
560.679	9528.68
561.041	9577.94
561.404	9591.5
561.767	9639.86
562.129	9517.15
562.492	9564.83
562.854	9491.39
563.217	9498.17
563.579	9532.07
563.941	9539.75
564.304	9504.95
564.666	9512.41
565.028	9544.27
565.39	9522.8
565.753	9474.89
566.115	9457.72
566.477	9550.82
566.839	9531.84
567.201	9636.7
567.563	9529.81
567.925	9546.98
568.287	9538.39
568.648	9546.75
569.01	9554.21
569.372	9575
569.734	9536.81
570.095	9511.73
570.457	9646.64
570.819	9439.86
571.18	9502.01
571.542	9552.4
571.903	9532.74
572.265	9544.04
572.626	9567.32
572.987	9559.86
573.349	9501.33
573.71	9569.35
574.071	9527.09
574.432	9546.75
574.794	9593.31
575.155	9546.75
575.516	9518.51
575.877	9535.23
576.238	9536.13
576.599	9636.02
576.96	9533.65
577.32	9537.72
577.681	9539.52
578.042	9585.62
578.403	9570.48
578.763	9578.62
579.124	9588.11
579.485	9565.96
579.845	9602.12
580.206	9558.51
580.566	9570.71
580.927	9572.06
581.287	9621.55
581.648	9521.67
582.008	9519.41
582.368	9499.07
582.728	9562.57
583.089	9521.22
583.449	9550.14
583.809	9548.34
584.169	9551.5
584.529	9467.21
584.889	9580.88
585.249	9424.05
585.609	9471.95
585.969	9449.13
586.329	9440.32
586.688	9388.34
587.048	9413.2
587.408	9354.22
587.768	9360.54
588.127	9403.71
588.487	9338.17
588.846	9459.3
589.206	9360.77
589.565	9375.69
589.925	9343.6
590.284	9324.84
590.643	9363.03
591.003	9340.66
591.362	9405.74
591.721	9363.03
592.08	9347.44
592.44	9366.19
592.799	9372.75
593.158	9347.44
593.517	9301.56
593.876	9338.17
594.235	9308.57
594.593	9277.38
594.952	9341.79
595.311	9273.99
595.67	9252.75
596.029	9304.5
596.387	9316.03
596.746	9244.16
597.104	9235.35
597.463	9229.93
597.822	9313.99
598.18	9286.2
598.538	9217.72
598.897	9302.47
599.255	9153.54
599.613	9313.09
599.972	9205.07
600.33	9274.45
600.688	9265.41
601.046	9244.39
601.404	9270.15
601.762	9171.4
602.12	9201.9
602.478	9302.02
602.836	9224.5
603.194	9220.66
603.552	9254.56
603.91	9162.81
604.268	9281.45
604.625	9213.66
604.983	9220.89
605.341	9167.78
605.698	9239.19
606.056	9256.37
606.413	9219.53
606.771	9261.79
607.128	9255.46
607.485	9229.93
607.843	9245.97
608.2	9307.44
608.557	9333.2
608.914	9293.2
609.272	9296.59
609.629	9292.3
609.986	9311.73
610.343	9257.27
610.7	9317.38
611.057	9299.3
611.414	9284.16
611.771	9269.02
612.127	9339.08
612.484	9289.36
612.841	9358.51
613.198	9306.99
613.554	9279.42
613.911	9386.08
614.267	9329.13
614.624	9341.56
614.98	9350.15
615.337	9467.21
615.693	9370.49
616.05	9368.68
616.406	9429.47
616.762	9391.96
617.118	9360.09
617.475	9414.1
617.831	9385.4
618.187	9391.73
618.543	9369.36
618.899	9462.92
619.255	9460.66
619.611	9418.4
619.967	9409.36
620.323	9509.92
620.678	9412.52
621.034	9400.77
621.39	9391.28
621.746	9423.37
622.101	9454.1
622.457	9375.23
622.812	9421.79
623.168	9452.07
623.523	9462.69
623.879	9445.97
624.234	9437.15
624.589	9521.22
624.945	9435.12
625.3	9508.79
625.655	9434.89
626.01	9373.2
626.365	9446.42
626.72	9451.16
627.075	9436.25
627.43	9437.6
627.785	9386.98
628.14	9378.62
628.495	9412.07
628.85	9359.19
629.205	9381.56
629.559	9447.77
629.914	9399.87
630.269	9400.09
630.623	9362.13
630.978	9404.16
631.332	9370.71
631.687	9388.79
632.041	9298.63
632.396	9346.76
632.75	9356.03
633.104	9312.41
633.459	9202.36
633.813	9333.88
634.167	9241.23
634.521	9275.12
634.875	9252.75
635.229	9214.79
635.583	9174.79
635.937	9205.75
636.291	9225.18
636.645	9153.32
636.999	9175.92
637.352	9203.71
637.706	9075.35
638.06	9179.31
638.413	9082.81
638.767	9180.44
639.121	9064.06
639.474	9048.24
639.828	9106.77
640.181	9100.66
640.534	9039.88
640.888	9042.59
641.241	8977.96
641.594	9059.99
641.947	9068.35
642.301	9035.58
642.654	9067.9
643.007	9004.62
643.36	9001.23
643.713	8988.58
644.066	9051.4
644.419	9013.21
644.771	8949.26
645.124	8911.97
645.477	8855.93
645.83	8777.74
646.182	8753.33
646.535	8709.49
646.888	8731.86
647.24	8692.31
647.593	8755.81
647.945	8685.76
648.298	8693.67
648.65	8692.99
649.002	8647.12
649.355	8681.01
649.707	8734.12
650.059	8682.37
650.411	8787.68
650.763	8762.59
651.115	8850.73
651.467	8856.38
651.819	8867.68
652.171	8845.53
652.523	8830.84
652.875	8831.52
653.227	8794.23
653.578	8849.15
653.93	8825.87
654.282	8791.52
654.633	8788.13
654.985	8839.43
655.337	8806.66
655.688	8847.11
656.039	8840.78
656.391	8790.62
656.742	8850.05
657.094	8852.08
657.445	8891.4
657.796	8822.71
658.147	8843.95
658.498	8852.54
658.849	8854.12
659.2	8844.4
659.551	8855.02
659.902	8895.7
660.253	8850.95
660.604	8884.63
660.955	8870.84
661.306	8917.84
661.656	8901.12
662.007	8877.39
662.358	8884.17
662.708	8886.43
663.059	8910.16
663.409	8790.39
663.76	8942.48
664.11	8887.56
664.461	8870.39
664.811	8867.45
665.161	8892.31
665.511	8877.62
665.862	8928.01
666.212	8908.13
666.562	8911.07
666.912	8874.68
667.262	8892.99
667.612	8903.61
667.962	8944.51
668.312	8910.61
668.662	8913.1
669.011	8912.65
669.361	8900.22
669.711	8866.77
670.06	8898.41
670.41	8826.1
670.76	8832.42
671.109	8870.39
671.459	8757.62
671.808	8845.76
672.157	8822.25
672.507	8784.29
672.856	8796.27
673.205	8832.65
673.554	8835.36
673.904	8801.92
674.253	8789.26
674.602	8763.95
674.951	8701.81
675.3	8615.48
675.649	8741.58
675.998	8751.75
676.346	8813.67
676.695	8774.12
677.044	8685.31
677.393	8751.07
677.741	8737.96
678.09	8677.17
678.438	8754.01
678.787	8696.16
679.135	8687.79
679.484	8627.23
679.832	8594.69
680.181	8603.5
680.529	8616.84
680.877	8640.56
681.225	8563.28
681.573	8624.07
681.922	8549.72
682.27	8538.87
682.618	8541.81
682.966	8466.78
683.314	8531.41
683.661	8496.61
684.009	8400.34
684.357	8438.08
684.705	8414.58
685.053	8427.01
685.4	8440.8
685.748	8380.23
686.095	8344.3
686.443	8307.24
686.79	8286
687.138	8262.04
687.485	8317.63
687.832	8292.32
688.18	8240.57
688.527	8229.95
688.874	8242.83
689.221	8186.79
689.568	8147.92
689.915	8203.06
690.262	8095.04
690.609	8127.81
690.956	8081.26
691.303	8034.03
691.65	8026.34
691.997	8005.33
692.344	7918.55
692.69	7903.41
693.037	7909.74
693.383	7844.65
693.73	7907.48
694.077	7830.42
694.423	7830.42
694.769	7835.16
695.116	7709.97
695.462	7758.33
695.808	7691.66
696.155	7703.19
696.501	7656.41
696.847	7628.16
697.193	7630.65
697.539	7629.52
697.885	7556.3
698.231	7541.61
698.577	7486.02
698.923	7452.35
699.269	7465.23
699.614	7426.13
699.96	7379.35
700.306	7403.08
700.651	7375.74
700.997	7353.14
701.342	7300.94
701.688	7287.15
702.033	7235.63
702.379	7286.02
702.724	7175.07
703.069	7204.44
703.415	7144.78
703.76	7147.27
704.105	7142.98
704.45	7155.18
704.795	7080.15
705.14	7020.49
705.485	7028.85
705.83	6918.58
706.175	7000.61
706.52	7008.52
706.865	6893.27
707.209	6948.18
707.554	6918.35
707.899	6843.32
708.243	6881.29
708.588	6824.11
708.932	6811.46
709.277	6820.05
709.621	6764
709.966	6740.95
710.31	6726.49
710.654	6706.15
710.998	6703.67
711.342	6720.84
711.687	6643.78
712.031	6640.62
712.375	6643.55
712.719	6590.9
713.063	6638.58
713.407	6640.39
713.75	6572.37
714.094	6539.38
714.438	6579.15
714.782	6608.98
715.125	6484.91
715.469	6485.37
715.812	6495.08
716.156	6482.2
716.499	6484.01
716.843	6509.32
717.186	6431.81
717.53	6522.65
717.873	6472.49
718.216	6495.08
718.559	6477.68
718.902	6427.06
719.246	6378.48
719.589	6431.13
719.932	6354.97
720.275	6378.02
720.617	6345.26
720.96	6385.71
721.303	6335.54
721.646	6379.61
721.989	6340.29
722.331	6354.97
722.674	6345.71
723.016	6333.05
723.359	6279.5
723.701	6283.56
724.044	6284.92
724.386	6283.34
724.729	6259.38
725.071	6255.32
725.413	6307.74
725.755	6298.93
726.097	6256.22
726.439	6299.16
726.782	6254.64
727.124	6237.46
727.465	6254.41
727.807	6255.09
728.149	6233.4
728.491	6244.24
728.833	6264.58
729.175	6246.5
729.516	6246.28
729.858	6221.64
730.199	6239.27
730.541	6207.18
730.882	6173.28
731.224	6257.12
731.565	6201.98
731.906	6203.34
732.248	6244.02
732.589	6151.36
732.93	6244.69
733.271	6257.12
733.612	6210.35
733.953	6240.17
734.294	6254.19
734.635	6201.08
734.976	6227.97
735.317	6210.8
735.658	6218.48
735.999	6203.79
736.339	6266.84
736.68	6246.5
737.021	6237.24
737.361	6208.09
737.702	6270
738.042	6242.66
738.383	6198.59
738.723	6209.22
739.063	6248.08
739.404	6259.84
739.744	6266.39
740.084	6278.59
740.424	6266.16
740.764	6277.69
741.104	6302.77
741.444	6331.92
741.784	6324.92
742.124	6329.89
742.464	6346.84
742.804	6349.1
743.143	6371.92
743.483	6373.73
743.823	6362.66
744.162	6410.11
744.502	6430.45
744.841	6528.08
745.181	6542.54
745.52	6506.38
745.86	6545.25
746.199	6563.56
746.538	6636.1
746.877	6644.01
747.216	6674.74
747.556	6714.51
747.895	6810.1
748.234	6858.01
748.573	6865.47
748.911	6912.02
749.25	6946.82
749.589	6973.71
749.928	7093.49
750.267	7162.41
750.605	7178.46
750.944	7254.16
751.283	7352.91
751.621	7425.45
751.96	7471.55
752.298	7571.21
752.636	7643.53
752.975	7707.71
753.313	7843.3
753.651	7971.43
753.989	8049.84
754.327	8154.02
754.666	8234.7
755.004	8370.51
755.342	8486.22
755.679	8604.18
756.017	8697.06
756.355	8844.63
756.693	9036.26
757.031	9097.73
757.368	9243.26
757.706	9346.08
758.044	9526.87
758.381	9697.94
758.719	9816.35
759.056	10018.83
759.394	10168.21
759.731	10233.74
760.068	10477.58
760.405	10622.66
760.743	10746.27
761.08	10907.85
761.417	11072.59
761.754	11247.73
762.091	11371.57
762.428	11596.64
762.765	11741.95
763.102	11943.75
763.438	11960.02
763.775	12254.03
764.112	12472.78
764.449	12683.17
764.785	12820.79
765.122	12864.86
765.458	13093.1
765.795	13221.23
766.131	13425.3
766.467	13522.47
766.804	13707.78
767.14	13807.66
767.476	14015.34
767.812	14097.82
768.148	14289.23
768.485	14408.55
768.821	14451.26
769.157	14629.78
769.492	14814.41
769.828	14996.33
770.164	15018.93
770.5	15125.37
770.836	15362.19
771.171	15385.7
771.507	15477.67
771.842	15626.14
772.178	15740.49
772.513	15821.17
772.849	15929.86
773.184	16001.27
773.519	16107.03
773.855	16219.12
774.19	16246.92
774.525	16314.94
774.86	16447.59
775.195	16576.17
775.53	16544.31
775.865	16633.12
776.2	16582.05
776.535	16643.29
776.87	16783.17
777.205	16803.51
777.539	16826.56
777.874	16946.79
778.209	16907.24
778.543	17049.16
778.878	16959.67
779.212	17144.75
779.547	17015.03
779.881	17178.64
780.215	17127.57
780.55	17150.17
780.884	17121.02
781.218	17183.62
781.552	17222.26
781.886	17332.31
782.22	17252.09
782.554	17256.16
782.888	17207.34
783.222	17243.95
783.556	17178.19
783.889	17189.49
784.223	17150.17
784.557	17193.11
784.89	17275.14
785.224	17264.52
785.557	17248.92
785.891	17205.99
786.224	17153.56
786.558	17191.07
786.891	17179.32
787.224	17124.63
787.557	17206.67
787.891	17222.03
788.224	17179.77
788.557	17218.87
788.89	17244.86
789.223	17214.12
789.556	17046.9
789.888	17012.77
790.221	17123.73
790.554	16913.34
790.887	16962.38
791.219	16940.23
791.552	16985.43
791.884	16985.66
792.217	16911.76
792.549	16863.62
792.882	16804.19
793.214	16753.34
793.546	16869.27
793.879	16716.28
794.211	16663.86
794.543	16690.97
794.875	16723.74
795.207	16795.15
795.539	16722.16
795.871	16784.08
796.203	16553.35
796.535	16444.2
796.867	16484.65
797.198	16539.79
797.53	16527.36
797.862	16403.75
798.193	16457.99
798.525	16352.45
798.856	16326.46
799.188	16239.69
799.519	16217.77
799.85	16075.62
800.182	16175.05
800.513	16161.04
800.844	16044.89
801.175	16186.35
801.506	16110.65
801.837	16032.23
802.168	15973.03
802.499	15999.24
802.83	15938.9
803.161	15880.83
803.491	15862.97
803.822	15836.31
804.153	15732.58
804.483	15635.63
804.814	15691.68
805.145	15670.44
805.475	15644.67
805.805	15583.21
806.136	15542.08
806.466	15627.05
806.796	15596.31
807.126	15434.96
807.457	15381.63
807.787	15380.05
808.117	15374.85
808.447	15314.29
808.777	15306.83
809.107	15301.18
809.436	15253.72
809.766	15209.2
810.096	15107.06
810.426	15162.88
810.755	15186.15
811.085	15066.16
811.414	15147.51
811.744	14936.9
812.073	14946.84
812.403	15011.24
812.732	14901.19
813.061	14983
813.39	14799.5
813.719	14890.79
814.049	14902.55
814.378	14798.59
814.707	14728.99
815.036	14785.71
815.365	14760.63
815.693	14600.18
816.022	14663
816.351	14613.29
816.68	14494.87
817.008	14575.32
817.337	14502.33
817.665	14455.1
817.994	14443.8
818.322	14449.45
818.651	14451.94
818.979	14380.75
819.307	14528.32
819.636	14437.7
819.964	14272.05
820.292	14454.65
820.62	14342.79
820.948	14296.46
821.276	14381.88
821.604	14221.43
821.932	14393.18
822.259	14287.19
822.587	14371.49
822.915	14330.81
823.243	14363.58
823.57	14272.51
823.898	14333.97
824.225	14216.91
824.553	14278.16
824.88	14352.05
825.207	14286.52
825.535	14247.2
825.862	14309.57
826.189	14214.88
826.516	14331.94
826.843	14325.61
827.17	14317.02
827.497	14363.35
827.824	14330.36
828.151	14362.45
828.478	14336.69
828.805	14465.72
829.131	14372.39
829.458	14369
829.785	14323.58
830.111	14385.95
830.438	14352.96
830.764	14345.72
831.09	14337.59
831.417	14283.13
831.743	14354.09
832.069	14334.43
832.395	14310.47
832.722	14322.9
833.048	14274.77
833.374	14270.02
833.7	14227.99
834.026	14299.4
834.351	14291.04
834.677	14241.09
835.003	14318.83
835.329	14234.31
835.654	14210.59
835.98	14173.75
836.306	14126.52
836.631	14172.85
836.956	14141.66
837.282	14165.39
837.607	14151.15
837.932	14052.4
838.258	13987.77
838.583	13967.66
838.908	14007.88
839.233	14084.94
839.558	13918.84
839.883	13890.6
840.208	13866.64
840.533	13864.61
840.858	13884.72
841.182	13863.7
841.507	13900.31
841.832	13799.3
842.156	13767.66
842.481	13767.43
842.805	13761.11
843.13	13690.37
843.454	13678.85
843.778	13596.14
844.103	13542.58
844.427	13572.86
844.751	13571.96
845.075	13540.55
845.399	13452.64
845.723	13384.39
846.047	13421.68
846.371	13209.48
846.695	13316.6
847.019	13195.7
847.343	13127.23
847.666	13134
847.99	13084.29
848.313	13093.1
848.637	12983.5
848.96	12959.55
849.284	12896.95
849.607	12839.78
849.931	12753.68
850.254	12725.88
850.577	12640.91
850.9	12590.74
851.223	12653.57
851.546	12415.15
851.869	12413.8
852.192	12475.72
852.515	12365.21
852.838	12370.64
853.161	12325.89
853.483	12318.21
853.806	12185.33
854.129	12199.34
854.451	12097.2
854.774	12049.74
855.096	11972.68
855.419	11976.3
855.741	11954.37
856.063	12023.98
856.385	11817.88
856.708	11849.07
857.03	11822.63
857.352	11775.17
857.674	11654.72
857.996	11739.01
858.318	11667.38
858.64	11668.05
858.961	11629.64
859.283	11669.41
859.605	11503.54
859.926	11551.45
860.248	11488.17
860.57	11452.69
860.891	11495.18
861.212	11400.72
861.534	11379.47
861.855	11391.68
862.176	11354.84
862.498	11317.78
862.819	11338.8
863.14	11350.32
863.461	11272.13
863.782	11283.66
864.103	11225.58
864.424	11178.58
864.745	11208.63
865.065	11083.89
865.386	11100.39
865.707	11149.65
866.027	11113.72
866.348	11033.04
866.668	11015.64
866.989	11020.16
867.309	10940.62
867.63	10981.97
867.95	10987.85
868.27	10880.28
868.59	10891.8
868.91	10877.34
869.23	10910.11
869.55	10912.82
869.87	10916.66
870.19	10826.72
870.51	10826.27
870.83	10922.99
871.15	10772.49
871.469	10773.39
871.789	10857.45
872.109	10758.25
872.428	10755.76
872.748	10735.65
873.067	10712.37
873.386	10683.9
873.706	10623.11
874.025	10535.2
874.344	10579.27
874.663	10583.79
874.982	10652.04
875.301	10638.48
875.62	10511.93
875.939	10547.63
876.258	10568.65
876.577	10478.03
876.896	10505.37
877.214	10462.66
877.533	10451.36
877.852	10465.6
878.17	10391.93
878.489	10417.24
878.807	10350.8
879.125	10443.23
879.444	10334.08
879.762	10343.8
880.08	10336.11
880.398	10273.97
880.716	10336.34
881.034	10265.83
881.352	10225.83
881.67	10251.82
881.988	10142.67
882.306	10134.76
882.624	10164.14
882.941	10118.49
883.259	10081.66
883.577	10019.96
883.894	10034.65
884.212	10023.35
884.529	9988.32
884.846	9995.56
885.164	10025.16
885.481	9900.42
885.798	9939.06
886.115	9842.11
886.432	9910.13
886.75	9805.96
887.067	9891.6
887.383	9765.96
887.7	9883.69
888.017	9735.9
888.334	9786.52
888.651	9721.21
888.967	9755.79
889.284	9648.22
889.6	9652.97
889.917	9539.3
890.233	9617.49
890.55	9510.6
890.866	9557.83
891.182	9478.51
891.498	9394.44
891.815	9455.23
892.131	9348.34
892.447	9373.88
892.763	9375.91
893.079	9363.71
893.395	9226.54
893.71	9276.71
894.026	9266.76
894.342	9270.15
894.657	9222.24
894.973	9152.41
895.289	9203.49
895.604	9127.56
895.92	8961.46
896.235	8995.81
896.55	9030.61
896.865	9012.08
897.181	8969.14
897.496	8931.63
897.811	8914.91
898.126	8760.11
898.441	8847.56
898.756	8819.99
899.071	8712.43
899.386	8709.94
899.7	8640.79
900.015	8650.96
900.33	8560.11
900.644	8583.39
900.959	8535.03
901.273	8500.68
901.588	8481.7
901.902	8423.62
902.216	8418.87
902.531	8412.1
902.845	8280.12
903.159	8324.87
903.473	8300.01
903.787	8215.72
904.101	8208.03
904.415	8288.48
904.729	8156.51
905.042	8167.58
905.356	8069.28
905.67	8086.91
905.984	8090.75
906.297	7980.02
906.611	7963.29
906.924	7997.87
907.237	7937.53
907.551	7878.1
907.864	7868.38
908.177	7799.68
908.491	7741.15
908.804	7784.77
909.117	7712.68
909.43	7649.86
909.743	7647.37
910.056	7679.69
910.368	7606.01
910.681	7561.95
910.994	7569.18
911.307	7560.59
911.619	7515.62
911.932	7489.63
912.244	7399.01
912.557	7407.15
912.869	7369.64
913.181	7310.66
913.494	7293.93
913.806	7321.5
914.118	7261.17
914.43	7166.48
914.742	7212.13
915.054	7163.09
915.366	7165.35
915.678	7067.72
915.99	7065.69
916.302	6969.2
916.613	7029.31
916.925	6975.97
917.236	6990.89
917.548	6891.91
917.859	6956.31
918.171	6908.86
918.482	6854.62
918.794	6798.8
919.105	6823.89
919.416	6693.95
919.727	6728.52
920.038	6703.67
920.349	6680.16
920.66	6653.95
920.971	6655.31
921.282	6614.85
921.593	6575.53
921.903	6534.4
922.214	6543.22
922.525	6498.47
922.835	6418.93
923.146	6451.24
923.456	6377.57
923.767	6397.68
924.077	6356.33
924.387	6347.29
924.697	6292.83
925.008	6307.74
925.318	6254.86
925.628	6247.63
925.938	6260.97
926.248	6182.55
926.558	6131.03
926.867	6172.38
927.177	6126.96
927.487	6096.45
927.796	5999.73
928.106	6062.33
928.416	6050.58
928.725	6002.67
929.034	5982.78
929.344	5940.3
929.653	5940.3
929.962	5871.15
930.271	5883.8
930.581	5839.73
930.89	5843.8
931.199	5771.94
931.508	5817.14
931.817	5732.84
932.125	5757.7
932.434	5781.43
932.743	5659.17
933.051	5685.16
933.36	5596.12
933.669	5618.72
933.977	5573.07
934.286	5541.21
934.594	5531.49
934.902	5494.43
935.21	5480.19
935.519	5475.68
935.827	5444.72
936.135	5434.77
936.443	5384.6
936.751	5368.79
937.059	5339.86
937.367	5376.24
937.674	5316.58
937.982	5329.24
938.29	5279.75
938.597	5225.29
938.905	5237.49
939.213	5182.12
939.52	5193.87
939.827	5194.1
940.135	5144.61
940.442	5127.66
940.749	5058.74
941.056	5050.83
941.363	5035.23
941.67	5023.03
941.977	4992.3
942.284	4964.95
942.591	4947.55
942.898	4937.38
943.205	4923.83
943.511	4889.7
943.818	4900.55
944.125	4866.43
944.431	4839.76
944.738	4889.48
945.044	4797.73
945.35	4731.51
945.657	4775.35
945.963	4727.45
946.269	4701.01
946.575	4682.25
946.881	4686.32
947.187	4668.46
947.493	4633.21
947.799	4630.05
948.105	4549.15
948.41	4563.83
948.716	4609.26
949.022	4593.44
949.327	4536.26
949.633	4497.62
949.938	4488.81
950.244	4473.89
950.549	4460.56
950.854	4443.16
951.16	4449.71
951.465	4402.26
951.77	4334.24
952.075	4383.73
952.38	4386.44
952.685	4296.95
952.99	4286.55
953.294	4295.37
953.599	4240.23
953.904	4240.68
954.209	4214.69
954.513	4206.56
954.818	4255.59
955.122	4160.46
955.426	4215.37
955.731	4148.93
956.035	4101.02
956.339	4149.38
956.643	4098.54
956.948	4056.73
957.252	4042.72
957.556	4060.35
957.86	4023.96
958.163	3993
958.467	4006.56
958.771	3970.4
959.075	3944.64
959.378	3916.85
959.682	3923.85
959.985	3907.35
960.289	3908.26
960.592	3882.95
960.896	3877.53
961.199	3835.94
961.502	3821.71
961.805	3799.11
962.108	3748.26
962.411	3783.29
962.714	3748.71
963.017	3749.84
963.32	3758.66
963.623	3753.46
963.926	3682.05
964.228	3711.2
964.531	3645.21
964.833	3616.06
965.136	3610.64
965.438	3608.61
965.741	3569.06
966.043	3556.63
966.345	3529.74
966.648	3565.67
966.95	3545.1
967.252	3527.25
967.554	3510.76
967.856	3530.19
968.158	3480.7
968.46	3444.09
968.761	3442.06
969.063	3428.05
969.365	3396.63
969.666	3393.47
969.968	3369.06
970.269	3365.45
970.571	3312.79
970.872	3345.34
971.174	3371.32
971.475	3277.99
971.776	3299.46
972.077	3259.46
972.378	3244.1
972.679	3259.69
972.98	3245.23
973.281	3255.17
973.582	3196.87
973.883	3195.06
974.183	3189.63
974.484	3161.39
974.785	3161.84
975.085	3172.46
975.386	3150.99
975.686	3158.45
975.986	3119.35
976.287	3112.8
976.587	3073.03
976.887	3075.96
977.187	3036.87
977.487	3054.95
977.787	3028.51
978.087	2989.19
978.387	2996.19
978.687	2988.06
978.987	2958.91
979.286	2953.48
979.586	2912.58
979.885	2901.73
980.185	2965.68
980.484	2860.83
980.784	2858.12
981.083	2861.96
981.382	2866.03
981.682	2842.75
981.981	2869.87
982.28	2797.33
982.579	2794.62
982.878	2825.35
983.177	2797.55
983.475	2752.81
983.774	2756.42
984.073	2762.75
984.372	2738.8
984.67	2698.35
984.969	2719.36
985.267	2713.26
985.566	2714.84
985.864	2683.88
986.162	2642.98
986.461	2627.39
986.759	2659.25
987.057	2647.73
987.355	2649.08
987.653	2593.49
987.951	2582.64
988.249	2607.73
988.547	2594.85
988.844	2576.54
989.142	2570.89
989.44	2542.42
989.737	2527.96
990.035	2501.29
990.332	2495.41
990.63	2512.36
990.927	2500.16
991.224	2484.57
991.521	2465.81
991.819	2457.9
992.116	2433.04
992.413	2433.95
992.71	2401.86
993.006	2372.03
993.303	2378.81
993.6	2391.91
993.897	2371.8
994.193	2348.98
994.49	2360.5
994.787	2329.09
995.083	2327.51
995.379	2348.53
995.676	2301.52
995.972	2287.74
996.268	2262.2
996.565	2307.62
996.861	2262.43
997.157	2238.7
997.453	2209.32
997.749	2232.14
998.044	2207.29
998.34	2212.94
998.636	2205.48
998.932	2209.77
999.227	2152.15
999.523	2168.87
999.818	2147.63
1000.114	2107.4
1000.409	2100.4
1000.704	2092.04
1001	2108.98
1001.295	2076.44
1001.59	2101.75
1001.885	2097.23
1002.18	2077.57
1002.475	2045.48
1002.77	2020.62
1003.065	2003.68
1003.359	2005.71
1003.654	1988.99
1003.949	1972.94
1004.243	1960.06
1004.538	1925.94
1004.832	1956.9
1005.127	1952.38
1005.421	1924.13
1005.715	1898.37
1006.009	1924.36
1006.304	1905.6
1006.598	1876
1006.892	1889.33
1007.186	1865.15
1007.48	1875.32
1007.773	1844.81
1008.067	1832.38
1008.361	1810.01
1008.655	1839.16
1008.948	1830.12
1009.242	1806.62
1009.535	1773.17
1009.829	1768.88
1010.122	1775.21
1010.415	1775.21
1010.708	1736.79
1011.001	1726.17
1011.295	1744.7
1011.588	1701.99
1011.881	1694.31
1012.173	1703.12
1012.466	1686.62
1012.759	1664.48
1013.052	1672.84
1013.344	1632.61
1013.637	1651.14
1013.93	1627.64
1014.222	1619.96
1014.514	1640.3
1014.807	1629.45
1015.099	1594.65
1015.391	1588.55
1015.683	1586.96
1015.976	1537.93
1016.268	1543.58
1016.56	1573.4
1016.851	1563.91
1017.143	1531.15
1017.435	1512.84
1017.727	1488.89
1018.018	1501.77
1018.31	1510.13
1018.602	1494.09
1018.893	1480.98
1019.185	1481.88
1019.476	1442.56
1019.767	1426.97
1020.058	1435.56
1020.35	1441.66
1020.641	1420.41
1020.932	1429
1021.223	1382.45
1021.514	1411.38
1021.804	1408.89
1022.095	1342.68
1022.386	1350.13
1022.677	1393.97
1022.967	1357.59
1023.258	1360.53
1023.548	1324.82
1023.839	1297.48
1024.129	1331.38
1024.419	1319.17
1024.709	1320.53
1025	1311.26
1025.29	1274.43
1025.58	1251.15
1025.87	1237.37
1026.16	1232.17
1026.449	1242.11
1026.739	1241.89
1027.029	1240.76
1027.319	1258.84
1027.608	1198.95
1027.898	1215.67
1028.187	1219.06
1028.477	1200.31
1028.766	1196.01
1029.055	1181.78
1029.344	1216.13
1029.634	1158.27
1029.923	1167.77
1030.212	1137.94
1030.501	1130.48
1030.79	1149.46
1031.078	1125.73
1031.367	1122.34
1031.656	1108.56
1031.945	1094.77
1032.233	1091.16
1032.522	1105.17
1032.81	1077.37
1033.099	1073.31
1033.387	1073.76
1033.675	1063.36
1033.963	1057.03
1034.251	1040.54
1034.54	1057.49
1034.828	1038.96
1035.116	1027.43
1035.403	1027.88
1035.691	1004.61
1035.979	1009.8
1036.267	997.37
1036.554	1005.51
1036.842	1003.93
1037.129	987.66
1037.417	985.17
1037.704	980.65
1037.992	965.96
1038.279	965.96
1038.566	951.73
1038.853	951.73
1039.14	951.73
