Data from hue_00_FLMS001491_75.txt Node
Date: Mon Feb 06 15:30:12 GMT 2017
User: dcchb
Spectrometer: FLMS00149
Trigger mode: 0
Integration Time (sec): 2.000000E-2
Scans to average: 10
Electric dark correction enabled: true
Nonlinearity correction enabled: false
Boxcar width: 0
XAxis mode: Wavelengths
Number of Pixels in Spectrum: 2048
>>>>>Begin Spectral Data<<<<<
341.393	-33.64
341.776	-33.64
342.16	-33.64
342.543	-67.77
342.927	-74.32
343.31	-74.09
343.693	-64.38
344.077	-58.5
344.46	-58.05
344.843	-61.21
345.226	-32.06
345.61	-38.61
345.993	-36.35
346.376	-4.72
346.759	1.16
347.142	38.45
347.525	51.1
347.908	53.81
348.291	81.16
348.674	97.88
349.057	104.43
349.44	136.07
349.823	157.31
350.206	161.15
350.588	174.49
350.971	207.93
351.354	209.97
351.737	207.71
352.119	223.3
352.502	244.32
352.884	268.95
353.267	270.08
353.65	291.09
354.032	280.92
354.414	309.85
354.797	318.21
355.179	310.75
355.562	333.58
355.944	329.51
356.326	309.62
356.709	339
357.091	326.8
357.473	336.97
357.855	342.17
358.238	326.8
358.62	342.62
359.002	336.52
359.384	342.84
359.766	328.38
360.148	344.88
360.53	334.71
360.912	325.22
361.294	318.21
361.676	298.78
362.057	320.47
362.439	339.45
362.821	310.75
363.203	318.89
363.584	311.66
363.966	319.12
364.348	313.47
364.729	308.27
365.111	299
365.493	307.14
365.874	321.38
366.256	281.38
366.637	315.73
367.019	302.85
367.4	301.94
367.781	288.38
368.163	321.38
368.544	293.35
368.925	304.43
369.306	303.07
369.688	292.68
370.069	311.43
370.45	320.47
370.831	295.84
371.212	293.81
371.593	313.24
371.974	308.72
372.355	295.16
372.736	317.53
373.117	287.48
373.498	322.73
373.879	320.25
374.26	321.15
374.641	289.06
375.021	318.89
375.402	297.65
375.783	324.99
376.163	318.21
376.544	318.44
376.925	319.79
377.305	336.29
377.686	320.47
378.066	321.38
378.447	297.42
378.827	312.79
379.208	319.34
379.588	323.86
379.968	327.48
380.349	319.12
380.729	323.41
381.109	324.99
381.489	302.62
381.87	315.27
382.25	307.14
382.63	301.94
383.01	315.5
383.39	304.88
383.77	320.7
384.15	339.91
384.53	318.21
384.91	338.78
385.29	329.96
385.67	340.58
386.049	339.91
386.429	340.36
386.809	348.27
387.189	320.25
387.568	327.7
387.948	334.48
388.328	332.22
388.707	348.95
389.087	346.46
389.466	349.85
389.846	349.85
390.225	367.25
390.605	346.69
390.984	342.62
391.363	336.29
391.743	336.52
392.122	352.56
392.501	326.12
392.881	329.51
393.26	352.79
393.639	342.84
394.018	343.52
394.397	344.43
394.776	350.08
395.155	360.92
395.534	364.76
395.913	363.63
396.292	351.66
396.671	354.82
397.05	361.83
397.429	324.09
397.808	358.66
398.186	377.65
398.565	361.83
398.944	365.44
399.323	376.74
399.701	353.47
400.08	365.22
400.458	348.27
400.837	388.72
401.215	364.76
401.594	348.49
401.972	378.55
402.351	377.19
402.729	368.38
403.107	374.48
403.486	367.02
403.864	377.19
404.242	375.39
404.62	391.88
404.999	375.39
405.377	388.49
405.755	388.04
406.133	393.24
406.511	405.22
406.889	400.02
407.267	405.22
407.645	404.31
408.023	379.23
408.401	396.85
408.779	400.7
409.156	384.88
409.534	397.08
409.912	402.28
410.29	414.03
410.667	415.84
411.045	428.27
411.422	431.88
411.8	407.7
412.178	416.29
412.555	426.91
412.933	438.66
413.31	438.21
413.687	431.88
414.065	447.47
414.442	450.64
414.819	444.08
415.197	441.6
415.574	444.76
415.951	476.17
416.328	432.79
416.705	444.31
417.082	482.95
417.46	470.07
417.837	440.69
418.214	476.4
418.591	438.43
418.967	464.2
419.344	483.18
419.721	466
420.098	475.72
420.475	477.3
420.852	483.86
421.228	475.95
421.605	483.18
421.982	491.99
422.358	459.23
422.735	493.12
423.111	515.95
423.488	499.68
423.864	516.85
424.241	529.96
424.617	541.93
424.994	533.57
425.37	525.89
425.746	488.15
426.123	507.36
426.499	498.55
426.875	543.52
427.251	549.39
427.627	534.48
428.003	544.42
428.379	530.64
428.756	539.45
429.132	530.64
429.507	547.36
429.883	571.54
430.259	571.09
430.635	537.64
431.011	550.3
431.387	600.01
431.763	566.34
432.138	591.2
432.514	572.44
432.89	599.79
433.265	578.77
433.641	589.62
434.016	620.35
434.392	619.9
434.767	616.06
435.143	611.99
435.518	639.79
435.894	635.04
436.269	617.19
436.644	640.01
437.02	634.36
437.395	623.74
437.77	653.8
438.145	674.13
438.52	618.32
438.895	639.56
439.271	659.67
439.646	654.7
440.021	677.98
440.395	655.83
440.77	685.89
441.145	665.1
441.52	679.33
441.895	688.15
442.27	704.19
442.645	700.8
443.019	683.85
443.394	708.71
443.769	700.8
444.143	689.95
444.518	703.29
444.892	702.83
445.267	755.71
445.641	718.65
446.016	718.2
446.39	714.36
446.764	734.25
447.139	725.88
447.513	734.7
447.887	726.79
448.262	736.96
448.636	735.38
449.01	736.05
449.384	747.13
449.758	748.26
450.132	741.93
450.506	746.68
450.88	778.76
451.254	747.58
451.628	764.53
452.002	782.61
452.376	776.51
452.75	777.63
453.123	770.63
453.497	790.06
453.871	793
454.244	816.05
454.618	802.27
454.992	851.08
455.365	816.5
455.739	823.28
456.112	844.75
456.486	842.49
456.859	852.89
457.232	851.53
457.606	861.93
457.979	842.04
458.352	863.51
458.725	873
459.099	903.06
459.472	895.82
459.845	927.91
460.218	910.74
460.591	900.57
460.964	914.13
461.337	952.32
461.71	948.03
462.083	944.86
462.456	915.71
462.829	956.16
463.201	984.41
463.574	977.86
463.947	993.45
464.32	992.77
464.692	997.97
465.065	1018.31
465.438	1006.33
465.81	1033
466.183	1054.69
466.555	1065.31
466.928	1063.05
467.3	1089.94
467.672	1080.23
468.045	1118.64
468.417	1086.33
468.789	1096.95
469.161	1123.61
469.534	1132.88
469.906	1184.86
470.278	1164.07
470.65	1171.75
471.022	1208.81
471.394	1216.72
471.766	1242.93
472.138	1244.29
472.51	1228.92
472.882	1274.57
473.253	1320.45
473.625	1338.98
473.997	1339.65
474.369	1342.82
474.74	1385.3
475.112	1376.72
475.484	1418.52
475.855	1448.8
476.227	1443.38
476.598	1489.03
476.97	1498.52
477.341	1506.2
477.713	1575.35
478.084	1589.14
478.455	1620.78
478.827	1643.6
479.198	1671.62
479.569	1674.56
479.94	1712.53
480.311	1730.6
480.682	1774.22
481.053	1802.69
481.424	1859.41
481.795	1899.64
482.166	1890.37
482.537	1911.39
482.908	1938.96
483.279	1991.61
483.65	2000.43
484.021	2046.53
484.391	2086.75
484.762	2115
485.133	2135.79
485.503	2184.6
485.874	2213.53
486.244	2229.57
486.615	2305.96
486.985	2329.23
487.356	2365.16
487.726	2407.42
488.097	2442
488.467	2423.92
488.837	2462.79
489.207	2512.96
489.578	2593.63
489.948	2606.97
490.318	2645.16
490.688	2645.16
491.058	2681.31
491.428	2744.14
491.798	2753.18
492.168	2820.97
492.538	2827.98
492.908	2867.3
493.278	2927.41
493.648	2873.63
494.017	2953.85
494.387	2968.54
494.757	3067.97
495.126	3033.85
495.496	3047.41
495.866	3090.57
496.235	3113.62
496.605	3145.93
496.974	3141.19
497.344	3211.47
497.713	3223.9
498.082	3246.72
498.452	3239.27
498.821	3328.98
499.19	3278.13
499.559	3367.4
499.928	3339.38
500.298	3383.22
500.667	3430.9
501.036	3411.46
501.405	3475.64
501.774	3414.4
502.143	3493.27
502.512	3502.99
502.88	3558.58
503.249	3512.93
503.618	3580.5
503.987	3578.92
504.356	3595.87
504.724	3621.85
505.093	3644
505.462	3641.97
505.83	3665.02
506.199	3746.82
506.567	3711.57
506.936	3698.46
507.304	3771.23
507.672	3780.72
508.041	3762.87
508.409	3782.98
508.777	3795.63
509.145	3868.85
509.514	3831.34
509.882	3839.02
510.25	3853.26
510.618	3898.23
510.986	3932.35
511.354	3909.53
511.722	3975.97
512.09	3958.57
512.458	3961.96
512.826	4015.29
513.193	4008.28
513.561	3994.73
513.929	4022.07
514.297	4062.29
514.664	4081.5
515.032	4081.5
515.4	4129.41
515.767	4079.69
516.135	4164.44
516.502	4092.8
516.869	4182.29
517.237	4116.08
517.604	4168.28
517.972	4168.73
518.339	4237.66
518.706	4246.47
519.073	4211.89
519.44	4249.41
519.808	4234.27
520.175	4270.42
520.542	4287.15
520.909	4382.51
521.276	4316.98
521.643	4299.58
522.009	4367.15
522.376	4380.93
522.743	4415.96
523.11	4381.83
523.477	4455.5
523.843	4432.23
524.21	4505.67
524.577	4560.59
524.943	4541.6
525.31	4537.54
525.676	4581.83
526.043	4603.07
526.409	4619.79
526.776	4668.61
527.142	4655.73
527.508	4664.99
527.874	4673.58
528.241	4740.69
528.607	4706.8
528.973	4759.9
529.339	4729.62
529.705	4824.76
530.071	4828.15
530.437	4879.45
530.803	4874.02
531.169	4874.02
531.535	4895.94
531.901	4928.49
532.267	4932.1
532.632	4937.3
532.998	5003.51
533.364	5027.69
533.73	5018.88
534.095	5073.12
534.461	5042.83
534.826	5080.8
535.192	5110.85
535.557	5140.46
535.923	5191.98
536.288	5170.29
536.653	5163.28
537.019	5176.16
537.384	5191.76
537.749	5214.58
538.114	5301.36
538.479	5270.85
538.845	5318.98
539.21	5321.02
539.575	5304.3
539.94	5331.41
540.305	5415.93
540.67	5348.14
541.034	5369.15
541.399	5449.38
541.764	5445.76
542.129	5446.44
542.494	5464.74
542.858	5494.35
543.223	5553.33
543.587	5605.53
543.952	5525.53
544.316	5573.67
544.681	5614.34
545.045	5623.16
545.41	5688.47
545.774	5723.27
546.138	5768.24
546.503	5750.16
546.867	5745.64
547.231	5827.67
547.595	5794.45
547.959	5861.57
548.324	5875.35
548.688	5810.72
549.052	5848.46
549.416	5877.61
549.779	5940.89
550.143	5987.89
550.507	5981.11
550.871	6008.91
551.235	5972.3
551.599	6016.59
551.962	6049.81
552.326	6047.1
552.689	6065.86
553.053	6051.62
553.417	6097.27
553.78	6140.66
554.143	6105.86
554.507	6163.93
554.87	6175.69
555.234	6277.83
555.597	6222.46
555.96	6245.29
556.323	6271.95
556.686	6250.49
557.05	6330.03
557.413	6260.43
557.776	6321.44
558.139	6395.34
558.502	6377.94
558.865	6420.65
559.228	6455
559.59	6411.61
559.953	6434.66
560.316	6538.61
560.679	6552.85
561.041	6532.06
561.404	6587.65
561.767	6582.91
562.129	6539.29
562.492	6621.78
562.854	6590.59
563.217	6629.01
563.579	6624.49
563.941	6710.13
564.304	6706.52
564.666	6793.3
565.028	6801.66
565.39	6835.1
565.753	6777.93
566.115	6793.07
566.477	6841.2
566.839	6906.51
567.201	6925.27
567.563	6903.8
567.925	6936.12
568.287	6953.74
568.648	6960.75
569.01	7006.85
569.372	7052.95
569.734	7118.03
570.095	7113.74
570.457	7133.4
570.819	7156.22
571.18	7184.47
571.542	7280.51
571.903	7304.69
572.265	7274.87
572.626	7349.89
572.987	7359.38
573.349	7395.99
573.71	7443.22
574.071	7474.86
574.432	7601.64
574.794	7636.89
575.155	7671.69
575.516	7664.91
575.877	7767.96
576.238	7854.51
576.599	7924.11
576.96	7957.33
577.32	7992.13
577.681	8154.62
578.042	8213.15
578.403	8222.86
578.763	8297.21
579.124	8397.55
579.485	8460.82
579.845	8638.45
580.206	8659.46
580.566	8755.05
580.927	8850.19
581.287	9045.44
581.648	9137.42
582.008	9231.42
582.368	9418.76
582.728	9590.28
583.089	9656.72
583.449	9819.21
583.809	9924.06
584.169	10097.39
584.529	10202.25
584.889	10439.3
585.249	10530.82
585.609	10747.09
585.969	10983.02
586.329	11103.47
586.688	11298.26
587.048	11507.3
587.408	11691.02
587.768	11925.36
588.127	12147.05
588.487	12403.54
588.846	12674.05
589.206	12822.97
589.565	13034.49
589.925	13315.84
590.284	13578.2
590.643	13877.4
591.003	14180.22
591.362	14408.46
591.721	14539.31
592.08	14822.46
592.44	15184.71
592.799	15410.92
593.158	15766.62
593.517	15884.36
593.876	16324.34
594.235	16420.16
594.593	16814.5
594.952	17079.13
595.311	17301.95
595.67	17643.41
596.029	17992.78
596.387	18301.92
596.746	18676.15
597.104	18797.73
597.463	19095.35
597.822	19509.35
598.18	19625.95
598.538	19934.65
598.897	20305.94
599.255	20401.53
599.613	20997.44
599.972	21154.05
600.33	21496.86
600.688	21616.18
601.046	22086.91
601.404	22388.82
601.762	22581.81
602.12	22880.56
602.478	23084.84
602.836	23390.37
603.194	23564.83
603.552	23816.58
603.91	23959.62
604.268	24330.69
604.625	24694.75
604.983	24881.41
605.341	25021.74
605.698	25331.79
606.056	25574.95
606.413	25794.38
606.771	26124.54
607.128	26403.63
607.485	26502.83
607.843	26710.29
608.2	27106.66
608.557	27357.28
608.914	27367.22
609.272	27825.29
609.629	28047.2
609.986	28374.2
610.343	28258.49
610.7	28701.42
611.057	28762.89
611.414	28944.58
611.771	29155.87
612.127	29511.57
612.484	29525.35
612.841	29831.11
613.198	29834.95
613.554	30068.84
613.911	30438.1
614.267	30380.7
614.624	30681.93
614.98	30829.95
615.337	31158.53
615.693	31080.57
616.05	31291.41
616.406	31535.92
616.762	31516.94
617.118	31764.39
617.475	31857.72
617.831	32040.99
618.187	32223.36
618.543	32325.96
618.899	32637.59
619.255	32693.18
619.611	32846.62
619.967	32921.65
620.323	33101.76
620.678	33202.55
621.034	33083
621.39	33259.72
621.746	33259.49
622.101	33741.97
622.457	33515.98
622.812	33707.84
623.168	33904.9
623.523	33891.34
623.879	34150.32
624.234	33997.1
624.589	34216.98
624.945	34324.1
625.3	34387.6
625.655	34513.02
626.01	34460.14
626.365	34734.26
626.72	34594.15
627.075	34574.03
627.43	34658.33
627.785	34657.65
628.14	34877.98
628.495	34897.64
628.85	34915.49
629.205	34923.4
629.559	35173.57
629.914	34995.49
630.269	35188.93
630.623	34981.48
630.978	35065.77
631.332	35206.79
631.687	35408.59
632.041	35174.02
632.396	35353.67
632.75	35272.32
633.104	35387.8
633.459	35175.37
633.813	35272.55
634.167	35302.38
634.521	35399.78
634.875	35377.4
635.229	35263.51
635.583	35127.24
635.937	35265.54
636.291	35304.41
636.645	35303.51
636.999	35203.17
637.352	35243.85
637.706	35307.35
638.06	35330.62
638.413	35305.09
638.767	35241.14
639.121	35305.31
639.474	35091.76
639.828	35171.53
640.181	35182.61
640.534	35261.93
640.888	35164.08
641.241	35124.98
641.594	35136.28
641.947	35309.16
642.301	35225.77
642.654	35208.37
643.007	35277.97
643.36	35240.91
643.713	35161.59
644.066	35209.05
644.419	35183.96
644.771	34783.52
645.124	34500.59
645.477	34545.56
645.83	34407.49
646.182	34081.39
646.535	34141.96
646.888	34201.84
647.24	33932.02
647.593	34255.62
647.945	34119.81
648.298	33907.39
648.65	33907.84
649.002	34018.57
649.355	33852.02
649.707	33948.29
650.059	34032.81
650.411	34528.84
650.763	34556.63
651.115	34932.44
651.467	34638.21
651.819	34735.39
652.171	34803.41
652.523	34692.9
652.875	34660.81
653.227	34470.08
653.578	34790.75
653.93	34603.86
654.282	34521.38
654.633	34508.27
654.985	34431.21
655.337	34583.98
655.688	34551.44
656.039	34620.13
656.391	34388.73
656.742	34565.67
657.094	34376.53
657.445	34525.22
657.796	34449.74
658.147	34426.24
658.498	34402.06
658.849	34479.12
659.2	34534.04
659.551	34367.94
659.902	34414.04
660.253	34495.17
660.604	34526.8
660.955	34288.84
661.306	34518.89
661.656	34385.79
662.007	34503.98
662.358	34278.22
662.708	34367.26
663.059	34289.75
663.409	34205.68
663.76	34360.93
664.11	34283.19
664.461	34409.07
664.811	34346.92
665.161	34394.83
665.511	34276.64
665.862	34326.13
666.212	34413.59
666.562	34375.85
666.912	34312.35
667.262	34188.06
667.612	34277.32
667.962	34384.43
668.312	34268.51
668.662	34432.34
669.011	34193.93
669.361	34105.12
669.711	34190.99
670.06	34275.29
670.41	34104.22
670.76	34042.3
671.109	34231.9
671.459	34102.86
671.808	34096.76
672.157	34067.16
672.507	33778.35
672.856	33886.82
673.205	34085.23
673.554	34059.47
673.904	33890.21
674.253	34180.37
674.602	34058.34
674.951	33524.34
675.3	33417.23
675.649	33876.2
675.998	33897.22
676.346	33938.8
676.695	33882.08
677.044	33806.6
677.393	33900.38
677.741	33847.5
678.09	33802.3
678.438	33701.97
678.787	33836.2
679.135	33786.03
679.484	33440.96
679.832	33776.32
680.181	33465.59
680.529	33601.4
680.877	33449.77
681.225	33460.62
681.573	33677.79
681.922	33508.75
682.27	33370
682.618	33440.05
682.966	33279.15
683.314	33315.99
683.661	33350.34
684.009	33032.61
684.357	32995.54
684.705	32983.12
685.053	33046.16
685.4	33014.3
685.748	32841.2
686.095	32801.65
686.443	32739.28
686.79	32720.3
687.138	32677.14
687.485	32675.78
687.832	32629.9
688.18	32662.45
688.527	32404.15
688.874	32383.13
689.221	32257.94
689.568	32242.8
689.915	32296.13
690.262	32187.88
690.609	32091.61
690.956	31979.75
691.303	31859.08
691.65	31843.71
691.997	31857.04
692.344	31536.37
692.69	31629.25
693.037	31694.56
693.383	31462.93
693.73	31617.5
694.077	31240.34
694.423	31281.92
694.769	31135.93
695.116	31111.53
695.462	31108.59
695.808	30950.17
696.155	30883.96
696.501	30780.01
696.847	30663.85
697.193	30581.15
697.539	30620.24
697.885	30315.84
698.231	30358.55
698.577	30308.16
698.923	30219.8
699.269	30110.87
699.614	30114.94
699.96	29966.47
700.306	29982.52
700.651	29947.72
700.997	29703.65
701.342	29763.54
701.688	29689.42
702.033	29704.11
702.379	29628.63
702.724	29467.95
703.069	29521.06
703.415	29213.05
703.76	29328.52
704.105	29192.26
704.45	29193.38
704.795	28970.79
705.14	29075.42
705.485	29036.78
705.83	28828.2
706.175	28875.65
706.52	28733.74
706.865	28583.01
707.209	28614.42
707.554	28522.22
707.899	28598.37
708.243	28356.57
708.588	28491.03
708.932	28078.84
709.277	28209.91
709.621	28237.25
709.966	27915.68
710.31	27985.51
710.654	27752.74
710.998	27983.47
711.342	27826.64
711.687	27850.14
712.031	27716.36
712.375	27524.28
712.719	27687.44
713.063	27630.94
713.407	27588
713.75	27397.05
714.094	27542.35
714.438	27399.08
714.782	27355.02
715.125	27224.85
715.469	27278.63
715.812	27111.63
716.156	27054.01
716.499	26968.36
716.843	27108.92
717.186	26890.17
717.53	26886.78
717.873	27072.76
718.216	26801.36
718.559	26851.53
718.902	26587.35
719.246	26666.45
719.589	26535.6
719.932	26466.9
720.275	26484.98
720.617	26347.58
720.96	26323.18
721.303	26492.44
721.646	26481.82
721.989	26155.5
722.331	26181.26
722.674	26196.85
723.016	26308.49
723.359	26118.66
723.701	26310.52
724.044	25978.1
724.386	25886.58
724.729	25982.62
725.071	25881.83
725.413	25911.44
725.755	25823.08
726.097	25876.64
726.439	25628.51
726.782	25534.27
727.124	25795.28
727.465	25653.14
727.807	25635.06
728.149	25510.54
728.491	25403.43
728.833	25548.74
729.175	25451.34
729.516	25337.89
729.858	25322.3
730.199	25273.49
730.541	25286.14
730.882	25201.17
731.224	25363.43
731.565	25091.57
731.906	25101.74
732.248	25084.11
732.589	25003.44
732.93	24931.58
733.271	24955.53
733.612	24960.73
733.953	25036.88
734.294	24785.14
734.635	24855.19
734.976	24873.95
735.317	24650
735.658	24748.98
735.999	24720.28
736.339	24647.74
736.68	24754.41
737.021	24563.22
737.361	24452.04
737.702	24772.71
738.042	24521.42
738.383	24525.26
738.723	24563.68
739.063	24313.51
739.404	24461.98
739.744	24406.39
740.084	24207.08
740.424	24288.2
740.764	24197.36
741.104	24272.84
741.444	24137.02
741.784	24086.85
742.124	24178.38
742.464	24064.03
742.804	23950.36
743.143	24012.28
743.483	23925.05
743.823	23874.43
744.162	23826.97
744.502	23983.58
744.841	23889.34
745.181	23856.12
745.52	23740.87
745.86	23778.61
746.199	23712.4
746.538	23749.69
746.877	23703.13
747.216	23659.75
747.556	23636.47
747.895	23593.98
748.234	23502.69
748.573	23455.23
748.911	23399.19
749.25	23409.13
749.589	23358.74
749.928	23311.96
750.267	23327.55
750.605	23288
750.944	23179.98
751.283	23151.28
751.621	23230.38
751.96	23016.82
752.298	23045.52
752.636	22981.12
752.975	22964.62
753.313	22851.18
753.651	23046.88
753.989	22824.29
754.327	22811.86
754.666	22730.28
755.004	22718.07
755.342	22773.21
755.679	22613.22
756.017	22575.93
756.355	22687.12
756.693	22542.94
757.031	22407.12
757.368	22421.81
757.706	22383.62
758.044	22314.02
758.381	22305.66
758.719	22291.65
759.056	22349.27
759.394	22171.87
759.731	22090.97
760.068	22083.06
760.405	21989.96
760.743	21887.14
761.08	21878.78
761.417	21703.86
761.754	21714.49
762.091	21792.45
762.428	21614.15
762.765	21452.12
763.102	21553.59
763.438	21440.82
763.775	21380.26
764.112	21414.61
764.449	21268.17
764.785	21217.78
765.122	21071.11
765.458	21035.63
765.795	21046.48
766.131	20969.42
766.467	20948.86
766.804	20822.31
767.14	20751.8
767.476	20710.22
767.812	20602.42
768.148	20627.51
768.485	20427.74
768.821	20342.77
769.157	20426.38
769.492	20295.77
769.828	20328.53
770.164	20154.07
770.5	20112.95
770.836	20016.68
771.171	19890.35
771.507	19891.93
771.842	19704.59
772.178	19731.49
772.513	19710.92
772.849	19636.57
773.184	19552.73
773.519	19588.44
773.855	19536.01
774.19	19439.29
774.525	19241.56
774.86	19340.31
775.195	19260.54
775.53	19236.81
775.865	19023.03
776.2	18942.81
776.535	18840.89
776.87	18847.22
777.205	18639.54
777.539	18677.5
777.874	18743.04
778.209	18573.33
778.543	18610.61
778.878	18347.34
779.212	18383.27
779.547	18163.17
779.881	18302.37
780.215	18085.43
780.55	18194.8
780.884	18022.83
781.218	18006.79
781.552	18024.64
781.886	17926.79
782.22	17795.49
782.554	17708.94
782.888	17639.79
783.222	17489.51
783.556	17337.2
783.889	17377.88
784.223	17372
784.557	17300.14
784.89	17314.83
785.224	17225.79
785.557	17151.67
785.891	17141.5
786.224	17021.05
786.558	16998.9
786.891	16856.31
787.224	16855.63
787.557	16664.67
787.891	16672.81
788.224	16675.3
788.557	16636.2
788.89	16621.06
789.223	16484.57
789.556	16463.32
789.888	16424.46
790.221	16280.05
790.554	16184.24
790.887	16237.34
791.219	16212.48
791.552	16149.89
791.884	16067.18
792.217	16029.44
792.549	15974.3
792.882	15841.87
793.214	15807.07
793.546	15929.78
793.879	15733.17
794.211	15724.13
794.543	15669.45
794.875	15712.16
795.207	15593.06
795.539	15556
795.871	15428.1
796.203	15410.7
796.535	15249.57
796.867	15270.59
797.198	15220.64
797.53	15227.2
797.862	15074.89
798.193	15111.27
798.525	14952.4
798.856	15066.07
799.188	14881.44
799.519	14803.03
799.85	14772.52
800.182	14722.8
800.513	14784.95
800.844	14554.22
801.175	14663.6
801.506	14678.51
801.837	14540.89
802.168	14475.13
802.499	14472.64
802.83	14422.93
803.161	14387.9
803.491	14329.59
803.822	14343.83
804.153	14257.28
804.483	14172.31
804.814	14192.2
805.145	14116.95
805.475	14101.58
805.805	14106.1
806.136	14041.24
806.466	14053.44
806.796	13999.21
807.126	13786.33
807.457	13894.58
807.787	13843.05
808.117	13768.93
808.447	13750.4
808.777	13709.95
809.107	13747.92
809.436	13600.35
809.766	13661.59
810.096	13608.03
810.426	13546.11
810.755	13522.38
811.085	13468.37
811.414	13478.32
811.744	13265.44
812.073	13319.9
812.403	13290.98
812.732	13190.19
813.061	13218.66
813.39	13199.68
813.719	13169.85
814.049	13214.6
814.378	13153.81
814.707	13091.21
815.036	13026.58
815.365	12822.29
815.693	12826.13
816.022	12941.61
816.351	12862.97
816.68	12734.38
817.008	12808.96
817.337	12644.67
817.665	12627.72
817.994	12695.97
818.322	12640.37
818.651	12661.16
818.979	12647.83
819.307	12715.17
819.636	12585.91
819.964	12427.72
820.292	12522.41
820.62	12563.99
820.948	12440.61
821.276	12475.86
821.604	12483.32
821.932	12483.99
822.259	12495.74
822.587	12474.28
822.915	12428.18
823.243	12507.04
823.57	12410.32
823.898	12457.33
824.225	12389.76
824.553	12371
824.88	12365.13
825.207	12436.54
825.535	12400.61
825.862	12375.07
826.189	12392.47
826.516	12436.76
826.843	12434.5
827.17	12382.75
827.497	12411.45
827.824	12468.85
828.151	12451.23
828.478	12450.55
828.805	12462.98
829.131	12431.11
829.458	12335.75
829.785	12291.91
830.111	12357.22
830.438	12341.62
830.764	12296.2
831.09	12362.19
831.417	12306.6
831.743	12329.42
832.069	12314.05
832.395	12273.15
832.722	12316.99
833.048	12251.23
833.374	12252.36
833.7	12219.59
834.026	12341.85
834.351	12268.18
834.677	12246.26
835.003	12200.16
835.329	12279.03
835.654	12176.43
835.98	12084.46
836.306	12206.26
836.631	12112.48
836.956	12175.53
837.282	12141.18
837.607	12085.81
837.932	11989.32
838.258	12098.92
838.583	12100.95
838.908	11947.28
839.233	12046.72
839.558	11938.92
839.883	11883.11
840.208	11899.6
840.533	11961.07
840.858	11932.82
841.182	11855.99
841.507	11817.8
841.832	11778.93
842.156	11780.06
842.481	11790.68
842.805	11728.99
843.13	11621.64
843.454	11706.61
843.778	11654.86
844.103	11649.44
844.427	11552.49
844.751	11525.37
845.075	11507.3
845.399	11490.8
845.723	11414.42
846.047	11500.52
846.371	11354.31
846.695	11365.61
847.019	11275.44
847.343	11213.74
847.666	11242.44
847.99	11168.32
848.313	11092.17
848.637	11020.08
848.96	11048.78
849.284	10992.06
849.607	10934.2
849.931	10954.77
850.254	10847.65
850.577	10838.39
850.9	10709.13
851.223	10705.28
851.546	10740.76
851.869	10573.31
852.192	10632.07
852.515	10552.52
852.838	10572.86
853.161	10493.54
853.483	10454.67
853.806	10375.57
854.129	10396.82
854.451	10303.71
854.774	10299.42
855.096	10235.92
855.419	10249.02
855.741	10192.98
856.063	10138.52
856.385	10137.61
856.708	10143.26
857.03	10069.59
857.352	10064.4
857.674	10025.75
857.996	9987.11
858.318	10020.33
858.64	9965.64
858.961	9936.49
859.283	9842.26
859.605	9879.99
859.926	9838.19
860.248	9781.92
860.57	9724.07
860.891	9797.28
861.212	9658.31
861.534	9687.68
861.855	9634.13
862.176	9656.95
862.498	9632.09
862.819	9627.35
863.14	9601.58
863.461	9584.86
863.782	9529.04
864.103	9559.55
864.424	9559.78
864.745	9516.39
865.065	9496.28
865.386	9414.02
865.707	9383.51
866.027	9453.11
866.348	9404.3
866.668	9343.96
866.989	9357.07
867.309	9293.34
867.63	9277.75
867.95	9290.63
868.27	9257.19
868.59	9263.51
868.91	9267.81
869.23	9212.22
869.55	9183.29
869.87	9287.69
870.19	9169.96
870.51	9148.26
870.83	9202.5
871.15	9172.44
871.469	9157.3
871.789	9210.86
872.109	9134.03
872.428	9142.84
872.748	9144.87
873.067	9128.38
873.386	9123.86
873.706	9116.17
874.025	9052.9
874.344	9010.41
874.663	9041.6
874.982	8993.46
875.301	8988.49
875.62	8977.87
875.939	8852.22
876.258	8923.18
876.577	8909.62
876.896	8878.21
877.214	8856.29
877.533	8851.32
877.852	8907.82
878.17	8878.89
878.489	8858.78
878.807	8790.31
879.125	8781.94
879.444	8860.59
879.762	8710.53
880.08	8758.67
880.398	8723.64
880.716	8698.56
881.034	8702.85
881.352	8682.96
881.67	8650.87
881.988	8718.9
882.306	8671.44
882.624	8614.27
882.941	8565.68
883.259	8570.65
883.577	8598.9
883.894	8535.4
884.212	8476.42
884.529	8499.92
884.846	8512.35
885.164	8400.03
885.481	8423.31
885.798	8475.06
886.115	8370.88
886.432	8376.53
886.75	8351.45
887.067	8363.2
887.383	8315.97
887.7	8361.39
888.017	8272.81
888.334	8268.51
888.651	8262.41
888.967	8200.49
889.284	8197.78
889.6	8174.05
889.917	8147.38
890.233	8108.97
890.55	8098.12
890.866	8085.47
891.182	8071.23
891.498	8073.26
891.815	8008.63
892.131	7939.93
892.447	7979.93
892.763	7933.83
893.079	7941.97
893.395	7908.97
893.71	7850.67
894.026	7752.82
894.342	7799.37
894.657	7827.85
894.973	7762.31
895.289	7699.49
895.604	7760.95
895.92	7679.6
896.235	7671.24
896.55	7635.53
896.865	7639.15
897.181	7621.07
897.496	7634.4
897.811	7539.04
898.126	7456.56
898.441	7494.75
898.756	7454.97
899.071	7441.19
899.386	7433.96
899.7	7327.75
900.015	7328.2
900.33	7260.63
900.644	7261.53
900.959	7285.71
901.273	7290.68
901.588	7249.1
901.902	7141.76
902.216	7193.74
902.531	7153.96
902.845	7076.68
903.159	7083.23
903.473	7049.33
903.787	7060.18
904.101	7008.43
904.415	6975.21
904.729	6974.76
905.042	6941.99
905.356	6919.39
905.67	6927.98
905.984	6907.19
906.297	6873.52
906.611	6856.35
906.924	6807.31
907.237	6821.54
907.551	6749.68
907.864	6696.58
908.177	6725.73
908.491	6707.65
908.804	6655.22
909.117	6554.43
909.43	6590.59
909.743	6553.75
910.056	6578.84
910.368	6492.06
910.681	6508.33
910.994	6447.77
911.307	6439.41
911.619	6414.1
911.932	6424.49
912.244	6309.01
912.557	6338.84
912.869	6329.13
913.181	6269.69
913.494	6250.26
913.806	6205.29
914.118	6189.02
914.43	6171.84
914.742	6167.32
915.054	6139.3
915.366	6116.7
915.678	6069.47
915.99	6067.89
916.302	5998.29
916.613	5983.15
916.925	5974.33
917.236	5942.24
917.548	5885.52
917.859	5892.08
918.171	5883.72
918.482	5912.19
918.794	5763.04
919.105	5802.36
919.416	5771.63
919.727	5755.13
920.038	5771.4
920.349	5705.41
920.66	5699.09
920.971	5674.91
921.282	5673.55
921.593	5586.1
921.903	5597.4
922.214	5515.59
922.525	5588.58
922.835	5499.77
923.146	5456.38
923.456	5470.39
923.767	5447.79
924.077	5401.69
924.387	5415.71
924.697	5405.31
925.008	5404.63
925.318	5335.71
925.628	5376.16
925.938	5340.23
926.248	5291.87
926.558	5278.08
926.867	5280.79
927.177	5214.81
927.487	5185.65
927.796	5165.09
928.106	5152.44
928.416	5174.81
928.725	5116.73
929.034	5103.62
929.344	5120.35
929.653	5083.51
929.962	5023.4
930.271	4962.61
930.581	4941.14
930.89	4973.68
931.199	4929.39
931.508	4938.88
931.817	4894.36
932.125	4903.63
932.434	4879.45
932.743	4796.74
933.051	4789.73
933.36	4761.71
933.669	4710.86
933.977	4736.17
934.286	4744.31
934.594	4680.81
934.902	4710.19
935.21	4681.26
935.519	4690.3
935.827	4634.26
936.135	4600.13
936.443	4600.59
936.751	4573.02
937.059	4521.27
937.367	4522.17
937.674	4526.24
937.982	4484.88
938.29	4507.71
938.597	4468.16
938.905	4423.64
939.213	4431.55
939.52	4406.47
939.827	4404.21
940.135	4350.65
940.442	4338.22
940.749	4309.52
941.056	4293.25
941.363	4283.31
941.67	4276.98
941.977	4249.86
942.284	4188.17
942.591	4201.73
942.898	4170.31
943.205	4243.08
943.511	4155.4
943.818	4115.63
944.125	4140.48
944.431	4120.6
944.738	4104.33
945.044	4087.83
945.35	4114.72
945.657	4052.35
945.963	3966.93
946.269	4005.8
946.575	4023.65
946.881	3969.42
947.187	3922.41
947.493	3946.14
947.799	3909.3
948.105	3911.79
948.41	3878.12
948.716	3910.21
949.022	3888.74
949.327	3838.57
949.633	3811.68
949.938	3801.06
950.244	3838.12
950.549	3763.32
950.854	3794.5
951.16	3735.3
951.465	3687.39
951.77	3689.87
952.075	3686.03
952.38	3649.42
952.685	3651.46
952.99	3592.02
953.294	3651.91
953.599	3626.6
953.904	3586.37
954.209	3570.1
954.513	3582.98
954.818	3549.77
955.122	3530.78
955.426	3540.95
955.731	3522.87
956.035	3457.56
956.339	3453.27
956.643	3482.2
956.948	3435.19
957.252	3416.66
957.556	3406.04
957.86	3427.73
958.163	3416.66
958.467	3409.2
958.771	3387.74
959.075	3321.75
959.378	3379.6
959.682	3342.99
959.985	3309.32
960.289	3274.29
960.592	3284.46
960.896	3250.34
961.199	3248.76
961.502	3278.36
961.805	3210.11
962.108	3186.61
962.411	3204.92
962.714	3227.74
963.017	3188.87
963.32	3147.74
963.623	3076.56
963.926	3134.64
964.228	3134.86
964.531	3093.28
964.833	3063.68
965.136	3084.92
965.438	3024.13
965.741	3038.82
966.043	3002.89
966.345	3034.3
966.648	3054.86
966.95	2991.36
967.252	3015.99
967.554	2992.49
967.856	2968.99
968.158	2922.89
968.46	2928.09
968.761	2897.58
969.063	2893.96
969.365	2878.82
969.666	2914.53
969.968	2858.71
970.269	2849.67
970.571	2863.91
970.872	2822.1
971.174	2811.93
971.475	2793.85
971.776	2784.14
972.077	2816
972.378	2773.97
972.679	2762.44
972.98	2737.13
973.281	2751.14
973.582	2755.66
973.883	2761.09
974.183	2719.28
974.484	2707.3
974.785	2714.31
975.085	2665.27
975.386	2693.06
975.686	2642.44
975.986	2602.22
976.287	2642.67
976.587	2609
976.887	2577.14
977.187	2625.72
977.487	2578.27
977.787	2581.2
978.087	2510.92
978.387	2547.08
978.687	2509.11
978.987	2508.21
979.286	2526.29
979.586	2465.95
979.885	2480.87
980.185	2445.84
980.484	2448.1
980.784	2429.79
981.083	2444.94
981.382	2429.79
981.682	2453.3
981.981	2427.08
982.28	2431.83
982.579	2362.9
982.878	2366.07
983.177	2368.1
983.475	2348.44
983.774	2331.27
984.073	2345.5
984.372	2324.71
984.67	2341.89
984.969	2345.5
985.267	2310.48
985.566	2282.68
985.864	2293.08
986.162	2244.49
986.461	2258.5
986.759	2262.79
987.057	2250.82
987.355	2261.89
987.653	2248.78
987.951	2197.94
988.249	2172.85
988.547	2202.91
988.844	2190.71
989.142	2149.35
989.44	2172.85
989.737	2142.12
990.035	2145.73
990.332	2155.23
990.63	2096.47
990.927	2107.54
991.224	2103.02
991.521	2108.22
991.819	2099.86
992.116	2090.59
992.413	2067.09
992.71	2063.93
993.006	2037.49
993.303	2057.15
993.6	2058.51
993.897	2062.8
994.193	2001.56
994.49	2028.22
994.787	2009.24
995.083	2012.18
995.379	1982.12
995.676	1987.09
995.972	1972.86
996.268	1946.64
996.565	1945.97
996.861	1932.41
997.157	1940.99
997.453	1870.71
997.749	1890.15
998.044	1927.89
998.34	1882.69
998.636	1887.89
998.932	1881.33
999.227	1878.4
999.523	1861.67
999.818	1824.39
1000.114	1785.97
1000.409	1810.38
1000.704	1782.35
1001	1802.69
1001.295	1778.51
1001.59	1787.1
1001.885	1806.76
1002.18	1769.7
1002.475	1740.32
1002.77	1727.89
1003.065	1738.06
1003.359	1731.06
1003.654	1738.74
1003.949	1711.62
1004.243	1694.45
1004.538	1695.58
1004.832	1668.23
1005.127	1683.83
1005.421	1646.31
1005.715	1653.32
1006.009	1637.73
1006.304	1638.18
1006.598	1602.25
1006.892	1616.71
1007.186	1595.69
1007.48	1591.17
1007.773	1602.7
1008.067	1577.39
1008.361	1589.36
1008.655	1587.78
1008.948	1549.82
1009.242	1520.44
1009.535	1543.26
1009.829	1531.29
1010.122	1528.35
1010.415	1529.48
1010.708	1520.67
1011.001	1492.42
1011.295	1468.69
1011.588	1468.92
1011.881	1454.68
1012.173	1465.07
1012.466	1469.14
1012.759	1437.96
1013.052	1460.1
1013.344	1440.89
1013.637	1447
1013.93	1439.54
1014.222	1398.64
1014.514	1423.72
1014.807	1439.31
1015.099	1387.34
1015.391	1381.46
1015.683	1381.23
1015.976	1379.43
1016.268	1368.81
1016.56	1374
1016.851	1356.83
1017.143	1338.75
1017.435	1326.1
1017.727	1308.02
1018.018	1325.19
1018.31	1314.34
1018.602	1296.49
1018.893	1289.49
1019.185	1301.01
1019.476	1282.93
1019.767	1268.24
1020.058	1240.45
1020.35	1229.83
1020.641	1221.69
1020.932	1246.55
1021.223	1243.39
1021.514	1202.93
1021.804	1228.92
1022.095	1211.75
1022.386	1179.21
1022.677	1182.14
1022.967	1192.54
1023.258	1186.66
1023.548	1159.77
1023.839	1137.85
1024.129	1181.24
1024.419	1155.03
1024.709	1136.5
1025	1122.71
1025.29	1121.13
1025.58	1117.29
1025.87	1108.02
1026.16	1080.45
1026.449	1097.63
1026.739	1077.06
1027.029	1064.18
1027.319	1064.41
1027.608	1071.86
1027.898	1067.57
1028.187	1044.29
1028.477	1064.63
1028.766	1077.97
1029.055	1035.03
1029.344	1026.44
1029.634	1050.4
1029.923	1033.22
1030.212	1022.15
1030.501	1011.75
1030.79	1008.36
1031.078	1003.62
1031.367	978.99
1031.656	991.87
1031.945	973.11
1032.233	974.92
1032.522	974.24
1032.81	944.64
1033.099	968.59
1033.387	948.03
1033.675	935.14
1033.963	926.56
1034.251	913.45
1034.54	906.22
1034.828	935.37
1035.116	917.29
1035.403	889.5
1035.691	896.73
1035.979	893.79
1036.267	905.99
1036.554	890.85
1036.842	890.85
1037.129	884.3
1037.417	852.21
1037.704	878.65
1037.992	842.04
1038.279	875.03
1038.566	845.88
1038.853	845.88
1039.14	845.88
