Data from hue_40_FLMS001491_24.txt Node
Date: Mon Feb 06 15:07:39 GMT 2017
User: dcchb
Spectrometer: FLMS00149
Trigger mode: 0
Integration Time (sec): 2.000000E-2
Scans to average: 10
Electric dark correction enabled: true
Nonlinearity correction enabled: false
Boxcar width: 0
XAxis mode: Wavelengths
Number of Pixels in Spectrum: 2048
>>>>>Begin Spectral Data<<<<<
341.393	-8.15
341.776	-8.15
342.16	-8.15
342.543	-66.68
342.927	-54.48
343.31	-77.07
343.693	-78.66
344.077	-63.29
344.46	-52.44
344.843	-52.44
345.226	-37.75
345.61	-32.1
345.993	-7.7
346.376	-12.9
346.759	4.96
347.142	23.26
347.525	33.21
347.908	61
348.291	66.88
348.674	96.48
349.057	128.57
349.44	125.41
349.823	136.03
350.206	157.5
350.588	199.08
350.971	228
351.354	256.48
351.737	236.82
352.119	238.85
352.502	244.73
352.884	279.98
353.267	292.41
353.65	296.7
354.032	286.98
354.414	315.46
354.797	302.8
355.179	338.96
355.562	333.31
355.944	319.53
356.326	357.94
356.709	339.64
357.091	349.81
357.473	323.37
357.855	327.43
358.238	345.51
358.62	348.45
359.002	358.39
359.384	362.69
359.766	337.6
360.148	340.54
360.53	349.81
360.912	350.26
361.294	326.98
361.676	345.06
362.057	333.99
362.439	349.58
362.821	343.03
363.203	341.9
363.584	319.98
363.966	317.94
364.348	346.64
364.729	337.15
365.111	311.39
365.493	305.97
365.874	319.75
366.256	320.88
366.637	330.15
367.019	323.82
367.4	312.97
367.781	327.21
368.163	311.39
368.544	340.54
368.925	322.92
369.306	322.69
369.688	338.96
370.069	309.81
370.45	311.39
370.831	328.56
371.212	329.24
371.593	330.6
371.974	334.21
372.355	318.4
372.736	321.11
373.117	321.79
373.498	350.49
373.879	332.63
374.26	330.15
374.641	303.25
375.021	326.08
375.402	328.11
375.783	340.99
376.163	346.42
376.544	345.06
376.925	341.22
377.305	329.69
377.686	315.46
378.066	345.06
378.447	332.18
378.827	357.94
379.208	339.41
379.588	324.05
379.968	335.57
380.349	337.38
380.729	343.03
381.109	330.37
381.489	335.57
381.87	370.6
382.25	326.08
382.63	375.34
383.01	359.98
383.39	370.37
383.77	357.72
384.15	382.57
384.53	356.59
384.91	365.85
385.29	368.11
385.67	365.17
386.049	345.06
386.429	368.11
386.809	373.54
387.189	353.42
387.568	365.85
387.948	353.87
388.328	360.43
388.707	354.1
389.087	383.7
389.466	370.37
389.846	389.13
390.225	349.81
390.605	377.15
390.984	367.89
391.363	360.43
391.743	380.54
392.122	357.94
392.501	397.26
392.881	378.06
393.26	384.16
393.639	387.32
394.018	376.93
394.397	385.51
394.776	393.2
395.155	392.52
395.534	416.92
395.913	386.42
396.292	406.53
396.671	404.27
397.05	393.65
397.429	410.37
397.808	391.39
398.186	367.66
398.565	422.12
398.944	395.46
399.323	418.05
399.701	400.2
400.08	402.91
400.458	409.92
400.837	409.24
401.215	411.5
401.594	388.22
401.972	403.14
402.351	425.51
402.729	439.75
403.107	418.51
403.486	435.91
403.864	418.28
404.242	428.45
404.62	431.61
404.999	412.18
405.377	424.83
405.755	445.4
406.133	433.65
406.511	429.13
406.889	432.06
407.267	450.14
407.645	466.64
408.023	467.09
408.401	463.93
408.779	462.35
409.156	450.14
409.534	451.5
409.912	446.98
410.29	468.45
410.667	484.94
411.045	478.62
411.422	452.4
411.8	476.81
412.178	480.2
412.555	477.26
412.933	474.78
413.31	485.17
413.687	479.52
414.065	510.03
414.442	501.44
414.819	510.93
415.197	497.83
415.574	517.26
415.951	531.5
416.328	515
416.705	521.78
417.082	513.19
417.46	489.69
417.837	511.84
418.214	514.77
418.591	536.24
418.967	533.76
419.344	526.98
419.721	551.61
420.098	547.77
420.475	544.38
420.852	536.47
421.228	549.8
421.605	567.65
421.982	567.2
422.358	543.25
422.735	552.29
423.111	576.02
423.488	570.37
423.864	574.89
424.241	593.19
424.617	592.51
424.994	583.02
425.37	578.28
425.746	595.68
426.123	605.17
426.499	588.67
426.875	608.78
427.251	619.86
427.627	619.63
428.003	625.96
428.379	612.4
428.756	638.39
429.132	627.09
429.507	621.66
429.883	651.95
430.259	641.32
430.635	657.37
431.011	646.75
431.387	671.83
431.763	649.01
432.138	669.8
432.514	662.57
432.89	672.96
433.265	672.51
433.641	702.34
434.016	724.94
434.392	719.97
434.767	731.72
435.143	703.7
435.518	710.7
435.894	735.11
436.269	734.88
436.644	727.42
437.02	732.4
437.395	779.4
437.77	747.31
438.145	764.26
438.52	759.97
438.895	762.9
439.271	778.04
439.646	778.04
440.021	800.19
440.395	770.59
440.77	798.83
441.145	804.94
441.52	811.72
441.895	804.48
442.27	803.13
442.645	827.53
443.019	842.45
443.394	817.14
443.769	830.47
444.143	841.77
444.518	851.04
444.892	851.04
445.267	872.28
445.641	844.94
446.016	867.76
446.39	843.13
446.764	896.23
447.139	850.81
447.513	877.48
447.887	860.98
448.262	895.56
448.636	889.23
449.01	906.63
449.384	900.98
449.758	881.32
450.132	909.11
450.506	921.54
450.88	924.71
451.254	920.19
451.628	959.06
452.002	946.63
452.376	974.2
452.75	993.41
453.123	968.77
453.497	990.02
453.871	973.29
454.244	1015.55
454.618	995.89
454.992	1010.35
455.365	1029.79
455.739	1037.7
456.112	1045.38
456.486	1064.82
456.859	1049.9
457.232	1063.01
457.606	1091.48
457.979	1083.12
458.352	1118.83
458.725	1118.37
459.099	1131.71
459.472	1131.03
459.845	1159.28
460.218	1193.4
460.591	1178.03
460.964	1186.85
461.337	1188.2
461.71	1227.98
462.083	1235.89
462.456	1232.27
462.829	1232.5
463.201	1239.28
463.574	1297.8
463.947	1301.87
464.32	1318.14
464.692	1348.88
465.065	1360.4
465.438	1378.93
465.81	1371.25
466.183	1391.36
466.555	1417.12
466.928	1462.32
467.3	1440.17
467.672	1485.6
468.045	1501.19
468.417	1499.83
468.789	1545.26
469.161	1571.47
469.534	1580.28
469.906	1599.72
470.278	1624.12
470.65	1695.08
471.022	1669.55
471.394	1730.34
471.766	1762.65
472.138	1770.11
472.51	1804.91
472.882	1827.28
473.253	1877.22
473.625	1900.73
473.997	1932.36
474.369	1992.93
474.74	2021.4
475.112	2053.04
475.484	2098.01
475.855	2124.9
476.227	2177.56
476.598	2217.33
476.97	2265.24
477.341	2336.87
477.713	2385.01
478.084	2428.62
478.455	2504.1
478.827	2526.02
479.198	2639.24
479.569	2676.53
479.94	2725.11
480.311	2851.21
480.682	2912.45
481.053	2970.76
481.424	3040.36
481.795	3114.48
482.166	3171.2
482.537	3259.11
482.908	3375.26
483.279	3412.78
483.65	3531.87
484.021	3637.86
484.391	3696.84
484.762	3746.78
485.133	3832.88
485.503	3931.41
485.874	4035.13
486.244	4109.03
486.615	4234.45
486.985	4339.76
487.356	4460.89
487.726	4567.32
488.097	4664.95
488.467	4777.26
488.837	4859.52
489.207	4983.13
489.578	5065.39
489.948	5158.72
490.318	5311.26
490.688	5369.79
491.058	5513.06
491.428	5612.72
491.798	5757.35
492.168	5937
492.538	5994.63
492.908	6068.3
493.278	6187.62
493.648	6280.05
494.017	6381.74
494.387	6530.44
494.757	6634.61
495.126	6745.57
495.496	6800.49
495.866	6877.32
496.235	6988.95
496.605	7161.38
496.974	7200.02
497.344	7349.4
497.713	7479.79
498.082	7523.4
498.452	7729.95
498.821	7778.99
499.19	7843.4
499.559	7948.25
499.928	8053.79
500.298	8150.73
500.667	8189.6
501.036	8270.95
501.405	8423.49
501.774	8367.45
502.143	8628.23
502.512	8634.56
502.88	8776.48
503.249	8828.23
503.618	8884.95
503.987	8970.15
504.356	9070.71
504.724	9170.59
505.093	9150.93
505.462	9308.44
505.83	9402.45
506.199	9510.92
506.567	9594.31
506.936	9612.84
507.304	9766.51
507.672	9883.12
508.041	9942.78
508.409	9954.07
508.777	10075.65
509.145	10184.35
509.514	10285.59
509.882	10359.71
510.25	10347.06
510.618	10455.76
510.986	10543.44
511.354	10656.65
511.722	10790.66
512.09	10804
512.458	10896.65
512.826	10919.47
513.193	10968.74
513.561	11006.25
513.929	11172.12
514.297	11293.47
514.664	11343.64
515.032	11367.6
515.4	11448.05
515.767	11600.58
516.135	11665.67
516.502	11613.24
516.869	11873.57
517.237	11809.62
517.604	11843.06
517.972	12047.35
518.339	12044.41
518.706	12032.44
519.073	12221.36
519.44	12231.08
519.808	12452.54
520.175	12353.79
520.542	12586.32
520.909	12607.56
521.276	12600.56
521.643	12733.89
522.009	12772.98
522.376	12870.83
522.743	13013.2
523.11	13175.91
523.477	13193.76
523.843	13217.04
524.21	13312.86
524.577	13430.37
524.943	13509.24
525.31	13523.92
525.676	13720.53
526.043	13742.22
526.409	13964.59
526.776	14004.59
527.142	14056.11
527.508	14172.27
527.874	14243
528.241	14317.8
528.607	14344.92
528.973	14527.51
529.339	14478.7
529.705	14633.95
530.071	14746.72
530.437	14806.83
530.803	14968.18
531.169	14920.5
531.535	14994.17
531.901	14988.07
532.267	15065.35
532.632	15269.87
532.998	15406.36
533.364	15370.43
533.73	15418.34
534.095	15530.2
534.461	15746.46
534.826	15682.06
535.192	15735.39
535.557	15886.35
535.923	15879.12
536.288	15876.18
536.653	16045.21
537.019	15997.08
537.384	16072.33
537.749	16177.41
538.114	16139.67
538.479	16125.66
538.845	16363.62
539.21	16393.91
539.575	16435.49
539.94	16487.24
540.305	16559.32
540.67	16528.36
541.034	16665.99
541.399	16701.02
541.764	16749.6
542.129	16844.29
542.494	16881.8
542.858	16956.6
543.223	16970.39
543.587	17168.57
543.952	17207.22
544.316	17258.97
544.681	17235.01
545.045	17345.07
545.41	17472.52
545.774	17395.01
546.138	17556.36
546.503	17550.26
546.867	17582.8
547.231	17817.6
547.595	17807.65
547.959	17785.51
548.324	17863.02
548.688	17856.92
549.052	18023.69
549.416	18067.08
549.779	18109.11
550.143	18147.53
550.507	18264.36
550.871	18271.14
551.235	18361.09
551.599	18410.12
551.962	18501.87
552.326	18561.08
552.689	18568.54
553.053	18587.07
553.417	18761.75
553.78	18924.69
554.143	18765.82
554.507	19009.66
554.87	18989.54
555.234	19198.58
555.597	19042.42
555.96	19195.64
556.323	19278.8
556.686	19332.81
557.05	19469.76
557.413	19418.01
557.776	19594.95
558.139	19683.99
558.502	19621.84
558.865	19783.19
559.228	19892.12
559.59	19883.98
559.953	19985.68
560.316	20143.41
560.679	20123.52
561.041	20314.25
561.404	20320.81
561.767	20493.46
562.129	20352.22
562.492	20608.03
562.854	20576.39
563.217	20624.3
563.579	20642.38
563.941	20871.75
564.304	20832.21
564.666	21005.76
565.028	21060
565.39	21118.98
565.753	21273.55
566.115	21297.5
566.477	21446.65
566.839	21433.32
567.201	21553.09
567.563	21532.53
567.925	21737.27
568.287	21804.61
568.648	21831.73
569.01	22043.7
569.372	22099.52
569.734	22016.36
570.095	22122.79
570.457	22297.48
570.819	22444.37
571.18	22372.28
571.542	22536.34
571.903	22665.38
572.265	22736.11
572.626	22822.44
572.987	22881.87
573.349	22846.62
573.71	22969.55
574.071	23205.48
574.432	23331.35
574.794	23397.56
575.155	23497.45
575.516	23498.58
575.877	23612.25
576.238	23670.1
576.599	23845.23
576.96	24020.15
577.32	24066.92
577.681	24304.66
578.042	24378.55
578.403	24392.11
578.763	24534.93
579.124	24656.96
579.485	24940.12
579.845	24987.35
580.206	25188.93
580.566	25121.13
580.927	25221.02
581.287	25628.46
581.648	25670.5
582.008	25827.1
582.368	25878.85
582.728	26120.88
583.089	26159.3
583.449	26421.89
583.809	26519.97
584.169	26807.87
584.529	26731.49
584.889	27214.41
585.249	27232.72
585.609	27259.61
585.969	27522.43
586.329	27666.83
586.688	27874.73
587.048	28084.67
587.408	28187.95
587.768	28423.65
588.127	28577.31
588.487	28679.68
588.846	29092.1
589.206	29167.35
589.565	29245.09
589.925	29674.23
590.284	29723.95
590.643	29964.17
591.003	30213.43
591.362	30414.33
591.721	30610.71
592.08	30803.7
592.44	31001.66
592.799	31047.08
593.158	31246.17
593.517	31493.17
593.876	31697.91
594.235	31927.51
594.593	31915.98
594.952	32264.45
595.311	32341.73
595.67	32707.15
596.029	32897.65
596.387	33140.81
596.746	33268.72
597.104	33226.91
597.463	33435.94
597.822	33717.07
598.18	33850.17
598.538	34017.62
598.897	34230.95
599.255	34197.73
599.613	34696.7
599.972	34641.33
600.33	34891.5
600.688	34983.7
601.046	35219.85
601.404	35402.67
601.762	35563.8
602.12	35747.07
602.478	36006.04
602.836	36053.95
603.194	36025.03
603.552	36256.89
603.91	36168.53
604.268	36579.36
604.625	36484.68
604.983	36838.11
605.341	36750.66
605.698	37043.08
606.056	37339.12
606.413	37336.86
606.771	37482.39
607.128	37769.84
607.485	37626.34
607.843	37894.58
608.2	38134.58
608.557	38090.28
608.914	38090.74
609.272	38408.47
609.629	38596.71
609.986	38645.07
610.343	38607.78
610.7	39049.58
611.057	38992.41
611.414	38907.44
611.771	39248.45
612.127	39436.92
612.484	39479.17
612.841	39639.85
613.198	39523.01
613.554	39566.63
613.911	39847.75
614.267	39900.86
614.624	40060.85
614.98	40075.77
615.337	40333.16
615.693	40321.19
616.05	40380.85
616.406	40546.04
616.762	40575.19
617.118	40770.44
617.475	40727.73
617.831	41007.04
618.187	41061.51
618.543	40936.76
618.899	41384.89
619.255	41304.66
619.611	41338.56
619.967	41343.76
620.323	41557.76
620.678	41468.73
621.034	41370.42
621.39	41447.26
621.746	41650.42
622.101	42016.96
622.457	41905.55
622.812	41758.21
623.168	41945.78
623.523	41933.8
623.879	42116.39
624.234	41869.17
624.589	42024.19
624.945	41955.94
625.3	42116.39
625.655	42225.09
626.01	42365.88
626.365	42280.23
626.72	42321.58
627.075	42274.13
627.43	42290.85
627.785	42159.78
628.14	42381.24
628.495	42372.66
628.85	42369.04
629.205	42378.76
629.559	42610.84
629.914	42334.01
630.269	42543.95
630.623	42371.08
630.978	42336.27
631.332	42530.62
631.687	42581.69
632.041	42450.62
632.396	42572.88
632.75	42418.31
633.104	42550.28
633.459	42362.49
633.813	42363.62
634.167	42516.16
634.521	42255.37
634.875	42412.43
635.229	42334.92
635.583	42105.55
635.937	42281.81
636.291	42283.62
636.645	42309.38
636.999	42119.78
637.352	42404.75
637.706	41999.11
638.06	42216.5
638.413	42132.44
638.767	42158.88
639.121	42122.04
639.474	42008.82
639.828	41905.32
640.181	42041.14
640.534	42058.32
640.888	41890.64
641.241	41818.32
641.594	41819
641.947	42018.09
642.301	41774.71
642.654	41878.21
643.007	41974.02
643.36	41795.27
643.713	41755.27
644.066	42030.75
644.419	41580.81
644.771	41404.77
645.124	41032.13
645.477	40983.09
645.83	40827.84
646.182	40641.86
646.535	40490.9
646.888	40650.67
647.24	40333.16
647.593	40690.44
647.945	40585.59
648.298	40373.84
648.65	40405.03
649.002	40200.96
649.355	40391.92
649.707	40295.42
650.059	40546.94
650.411	41014.95
650.763	40825.81
651.115	41447.26
651.467	41378.33
651.819	41170.65
652.171	41159.81
652.523	41149.41
652.875	41140.37
653.227	40943.77
653.578	41262.4
653.93	40996.65
654.282	40910.55
654.633	40855.41
654.985	40929.08
655.337	40934.73
655.688	40969.76
656.039	41119.36
656.391	40677.11
656.742	40793.49
657.094	40867.16
657.445	40981.73
657.796	40871.91
658.147	40799.59
658.498	40692.93
658.849	40798.46
659.2	40754.62
659.551	40710.33
659.902	40766.82
660.253	40718.24
660.604	40843.21
660.955	40650.67
661.306	40774.96
661.656	40665.13
662.007	40826.26
662.358	40774.73
662.708	40614.29
663.059	40738.58
663.409	40305.82
663.76	40672.36
664.11	40688.63
664.461	40548.52
664.811	40664.68
665.161	40686.37
665.511	40524.34
665.862	40578.13
666.212	40752.81
666.562	40588.98
666.912	40667.62
667.262	40515.76
667.612	40456.32
667.962	40702.87
668.312	40462.65
668.662	40696.32
669.011	40551.46
669.361	40467.17
669.711	40599.82
670.06	40349.43
670.41	40463.78
670.76	40254.75
671.109	40447.96
671.459	40442.99
671.808	40297.01
672.157	40355.53
672.507	40144.92
672.856	40274.63
673.205	40104.92
673.554	40336.33
673.904	40138.59
674.253	40203.22
674.602	40154.86
674.951	39605.95
675.3	39379.52
675.649	40156.22
675.998	40070.12
676.346	40054.98
676.695	40163.45
677.044	39956
677.393	40041.64
677.741	40020.18
678.09	39805.27
678.438	39814.76
678.787	40004.36
679.135	40070.34
679.484	39636.23
679.832	39804.36
680.181	39618.61
680.529	39758.26
680.877	39595.55
681.225	39591.94
681.573	39822.22
681.922	39516.46
682.27	39379.97
682.618	39355.56
682.966	39326.18
683.314	39310.14
683.661	39396.92
684.009	39040.54
684.357	39038.96
684.705	39032.86
685.053	39130.93
685.4	38917.83
685.748	38795.12
686.095	38763.26
686.443	38706.76
686.79	38501.8
687.138	38662.47
687.485	38615.24
687.832	38424.51
688.18	38505.19
688.527	38300.9
688.874	38335.7
689.221	38191.3
689.568	38149.49
689.915	38008.93
690.262	38020.46
690.609	38005.31
690.956	37842.38
691.303	37796.28
691.65	37634.7
691.997	37821.82
692.344	37515.16
692.69	37413.24
693.037	37415.95
693.383	37052.57
693.73	37213.24
694.077	37008.28
694.423	37027.71
694.769	36955.85
695.116	36796.53
695.462	36752.01
695.808	36589.31
696.155	36820.94
696.501	36457.56
696.847	36415.07
697.193	36169.88
697.539	36223.21
697.885	36119.71
698.231	36031.13
698.577	35908.42
698.923	35941.19
699.269	35756.79
699.614	35686.05
699.96	35528.54
700.306	35543.46
700.651	35393.86
700.997	35296.01
701.342	35333.97
701.688	35233.41
702.033	35205.84
702.379	35140.53
702.724	34921.78
703.069	35105.96
703.415	34718.17
703.76	34511.17
704.105	34715.23
704.45	34515.01
704.795	34295.81
705.14	34266.88
705.485	34369.93
705.83	34039.77
706.175	34198.18
706.52	34026.21
706.865	33952.09
707.209	33911.86
707.554	33787.12
707.899	33870.73
708.243	33736.73
708.588	33616.96
708.932	33452.44
709.277	33304.87
709.621	33321.82
709.966	33228.94
710.31	33404.98
710.654	33038.67
710.998	33014.03
711.342	32960.25
711.687	33016.29
712.031	32717.09
712.375	32644.33
712.719	32793.7
713.063	32695.62
713.407	32767.71
713.75	32509.87
714.094	32463.99
714.438	32435.74
714.782	32369.98
715.125	32186.71
715.469	32280.27
715.812	32104.23
716.156	32166.15
716.499	31929.32
716.843	31952.37
717.186	31843.67
717.53	31947.39
717.873	31909.88
718.216	31917.11
718.559	31731.81
718.902	31559.38
719.246	31667.63
719.589	31481.64
719.932	31340.63
720.275	31339.05
720.617	31346.73
720.96	31389.44
721.303	31333.85
721.646	31344.92
721.989	31152.39
722.331	31174.08
722.674	31134.76
723.016	31139.51
723.359	30993.07
723.701	30900.64
724.044	30775.45
724.386	30792.4
724.729	30875.78
725.071	30758.05
725.413	30651.38
725.755	30711.27
726.097	30530.71
726.439	30450.03
726.782	30426.76
727.124	30497.04
727.465	30279.87
727.807	30171.85
728.149	30251.62
728.491	30203.94
728.833	30181.11
729.175	29980.21
729.516	29985.86
729.858	30078.07
730.199	30019.54
730.541	29821.35
730.882	29810.05
731.224	29946.77
731.565	29770.28
731.906	29753.33
732.248	29751.07
732.589	29648.25
732.93	29557.63
733.271	29549.94
733.612	29633.11
733.953	29538.87
734.294	29323.28
734.635	29414.13
734.976	29436.27
735.317	29246.22
735.658	29297.75
735.999	29256.62
736.339	29148.82
736.68	29219.33
737.021	29103.63
737.361	28949.28
737.702	29220.01
738.042	29038.32
738.383	29085.77
738.723	28890.07
739.063	28783.86
739.404	28956.29
739.744	28862.05
740.084	28643.3
740.424	28869.74
740.764	28622.06
741.104	28765.11
741.444	28654.83
741.784	28450.54
742.124	28435.62
742.464	28472.46
742.804	28344.33
743.143	28304.1
743.483	28404.89
743.823	28190.21
744.162	28140.04
744.502	28271.11
744.841	28168.96
745.181	28249.86
745.52	28137.78
745.86	28115.4
746.199	27992.92
746.538	27951.79
746.877	28025.24
747.216	27917.44
747.556	27957.67
747.895	28024.33
748.234	27799.48
748.573	27843.1
748.911	27769.88
749.25	27694.85
749.589	27503.44
749.928	27552.48
750.267	27573.5
750.605	27515.19
750.944	27532.14
751.283	27371.02
751.621	27382.32
751.96	27288.31
752.298	27295.09
752.636	27297.8
752.975	27038.82
753.313	27020.52
753.651	27067.07
753.989	26894.87
754.327	26893.52
754.666	26844.93
755.004	26722
755.342	26842.22
755.679	26722.9
756.017	26520.64
756.355	26600.87
756.693	26572.17
757.031	26520.64
757.368	26340.54
757.706	26315
758.044	26289.01
758.381	26324.72
758.719	26212.63
759.056	26066.65
759.394	26026.65
759.731	25849.7
760.068	25865.07
760.405	25740.33
760.743	25746.88
761.08	25744.62
761.417	25631.63
761.754	25558.18
762.091	25509.15
762.428	25403.84
762.765	25187.35
763.102	25393.67
763.438	25164.3
763.775	24991.87
764.112	25089.72
764.449	25059.67
764.785	25004.53
765.122	24763.63
765.458	24697.42
765.795	24700.35
766.131	24715.49
766.467	24495.16
766.804	24397.31
767.14	24332.91
767.476	24318.44
767.812	24282.96
768.148	24212.46
768.485	24028.05
768.821	24028.96
769.157	23973.37
769.492	23897.66
769.828	23853.82
770.164	23638.01
770.5	23641.17
770.836	23583.09
771.171	23514.17
771.507	23407.51
771.842	23267.85
772.178	23213.84
772.513	23154.86
772.849	23085.71
773.184	22929.1
773.519	22910.8
773.855	22789.22
774.19	22720.97
774.525	22595.32
774.86	22607.3
775.195	22603.23
775.53	22424.93
775.865	22206.63
776.2	22278.72
776.535	21991.27
776.87	22104.49
777.205	22080.08
777.539	21968.67
777.874	21955.34
778.209	21704.73
778.543	21735.01
778.878	21564.62
779.212	21593.32
779.547	21531.4
779.881	21564.16
780.215	21308.35
780.55	21352.19
780.884	21139.77
781.218	21059.77
781.552	21110.62
781.886	21007.34
782.22	20855.26
782.554	20838.08
782.888	20732.55
783.222	20547.92
783.556	20420.69
783.889	20472.44
784.223	20248.04
784.557	20226.57
784.89	20198.78
785.224	20180.7
785.557	20018.67
785.891	19941.16
786.224	19956.3
786.558	19880.82
786.891	19699.13
787.224	19749.07
787.557	19634.05
787.891	19577.55
788.224	19578.23
788.557	19482.86
788.89	19470.89
789.223	19387.5
789.556	19276.09
789.888	19240.16
790.221	19124
790.554	18971.69
790.887	19004.91
791.219	18884.69
791.552	18900.51
791.884	18806.05
792.217	18712.04
792.549	18700.06
792.882	18495.77
793.214	18533.74
793.546	18511.82
793.879	18405.38
794.211	18256.91
794.543	18314.31
794.875	18333.97
795.207	18354.76
795.539	18214.2
795.871	18191.37
796.203	17976.01
796.535	17891.94
796.867	17839.29
797.198	17843.81
797.53	17776.24
797.862	17744.38
798.193	17715
798.525	17618.73
798.856	17613.76
799.188	17466.65
799.519	17383.94
799.85	17252.19
800.182	17262.58
800.513	17300.55
800.844	17103.49
801.175	17261.45
801.506	17137.39
801.837	17048.58
802.168	17086.99
802.499	17031.18
802.83	16878.86
803.161	16885.19
803.491	16767
803.822	16754.8
804.153	16646.78
804.483	16590.06
804.814	16620.11
805.145	16600.23
805.475	16513.9
805.805	16480.68
806.136	16433
806.466	16466.22
806.796	16409.72
807.126	16260.8
807.457	16207.7
807.787	16163.4
808.117	16093.57
808.447	15998.44
808.777	16086.34
809.107	15998.89
809.436	15875.73
809.766	15939.45
810.096	15881.83
810.426	15797.76
810.755	15749.4
811.085	15636.86
811.414	15809.97
811.744	15605.68
812.073	15558.9
812.403	15528.62
812.732	15496.3
813.061	15403.2
813.39	15424.21
813.719	15433.48
814.049	15487.04
814.378	15275.06
814.707	15381.73
815.036	15376.76
815.365	15190.55
815.693	15099.25
816.022	14992.81
816.351	15126.14
816.68	14951.23
817.008	15019.7
817.337	14864.68
817.665	14789.43
817.994	14905.13
818.322	14830.78
818.651	14790.56
818.979	14744
819.307	14703.55
819.636	14774.96
819.964	14602.09
820.292	14644.35
820.62	14585.82
820.948	14588.08
821.276	14631.24
821.604	14507.63
821.932	14666.04
822.259	14654.97
822.587	14541.07
822.915	14576.33
823.243	14512.37
823.57	14498.36
823.898	14494.29
824.225	14464.01
824.553	14455.42
824.88	14557.8
825.207	14559.38
825.535	14425.82
825.862	14482.09
826.189	14378.59
826.516	14549.89
826.843	14546.72
827.17	14507.63
827.497	14492.26
827.824	14525.03
828.151	14505.82
828.478	14454.3
828.805	14540.17
829.131	14409.32
829.458	14422.43
829.785	14406.84
830.111	14426.05
830.438	14473.05
830.764	14435.09
831.09	14507.4
831.417	14375.65
831.743	14358.48
832.069	14453.17
832.395	14336.33
832.722	14353.73
833.048	14407.06
833.374	14372.04
833.7	14314.86
834.026	14321.42
834.351	14430.11
834.677	14281.87
835.003	14380.17
835.329	14341.3
835.654	14329.55
835.98	14191.03
836.306	14259.72
836.631	14219.05
836.956	14283.45
837.282	14262.21
837.607	14121.65
837.932	14179.73
838.258	14106.28
838.583	14085.72
838.908	14020.18
839.233	14038.94
839.558	14010.46
839.883	13975.44
840.208	13875.78
840.533	13804.82
840.858	13874.88
841.182	13846.63
841.507	13853.86
841.832	13839.62
842.156	13829.23
842.481	13739.96
842.805	13609.8
843.13	13638.27
843.454	13635.11
843.778	13689.34
844.103	13625.16
844.427	13577.26
844.751	13457.49
845.075	13480.54
845.399	13449.58
845.723	13364.38
846.047	13375.91
846.371	13268.34
846.695	13357.6
847.019	13172.52
847.343	13141.34
847.666	13045.07
847.99	12986.09
848.313	12973.88
848.637	12927.78
848.96	12878.29
849.284	12898.86
849.607	12749.48
849.931	12747.9
850.254	12642.14
850.577	12570.05
850.9	12522.14
851.223	12503.61
851.546	12479.66
851.869	12360.34
852.192	12360.79
852.515	12208.7
852.838	12153.79
853.161	12249.38
853.483	12141.59
853.806	12147.01
854.129	12043.51
854.451	12045.77
854.774	11947.92
855.096	11924.87
855.419	11900.46
855.741	11958.32
856.063	11891.42
856.385	11740.24
856.708	11801.03
857.03	11737.3
857.352	11719
857.674	11706.34
857.996	11597.65
858.318	11594.03
858.64	11638.1
858.961	11534.15
859.283	11488.95
859.605	11490.08
859.926	11445.56
860.248	11413.7
860.57	11387.03
860.891	11394.49
861.212	11274.49
861.534	11221.39
861.855	11203.08
862.176	11263.64
862.498	11253.7
862.819	11197.43
863.14	11126.02
863.461	11147.04
863.782	11084.44
864.103	11044.67
864.424	11129.64
864.745	11081.05
865.065	11022.07
865.386	10938.23
865.707	11008.96
866.027	10947.27
866.348	10931.9
866.668	11001.96
866.989	10892.35
867.309	10869.08
867.63	10891.9
867.95	10874.73
868.27	10829.53
868.59	10898.46
868.91	10849.19
869.23	10792.47
869.55	10752.92
869.87	10801.28
870.19	10787.27
870.51	10774.39
870.83	10789.76
871.15	10702.98
871.469	10716.31
871.789	10683.77
872.109	10674.06
872.428	10545.92
872.748	10602.87
873.067	10668.86
873.386	10586.37
873.706	10578.92
874.025	10480.84
874.344	10496.43
874.663	10502.08
874.982	10515.87
875.301	10491.69
875.62	10478.58
875.939	10401.29
876.258	10412.82
876.577	10374.4
876.896	10304.35
877.214	10333.5
877.533	10412.59
877.852	10304.12
878.17	10334.86
878.489	10338.47
878.807	10318.58
879.125	10259.6
879.444	10298.92
879.762	10251.92
880.08	10206.5
880.398	10200.62
880.716	10198.14
881.034	10107.29
881.352	10143.45
881.67	10049.89
881.988	10103
882.306	10091.25
882.624	10041.3
882.941	9976.9
883.259	9980.97
883.577	10014.41
883.894	9916.79
884.212	9943.91
884.529	9869.33
884.846	9881.99
885.164	9819.39
885.481	9863.23
885.798	9880.4
886.115	9815.1
886.432	9805.6
886.75	9690.35
887.067	9718.83
887.383	9705.27
887.7	9636.79
888.017	9626.17
888.334	9604.93
888.651	9625.5
888.967	9608.55
889.284	9516.35
889.6	9439.74
889.917	9413.52
890.233	9462.34
890.55	9396.57
890.866	9389.57
891.182	9370.59
891.498	9371.94
891.815	9313.19
892.131	9311.61
892.447	9380.3
892.763	9238.84
893.079	9265.96
893.395	9243.81
893.71	9150.71
894.026	9106.19
894.342	9040.2
894.657	9081.1
894.973	9047.43
895.289	9045.62
895.604	8961.56
895.92	8900.09
896.235	8897.38
896.55	8959.75
896.865	8876.36
897.181	8876.81
897.496	8927.43
897.811	8816.93
898.126	8750.04
898.441	8696.48
898.756	8718.4
899.071	8650.83
899.386	8663.03
899.7	8583.04
900.015	8576.94
900.33	8515.47
900.644	8473.89
900.959	8475.02
901.273	8477.73
901.588	8433.66
901.902	8341.01
902.216	8362.7
902.531	8309.6
902.845	8322.93
903.159	8289.94
903.473	8273.67
903.787	8207
904.101	8161.35
904.415	8167.23
904.729	8089.49
905.042	8034.35
905.356	8075.25
905.67	8016.05
905.984	8031.64
906.297	8011.98
906.611	7917.74
906.924	7908.7
907.237	7875.71
907.551	7876.16
907.864	7858.54
908.177	7812.44
908.491	7830.29
908.804	7737.41
909.117	7662.38
909.43	7635.27
909.743	7660.8
910.056	7595.27
910.368	7581.93
910.681	7454.93
910.994	7430.52
911.307	7461.71
911.619	7461.94
911.932	7449.28
912.244	7363.18
912.557	7406.57
912.869	7275.27
913.181	7272.56
913.494	7298.1
913.806	7281.6
914.118	7233.47
914.43	7157.31
914.742	7154.6
915.054	7095.39
915.366	7154.83
915.678	7073.25
915.99	7041.61
916.302	7013.81
916.613	6954.15
916.925	6925.23
917.236	6951.22
917.548	6902.18
917.859	6881.84
918.171	6823.31
918.482	6852.46
918.794	6805
919.105	6774.95
919.416	6697.89
919.727	6666.48
920.038	6669.42
920.349	6589.64
920.66	6586.48
920.971	6563.66
921.282	6569.98
921.593	6501.96
921.903	6502.64
922.214	6449.76
922.525	6420.16
922.835	6410.21
923.146	6377.67
923.456	6335.86
923.767	6349.42
924.077	6331.8
924.387	6294.51
924.697	6188.75
925.008	6194.63
925.318	6172.03
925.628	6179.71
925.938	6202.31
926.248	6179.71
926.558	6099.94
926.867	6028.98
927.177	6071.46
927.487	6026.95
927.796	5941.07
928.106	5962.54
928.416	5911.24
928.725	5929.77
929.034	5848.42
929.344	5866.05
929.653	5803.9
929.962	5813.84
930.271	5790.34
930.581	5726.61
930.89	5716.67
931.199	5689.55
931.508	5675.09
931.817	5660.18
932.125	5633.28
932.434	5600.29
932.743	5547.41
933.051	5528.88
933.36	5552.61
933.669	5452.27
933.977	5503.8
934.286	5480.75
934.594	5466.28
934.902	5391.03
935.21	5405.95
935.519	5331.37
935.827	5402.56
936.135	5325.5
936.443	5261.09
936.751	5245.27
937.059	5259.73
937.367	5230.58
937.674	5260.41
937.982	5201.66
938.29	5156.91
938.597	5166.4
938.905	5105.16
939.213	5123.24
939.52	5076.24
939.827	5123.92
940.135	5042.79
940.442	5044.6
940.749	5018.38
941.056	5037.14
941.363	5012.28
941.67	4989.46
941.977	4885.06
942.284	4911.27
942.591	4923.47
942.898	4829.24
943.205	4796.02
943.511	4819.75
943.818	4819.07
944.125	4762.12
944.431	4757.15
944.738	4724.61
945.044	4699.98
945.35	4720.31
945.657	4629.24
945.963	4637.38
946.269	4604.84
946.575	4619.3
946.881	4612.29
947.187	4588.79
947.493	4600.77
947.799	4539.3
948.105	4556.93
948.41	4526.87
948.716	4522.13
949.022	4422.69
949.327	4447.33
949.633	4390.15
949.938	4403.03
950.244	4412.75
950.549	4403.26
950.854	4328.46
951.16	4331.4
951.465	4295.47
951.77	4280.78
952.075	4240.1
952.38	4238.52
952.685	4253.66
952.99	4182.7
953.294	4194.68
953.599	4172.76
953.904	4173.21
954.209	4151.74
954.513	4124.4
954.818	4096.83
955.122	4077.39
955.426	4083.49
955.731	4065.42
956.035	3994.91
956.339	4021.12
956.643	4008.69
956.948	3997.85
957.252	3944.74
957.556	3989.94
957.86	3928.02
958.163	3912.88
958.467	3915.59
958.771	3892.31
959.075	3852.54
959.378	3847.12
959.682	3868.81
959.985	3800.56
960.289	3774.8
960.592	3786.1
960.896	3775.71
961.199	3788.36
961.502	3715.59
961.805	3726.22
962.108	3711.75
962.411	3686.44
962.714	3625.88
963.017	3663.17
963.32	3625.88
963.623	3610.06
963.926	3616.16
964.228	3557.63
964.531	3565.32
964.833	3573
965.136	3574.36
965.438	3549.27
965.741	3510.63
966.043	3499.33
966.345	3472.89
966.648	3473.79
966.95	3461.59
967.252	3420.91
967.554	3446.22
967.856	3397.86
968.158	3387.92
968.46	3385.43
968.761	3422.04
969.063	3337.53
969.365	3248.71
969.666	3322.16
969.968	3293.01
970.269	3292.55
970.571	3272.67
970.872	3263.63
971.174	3233.35
971.475	3254.82
971.776	3236.06
972.077	3253.91
972.378	3177.76
972.679	3200.35
972.98	3163.29
973.281	3154.93
973.582	3157.64
973.883	3140.69
974.183	3134.37
974.484	3124.42
974.785	3115.38
975.085	3077.19
975.386	3034.71
975.686	3040.13
975.986	3003.52
976.287	3033.58
976.587	3022.51
976.887	2967.14
977.187	2997.65
977.487	2987.93
977.787	2942.28
978.087	2909.51
978.387	2923.3
978.687	2914.49
978.987	2909.51
979.286	2868.61
979.586	2888.72
979.885	2861.61
980.185	2823.19
980.484	2822.51
980.784	2815.96
981.083	2809.18
981.382	2800.82
981.682	2796.97
981.981	2753.13
982.28	2741.83
982.579	2722.63
982.878	2778.9
983.177	2708.16
983.475	2728.28
983.774	2667.26
984.073	2693.47
984.372	2664.77
984.67	2682.4
984.969	2643.08
985.267	2648.28
985.566	2658.9
985.864	2627.71
986.162	2599.24
986.461	2608.73
986.759	2583.19
987.057	2524.89
987.355	2542.29
987.653	2569.86
987.951	2495.74
988.249	2550.88
988.547	2509.75
988.844	2512.24
989.142	2490.54
989.44	2479.02
989.737	2450.32
990.035	2411
990.332	2435.63
990.63	2429.98
990.927	2409.64
991.224	2425.46
991.521	2421.39
991.819	2351.79
992.116	2402.18
992.413	2364.22
992.71	2389.75
993.006	2332.13
993.303	2354.5
993.6	2335.97
993.897	2332.58
994.193	2343.2
994.49	2303.88
994.787	2307.27
995.083	2284.67
995.379	2255.97
995.676	2232.02
995.972	2251.68
996.268	2247.16
996.565	2170.78
996.861	2216.42
997.157	2190.66
997.453	2195.18
997.749	2203.54
998.044	2173.49
998.34	2173.49
998.636	2189.98
998.932	2130.78
999.227	2105.24
999.523	2113.83
999.818	2090.55
1000.114	2060.04
1000.409	2103.89
1000.704	2098.91
1001	2094.85
1001.295	2032.02
1001.59	2053.94
1001.885	2053.27
1002.18	2026.83
1002.475	1978.24
1002.77	1994.28
1003.065	1965.36
1003.359	1976.88
1003.654	1957.9
1003.949	1918.13
1004.243	1939.14
1004.538	1925.36
1004.832	1917.68
1005.127	1912.25
1005.421	1896.21
1005.715	1862.54
1006.009	1860.95
1006.304	1858.47
1006.598	1855.76
1006.892	1856.21
1007.186	1813.5
1007.48	1807.85
1007.773	1812.82
1008.067	1804.91
1008.361	1820.05
1008.655	1774.63
1008.948	1779.15
1009.242	1788.19
1009.535	1760.39
1009.829	1754.97
1010.122	1748.41
1010.415	1725.82
1010.708	1711.35
1011.001	1705.7
1011.295	1695.31
1011.588	1680.17
1011.881	1675.2
1012.173	1660.06
1012.466	1651.69
1012.759	1667.06
1013.052	1646.95
1013.344	1620.51
1013.637	1625.93
1013.93	1589.1
1014.222	1602.2
1014.514	1587.29
1014.807	1612.15
1015.099	1563.11
1015.391	1560.62
1015.683	1560.85
1015.976	1571.7
1016.268	1554.07
1016.56	1529.44
1016.851	1547.29
1017.143	1517.91
1017.435	1482.66
1017.727	1460.96
1018.018	1477.91
1018.31	1463.22
1018.602	1454.86
1018.893	1461.64
1019.185	1455.77
1019.476	1436.33
1019.767	1428.2
1020.058	1417.8
1020.35	1414.64
1020.641	1407.63
1020.932	1376.45
1021.223	1403.34
1021.514	1382.32
1021.804	1370.8
1022.095	1367.86
1022.386	1349.1
1022.677	1339.39
1022.967	1323.11
1023.258	1305.26
1023.548	1309.78
1023.839	1302.78
1024.129	1315.66
1024.419	1298.71
1024.709	1257.81
1025	1275.21
1025.29	1276.79
1025.58	1262.55
1025.87	1252.83
1026.16	1252.83
1026.449	1239.73
1026.739	1209.9
1027.029	1196.56
1027.319	1225.94
1027.608	1218.48
1027.898	1193.63
1028.187	1197.02
1028.477	1171.71
1028.766	1171.25
1029.055	1144.14
1029.344	1158.83
1029.634	1172.84
1029.923	1137.36
1030.212	1162.89
1030.501	1138.04
1030.79	1133.29
1031.078	1105.72
1031.367	1107.98
1031.656	1106.17
1031.945	1089
1032.233	1071.37
1032.522	1079.73
1032.81	1042.44
1033.099	1079.28
1033.387	1089.45
1033.675	1065.49
1033.963	1051.71
1034.251	1019.85
1034.54	1018.26
1034.828	1027.08
1035.116	1027.98
1035.403	1017.36
1035.691	993.63
1035.979	1005.84
1036.267	977.59
1036.554	995.67
1036.842	978.49
1037.129	968.55
1037.417	961.99
1037.704	981.88
1037.992	951.37
1038.279	971.71
1038.566	941.88
1038.853	941.88
1039.14	941.88
