Data from hue_24_FLMS001491_00094.txt Node
Date: Tue Feb 07 17:13:00 GMT 2017
User: dcchb
Spectrometer: FLMS00149
Trigger mode: 0
Integration Time (sec): 2.000000E-2
Scans to average: 10
Electric dark correction enabled: true
Nonlinearity correction enabled: false
Boxcar width: 0
XAxis mode: Wavelengths
Number of Pixels in Spectrum: 2048
>>>>>Begin Spectral Data<<<<<
341.393	-21.96
341.776	-21.96
342.16	-21.96
342.543	-58.8
342.927	-77.55
343.31	-77.78
343.693	-71.23
344.077	-68.74
344.46	-53.83
344.843	-56.99
345.226	-35.52
345.61	-28.52
345.993	-11.34
346.376	3.35
346.759	18.71
347.142	28.66
347.525	35.66
347.908	55.32
348.291	71.37
348.674	94.87
349.057	96
349.44	123.12
349.823	132.16
350.206	172.83
350.588	202.21
350.971	216.68
351.354	248.09
351.737	244.92
352.119	235.21
352.502	277.69
352.884	272.49
353.267	288.54
353.65	299.84
354.032	313.62
354.414	323.56
354.797	301.87
355.179	327.41
355.562	324.24
355.944	336.45
356.326	341.19
356.709	353.62
357.091	340.74
357.473	350.23
357.855	332.38
358.238	345.94
358.62	347.97
359.002	342.55
359.384	339.38
359.766	349.55
360.148	335.99
360.53	328.08
360.912	337.35
361.294	347.07
361.676	352.49
362.057	323.11
362.439	311.36
362.821	335.54
363.203	338.71
363.584	323.79
363.966	332.83
364.348	317.01
364.729	340.97
365.111	319.05
365.493	340.06
365.874	327.18
366.256	336.22
366.637	310.68
367.019	315.88
367.4	326.5
367.781	309.33
368.163	326.05
368.544	315.66
368.925	325.82
369.306	337.12
369.688	299.38
370.069	325.82
370.45	302.55
370.831	312.72
371.212	313.4
371.593	326.05
371.974	322.89
372.355	327.18
372.736	341.64
373.117	313.17
373.498	328.31
373.879	327.18
374.26	317.46
374.641	319.5
375.021	310.46
375.402	339.84
375.783	344.13
376.163	333.51
376.544	338.71
376.925	324.92
377.305	327.41
377.686	336.9
378.066	333.06
378.447	346.16
378.827	354.98
379.208	322.44
379.588	360.85
379.968	343.45
380.349	347.29
380.729	345.03
381.109	359.04
381.489	333.28
381.87	358.14
382.25	340.74
382.63	360.85
383.01	366.73
383.39	347.52
383.77	368.08
384.15	350
384.53	355.65
384.91	369.44
385.29	370.8
385.67	355.88
386.049	387.74
386.429	372.83
386.809	383
387.189	371.93
387.568	366.28
387.948	356.78
388.328	374.41
388.707	378.7
389.087	378.25
389.466	378.93
389.846	377.8
390.225	392.72
390.605	368.54
390.984	385.48
391.363	399.04
391.743	392.26
392.122	396.33
392.501	396.33
392.881	408.99
393.26	408.99
393.639	406.27
394.018	393.39
394.397	411.92
394.776	408.31
395.155	400.85
395.534	414.41
395.913	392.04
396.292	431.13
396.671	411.92
397.05	433.17
397.429	421.87
397.808	440.62
398.186	431.13
398.565	420.29
398.944	434.75
399.323	456.44
399.701	437.91
400.08	439.04
400.458	462.32
400.837	448.31
401.215	457.8
401.594	441.53
401.972	437.91
402.351	430.91
402.729	447.63
403.107	453.51
403.486	455.31
403.864	465.26
404.242	479.49
404.62	471.36
404.999	443.11
405.377	475.43
405.755	466.61
406.133	470.23
406.511	484.69
406.889	479.72
407.267	499.38
407.645	501.64
408.023	489.89
408.401	491.02
408.779	484.46
409.156	507.51
409.534	489.21
409.912	505.26
410.29	494.41
410.667	523.11
411.045	506.38
411.422	507.74
411.8	534.18
412.178	543.67
412.555	533.5
412.933	527.63
413.31	550.45
413.687	533.73
414.065	546.61
414.442	552.26
414.819	545.71
415.197	548.64
415.574	551.13
415.951	574.18
416.328	555.65
416.705	568.3
417.082	577.57
417.46	598.36
417.837	589.77
418.214	578.47
418.591	606.95
418.967	595.65
419.344	590.9
419.721	618.92
420.098	604.01
420.475	617.12
420.852	614.63
421.228	602.2
421.605	626.38
421.982	644.23
422.358	640.39
422.735	643.56
423.111	659.15
423.488	646.49
423.864	667.28
424.241	662.54
424.617	677.23
424.994	683.78
425.37	653.73
425.746	660.05
426.123	674.52
426.499	683.78
426.875	706.83
427.251	702.76
427.627	686.72
428.003	711.13
428.379	714.29
428.756	704.12
429.132	723.78
429.507	726.27
429.883	732.37
430.259	748.64
430.635	756.77
431.011	759.26
431.387	771.46
431.763	797.45
432.138	778.92
432.514	792.03
432.89	787.28
433.265	811.91
433.641	818.69
434.016	824.79
434.392	827.28
434.767	839.94
435.143	848.52
435.518	824.12
435.894	852.14
436.269	867.51
436.644	884.68
437.02	880.61
437.395	911.12
437.77	892.36
438.145	873.83
438.52	921.06
438.895	916.32
439.271	912.7
439.646	922.65
440.021	935.53
440.395	945.24
440.77	947.5
441.145	955.64
441.52	945.47
441.895	997.45
442.27	971.23
442.645	971.23
443.019	1009.65
443.394	972.81
443.769	987.5
444.143	985.24
444.518	1005.58
444.892	1014.62
445.267	1008.74
445.641	1025.24
446.016	1017.78
446.39	1033.6
446.764	1082.42
447.139	1056.65
447.513	1054.39
447.887	1061.85
448.262	1056.43
448.636	1052.13
449.01	1100.04
449.384	1091.23
449.758	1093.94
450.132	1111.11
450.506	1121.06
450.88	1116.76
451.254	1131.23
451.628	1114.28
452.002	1169.64
452.376	1148.4
452.75	1176.2
453.123	1173.71
453.497	1175.97
453.871	1201.96
454.244	1219.81
454.618	1214.39
454.992	1249.42
455.365	1264.56
455.739	1231.56
456.112	1262.98
456.486	1294.16
456.859	1294.84
457.232	1311.79
457.606	1322.86
457.979	1333.03
458.352	1366.02
458.725	1363.99
459.099	1363.31
459.472	1400.82
459.845	1422.29
460.218	1409.64
460.591	1424.1
460.964	1436.76
461.337	1459.35
461.71	1486.92
462.083	1521.27
462.456	1541.61
462.829	1512.23
463.201	1559.69
463.574	1552.91
463.947	1594.49
464.32	1631.1
464.692	1655.28
465.065	1654.15
465.438	1686.24
465.81	1665.22
466.183	1690.99
466.555	1697.99
466.928	1739.12
467.3	1758.1
467.672	1759.91
468.045	1824.99
468.417	1834.26
468.789	1824.77
469.161	1882.39
469.534	1892.79
469.906	1940.25
470.278	1954.71
470.65	1982.28
471.022	2013.01
471.394	2047.81
471.766	2084.42
472.138	2064.54
472.51	2113.8
472.882	2145.21
473.253	2195.61
473.625	2234.93
473.997	2264.76
474.369	2267.24
474.74	2279.67
475.112	2383.4
475.484	2415.49
475.855	2412.1
476.227	2469.5
476.598	2523.96
476.97	2569.61
477.341	2596.5
477.713	2624.75
478.084	2668.59
478.455	2791.3
478.827	2788.58
479.198	2844.18
479.569	2859.54
479.94	2965.76
480.311	2998.75
480.682	3084.17
481.053	3142.25
481.424	3173.66
481.795	3233.32
482.166	3281.91
482.537	3346.99
482.908	3382.92
483.279	3456.82
483.65	3570.03
484.021	3632.86
484.391	3621.33
484.762	3686.19
485.133	3774.55
485.503	3781.1
485.874	3920.31
486.244	3928.44
486.615	4019.74
486.985	4065.16
487.356	4136.57
487.726	4218.15
488.097	4286.85
488.467	4353.74
488.837	4398.03
489.207	4437.58
489.578	4526.39
489.948	4646.62
490.318	4686.84
490.688	4667.18
491.058	4769.55
491.428	4854.07
491.798	4889.09
492.168	5004.12
492.538	5030.79
492.908	5055.64
493.278	5133.16
493.648	5212.7
494.017	5310.55
494.387	5336.99
494.757	5353.94
495.126	5404.79
495.496	5456.76
495.866	5511.23
496.235	5568.85
496.605	5634.84
496.974	5733.59
497.344	5757.77
497.713	5779.24
498.082	5833.02
498.452	5864.89
498.821	5845
499.19	5950.99
499.559	6035.51
499.928	6017.43
500.298	6094.71
500.667	6170.64
501.036	6151.89
501.405	6193.92
501.774	6193.02
502.143	6251.54
502.512	6316.63
502.88	6315.05
503.249	6384.2
503.618	6428.26
503.987	6440.47
504.356	6503.29
504.724	6569.73
505.093	6563.85
505.462	6633.91
505.83	6660.35
506.199	6768.14
506.567	6797.07
506.936	6760.23
507.304	6868.03
507.672	6872.32
508.041	6952.77
508.409	6942.15
508.777	6953
509.145	7080.22
509.514	7069.83
509.882	7134.91
510.25	7134.01
510.618	7170.16
510.986	7124.74
511.354	7209.03
511.722	7358.86
512.09	7358.18
512.458	7384.4
512.826	7419.88
513.193	7517.95
513.561	7493.55
513.929	7527.67
514.297	7541.45
514.664	7624.62
515.032	7589.36
515.4	7720.88
515.767	7730.6
516.135	7853.31
516.502	7686.99
516.869	7906.87
517.237	7818.96
517.604	7872.07
517.972	7950.26
518.339	7994.78
518.706	7980.31
519.073	7985.96
519.44	8097.37
519.808	8163.58
520.175	8138.73
520.542	8225.73
520.909	8265.95
521.276	8275.67
521.643	8304.6
522.009	8422.11
522.376	8445.39
522.743	8466.18
523.11	8584.36
523.477	8661.88
523.843	8671.14
524.21	8704.81
524.577	8767.64
524.943	8798.37
525.31	8831.82
525.676	8949.55
526.043	9020.29
526.409	9014.41
526.776	9148.87
527.142	9202.88
527.508	9193.84
527.874	9266.38
528.241	9284.69
528.607	9330.33
528.973	9450.33
529.339	9466.83
529.705	9511.8
530.071	9650.1
530.437	9631.12
530.803	9737.78
531.169	9727.16
531.535	9689.19
531.901	9746.82
532.267	9778.01
532.632	9909.75
532.998	9896.87
533.364	9986.59
533.73	9998.56
534.095	10100.93
534.461	10142.52
534.826	10135.74
535.192	10155.62
535.557	10345.9
535.923	10274.49
536.288	10336.41
536.653	10382.51
537.019	10339.12
537.384	10451.66
537.749	10549.06
538.114	10396.52
538.479	10496.63
538.845	10635.61
539.21	10627.7
539.575	10629.96
539.94	10671.32
540.305	10711.77
540.67	10767.58
541.034	10825.44
541.399	10819.33
541.764	10911.08
542.129	10880.35
542.494	10950.63
542.858	11030.4
543.223	11069.05
543.587	11165.31
543.952	11158.08
544.316	11231.3
544.681	11281.92
545.045	11286.89
545.41	11398.98
545.774	11432.2
546.138	11417.06
546.503	11481.92
546.867	11465.64
547.231	11575.47
547.595	11556.72
547.959	11645.3
548.324	11682.81
548.688	11710.16
549.052	11729.82
549.416	11746.09
549.779	11843.04
550.143	11869.7
550.507	11960.1
550.871	11947.67
551.235	11893.2
551.599	12022.24
551.962	12092.07
552.326	12085.06
552.689	12215.68
553.053	12160.99
553.417	12163.25
553.78	12365.51
554.143	12328.22
554.507	12397.6
554.87	12379.75
555.234	12542.23
555.597	12500.19
555.96	12550.36
556.323	12554.43
556.686	12648.89
557.05	12740.41
557.413	12718.27
557.776	12767.98
558.139	12903.35
558.502	12869.45
558.865	12913.74
559.228	12976.34
559.59	13035.32
559.953	13052.04
560.316	13139.27
560.679	13232.15
561.041	13286.16
561.404	13282.77
561.767	13275.31
562.129	13323
562.492	13475.54
562.854	13440.28
563.217	13430.79
563.579	13513.27
563.941	13590.33
564.304	13585.59
564.666	13727.05
565.028	13754.85
565.39	13823.1
565.753	13965.92
566.115	13897.22
566.477	13984.45
566.839	14030.1
567.201	14141.28
567.563	14160.04
567.925	14193.48
568.287	14176.08
568.648	14189.64
569.01	14280.71
569.372	14461.27
569.734	14379.92
570.095	14537.65
570.457	14552.57
570.819	14539.69
571.18	14623.98
571.542	14725.67
571.903	14847.02
572.265	14815.16
572.626	14916.63
572.987	14949.62
573.349	15004.08
573.71	15127.92
574.071	15247.01
574.432	15220.35
574.794	15437.29
575.155	15465.31
575.516	15388.25
575.877	15516.61
576.238	15587.8
576.599	15757.06
576.96	15801.12
577.32	15856.72
577.681	16013.55
578.042	16119.08
578.403	16197.5
578.763	16239.76
579.124	16418.51
579.485	16582.57
579.845	16698.28
580.206	16784.15
580.566	16920.87
580.927	17047.19
581.287	17238.83
581.648	17319.05
582.008	17589.55
582.368	17677.46
582.728	17875.87
583.089	18060.5
583.449	18108.63
583.809	18279.48
584.169	18626.81
584.529	18706.36
584.889	19046.46
585.249	19217.53
585.609	19336.62
585.969	19666.56
586.329	19781.13
586.688	19933.22
587.048	20204.4
587.408	20471.74
587.768	20678.96
588.127	20890.71
588.487	21198.27
588.846	21691.14
589.206	21702.89
589.565	22102.43
589.925	22515.52
590.284	22730.89
590.643	22956.64
591.003	23321.83
591.362	23749.84
591.721	23977.18
592.08	24257.4
592.44	24642.7
592.799	24955.23
593.158	25216.92
593.517	25558.38
593.876	25973.06
594.235	26185.48
594.593	26533.95
594.952	27007.16
595.311	27224.1
595.67	27721.26
596.029	28166.22
596.387	28415.71
596.746	28784.06
597.104	29042.81
597.463	29338.17
597.822	29829.68
598.18	30031.03
598.538	30386.05
598.897	30887.28
599.255	30967.96
599.613	31806.58
599.972	31980.59
600.33	32343.29
600.688	32545.99
601.046	32970.39
601.404	33473.88
601.762	33660.54
602.12	34291.03
602.478	34436.34
602.836	34832.94
603.194	34929.21
603.552	35308.41
603.91	35561.73
604.268	36030.87
604.625	36178.67
604.983	36672.21
605.341	36738.43
605.698	37318.52
606.056	37646.65
606.413	38000.09
606.771	38305.39
607.128	38542.67
607.485	38702.22
607.843	38919.16
608.2	39465.59
608.557	39789.19
608.914	39819.02
609.272	40328.16
609.629	40605.9
609.986	40971.99
610.343	40908.49
610.7	41456.95
611.057	41574.46
611.414	41872.98
611.771	42126.08
612.127	42582.11
612.484	42574.88
612.841	42994.08
613.198	42959.51
613.554	43108.43
613.911	43687.4
614.267	43823.21
614.624	43794.74
614.98	44137.78
615.337	44610.54
615.693	44619.35
616.05	44745.45
616.406	45122.84
616.762	45100.69
617.118	45228.82
617.475	45391.76
617.831	45741.58
618.187	45840.11
618.543	46064.74
618.899	46414.1
619.255	46389.7
619.611	46496.14
619.967	46832.4
620.323	46843.02
620.678	46954.43
621.034	46790.59
621.39	47051.6
621.746	47009.8
622.101	47652.94
622.457	47386.96
622.812	47592.15
623.168	47780.4
623.523	47926.16
623.879	48076.66
624.234	48011.58
624.589	48147.84
624.945	48221.29
625.3	48309.2
625.655	48280.72
626.01	48472.58
626.365	48577.21
626.72	48556.87
627.075	48528.4
627.43	48613.59
627.785	48650.2
628.14	48738.56
628.495	48952.79
628.85	49028.95
629.205	48855.85
629.559	49060.59
629.914	48905.34
630.269	49186.46
630.623	49027.14
630.978	49045.45
631.332	49188.27
631.687	49331.54
632.041	49196.63
632.396	49240.47
632.75	49174.71
633.104	49246.8
633.459	49168.83
633.813	49202.73
634.167	49266.91
634.521	49328.38
634.875	49401.82
635.229	49313.24
635.583	49185.78
635.937	49259.23
636.291	49220.13
636.645	49231.21
636.999	49159.12
637.352	49423.06
637.706	49212.9
638.06	49332.22
638.413	49294.03
638.767	49222.17
639.121	49258.32
639.474	49151.89
639.828	48986.01
640.181	49172.22
640.534	49250.19
640.888	49009.74
641.241	48989.63
641.594	49115.95
641.947	49163.64
642.301	49224.43
642.654	49126.58
643.007	49206.12
643.36	49153.24
643.713	49019.91
644.066	49200.02
644.419	48968.39
644.771	48840.93
645.124	48399.14
645.477	48468.97
645.83	48183.1
646.182	48094.74
646.535	47975.42
646.888	48139.93
647.24	47934.29
647.593	48215.86
647.945	48039.15
648.298	48044.12
648.65	47803.67
649.002	47699.95
649.355	47854.97
649.707	47853.39
650.059	48098.81
650.411	48499.25
650.763	48497.67
651.115	48876.19
651.467	48787.38
651.819	48750.54
652.171	48612.92
652.523	48693.37
652.875	48617.89
653.227	48364.79
653.578	48812.46
653.93	48697.21
654.282	48568.17
654.633	48440.49
654.985	48510.32
655.337	48450.21
655.688	48603.88
656.039	48805.45
656.391	48437.55
656.742	48543.99
657.094	48485.24
657.445	48687.94
657.796	48519.59
658.147	48442.3
658.498	48465.8
658.849	48408.18
659.2	48404.79
659.551	48343.77
659.902	48508.29
660.253	48325.47
660.604	48498.8
660.955	48301.51
661.306	48328.4
661.656	48386.71
662.007	48392.36
662.358	48324.11
662.708	48326.14
663.059	48365.24
663.409	48173.83
663.76	48375.18
664.11	48292.47
664.461	48266.03
664.811	48308.52
665.161	48321.4
665.511	48213.38
665.862	48305.58
666.212	48342.87
666.562	48373.15
666.912	48209.31
667.262	48202.53
667.612	48257.9
667.962	48459.93
668.312	48319.59
668.662	48344.22
669.011	48119.6
669.361	48130.67
669.711	48241.85
670.06	48021.97
670.41	48106.26
670.76	48077.34
671.109	48219.48
671.459	48148.97
671.808	47950.79
672.157	48184.45
672.507	47993.5
672.856	47949.43
673.205	47972.71
673.554	48064.46
673.904	48051.35
674.253	48131.35
674.602	48010.45
674.951	47516.22
675.3	47336.57
675.649	47852.94
675.998	47836.44
676.346	47824.24
676.695	48059.26
677.044	47671.47
677.393	47839.83
677.741	47877.57
678.09	47779.94
678.438	47655.2
678.787	47803.9
679.135	47782.88
679.484	47436.9
679.832	47622.43
680.181	47420.18
680.529	47587.41
680.877	47363.01
681.225	47270.13
681.573	47551.02
681.922	47263.8
682.27	47072.84
682.618	47176.12
682.966	47123.01
683.314	47275.78
683.661	47086.86
684.009	46884.15
684.357	46811.16
684.705	46791.5
685.053	46973.41
685.4	46652.74
685.748	46507.21
686.095	46520.09
686.443	46410.49
686.79	46248.46
687.138	46483.71
687.485	46491.62
687.832	46396.25
688.18	46338.63
688.527	46196.26
688.874	46062.93
689.221	46049.14
689.568	46012.08
689.915	45934.34
690.262	45914.91
690.609	45652.77
690.956	45497.07
691.303	45514.92
691.65	45315.15
691.997	45359.67
692.344	45159.67
692.69	45033.12
693.037	45070.18
693.383	44709.74
693.73	44873.35
694.077	44533.93
694.423	44672.46
694.769	44590.2
695.116	44446.92
695.462	44158.8
695.808	44384.33
696.155	44394.04
696.501	44097.56
696.847	44004
697.193	43808.75
697.539	43931.68
697.885	43630
698.231	43578.92
698.577	43545.71
698.923	43527.4
699.269	43314.98
699.614	43124.7
699.96	43102.1
700.306	42960.18
700.651	42837.02
700.997	42779.17
701.342	42743.01
701.688	42569.46
702.033	42568.1
702.379	42441.55
702.724	42379.63
703.069	42413.08
703.415	42081.34
703.76	42132.18
704.105	42157.27
704.45	41984.62
704.795	41638.18
705.14	41596.15
705.485	41583.72
705.83	41517.74
706.175	41575.81
706.52	41237.74
706.865	41223.28
707.209	41190.51
707.554	41108.93
707.899	41137.86
708.243	40957.3
708.588	40838.88
708.932	40597.99
709.277	40582.85
709.621	40622.17
709.966	40223.98
710.31	40415.62
710.654	40088.4
710.998	40269.18
711.342	40155.06
711.687	40045.46
712.031	39897.67
712.375	39749.42
712.719	39681.4
713.063	39635.07
713.407	39762.75
713.75	39593.04
714.094	39534.06
714.438	39354.18
714.782	39534.06
715.125	39238.25
715.469	39352.14
715.812	39237.34
716.156	39006.62
716.499	38968.2
716.843	38979.95
717.186	38752.61
717.53	38985.83
717.873	38847.3
718.216	38813.85
718.559	38584.25
718.902	38466.97
719.246	38412.51
719.589	38303.13
719.932	38073.31
720.275	38190.82
720.617	38244.38
720.96	38161.44
721.303	38102.23
721.646	38085.06
721.989	37917.15
722.331	38081.89
722.674	37845.06
723.016	37875.35
723.359	37837.38
723.701	37868.57
724.044	37516.03
724.386	37431.97
724.729	37574.56
725.071	37371.63
725.413	37400.78
725.755	37378.64
726.097	37187.91
726.439	36927.12
726.782	37059.32
727.124	37146.55
727.465	37002.83
727.807	36980
728.149	36878.54
728.491	36867.24
728.833	36888.03
729.175	36593.57
729.516	36708.37
729.858	36553.57
730.199	36601.03
730.541	36622.05
730.882	36480.35
731.224	36518.32
731.565	36286.46
731.906	36300.92
732.248	36366.69
732.589	36109.06
732.93	36038.33
733.271	36011.44
733.612	36161.94
733.953	36221.38
734.294	35958.56
734.635	35913.36
734.976	36043.53
735.317	35625.01
735.658	35736.87
735.999	35746.36
736.339	35704.56
736.68	35684.22
737.021	35498.01
737.361	35524.9
737.702	35636.76
738.042	35533.03
738.383	35429.53
738.723	35457.56
739.063	35331.23
739.404	35392.02
739.744	35293.27
740.084	35173.5
740.424	35192.25
740.764	35040.39
741.104	35120.84
741.444	35068.41
741.784	34808.53
742.124	34954.97
742.464	34882.88
742.804	34720.4
743.143	34706.16
743.483	34693.51
743.823	34657.58
744.162	34554.3
744.502	34698.93
744.841	34483.34
745.181	34501.65
745.52	34435.44
745.86	34419.84
746.199	34303.91
746.538	34278.15
746.877	34338.04
747.216	34197.25
747.556	34233.18
747.895	34218.72
748.234	34044.03
748.573	34024.15
748.911	33941.66
749.25	33915
749.589	33764.95
749.928	33940.53
750.267	33902.8
750.605	33757.49
750.944	33656.02
751.283	33569.24
751.621	33759.52
751.96	33336.03
752.298	33456.48
752.636	33496.7
752.975	33260.1
753.313	33192.08
753.651	33227.78
753.989	33253.32
754.327	33034.12
754.666	32961.8
755.004	32814.69
755.342	32969.03
755.679	32862.82
756.017	32611.76
756.355	32767.46
756.693	32545.32
757.031	32689.04
757.368	32439.56
757.706	32241.37
758.044	32272.33
758.381	32434.13
758.719	32093.13
759.056	32297.19
759.394	32048.38
759.731	31938.78
760.068	31911.66
760.405	31721.16
760.743	31600.48
761.08	31642.97
761.417	31464.44
761.754	31435.74
762.091	31457.44
762.428	31315.97
762.765	31162.53
763.102	31252.47
763.438	31027.39
763.775	30856.55
764.112	30934.96
764.449	30974.51
764.785	30685.03
765.122	30536.78
765.458	30548.76
765.795	30372.04
766.131	30365.26
766.467	30234.19
766.804	30170.69
767.14	29975.44
767.476	30101.31
767.812	29926.4
768.148	29934.31
768.485	29786.97
768.821	29561.21
769.157	29644.15
769.492	29424.95
769.828	29424.04
770.164	29093.66
770.5	29054.79
770.836	29131.62
771.171	28876.94
771.507	28843.27
771.842	28679.88
772.178	28663.84
772.513	28586.32
772.849	28537.06
773.184	28335.26
773.519	28451.86
773.855	28206.67
774.19	28015.27
774.525	28061.37
774.86	27899.34
775.195	27694.82
775.53	27767.36
775.865	27468.84
776.2	27349.3
776.535	27173.93
776.87	27271.1
777.205	27145.68
777.539	27082.64
777.874	27217.77
778.209	26969.19
778.543	26812.13
778.878	26598.13
779.212	26719.93
779.547	26420.28
779.881	26689.65
780.215	26353.61
780.55	26311.58
780.884	26139.61
781.218	26139.38
781.552	26181.42
781.886	25917.02
782.22	25742.11
782.554	25715.44
782.888	25562.9
783.222	25391.61
783.556	25451.27
783.889	25416.24
784.223	25082.46
784.557	25059.41
784.89	25131.05
785.224	24813.77
785.557	24781
785.891	24799.53
786.224	24670.04
786.558	24768.35
786.891	24412.88
787.224	24336.72
787.557	24327.68
787.891	24290.17
788.224	24261.01
788.557	24110.96
788.89	24131.75
789.223	24066.9
789.556	23943.73
789.888	23864.19
790.221	23765.89
790.554	23573.8
790.887	23571.09
791.219	23346.01
791.552	23309.18
791.884	23278.89
792.217	23234.6
792.549	23080.71
792.882	22996.87
793.214	22918
793.546	22889.75
793.879	22739.25
794.211	22633.26
794.543	22608.4
794.875	22582.87
795.207	22612.47
795.539	22438.92
795.871	22475.07
796.203	22204.8
796.535	22123.44
796.867	22206.83
797.198	22141.75
797.53	22040.06
797.862	21820.17
798.193	21973.39
798.525	21781.53
798.856	21760.06
799.188	21614.08
799.519	21535.89
799.85	21442.33
800.182	21468.32
800.513	21433.29
800.844	21285.5
801.175	21339.06
801.506	21247.31
801.837	21111.04
802.168	21017.26
802.499	21067.88
802.83	20971.61
803.161	20870.14
803.491	20802.57
803.822	20863.59
804.153	20703.82
804.483	20583.15
804.814	20412.3
805.145	20434.45
805.475	20372.53
805.805	20344.28
806.136	20390.38
806.466	20306.77
806.796	20247.79
807.126	20216.83
807.457	20019.09
807.787	20120.56
808.117	20082.14
808.447	19968.25
808.777	19984.74
809.107	19819.1
809.436	19793.79
809.766	19749.49
810.096	19696.84
810.426	19569.39
810.755	19603.51
811.085	19658.65
811.414	19594.02
811.744	19312.22
812.073	19295.95
812.403	19287.13
812.732	19302.05
813.061	19243.52
813.39	19185.22
813.719	18974.15
814.049	19143.18
814.378	19049.4
814.707	18982.28
815.036	18936.63
815.365	18735.28
815.693	18721.5
816.022	18674.04
816.351	18706.81
816.68	18576.64
817.008	18627.04
817.337	18493.26
817.665	18381.62
817.994	18413.94
818.322	18425.01
818.651	18365.35
818.979	18226.15
819.307	18389.3
819.636	18228.18
819.964	18196.32
820.292	18149.54
820.62	18203.55
820.948	18195.86
821.276	18181.63
821.604	18105.47
821.932	18087.17
822.259	18056.88
822.587	18093.95
822.915	18052.82
823.243	18084
823.57	17919.94
823.898	17971.69
824.225	17955.19
824.553	17930.56
824.88	17996.09
825.207	18081.06
825.535	17956.55
825.862	18094.4
826.189	17903.89
826.516	18039.71
826.843	17981.18
827.17	17975.53
827.497	18003.78
827.824	17970.33
828.151	17979.15
828.478	17957
828.805	17967.39
829.131	17985.25
829.458	17866.61
829.785	17895.31
830.111	17928.53
830.438	17995.87
830.764	17840.39
831.09	17941.86
831.417	17804.24
831.743	17897.57
832.069	17922.65
832.395	17927.4
832.722	17901.18
833.048	17748.87
833.374	17759.49
833.7	17733.73
834.026	17797.23
834.351	17759.26
834.677	17739.83
835.003	17801.52
835.329	17800.17
835.654	17678.36
835.98	17657.12
836.306	17639.04
836.631	17640.17
836.956	17704.58
837.282	17580.74
837.607	17519.95
837.932	17627.74
838.258	17501.64
838.583	17509.55
838.908	17310.46
839.233	17445.15
839.558	17394.98
839.883	17290.8
840.208	17204.25
840.533	17304.14
840.858	17281.99
841.182	17201.77
841.507	17217.36
841.832	17157.25
842.156	16991.83
842.481	17139.17
842.805	17003.35
843.13	17033.86
843.454	16966.97
843.778	16886.52
844.103	16937.37
844.427	16798.16
844.751	16845.62
845.075	16698.28
845.399	16715.45
845.723	16604.27
846.047	16490.37
846.371	16485.4
846.695	16416.48
847.019	16368.11
847.343	16220.55
847.666	16197.05
847.99	16116.37
848.313	15997.96
848.637	16037.95
848.96	16061.46
849.284	15894.91
849.607	15808.36
849.931	15763.84
850.254	15627.57
850.577	15611.75
850.9	15447.91
851.223	15420.8
851.546	15401.36
851.869	15347.58
852.192	15423.28
852.515	15246.56
852.838	15159.33
853.161	15206.79
853.483	14988.49
853.806	15047.47
854.129	15053.35
854.451	14923.41
854.774	14917.76
855.096	14857.42
855.419	14826.91
855.741	14763.86
856.063	14732.9
856.385	14723.64
856.708	14570.42
857.03	14608.61
857.352	14578.33
857.674	14487.26
857.996	14481.84
858.318	14352.8
858.64	14437.32
858.961	14377.88
859.283	14256.08
859.605	14204.56
859.926	14229.41
860.248	14178.57
860.57	14179.02
860.891	14129.98
861.212	14106.03
861.534	14073.71
861.855	13938.12
862.176	14004.79
862.498	13969.53
862.819	13911.23
863.14	13828.07
863.461	13807.73
863.782	13815.64
864.103	13787.17
864.424	13773.38
864.745	13793.04
865.065	13767.96
865.386	13589.2
865.707	13600.73
866.027	13684.57
866.348	13581.07
866.668	13521.86
866.989	13527.96
867.309	13482.31
867.63	13490.9
867.95	13511.47
868.27	13413.62
868.59	13440.96
868.91	13285.26
869.23	13461.75
869.55	13319.16
869.87	13396.89
870.19	13287.74
870.51	13307.63
870.83	13407.74
871.15	13259.95
871.469	13264.69
871.789	13210.01
872.109	13230.12
872.428	13174.53
872.748	13212.94
873.067	13118.93
873.386	13167.07
873.706	13090.91
874.025	12991.48
874.344	13024.93
874.663	13083.23
874.982	12942.67
875.301	12930.69
875.62	12865.38
875.939	12956.68
876.258	12931.37
876.577	12844.59
876.896	12838.49
877.214	12854.31
877.533	12737.02
877.852	12745.84
878.17	12819.28
878.489	12718.72
878.807	12719.4
879.125	12697.02
879.444	12706.74
879.762	12664.26
880.08	12593.52
880.398	12569.34
880.716	12623.81
881.034	12546.52
881.352	12612.73
881.67	12486.86
881.988	12509.46
882.306	12487.99
882.624	12356.69
882.941	12321.44
883.259	12337.49
883.577	12314.21
883.894	12284.15
884.212	12319.86
884.529	12289.35
884.846	12254.1
885.164	12146.3
885.481	12185.17
885.798	12166.64
886.115	12108.79
886.432	12098.85
886.75	12045.74
887.067	12143.82
887.383	12026.31
887.7	12053.65
888.017	11967.55
888.334	12014.56
888.651	11858.63
888.967	11884.84
889.284	11796.26
889.6	11764.62
889.917	11711.29
890.233	11728.46
890.55	11643.95
890.866	11654.11
891.182	11579.77
891.498	11636.71
891.815	11550.61
892.131	11492.08
892.447	11434.01
892.763	11457.06
893.079	11458.19
893.395	11396.72
893.71	11259.55
894.026	11345.42
894.342	11242.83
894.657	11187.23
894.973	11169.38
895.289	11169.83
895.604	11131.19
895.92	11087.58
896.235	11069.95
896.55	10980.01
896.865	10962.38
897.181	10985.43
897.496	10937.52
897.811	10874.02
898.126	10872.89
898.441	10832.22
898.756	10776.17
899.071	10673.58
899.386	10702.73
899.7	10629.73
900.015	10581.83
900.33	10470.42
900.644	10501.83
900.959	10472.68
901.273	10494.82
901.588	10463.86
901.902	10406.69
902.216	10347.03
902.531	10366.69
902.845	10297.99
903.159	10180.03
903.473	10162.18
903.787	10086.02
904.101	10090.54
904.415	10058.45
904.729	10055.06
905.042	9954.05
905.356	9963.09
905.67	9891.45
905.984	9931
906.297	9906.36
906.611	9844.22
906.924	9842.86
907.237	9774.16
907.551	9698.69
907.864	9696.65
908.177	9662.53
908.491	9653.04
908.804	9620.04
909.117	9552.7
909.43	9455.53
909.743	9462.53
910.056	9408.75
910.368	9347.73
910.681	9369.2
910.994	9357
911.307	9333.27
911.619	9251.92
911.932	9257.57
912.244	9104.35
912.557	9106.16
912.869	9119.27
913.181	9029.55
913.494	9015.54
913.806	8917.24
914.118	8893.51
914.43	8876.11
914.742	8846.05
915.054	8816.45
915.366	8749.11
915.678	8744.81
915.99	8708.88
916.302	8655.1
916.613	8646.74
916.925	8674.31
917.236	8570.81
917.548	8505.72
917.859	8505.72
918.171	8405.16
918.482	8417.14
918.794	8409.23
919.105	8308.21
919.416	8320.42
919.727	8281.77
920.038	8271.15
920.349	8202.91
920.66	8197.71
920.971	8182.79
921.282	8169.46
921.593	8039.75
921.903	7988.22
922.214	8016.02
922.525	7974.89
922.835	7955.45
923.146	7881.78
923.456	7863.25
923.767	7834.1
924.077	7836.36
924.387	7732.18
924.697	7722.24
925.008	7684.95
925.318	7712.75
925.628	7608.12
925.938	7541.23
926.248	7500.78
926.558	7517.5
926.867	7496.71
927.177	7452.42
927.487	7403.6
927.796	7371.74
928.106	7302.36
928.416	7342.82
928.725	7286.77
929.034	7247.9
929.344	7262.37
929.653	7248.35
929.962	7158.19
930.271	7078.64
930.581	7076.61
930.89	7057.63
931.199	6992.77
931.508	6950.96
931.817	6964.29
932.125	6937.18
932.434	6920.68
932.743	6858.08
933.051	6847.69
933.36	6798.2
933.669	6810.85
933.977	6756.84
934.286	6768.59
934.594	6746.67
934.902	6671.42
935.21	6665.77
935.519	6633.46
935.827	6605.21
936.135	6530.86
936.443	6484.31
936.751	6496.28
937.059	6484.08
937.367	6475.72
937.674	6472.78
937.982	6432.78
938.29	6350.98
938.597	6367.93
938.905	6305.78
939.213	6212.22
939.52	6204.09
939.827	6228.95
940.135	6237.99
940.442	6163.19
940.749	6177.42
941.056	6162.28
941.363	6132.23
941.67	6096.07
941.977	6007.26
942.284	5974.72
942.591	6029.86
942.898	5948.05
943.205	5971.78
943.511	5905.79
943.818	5902.85
944.125	5819.92
944.431	5832.12
944.738	5804.32
945.044	5787.38
945.35	5725.46
945.657	5701.95
945.963	5720.49
946.269	5659.7
946.575	5620.15
946.881	5644.1
947.187	5554.84
947.493	5599.36
947.799	5603.2
948.105	5547.16
948.41	5502.19
948.716	5491.79
949.022	5441.4
949.327	5440.49
949.633	5388.29
949.938	5350.55
950.244	5387.16
950.549	5345.81
950.854	5301.97
951.16	5278.01
951.465	5246.37
951.77	5252.25
952.075	5214.74
952.38	5178.35
952.685	5182.19
952.99	5157.56
953.294	5087.73
953.599	5061.52
953.904	5088.64
954.209	5033.5
954.513	5089.32
954.818	5014.97
955.122	4983.33
955.426	4968.64
955.731	4930.45
956.035	4886.83
956.339	4863.11
956.643	4886.61
956.948	4853.62
957.252	4835.08
957.556	4842.54
957.86	4790.11
958.163	4776.33
958.467	4788.53
958.771	4746.5
959.075	4707.86
959.378	4743.34
959.682	4688.87
959.985	4668.99
960.289	4665.6
960.592	4592.61
960.896	4595.54
961.199	4565.04
961.502	4585.6
961.805	4532.72
962.108	4524.58
962.411	4507.86
962.714	4498.6
963.017	4469.67
963.32	4471.25
963.623	4379.28
963.926	4422.44
964.228	4381.54
964.531	4363.91
964.833	4357.36
965.136	4262.67
965.438	4288.88
965.741	4308.32
966.043	4246.63
966.345	4233.29
966.648	4204.14
966.95	4200.07
967.252	4117.36
967.554	4192.62
967.856	4150.13
968.158	4143.8
968.46	4105.16
968.761	4104.03
969.063	4111.94
969.365	4052.96
969.666	4066.07
969.968	3992.62
970.269	3980.42
970.571	3958.05
970.872	3982
971.174	3961.89
971.475	3952.85
971.776	3950.14
972.077	3894.54
972.378	3902.45
972.679	3881.66
972.98	3848.9
973.281	3857.71
973.582	3822.68
973.883	3793.53
974.183	3802.12
974.484	3749.24
974.785	3758.28
975.085	3718.5
975.386	3765.73
975.686	3698.17
975.986	3731.61
976.287	3677.15
976.587	3644.61
976.887	3587.89
977.187	3621.11
977.487	3596.47
977.787	3588.56
978.087	3591.5
978.387	3554.44
978.687	3588.56
978.987	3525.97
979.286	3496.59
979.586	3458.85
979.885	3473.76
980.185	3429.7
980.484	3415.69
980.784	3429.92
981.083	3426.53
981.382	3394.67
981.682	3411.85
981.981	3318.06
982.28	3342.69
982.579	3296.14
982.878	3315.12
983.177	3286.88
983.475	3261.34
983.774	3202.59
984.073	3269.25
984.372	3234.45
984.67	3196.48
984.969	3239.19
985.267	3212.08
985.566	3173.66
985.864	3167.33
986.162	3155.13
986.461	3122.81
986.759	3117.62
987.057	3085.75
987.355	3090.5
987.653	3052.98
987.951	3051.4
988.249	3034.91
988.547	3075.58
988.844	2989.26
989.142	3036.71
989.44	3012.99
989.737	2981.35
990.035	2944.51
990.332	2921.91
990.63	2948.13
990.927	2931.18
991.224	2930.73
991.521	2879.66
991.819	2892.76
992.116	2910.39
992.413	2829.26
992.71	2791.3
993.006	2825.87
993.303	2800.79
993.6	2809.15
993.897	2780.22
994.193	2770.96
994.49	2753.78
994.787	2787.68
995.083	2731.19
995.379	2744.97
995.676	2715.37
995.972	2717.4
996.268	2704.29
996.565	2680.11
996.861	2669.49
997.157	2632.88
997.453	2659.1
997.749	2594.92
998.044	2600.79
998.34	2601.02
998.636	2574.81
998.932	2577.74
999.227	2526.22
999.523	2531.42
999.818	2517.41
1000.114	2497.29
1000.409	2491.64
1000.704	2474.92
1001	2471.98
1001.295	2445.32
1001.59	2456.39
1001.885	2464.3
1002.18	2427.01
1002.475	2427.24
1002.77	2394.02
1003.065	2405.32
1003.359	2367.8
1003.654	2346.56
1003.949	2333.68
1004.243	2328.03
1004.538	2320.35
1004.832	2304.3
1005.127	2275.83
1005.421	2284.19
1005.715	2249.16
1006.009	2241.25
1006.304	2251.42
1006.598	2191.09
1006.892	2206.91
1007.186	2196.51
1007.48	2203.29
1007.773	2170.07
1008.067	2164.42
1008.361	2167.13
1008.655	2146.57
1008.948	2117.64
1009.242	2098.21
1009.535	2076.74
1009.829	2078.77
1010.122	2081.71
1010.415	2059.34
1010.708	2064.99
1011.001	2062.28
1011.295	2026.12
1011.588	2000.58
1011.881	1990.87
1012.173	1966.46
1012.466	1967.59
1012.759	1940.92
1013.052	1977.98
1013.344	1954.26
1013.637	1912.9
1013.93	1897.76
1014.222	1908.38
1014.514	1904.99
1014.807	1894.6
1015.099	1857.99
1015.391	1835.62
1015.683	1833.81
1015.976	1834.26
1016.268	1804.66
1016.56	1813.02
1016.851	1780.02
1017.143	1750.19
1017.435	1764.88
1017.727	1757.43
1018.018	1756.07
1018.31	1742.28
1018.602	1712.91
1018.893	1735.51
1019.185	1669.74
1019.476	1725.34
1019.767	1718.56
1020.058	1697.54
1020.35	1661.61
1020.641	1671.55
1020.932	1612.34
1021.223	1649.18
1021.514	1628.16
1021.804	1629.07
1022.095	1563.98
1022.386	1578.9
1022.677	1585.23
1022.967	1557.43
1023.258	1554.27
1023.548	1542.74
1023.839	1552.69
1024.129	1549.3
1024.419	1514.95
1024.709	1492.35
1025	1483.99
1025.29	1460.03
1025.58	1458.22
1025.87	1465.46
1026.16	1425.68
1026.449	1429.75
1026.739	1424.1
1027.029	1409.64
1027.319	1403.08
1027.608	1410.77
1027.898	1403.76
1028.187	1382.97
1028.477	1362.41
1028.766	1361.28
1029.055	1372.58
1029.344	1352.01
1029.634	1361.5
1029.923	1329.19
1030.212	1323.09
1030.501	1354.5
1030.79	1319.92
1031.078	1294.61
1031.367	1295.06
1031.656	1283.31
1031.945	1264.78
1032.233	1251
1032.522	1246.48
1032.81	1236.08
1033.099	1204.67
1033.387	1250.32
1033.675	1216.2
1033.963	1211
1034.251	1215.74
1034.54	1191.11
1034.828	1180.04
1035.116	1201.28
1035.403	1156.54
1035.691	1167.38
1035.979	1138.23
1036.267	1146.59
1036.554	1151.57
1036.842	1140.49
1037.129	1110.21
1037.417	1105.92
1037.704	1113.37
1037.992	1124
1038.279	1081.51
1038.566	1072.7
1038.853	1072.7
1039.14	1072.7
