Data from hue_260_FLMS001491_00007.txt Node
Date: Tue Feb 07 15:58:29 GMT 2017
User: dcchb
Spectrometer: FLMS00149
Trigger mode: 0
Integration Time (sec): 2.000000E-2
Scans to average: 10
Electric dark correction enabled: true
Nonlinearity correction enabled: false
Boxcar width: 0
XAxis mode: Wavelengths
Number of Pixels in Spectrum: 2048
>>>>>Begin Spectral Data<<<<<
341.393	-19.7
341.776	-19.7
342.16	-19.7
342.543	-33.04
342.927	-57.67
343.31	-70.32
343.693	-65.58
344.077	-63.09
344.46	-49.76
344.843	-54.5
345.226	-51.57
345.61	-24.22
345.993	-12.7
346.376	8.54
346.759	-0.72
347.142	16
347.525	17.58
347.908	66.85
348.291	88.32
348.674	80.63
349.057	114.53
349.44	141.42
349.823	134.64
350.206	150.69
350.588	173.06
350.971	192.49
351.354	217.13
351.737	244.92
352.119	244.7
352.502	230.69
352.884	251.25
353.267	254.87
353.65	278.82
354.032	282.89
354.414	287.86
354.797	311.59
355.179	321.08
355.562	313.62
355.944	313.4
356.326	332.6
356.709	310.23
357.091	313.17
357.473	332.15
357.855	299.16
358.238	335.32
358.62	350.46
359.002	334.19
359.384	339.16
359.766	356.33
360.148	328.76
360.53	328.99
360.912	327.41
361.294	349.1
361.676	312.72
362.057	339.84
362.439	340.51
362.821	293.96
363.203	329.44
363.584	318.14
363.966	326.5
364.348	307.52
364.729	320.85
365.111	303.23
365.493	334.41
365.874	298.48
366.256	333.51
366.637	313.85
367.019	318.59
367.4	312.27
367.781	316.33
368.163	314.75
368.544	312.49
368.925	308.65
369.306	331.02
369.688	307.07
370.069	302.1
370.45	288.76
370.831	340.51
371.212	286.96
371.593	314.3
371.974	304.13
372.355	301.19
372.736	314.98
373.117	313.85
373.498	310.46
373.879	318.14
374.26	293.28
374.641	303
375.021	311.36
375.402	329.89
375.783	323.34
376.163	339.84
376.544	332.6
376.925	325.37
377.305	320.63
377.686	335.54
378.066	321.98
378.447	318.59
378.827	293.28
379.208	308.42
379.588	342.1
379.968	336.22
380.349	335.77
380.729	325.82
381.109	320.4
381.489	334.41
381.87	338.03
382.25	325.6
382.63	342.55
383.01	336.22
383.39	319.72
383.77	335.54
384.15	348.65
384.53	335.09
384.91	333.73
385.29	310.46
385.67	352.04
386.049	364.24
386.429	364.24
386.809	335.32
387.189	354.3
387.568	336.9
387.948	353.62
388.328	360.85
388.707	357.91
389.087	347.29
389.466	344.13
389.846	365.37
390.225	378.93
390.605	365.6
390.984	388.42
391.363	363.11
391.743	362.21
392.122	355.2
392.501	370.57
392.881	386.16
393.26	368.99
393.639	371.02
394.018	374.64
394.397	398.14
394.776	364.47
395.155	381.19
395.534	393.85
395.913	368.76
396.292	399.04
396.671	397.69
397.05	400.85
397.429	400.63
397.808	400.63
398.186	399.95
398.565	416.9
398.944	395.88
399.323	400.63
399.701	419.61
400.08	411.7
400.458	425.71
400.837	429.32
401.215	414.18
401.594	431.58
401.972	430.45
402.351	439.27
402.729	422.09
403.107	432.04
403.486	442.88
403.864	445.6
404.242	441.08
404.62	433.84
404.999	474.97
405.377	476.56
405.755	461.87
406.133	441.08
406.511	473.39
406.889	477.01
407.267	475.88
407.645	492.6
408.023	469.78
408.401	472.04
408.779	489.44
409.156	476.33
409.534	495.76
409.912	498.25
410.29	535.08
410.667	526.95
411.045	542.54
411.422	561.3
411.8	547.06
412.178	553.39
412.555	568.3
412.933	584.58
413.31	600.39
413.687	577.57
414.065	589.09
414.442	618.92
414.819	591.81
415.197	602.88
415.574	595.87
415.951	638.13
416.328	637.91
416.705	634.07
417.082	663.22
417.46	651.24
417.837	644.46
418.214	645.82
418.591	654.63
418.967	665.02
419.344	679.94
419.721	686.72
420.098	703.67
420.475	698.02
420.852	742.99
421.228	718.36
421.605	719.26
421.982	751.58
422.358	753.61
422.735	787.96
423.111	787.73
423.488	780.05
423.864	767.62
424.241	822.99
424.617	831.57
424.994	836.55
425.37	829.77
425.746	840.16
426.123	868.41
426.499	862.76
426.875	879.03
427.251	895.3
427.627	896.21
428.003	905.47
428.379	927.39
428.756	935.75
429.132	940.05
429.507	978.46
429.883	960.16
430.259	980.04
430.635	1000.38
431.011	981.85
431.387	1019.82
431.763	1037.22
432.138	1036.54
432.514	1037.9
432.89	1074.96
433.265	1082.42
433.641	1107.05
434.016	1120.61
434.392	1141.62
434.767	1156.76
435.143	1174.39
435.518	1178.68
435.894	1193.37
436.269	1231.11
436.644	1231.79
437.02	1231.11
437.395	1275.86
437.77	1302.75
438.145	1309.98
438.52	1339.58
438.895	1350.43
439.271	1354.72
439.646	1369.19
440.021	1379.36
440.395	1406.7
440.77	1403.54
441.145	1437.21
441.52	1452.57
441.895	1431.56
442.27	1512.01
442.645	1460.03
443.019	1481.27
443.394	1508.39
443.769	1515.62
444.143	1528.28
444.518	1579.13
444.892	1554.72
445.267	1590.88
445.641	1606.92
446.016	1569.86
446.39	1618.9
446.764	1616.86
447.139	1602.18
447.513	1631.78
447.887	1643.3
448.262	1668.84
448.636	1662.96
449.01	1676.98
449.384	1689.63
449.758	1728.73
450.132	1758.78
450.506	1724.66
450.88	1774.83
451.254	1759.23
451.628	1755.17
452.002	1794.49
452.376	1804.43
452.75	1834.03
453.123	1817.31
453.497	1829.06
453.871	1880.13
454.244	1927.14
454.618	1946.35
454.992	1942.28
455.365	1947.93
455.739	1995.39
456.112	2006.23
456.486	2013.46
456.859	2039
457.232	2057.3
457.606	2054.82
457.979	2092.56
458.352	2104.08
458.725	2144.99
459.099	2179.11
459.472	2212.55
459.845	2217.75
460.218	2212.78
460.591	2240.58
460.964	2255.72
461.337	2303.17
461.71	2350.63
462.083	2360.35
462.456	2380.23
462.829	2368.71
463.201	2461.36
463.574	2458.88
463.947	2464.53
464.32	2478.08
464.692	2522.15
465.065	2544.98
465.438	2574.13
465.81	2644.86
466.183	2625.43
466.555	2686.89
466.928	2716.27
467.3	2716.72
467.672	2709.72
468.045	2793.33
468.417	2834.23
468.789	2817.28
469.161	2862.48
469.534	2891.86
469.906	2924.63
470.278	2958.07
470.65	3014.12
471.022	3007.56
471.394	3096.37
471.766	3096.6
472.138	3160.33
472.51	3190.61
472.882	3274.67
473.253	3219.08
473.625	3309.25
473.997	3385.63
474.369	3372.3
474.74	3433.54
475.112	3506.98
475.484	3491.17
475.855	3577.72
476.227	3597.15
476.598	3662.91
476.97	3675.57
477.341	3775.45
477.713	3832.63
478.084	3842.12
478.455	3928.44
478.827	3958.72
479.198	4054.99
479.569	4053.41
479.94	4205.5
480.311	4197.14
480.682	4280.98
481.053	4359.39
481.424	4401.42
481.795	4408.43
482.166	4474.87
482.537	4539.27
482.908	4630.12
483.279	4594.64
483.65	4735.88
484.021	4842.54
484.391	4832.37
484.762	4883.22
485.133	4956.21
485.503	5019.03
485.874	5092.25
486.244	5109.43
486.615	5143.33
486.985	5281.85
487.356	5350.1
487.726	5317.78
488.097	5402.08
488.467	5426.26
488.837	5488.17
489.207	5603.43
489.578	5686.81
489.948	5705.8
490.318	5773.82
490.688	5796.19
491.058	5907.15
491.428	5934.49
491.798	6011.78
492.168	6089.06
492.538	6096.29
492.908	6089.52
493.278	6273.24
493.648	6203.41
494.017	6317.98
494.387	6391.43
494.757	6397.3
495.126	6446.34
495.496	6462.61
495.866	6471.43
496.235	6531.54
496.605	6591.87
496.974	6610.63
497.344	6619.44
497.713	6720.23
498.082	6786.67
498.452	6745.77
498.821	6786.9
499.19	6867.57
499.559	6863.05
499.928	6899.44
500.298	6940.34
500.667	6971.75
501.036	6984.41
501.405	7048.36
501.774	7054.01
502.143	7089.94
502.512	7091.75
502.88	7174.23
503.249	7218.98
503.618	7177.62
503.987	7167.45
504.356	7189.37
504.724	7296.71
505.093	7276.38
505.462	7392.31
505.83	7397.05
506.199	7399.09
506.567	7481.79
506.936	7391.4
507.304	7570.61
507.672	7475.47
508.041	7518.18
508.409	7589.14
508.777	7641.34
509.145	7694.44
509.514	7590.49
509.882	7693.54
510.25	7639.53
510.618	7745.97
510.986	7736.93
511.354	7756.59
511.722	7764.95
512.09	7820.09
512.458	7799.98
512.826	7898.51
513.193	7906.42
513.561	7858.06
513.929	7903.7
514.297	7947.32
514.664	7980.54
515.032	8019.18
515.4	8034.1
515.767	8001.33
516.135	8081.1
516.502	8021.67
516.869	8088.11
517.237	8159.97
517.604	8085.39
517.972	8176.47
518.339	8182.34
518.706	8173.98
519.073	8172.62
519.44	8220.53
519.808	8298.27
520.175	8239.97
520.542	8297.82
520.909	8297.59
521.276	8256.24
521.643	8369.46
522.009	8369.91
522.376	8444.03
522.743	8405.39
523.11	8492.84
523.477	8492.62
523.843	8510.24
524.21	8588.88
524.577	8632.95
524.943	8630.92
525.31	8656
525.676	8612.39
526.043	8688.54
526.409	8676.34
526.776	8677.92
527.142	8783.46
527.508	8746.85
527.874	8773.74
528.241	8847.86
528.607	8858.71
528.973	8807.41
529.339	8822.55
529.705	8866.17
530.071	8863.23
530.437	8907.75
530.803	8988.2
531.169	8954.07
531.535	8973.73
531.901	8912.04
532.267	8935.77
532.632	8941.64
532.998	8916.11
533.364	8962.43
533.73	8957.91
534.095	9094.41
534.461	9055.76
534.826	8994.75
535.192	9006.95
535.557	8995.65
535.923	8999.27
536.288	9074.07
536.653	9054.18
537.019	9021.64
537.384	9054.86
537.749	9020.74
538.114	9046.05
538.479	9033.84
538.845	9041.75
539.21	8939.61
539.575	9044.47
539.94	9072.71
540.305	9066.84
540.67	9013.28
541.034	9105.48
541.399	9011.02
541.764	9061.64
542.129	9019.38
542.494	8988.65
542.858	8981.87
543.223	9049.21
543.587	9039.04
543.952	8987.52
544.316	9027.52
544.681	9011.25
545.045	9063.22
545.41	9010.34
545.774	8972.15
546.138	8972.6
546.503	8998.14
546.867	8975.99
547.231	9028.87
547.595	8985.94
547.959	8988.2
548.324	9021.64
548.688	8988.87
549.052	9040.17
549.416	8946.62
549.779	8990.68
550.143	8915.43
550.507	8966.05
550.871	8929.44
551.235	8920.18
551.599	8999.95
551.962	8979.16
552.326	9011.02
552.689	9013.96
553.053	8974.64
553.417	8980.74
553.78	9060.96
554.143	8963.34
554.507	9034.07
554.87	8995.43
555.234	9117.91
555.597	9009.66
555.96	9036.33
556.323	9058.48
556.686	9019.38
557.05	9059.83
557.413	9056.22
557.776	9059.83
558.139	9076.56
558.502	9048.08
558.865	9063.22
559.228	9106.16
559.59	9085.14
559.953	9162.88
560.316	9183.22
560.679	9154.29
561.041	9167.4
561.404	9194.52
561.767	9186.83
562.129	9160.17
562.492	9277.68
562.854	9268.64
563.217	9239.71
563.579	9289.88
563.941	9305.93
564.304	9308.64
564.666	9321.75
565.028	9404.23
565.39	9399.26
565.753	9397.22
566.115	9473.83
566.477	9483.32
566.839	9431.12
567.201	9498.92
567.563	9521.29
567.925	9562.64
568.287	9634.51
568.648	9496.43
569.01	9576.88
569.372	9627.5
569.734	9580.95
570.095	9713.83
570.457	9721.06
570.819	9788.4
571.18	9729.19
571.542	9777.1
571.903	9819.36
572.265	9802.19
572.626	9836.54
572.987	9855.97
573.349	9868.17
573.71	9891.45
574.071	9951.56
574.432	9988.17
574.794	10024.78
575.155	10022.29
575.516	9985.91
575.877	10024.33
576.238	10043.76
576.599	10099.35
576.96	10107.71
577.32	10073.82
577.681	10136.87
578.042	10161.72
578.403	10154.94
578.763	10218.67
579.124	10238.56
579.485	10274.26
579.845	10283.53
580.206	10281.27
580.566	10321.95
580.927	10328.05
581.287	10342.06
581.648	10378.44
582.008	10450.3
582.368	10402.4
582.728	10393.58
583.089	10406.92
583.449	10431.55
583.809	10479.46
584.169	10507.25
584.529	10423.41
584.889	10561.49
585.249	10532.11
585.609	10479
585.969	10603.97
586.329	10534.82
586.688	10611.88
587.048	10612.79
587.408	10636.74
587.768	10625.21
588.127	10619.79
588.487	10625.21
588.846	10656.85
589.206	10641.49
589.565	10710.41
589.925	10645.1
590.284	10737.75
590.643	10712.44
591.003	10760.58
591.362	10816.85
591.721	10797.64
592.08	10785.89
592.44	10827.92
592.799	10825.89
593.158	10850.97
593.517	10894.81
593.876	10861.82
594.235	10877.64
594.593	10808.04
594.952	10895.94
595.311	10886
595.67	10861.59
596.029	10970.97
596.387	10942.04
596.746	10985.66
597.104	10994.24
597.463	10993.11
597.822	10956.28
598.18	10958.09
598.538	10906.34
598.897	11003.51
599.255	10950.86
599.613	11086.67
599.972	11053.9
600.33	11093.9
600.688	11027.92
601.046	10979.78
601.404	11097.74
601.762	11049.61
602.12	11060.68
602.478	11109.5
602.836	11175.71
603.194	11038.31
603.552	11044.19
603.91	11045.77
604.268	11135.71
604.625	11072.66
604.983	11097.07
605.341	11170.51
605.698	11147.01
606.056	11138.87
606.413	11166.44
606.771	11207.35
607.128	11225.65
607.485	11198.53
607.843	11155.82
608.2	11211.41
608.557	11253.22
608.914	11208.02
609.272	11304.97
609.629	11262.26
609.986	11393.33
610.343	11264.97
610.7	11380.22
611.057	11265.2
611.414	11290.96
611.771	11353.78
612.127	11355.59
612.484	11435.36
612.841	11318.53
613.198	11398.3
613.554	11310.85
613.911	11379.55
614.267	11418.19
614.624	11379.55
614.98	11402.37
615.337	11531.63
615.693	11429.04
616.05	11386.78
616.406	11497.28
616.762	11427.45
617.118	11502.25
617.475	11477.85
617.831	11523.95
618.187	11508.81
618.543	11532.54
618.899	11554.91
619.255	11520.11
619.611	11476.72
619.967	11535.7
620.323	11528.24
620.678	11492.76
621.034	11496.15
621.39	11493.44
621.746	11561.46
622.101	11670.39
622.457	11560.11
622.812	11536.38
623.168	11561.01
623.523	11591.07
623.879	11625.41
624.234	11495.47
624.589	11634.45
624.945	11580.67
625.3	11645.08
625.655	11591.07
626.01	11580.67
626.365	11546.55
626.72	11568.47
627.075	11561.01
627.43	11529.15
627.785	11500.67
628.14	11536.6
628.495	11566.21
628.85	11485.76
629.205	11495.02
629.559	11541.58
629.914	11471.29
630.269	11536.38
630.623	11481.69
630.978	11412.31
631.332	11430.17
631.687	11514.01
632.041	11451.18
632.396	11461.58
632.75	11366.21
633.104	11473.33
633.459	11352.65
633.813	11332.32
634.167	11371.64
634.521	11248.25
634.875	11358.76
635.229	11342.03
635.583	11337.29
635.937	11227.91
636.291	11306.1
636.645	11270.85
636.999	11278.98
637.352	11304.97
637.706	11192.66
638.06	11216.84
638.413	11245.31
638.767	11182.04
639.121	11181.81
639.474	11115.15
639.828	11183.17
640.181	11175.71
640.534	11116.28
640.888	11119.89
641.241	11053.45
641.594	11120.8
641.947	11162.38
642.301	11065.2
642.654	11042.38
643.007	11059.1
643.36	11075.15
643.713	11017.97
644.066	11105.65
644.419	11073.79
644.771	10887.13
645.124	10858.43
645.477	10844.19
645.83	10784.76
646.182	10712.22
646.535	10720.13
646.888	10705.21
647.24	10709.05
647.593	10674.03
647.945	10645.1
648.298	10616.63
648.65	10672.9
649.002	10599.9
649.355	10658.89
649.707	10585.22
650.059	10723.97
650.411	10776.17
650.763	10849.39
651.115	10883.97
651.467	10929.61
651.819	10910.63
652.171	10859.11
652.523	10810.52
652.875	10854.59
653.227	10811.2
653.578	10863.85
653.93	10870.18
654.282	10829.96
654.633	10771.88
654.985	10852.78
655.337	10872.67
655.688	10895.26
656.039	10877.41
656.391	10727.36
656.742	10825.66
657.094	10827.7
657.445	10845.1
657.796	10886.9
658.147	10837.64
658.498	10762.61
658.849	10791.76
659.2	10780.24
659.551	10807.36
659.902	10858.2
660.253	10771.2
660.604	10831.09
660.955	10774.59
661.306	10787.7
661.656	10847.13
662.007	10876.96
662.358	10857.53
662.708	10802.84
663.059	10917.64
663.409	10720.81
663.76	10862.5
664.11	10787.02
664.461	10836.96
664.811	10815.27
665.161	10795.61
665.511	10798.32
665.862	10810.75
666.212	10848.03
666.562	10863.4
666.912	10875.38
667.262	10852.33
667.612	10833.35
667.962	10821.59
668.312	10833.12
668.662	10910.63
669.011	10778.43
669.361	10817.3
669.711	10767.58
670.06	10806.91
670.41	10738.43
670.76	10756.51
671.109	10746.79
671.459	10721.26
671.808	10829.28
672.157	10812.55
672.507	10741.37
672.856	10784.08
673.205	10762.61
673.554	10754.7
673.904	10632.67
674.253	10751.99
674.602	10677.87
674.951	10528.95
675.3	10503.18
675.649	10670.19
675.998	10673.58
676.346	10631.32
676.695	10682.16
677.044	10568.49
677.393	10617.53
677.741	10624.09
678.09	10623.86
678.438	10598.1
678.787	10598.77
679.135	10683.74
679.484	10536.86
679.832	10554.26
680.181	10448.95
680.529	10495.73
680.877	10434.94
681.225	10490.08
681.573	10548.15
681.922	10424.54
682.27	10412.11
682.618	10352.23
682.966	10393.81
683.314	10359.69
683.661	10342.96
684.009	10349.97
684.357	10282.17
684.705	10288.05
685.053	10272.68
685.4	10207.6
685.748	10236.98
686.095	10270.2
686.443	10181.16
686.79	10043.54
687.138	10135.74
687.485	10144.32
687.832	10092.35
688.18	10130.99
688.527	10034.72
688.874	10033.82
689.221	9982.75
689.568	9948.85
689.915	9838.34
690.262	9879.92
690.609	9864.33
690.956	9849.42
691.303	9803.99
691.65	9788.4
691.997	9770.1
692.344	9686.93
692.69	9707.95
693.037	9659.59
693.383	9642.87
693.73	9641.74
694.077	9571.23
694.423	9542.08
694.769	9443.78
695.116	9467.73
695.462	9478.8
695.808	9410.78
696.155	9420.27
696.501	9337.57
696.847	9356.77
697.193	9260.05
697.539	9301.41
697.885	9200.62
698.231	9187.29
698.577	9264.8
698.923	9188.64
699.269	9140.28
699.614	9085.82
699.96	8999.72
700.306	9088.76
700.651	8987.74
700.997	8998.14
701.342	8940.74
701.688	8900.51
702.033	8940.51
702.379	8925.6
702.724	8887.18
703.069	8856.45
703.415	8797.24
703.76	8726.28
704.105	8690.8
704.45	8706.17
704.795	8608.09
705.14	8707.75
705.485	8641.99
705.83	8557.25
706.175	8629.56
706.52	8544.37
706.865	8481.32
707.209	8490.36
707.554	8452.39
707.899	8460.07
708.243	8435.22
708.588	8411.94
708.932	8360.42
709.277	8344.37
709.621	8371.26
709.966	8264.15
710.31	8253.75
710.654	8244.03
710.998	8197.48
711.342	8187.99
711.687	8209.91
712.031	8160.65
712.375	8123.59
712.719	8138.5
713.063	8201.55
713.407	8145.28
713.75	8162.23
714.094	8084.94
714.438	8068.22
714.782	8082.68
715.125	8058.05
715.469	8076.36
715.812	7973.31
716.156	7946.87
716.499	8042.68
716.843	7939.41
717.186	7883.37
717.53	7996.36
717.873	7963.59
718.216	7934.21
718.559	7927.88
718.902	7859.64
719.246	7896.25
719.589	7832.07
719.932	7798.62
720.275	7865.29
720.617	7795.91
720.96	7816.02
721.303	7812.18
721.646	7789.81
721.989	7795.46
722.331	7839.53
722.674	7782.8
723.016	7791.62
723.359	7765.4
723.701	7769.92
724.044	7812.63
724.386	7699.87
724.729	7758.85
725.071	7676.14
725.413	7691.96
725.755	7723.6
726.097	7685.63
726.439	7666.87
726.782	7675.46
727.124	7692.18
727.465	7617.61
727.807	7660.32
728.149	7651.96
728.491	7670.72
728.833	7668.91
729.175	7593.88
729.516	7562.24
729.858	7612.41
730.199	7605.18
730.541	7563.6
730.882	7607.67
731.224	7593.43
731.565	7522.47
731.906	7511.4
732.248	7550.49
732.589	7543.94
732.93	7515.69
733.271	7510.95
733.612	7573.32
733.953	7548.23
734.294	7499.42
734.635	7534.22
734.976	7572.87
735.317	7528.35
735.658	7473.43
735.999	7582.13
736.339	7511.85
736.68	7498.52
737.021	7508.69
737.361	7499.2
737.702	7493.32
738.042	7516.37
738.383	7504.39
738.723	7505.97
739.063	7529.03
739.404	7536.26
739.744	7567.89
740.084	7546.43
740.424	7591.17
740.764	7563.15
741.104	7589.14
741.444	7563.37
741.784	7634.11
742.124	7587.1
742.464	7622.81
742.804	7585.52
743.143	7609.25
743.483	7659.42
743.823	7561.34
744.162	7685.63
744.502	7713.65
744.841	7670.04
745.181	7766.99
745.52	7735.12
745.86	7758.85
746.199	7830.94
746.538	7813.31
746.877	7872.74
747.216	7908.68
747.556	7961.33
747.895	8006.53
748.234	7999.3
748.573	8040.88
748.911	8062.12
749.25	8089.01
749.589	8161.55
749.928	8223.47
750.267	8272.28
750.605	8321.32
750.944	8381.88
751.283	8402
751.621	8473.18
751.96	8634.98
752.298	8568.32
752.636	8657.13
752.975	8711.14
753.313	8823.23
753.651	8928.99
753.989	8967.63
754.327	9045.37
754.666	9096.44
755.004	9212.37
755.342	9412.82
755.679	9467.73
756.017	9545.7
756.355	9694.39
756.693	9711.34
757.031	9843.99
757.368	9946.14
757.706	10029.98
758.044	10103.65
758.381	10310.2
758.719	10381.38
759.056	10506.57
759.394	10657.08
759.731	10741.14
760.068	10870.41
760.405	10930.74
760.743	11104.07
761.08	11250.28
761.417	11247.12
761.754	11441.92
762.091	11599.2
762.428	11646.21
762.765	11846.2
763.102	11986.08
763.438	12025.86
763.775	12150.82
764.112	12304.04
764.449	12516.92
764.785	12511.49
765.122	12668.78
765.458	12779.73
765.795	12904.03
766.131	13094.3
766.467	13126.84
766.804	13181.08
767.14	13320.06
767.476	13380.17
767.812	13450.45
768.148	13626.94
768.485	13659.26
768.821	13675.3
769.157	13925.92
769.492	13984
769.828	14096.54
770.164	14089.53
770.5	14199.13
770.836	14345.57
771.171	14293.14
771.507	14413.59
771.842	14309.19
772.178	14590.08
772.513	14628.5
772.849	14678.89
773.184	14686.58
773.519	14778.33
773.855	14779
774.19	14788.04
774.525	14830.75
774.86	14917.98
775.195	14913.24
775.53	14964.76
775.865	15016.51
776.2	15007.02
776.535	15005.21
776.87	15118.2
777.205	15058.77
777.539	15189.84
777.874	15153.68
778.209	15052.44
778.543	15087.47
778.878	15073.46
779.212	15139.9
779.547	15167.69
779.881	15351.87
780.215	15221.03
780.55	15186
780.884	15202.72
781.218	15235.26
781.552	15217.64
781.886	15100.35
782.22	15187.81
782.554	15166.34
782.888	15057.64
783.222	15037.98
783.556	15047.7
783.889	15044.08
784.223	15117.07
784.557	14987.13
784.89	15035.95
785.224	15032.78
785.557	14961.6
785.891	15021.48
786.224	15020.13
786.558	14989.39
786.891	14914.82
787.224	14917.31
787.557	14842.05
787.891	14910.3
788.224	14825.1
788.557	14911.66
788.89	14864.88
789.223	14919.34
789.556	14764.99
789.888	14790.08
790.221	14760.7
790.554	14607.03
790.887	14708.27
791.219	14567.03
791.552	14614.94
791.884	14590.53
792.217	14676.86
792.549	14592.57
792.882	14483.19
793.214	14449.97
793.546	14484.32
793.879	14370.2
794.211	14300.37
794.543	14319.58
794.875	14320.26
795.207	14334.72
795.539	14272.35
795.871	14208.17
796.203	14150.55
796.535	14118.46
796.867	14146.03
797.198	14109.87
797.53	14166.59
797.862	14036.65
798.193	14111.9
798.525	13997.33
798.856	14083.66
799.188	13941.74
799.519	13812.7
799.85	13768.18
800.182	13796.66
800.513	13795.08
800.844	13656.1
801.175	13818.58
801.506	13604.35
801.837	13619.49
802.168	13635.76
802.499	13648.64
802.83	13562.09
803.161	13551.01
803.491	13497
803.822	13521.86
804.153	13440.06
804.483	13402.77
804.814	13351.92
805.145	13325.93
805.475	13305.82
805.805	13242.1
806.136	13223.79
806.466	13194.64
806.796	13231.7
807.126	13103.57
807.457	13161.87
807.787	13175.43
808.117	12991.48
808.447	13133.17
808.777	13025.83
809.107	13035.77
809.436	12946.96
809.766	12957.58
810.096	12933.63
810.426	12884.14
810.755	12894.99
811.085	12864.03
811.414	12855.21
811.744	12662.68
812.073	12771.37
812.403	12758.04
812.732	12649.57
813.061	12636.24
813.39	12566.18
813.719	12577.93
814.049	12727.98
814.378	12571.15
814.707	12495
815.036	12530.25
815.365	12455.9
815.693	12315.11
816.022	12363.25
816.351	12382.68
816.68	12298.17
817.008	12415.22
817.337	12256.13
817.665	12215.46
817.994	12258.17
818.322	12254.78
818.651	12223.14
818.979	12195.57
819.307	12184.27
819.636	12189.69
819.964	12139.98
820.292	12112.41
820.62	12131.16
820.948	12120.32
821.276	12128.68
821.604	12102.46
821.932	12071.5
822.259	12146.98
822.587	12152.63
822.915	12045.06
823.243	12029.92
823.57	12068.11
823.898	12073.76
824.225	11998.51
824.553	12031.96
824.88	12042.35
825.207	12120.77
825.535	12088
825.862	12100.2
826.189	12057.95
826.516	12032.86
826.843	12181.11
827.17	12084.84
827.497	12079.87
827.824	12118.06
828.151	12151.95
828.478	12093.42
828.805	12038.96
829.131	12117.83
829.458	12081
829.785	12048.68
830.111	12112.63
830.438	12071.73
830.764	12118.74
831.09	12055.69
831.417	12016.82
831.743	12065.86
832.069	11996.93
832.395	12077.38
832.722	12040.54
833.048	11956.03
833.374	12090.26
833.7	11995.8
834.026	12057.27
834.351	11965.74
834.677	11988.12
835.003	12010.94
835.329	12017.72
835.654	11973.65
835.98	11916.25
836.306	11916.48
836.631	11914.22
836.956	11926.42
837.282	11960.32
837.607	11833.32
837.932	11881.91
838.258	11772.53
838.583	11833.32
838.908	11753.55
839.233	11732.3
839.558	11681.68
839.883	11710.16
840.208	11664.28
840.533	11630.84
840.858	11678.07
841.182	11676.26
841.507	11681.91
841.832	11540.67
842.156	11603.27
842.481	11592.2
842.805	11601.23
843.13	11545.42
843.454	11459.77
843.778	11436.04
844.103	11431.52
844.427	11423.16
844.751	11470.62
845.075	11422.03
845.399	11303.62
845.723	11233.79
846.047	11241.47
846.371	11148.82
846.695	11220.91
847.019	11161.02
847.343	11060.91
847.666	11047.8
847.99	10966.67
848.313	10953.34
848.637	10906.56
848.96	10892.55
849.284	10895.04
849.607	10704.76
849.931	10774.14
850.254	10708.6
850.577	10634.03
850.9	10574.59
851.223	10560.81
851.546	10486.69
851.869	10438.1
852.192	10477.65
852.515	10394.26
852.838	10429.74
853.161	10365.33
853.483	10268.16
853.806	10282.17
854.129	10224.55
854.451	10200.37
854.774	10206.02
855.096	10217.32
855.419	10099.81
855.741	10100.03
856.063	10041.95
856.385	9996.3
856.708	9976.64
857.03	9904.56
857.352	9954.95
857.674	9894.84
857.996	9860.04
858.318	9824.11
858.64	9779.81
858.961	9851.68
859.283	9802.86
859.605	9762.41
859.926	9673.38
860.248	9750.21
860.57	9636.99
860.891	9657.56
861.212	9606.94
861.534	9564.23
861.855	9491.23
862.176	9543.89
862.498	9515.19
862.819	9536.43
863.14	9537.11
863.461	9460.73
863.782	9450.78
864.103	9512.7
864.424	9404.46
864.745	9395.64
865.065	9345.7
865.386	9317.68
865.707	9341.63
866.027	9322.2
866.348	9289.88
866.668	9312.26
866.989	9279.26
867.309	9267.96
867.63	9272.93
867.95	9287.17
868.27	9152.03
868.59	9251.01
868.91	9171.92
869.23	9167.17
869.55	9144.12
869.87	9161.98
870.19	9106.84
870.51	9163.11
870.83	9141.41
871.15	9070.68
871.469	9067.29
871.789	9058.48
872.109	9091.24
872.428	9014.64
872.748	9050.57
873.067	8987.97
873.386	9066.84
873.706	9055.31
874.025	9017.35
874.344	8896.45
874.663	8909.78
874.982	8878.82
875.301	8946.16
875.62	8877.92
875.939	8860.06
876.258	8903.23
876.577	8792.95
876.896	8836.56
877.214	8835.88
877.533	8876.33
877.852	8752.27
878.17	8790.01
878.489	8789.56
878.807	8731.03
879.125	8753.63
879.444	8735.55
879.762	8683.57
880.08	8624.36
880.398	8703.01
880.716	8666.4
881.034	8660.29
881.352	8640.86
881.67	8619.62
881.988	8553.41
882.306	8610.58
882.624	8557.92
882.941	8549.34
883.259	8501.2
883.577	8473.18
883.894	8472.73
884.212	8437.93
884.529	8444.48
884.846	8426.85
885.164	8436.35
885.481	8337.14
885.798	8435.22
886.115	8294.43
886.432	8383.92
886.75	8314.99
887.067	8332.62
887.383	8230.93
887.7	8247.65
888.017	8242
888.334	8200.42
888.651	8161.55
888.967	8204.94
889.284	8125.62
889.6	8111.83
889.917	8019.41
890.233	8060.08
890.55	8032.74
890.866	8081.55
891.182	8009.01
891.498	7975.34
891.815	7896.7
892.131	7959.07
892.447	7956.81
892.763	7867.32
893.079	7856.7
893.395	7843.82
893.71	7810.6
894.026	7842.92
894.342	7775.12
894.657	7727.44
894.973	7718.62
895.289	7686.08
895.604	7699.64
895.92	7616.25
896.235	7587.55
896.55	7565.18
896.865	7541.45
897.181	7539.42
897.496	7481.57
897.811	7500.78
898.126	7523.6
898.441	7450.84
898.756	7473.43
899.071	7407.22
899.386	7353.66
899.7	7232.54
900.015	7288.35
900.33	7177.4
900.644	7189.37
900.959	7197.51
901.273	7200.9
901.588	7119.09
901.902	7098.75
902.216	7103.73
902.531	7104.4
902.845	7120.67
903.159	7009.72
903.473	6973.33
903.787	6990.96
904.101	6987.8
904.415	6910.28
904.729	6912.54
905.042	6899.44
905.356	6907.57
905.67	6868.48
905.984	6822.38
906.297	6767.46
906.611	6732.21
906.924	6715.94
907.237	6704.64
907.551	6724.75
907.864	6671.19
908.177	6663.06
908.491	6657.41
908.804	6571.54
909.117	6563.17
909.43	6507.81
909.743	6492.44
910.056	6503.52
910.368	6477.75
910.681	6495.38
910.994	6419.68
911.307	6336.51
911.619	6316.63
911.932	6388.49
912.244	6262.62
912.557	6250.64
912.869	6229.85
913.181	6228.27
913.494	6227.14
913.806	6125.45
914.118	6170.87
914.43	6093.36
914.742	6077.76
915.054	6096.29
915.366	6020.82
915.678	6023.3
915.99	5988.27
916.302	5938.56
916.613	5919.58
916.925	5947.6
917.236	5959.57
917.548	5861.5
917.859	5881.38
918.171	5832.57
918.482	5784.21
918.794	5760.48
919.105	5868.28
919.416	5703.08
919.727	5703.08
920.038	5699.92
920.349	5647.49
920.66	5630.32
920.971	5658.79
921.282	5632.58
921.593	5569.98
921.903	5564.78
922.214	5564.56
922.525	5535.18
922.835	5499.7
923.146	5441.85
923.456	5487.27
923.767	5423.32
924.077	5409.53
924.387	5354.85
924.697	5332.25
925.008	5353.26
925.318	5298.12
925.628	5270.78
925.938	5284.56
926.248	5245.92
926.558	5251.57
926.867	5217
927.177	5191.46
927.487	5171.12
927.796	5088.41
928.106	5140.39
928.416	5108.98
928.725	5084.34
929.034	5036.66
929.344	5054.51
929.653	5022.88
929.962	5008.64
930.271	4978.13
930.581	4989.43
930.89	4936.78
931.199	4917.57
931.508	4879.38
931.817	4928.19
932.125	4892.48
932.434	4818.59
932.743	4798.25
933.051	4818.36
933.36	4783.56
933.669	4759.61
933.977	4732.49
934.286	4734.52
934.594	4719.83
934.902	4667.18
935.21	4655.65
935.519	4626.05
935.827	4630.34
936.135	4575.2
936.443	4543.34
936.751	4560.52
937.059	4545.6
937.367	4525.71
937.674	4541.53
937.982	4496.34
938.29	4502.44
938.597	4416.79
938.905	4477.58
939.213	4406.62
939.52	4401.65
939.827	4405.04
940.135	4379.5
940.442	4385.38
940.749	4364.36
941.056	4345.15
941.363	4292.05
941.67	4255.66
941.977	4282.33
942.284	4210.47
942.591	4268.32
942.898	4195.78
943.205	4196.23
943.511	4127.31
943.818	4156.23
944.125	4095.44
944.431	4108.55
944.738	4078.27
945.044	4128.21
945.35	4023.58
945.657	4072.62
945.963	4035.78
946.269	3973.19
946.575	4012.51
946.881	3974.32
947.187	3958.05
947.493	3960.76
947.799	3935.45
948.105	3935.22
948.41	3870.59
948.716	3888.89
949.022	3893.19
949.327	3832.85
949.633	3815.9
949.938	3864.71
950.244	3812.96
950.549	3776.13
950.854	3795.34
951.16	3755.34
951.465	3720.99
951.77	3713.31
952.075	3706.3
952.38	3676.7
952.685	3701.1
952.99	3609.35
953.294	3598.28
953.599	3644.38
953.904	3585.85
954.209	3590.82
954.513	3604.16
954.818	3552.41
955.122	3532.07
955.426	3563.03
955.731	3551.73
956.035	3522.58
956.339	3513.09
956.643	3488.91
956.948	3456.36
957.252	3464.5
957.556	3383.82
957.86	3424.05
958.163	3417.49
958.467	3384.73
958.771	3383.82
959.075	3378.63
959.378	3332.07
959.682	3368
959.985	3331.4
960.289	3333.66
960.592	3266.09
960.896	3253.21
961.199	3255.24
961.502	3256.14
961.805	3240.78
962.108	3224.96
962.411	3198.07
962.714	3168.46
963.017	3234.22
963.32	3201.46
963.623	3181.34
963.926	3161
964.228	3159.2
964.531	3128.91
964.833	3139.54
965.136	3041.91
965.438	3083.49
965.741	3064.06
966.043	3032.19
966.345	3022.48
966.648	3019.54
966.95	3043.49
967.252	2965.76
967.554	2980.44
967.856	2950.39
968.158	2947.9
968.46	2941.8
968.761	2955.13
969.063	2915.14
969.365	2903.61
969.666	2891.18
969.968	2879.88
970.269	2854.12
970.571	2865.64
970.872	2863.61
971.174	2834.46
971.475	2821.13
971.776	2805.31
972.077	2807.12
972.378	2787.45
972.679	2789.04
972.98	2781.13
973.281	2740.68
973.582	2765.76
973.883	2702.26
974.183	2706.33
974.484	2685.76
974.785	2685.99
975.085	2663.84
975.386	2674.24
975.686	2677.4
975.986	2668.36
976.287	2629.04
976.587	2604.41
976.887	2598.76
977.187	2628.59
977.487	2592.66
977.787	2602.38
978.087	2540.91
978.387	2562.38
978.687	2596.95
978.987	2538.2
979.286	2537.07
979.586	2544.98
979.885	2484.86
980.185	2488.03
980.484	2472.21
980.784	2448.93
981.083	2467.01
981.382	2462.49
981.682	2406.9
981.981	2430.18
982.28	2386.56
982.579	2401.02
982.878	2412.32
983.177	2395.37
983.475	2378.88
983.774	2373
984.073	2352.66
984.372	2338.2
984.67	2351.31
984.969	2335.49
985.267	2300.24
985.566	2274.02
985.864	2296.17
986.162	2262.27
986.461	2253.23
986.759	2248.94
987.057	2246.45
987.355	2247.13
987.653	2234.48
987.951	2205.55
988.249	2199
988.547	2170.3
988.844	2187.24
989.142	2149.73
989.44	2163.52
989.737	2141.82
990.035	2179.56
990.332	2154.7
990.63	2123.74
990.927	2156.06
991.224	2101.37
991.521	2092.78
991.819	2081.48
992.116	2082.84
992.413	2046.68
992.71	2068.38
993.006	2087.36
993.303	2063.63
993.6	2024.99
993.897	2025.22
994.193	2036.74
994.49	2034.25
994.787	2011.2
995.083	1985.67
995.379	1974.14
995.676	1992.45
995.972	1973.92
996.268	1970.08
996.565	1940.47
996.861	1933.01
997.157	1930.98
997.453	1929.17
997.749	1891.66
998.044	1874.26
998.34	1896.18
998.636	1888.5
998.932	1873.58
999.227	1867.71
999.523	1864.99
999.818	1829.51
1000.114	1844.2
1000.409	1833.58
1000.704	1795.62
1001	1795.16
1001.295	1785.9
1001.59	1795.84
1001.885	1799.91
1002.18	1753.13
1002.475	1739.35
1002.77	1750.65
1003.065	1744.77
1003.359	1715.62
1003.654	1689.86
1003.949	1685.56
1004.243	1707.03
1004.538	1724.66
1004.832	1688.27
1005.127	1693.25
1005.421	1677.65
1005.715	1659.35
1006.009	1686.01
1006.304	1618.45
1006.598	1638.11
1006.892	1622.97
1007.186	1625.45
1007.48	1594.94
1007.773	1615.28
1008.067	1594.94
1008.361	1554.27
1008.655	1566.02
1008.948	1551.33
1009.242	1552.23
1009.535	1569.18
1009.829	1550.2
1010.122	1546.58
1010.415	1507.94
1010.708	1520.6
1011.001	1502.52
1011.295	1502.52
1011.588	1481.5
1011.881	1460.48
1012.173	1490.31
1012.466	1477.66
1012.759	1455.06
1013.052	1458.22
1013.344	1436.3
1013.637	1439.47
1013.93	1405.57
1014.222	1418.9
1014.514	1409.64
1014.807	1385.46
1015.099	1374.61
1015.391	1410.54
1015.683	1397.89
1015.976	1339.36
1016.268	1345.46
1016.56	1344.56
1016.851	1337.32
1017.143	1341.84
1017.435	1310.66
1017.727	1302.75
1018.018	1312.47
1018.31	1314.5
1018.602	1287.38
1018.893	1260.94
1019.185	1265.24
1019.476	1265.24
1019.767	1255.52
1020.058	1250.09
1020.35	1266.82
1020.641	1222.52
1020.932	1215.52
1021.223	1229.3
1021.514	1193.82
1021.804	1228.63
1022.095	1210.77
1022.386	1230.43
1022.677	1192.92
1022.967	1187.5
1023.258	1151.11
1023.548	1153.6
1023.839	1149.98
1024.129	1133.49
1024.419	1144.11
1024.709	1144.33
1025	1122.41
1025.29	1144.11
1025.58	1123.77
1025.87	1106.14
1026.16	1103.88
1026.449	1071.57
1026.739	1051.68
1027.029	1088.52
1027.319	1067.95
1027.608	1075.86
1027.898	1093.26
1028.187	1045.58
1028.477	1041.96
1028.766	1029.31
1029.055	1028.86
1029.344	1052.59
1029.634	1023.66
1029.923	1023.89
1030.212	1005.35
1030.501	993.15
1030.79	1027.05
1031.078	996.99
1031.367	1025.47
1031.656	987.28
1031.945	982.08
1032.233	971.46
1032.522	984.11
1032.81	974.85
1033.099	966.71
1033.387	964.23
1033.675	947.5
1033.963	943.21
1034.251	922.42
1034.54	935.53
1034.828	913.15
1035.116	933.72
1035.403	907.28
1035.691	915.64
1035.979	900.72
1036.267	905.47
1036.554	886.71
1036.842	869.99
1037.129	860.27
1037.417	866.38
1037.704	846.49
1037.992	869.77
1038.279	895.53
1038.566	836.55
1038.853	836.55
1039.14	836.55
