Data from hue_28_FLMS001491_00030.txt Node
Date: Tue Feb 07 17:17:04 GMT 2017
User: dcchb
Spectrometer: FLMS00149
Trigger mode: 0
Integration Time (sec): 2.000000E-2
Scans to average: 10
Electric dark correction enabled: true
Nonlinearity correction enabled: false
Boxcar width: 0
XAxis mode: Wavelengths
Number of Pixels in Spectrum: 2048
>>>>>Begin Spectral Data<<<<<
341.393	-10.61
341.776	-10.61
342.16	-10.61
342.543	-69.36
342.927	-70.94
343.31	-72.98
343.693	-94.22
344.077	-69.14
344.46	-47.67
344.843	-58.06
345.226	-28.69
345.61	-41.11
345.993	-22.81
346.376	4.31
346.759	7.02
347.142	24.19
347.525	55.15
347.908	64.87
348.291	73.68
348.674	103.74
349.057	101.71
349.44	144.42
349.823	128.15
350.206	162.04
350.588	199.56
350.971	221.93
351.354	233.68
351.737	255.37
352.119	254.02
352.502	276.17
352.884	279.78
353.267	289.72
353.65	289.05
354.032	323.85
354.414	302.38
354.797	320.91
355.179	327.46
355.562	342.6
355.944	331.98
356.326	340.8
356.709	337.86
357.091	348.25
357.473	357.74
357.855	340.12
358.238	317.75
358.62	333.34
359.002	338.54
359.384	361.81
359.766	342.83
360.148	345.54
360.53	348.48
360.912	354.36
361.294	348.48
361.676	355.26
362.057	365.88
362.439	331.98
362.821	319.1
363.203	328.82
363.584	336.73
363.966	336.73
364.348	322.49
364.729	332.43
365.111	333.34
365.493	321.36
365.874	310.74
366.256	318.65
366.637	322.49
367.019	314.13
367.4	325.66
367.781	313.9
368.163	308.25
368.544	313.45
368.925	308.93
369.306	328.37
369.688	317.97
370.069	312.32
370.45	322.94
370.831	324.75
371.212	306.45
371.593	320.46
371.974	322.04
372.355	313.23
372.736	317.29
373.117	307.12
373.498	312.55
373.879	327.92
374.26	313.23
374.641	308.03
375.021	316.16
375.402	343.28
375.783	320.68
376.163	327.24
376.544	321.81
376.925	331.76
377.305	324.53
377.686	330.17
378.066	322.27
378.447	353.68
378.827	348.48
379.208	349.38
379.588	320.91
379.968	337.41
380.349	350.29
380.729	339.89
381.109	349.38
381.489	361.59
381.87	349.61
382.25	367.69
382.63	336.5
383.01	344.86
383.39	347.12
383.77	361.36
384.15	371.98
384.53	366.78
384.91	354.58
385.29	341.02
385.67	354.81
386.049	363.17
386.429	343.96
386.809	337.41
387.189	353.23
387.568	351.64
387.948	379.44
388.328	374.47
388.707	369.27
389.087	364.75
389.466	397.52
389.846	374.69
390.225	383.51
390.605	385.77
390.984	387.12
391.363	382.15
391.743	390.29
392.122	368.37
392.501	350.74
392.881	366.33
393.26	379.21
393.639	343.73
394.018	364.52
394.397	387.35
394.776	380.8
395.155	386.67
395.534	410.4
395.913	373.34
396.292	385.54
396.671	396.84
397.05	398.65
397.429	412.88
397.808	405.43
398.186	398.65
398.565	390.74
398.944	396.84
399.323	413.79
399.701	385.54
400.08	422.15
400.458	431.42
400.837	393.9
401.215	424.41
401.594	419.89
401.972	395.26
402.351	404.07
402.729	412.66
403.107	418.99
403.486	413.56
403.864	416.73
404.242	420.57
404.62	443.17
404.999	413.56
405.377	421.25
405.755	440.91
406.133	434.8
406.511	425.77
406.889	437.06
407.267	462.83
407.645	440.91
408.023	485.65
408.401	450.17
408.779	452.88
409.156	474.8
409.534	456.05
409.912	456.73
410.29	468.7
410.667	471.41
411.045	484.97
411.422	488.36
411.8	460.57
412.178	487.68
412.555	491.98
412.933	468.48
413.31	474.13
413.687	502.37
414.065	512.54
414.442	485.43
414.819	512.09
415.197	520
415.574	522.03
415.951	521.81
416.328	522.71
416.705	535.14
417.082	534.46
417.46	518.42
417.837	530.62
418.214	551.19
418.591	541.24
418.967	530.62
419.344	541.24
419.721	557.06
420.098	542.82
420.475	538.31
420.852	542.82
421.228	546.21
421.605	556.38
421.982	565.42
422.358	564.29
422.735	570.39
423.111	560.23
423.488	578.3
423.864	583.05
424.241	595.03
424.617	579.89
424.994	572.65
425.37	598.87
425.746	583.73
426.123	598.42
426.499	600.22
426.875	597.74
427.251	640
427.627	630.96
428.003	625.08
428.379	633.22
428.756	614.46
429.132	628.02
429.507	656.04
429.883	641.35
430.259	650.84
430.635	670.73
431.011	664.86
431.387	663.73
431.763	683.84
432.138	661.24
432.514	683.39
432.89	688.13
433.265	706.44
433.641	726.1
434.016	699.43
434.392	711.41
434.767	725.87
435.143	728.58
435.518	739.43
435.894	737.62
436.269	765.42
436.644	768.81
437.02	751.41
437.395	772.2
437.77	761.8
438.145	776.72
438.52	784.85
438.895	762.25
439.271	805.42
439.646	805.19
440.021	783.72
440.395	810.84
440.77	803.38
441.145	818.75
441.52	828.47
441.895	830.95
442.27	832.53
442.645	849.26
443.019	820.11
443.394	830.5
443.769	842.93
444.143	854.68
444.518	856.71
444.892	842.93
445.267	863.95
445.641	870.05
446.016	864.85
446.39	867.34
446.764	881.35
447.139	911.63
447.513	897.39
447.887	886.32
448.262	894.68
448.636	926.09
449.01	922.02
449.384	938.52
449.758	937.39
450.132	953.21
450.506	931.29
450.88	964.96
451.254	932.42
451.628	955.24
452.002	982.14
452.376	987.78
452.75	979.88
453.123	984.85
453.497	991.4
453.871	1023.49
454.244	1008.12
454.618	1018.97
454.992	1054.9
455.365	1040.66
455.739	1067.78
456.112	1061.68
456.486	1085.41
456.859	1113.43
457.232	1112.75
457.606	1119.98
457.979	1108.69
458.352	1143.03
458.725	1134.45
459.099	1164.73
459.472	1160.66
459.845	1202.69
460.218	1194.11
460.591	1192.53
460.964	1230.04
461.337	1237.5
461.71	1259.64
462.083	1291.96
462.456	1245.41
462.829	1276.82
463.201	1317.72
463.574	1289.47
463.947	1342.8
464.32	1342.8
464.692	1345.97
465.065	1361.33
465.438	1398.85
465.81	1401.79
466.183	1413.54
466.555	1424.16
466.928	1430.48
467.3	1443.59
467.672	1458.51
468.045	1499.18
468.417	1533.99
468.789	1510.26
469.161	1530.6
469.534	1611.72
469.906	1588.45
470.278	1612.63
470.65	1643.59
471.022	1656.02
471.394	1695.34
471.766	1717.26
472.138	1746.41
472.51	1776.01
472.882	1795.22
473.253	1837.25
473.625	1851.26
473.997	1893.52
474.369	1893.98
474.74	1922.22
475.112	1961.77
475.484	1993.86
475.855	2035.67
476.227	2064.59
476.598	2107.53
476.97	2137.13
477.341	2175.1
477.713	2201.54
478.084	2252.61
478.455	2298.48
478.827	2298.94
479.198	2419.61
479.569	2427.07
479.94	2518.82
480.311	2519.27
480.682	2600.4
481.053	2661.87
481.424	2719.04
481.795	2708.42
482.166	2783.9
482.537	2828.64
482.908	2865.02
483.279	2921.07
483.65	2985.7
484.021	3014.17
484.391	3098.92
484.762	3135.52
485.133	3192.47
485.503	3238.12
485.874	3269.53
486.244	3314.5
486.615	3419.13
486.985	3471.34
487.356	3568.51
487.726	3573.03
488.097	3667.04
488.467	3706.81
488.837	3793.13
489.207	3840.14
489.578	3928.5
489.948	3950.64
490.318	4018.44
490.688	4034.03
491.058	4128.04
491.428	4236.06
491.798	4234.25
492.168	4340.69
492.538	4340.01
492.908	4421.37
493.278	4472.44
493.648	4505.66
494.017	4606.67
494.387	4649.84
494.757	4687.12
495.126	4743.62
495.496	4805.76
495.866	4811.41
496.235	4883.5
496.605	4954.01
496.974	4991.52
497.344	4993.33
497.713	5084.4
498.082	5096.15
498.452	5107.45
498.821	5177.05
499.19	5178.41
499.559	5269.25
499.928	5278.52
500.298	5340.21
500.667	5346.77
501.036	5382.02
501.405	5433.77
501.774	5492.53
502.143	5571.39
502.512	5560.77
502.88	5612.75
503.249	5649.58
503.618	5647.78
503.987	5693.88
504.356	5734.78
504.724	5763.93
505.093	5802.12
505.462	5838.5
505.83	5872.18
506.199	5896.13
506.567	5977.03
506.936	5996.69
507.304	6033.75
507.672	6062.68
508.041	6066.52
508.409	6113.75
508.777	6149.68
509.145	6242.11
509.514	6211.83
509.882	6240.53
510.25	6264.71
510.618	6286.4
510.986	6311.26
511.354	6368.21
511.722	6418.15
512.09	6463.35
512.458	6500.86
512.826	6493.85
513.193	6593.97
513.561	6574.08
513.929	6676.67
514.297	6684.13
514.664	6732.72
515.032	6673.96
515.4	6774.3
515.767	6813.62
516.135	6809.55
516.502	6777.69
516.869	6904.92
517.237	6938.81
517.604	6853.62
517.972	6878.93
518.339	6958.48
518.706	6966.61
519.073	7000.28
519.44	7080.05
519.808	7120.5
520.175	7130.45
520.542	7251.12
520.909	7228.52
521.276	7192.14
521.643	7261.29
522.009	7288.64
522.376	7353.27
522.743	7424
523.11	7502.19
523.477	7495.64
523.843	7510.33
524.21	7588.97
524.577	7662.86
524.943	7659.02
525.31	7743.09
525.676	7767.49
526.043	7855.4
526.409	7843.2
526.776	7908.05
527.142	7939.01
527.508	7934.72
527.874	8062.4
528.241	8061.72
528.607	8089.97
528.973	8249.74
529.339	8157.31
529.705	8255.39
530.071	8281.83
530.437	8338.55
530.803	8370.87
531.169	8406.35
531.535	8385.78
531.901	8445.89
532.267	8468.49
532.632	8496.97
532.998	8627.13
533.364	8644.31
533.73	8588.49
534.095	8700.12
534.461	8677.53
534.826	8788.94
535.192	8822.38
535.557	8861.93
535.923	8943.73
536.288	8922.04
536.653	8972.66
537.019	8940.12
537.384	8997.52
537.749	9096.27
538.114	9068.7
538.479	9109.83
538.845	9116.38
539.21	9103.73
539.575	9161.13
539.94	9295.14
540.305	9289.04
540.67	9296.04
541.034	9288.81
541.399	9407.68
541.764	9376.26
542.129	9474.79
542.494	9495.58
542.858	9555.24
543.223	9552.08
543.587	9644.51
543.952	9583.72
544.316	9740.55
544.681	9677.05
545.045	9785.52
545.41	9807.21
545.774	9775.8
546.138	9870.72
546.503	9902.8
546.867	9859.42
547.231	10034.33
547.595	9970.15
547.959	10072.74
548.324	10031.84
548.688	10123.36
549.052	10097.83
549.416	10176.7
549.779	10122.46
550.143	10159.07
550.507	10180.76
550.871	10336.47
551.235	10227.54
551.599	10342.57
551.962	10382.11
552.326	10413.75
552.689	10522.68
553.053	10468.67
553.417	10510.7
553.78	10616.91
554.143	10565.39
554.507	10678.83
554.87	10659.17
555.234	10746.4
555.597	10725.16
555.96	10733.29
556.323	10788.21
556.686	10725.16
557.05	10852.84
557.413	10862.33
557.776	10919.05
558.139	10920.63
558.502	11010.8
558.865	11020.52
559.228	11069.33
559.59	11131.92
559.953	11140.51
560.316	11241.75
560.679	11282.2
561.041	11321.52
561.404	11360.85
561.767	11373.95
562.129	11375.99
562.492	11535.08
562.854	11416.89
563.217	11469.77
563.579	11547.06
563.941	11607.39
564.304	11575.08
564.666	11722.19
565.028	11778.01
565.39	11755.19
565.753	11824.34
566.115	11803.55
566.477	11973.71
566.839	11968.29
567.201	11941.85
567.563	11985.69
567.925	12116.53
568.287	12132.35
568.648	12090.32
569.01	12186.13
569.372	12392.23
569.734	12252.35
570.095	12302.29
570.457	12454.6
570.819	12436.3
571.18	12524.2
571.542	12597.87
571.903	12622.73
572.265	12579.12
572.626	12643.98
572.987	12713.13
573.349	12743.86
573.71	12880.58
574.071	12924.65
574.432	13107.24
574.794	13219.33
575.155	13162.61
575.516	13134.81
575.877	13285.09
576.238	13337.29
576.599	13434.92
576.96	13457.74
577.32	13605.08
577.681	13709.26
578.042	13897.05
578.403	13916.03
578.763	14014.56
579.124	14090.94
579.485	14259.98
579.845	14400.31
580.206	14513.3
580.566	14573.64
580.927	14710.59
581.287	14989.22
581.648	14927.31
582.008	15149.9
582.368	15344.7
582.728	15520.28
583.089	15600.73
583.449	15705.36
583.809	15977.22
584.169	16144.9
584.529	16331.34
584.889	16607.49
585.249	16794.37
585.609	16831.21
585.969	17203.18
586.329	17339.22
586.688	17536.5
587.048	17856.27
587.408	18082.25
587.768	18256.48
588.127	18489.7
588.487	18730.82
588.846	19066.86
589.206	19145.73
589.565	19559.95
589.925	19897.8
590.284	20118.58
590.643	20441.96
591.003	20628.4
591.362	21076.97
591.721	21238.78
592.08	21552.44
592.44	21811.42
592.799	22139.77
593.158	22339.77
593.517	22678.29
593.876	22907.43
594.235	23217.71
594.593	23522.79
594.952	23884.58
595.311	24195.99
595.67	24435.08
596.029	24860.6
596.387	25258.11
596.746	25554.14
597.104	25626.68
597.463	25998.65
597.822	26318.19
598.18	26605.19
598.538	26760.67
598.897	27288.11
599.255	27370.82
599.613	28112.27
599.972	28126.05
600.33	28500.51
600.688	28498.93
601.046	29072.7
601.404	29373.25
601.762	29579.12
602.12	29980.02
602.478	30291.87
602.836	30550.17
603.194	30642.6
603.552	30921.91
603.91	31165.07
604.268	31568
604.625	31659.29
604.983	32054.31
605.341	32069.91
605.698	32526.39
606.056	32965.93
606.413	33021.52
606.771	33297.22
607.128	33540.83
607.485	33716.42
607.843	33963.87
608.2	34447.24
608.557	34696.28
608.914	34682.27
609.272	35042.26
609.629	35289.93
609.986	35598.4
610.343	35645.4
610.7	35989.35
611.057	36288.33
611.414	36310.02
611.771	36535.32
612.127	36891.02
612.484	37022.54
612.841	37394.51
613.198	37250.33
613.554	37496.2
613.911	37999.47
614.267	37959.92
614.624	38106.81
614.98	38416.63
615.337	38708.83
615.693	38811.2
616.05	38871.53
616.406	39080.12
616.762	39240.34
617.118	39292.31
617.475	39511.97
617.831	39780.66
618.187	39820.21
618.543	39941.79
618.899	40363.47
619.255	40340.42
619.611	40428.33
619.967	40694.31
620.323	40845.72
620.678	40638.04
621.034	40847.3
621.39	40920.97
621.746	40916.68
622.101	41423.11
622.457	41053.4
622.812	41360.73
623.168	41461.97
623.523	41601.86
623.879	41914.62
624.234	41755.07
624.589	41941.28
624.945	41829.87
625.3	42137.44
625.655	42140.6
626.01	42243.88
626.365	42291.33
626.72	42424.89
627.075	42412.91
627.43	42455.62
627.785	42534.04
628.14	42572.45
628.495	42664.66
628.85	42677.08
629.205	42579.46
629.559	42803.63
629.914	42714.37
630.269	42816.97
630.623	42887.7
630.978	42785.78
631.332	43005.66
631.687	43014.25
632.041	43028.26
632.396	43086.79
632.75	42959.56
633.104	43057.87
633.459	42979.67
633.813	43034.81
634.167	42920.24
634.521	42997.75
634.875	43113
635.229	43080.69
635.583	42994.82
635.937	43011.31
636.291	42876.85
636.645	42978.55
636.999	42932.44
637.352	43053.57
637.706	42857.42
638.06	43061.25
638.413	42986
638.767	42785.33
639.121	42915.72
639.474	42777.19
639.828	42666.24
640.181	42820.81
640.534	42953.46
640.888	42848.38
641.241	42687.25
641.594	42802.73
641.947	42708.72
642.301	42874.82
642.654	42898.77
643.007	42805.22
643.36	42792.34
643.713	42677.76
644.066	42947.13
644.419	42799.34
644.771	42496.75
645.124	42145.8
645.477	42156.65
645.83	41784.68
646.182	41711.69
646.535	41718.92
646.888	41602.08
647.24	41461.97
647.593	41795.3
647.945	41583.55
648.298	41566.83
648.65	41391.47
649.002	41363.67
649.355	41534.52
649.707	41535.65
650.059	41663.1
650.411	42079.13
650.763	42108.06
651.115	42433.93
651.467	42429.63
651.819	42228.96
652.171	42301.95
652.523	42205.23
652.875	42149.41
653.227	42109.64
653.578	42414.94
653.93	42345.34
654.282	42127.49
654.633	41988.97
654.985	42113.48
655.337	42249.75
655.688	42198.23
656.039	42316.64
656.391	42087.72
656.742	42099.47
657.094	42179.02
657.445	42261.5
657.796	42211.56
658.147	42010.21
658.498	42164.1
658.849	42119.81
659.2	42031.68
659.551	42048.85
659.902	42130.43
660.253	42083.2
660.604	42113.71
660.955	41999.14
661.306	42037.78
661.656	41925.47
662.007	42056.99
662.358	41990.55
662.708	41953.71
663.059	42063.77
663.409	41697.45
663.76	42013.6
664.11	41834.62
664.461	42034.39
664.811	41906.48
665.161	41953.04
665.511	41836.2
665.862	42033.49
666.212	41878.46
666.562	41884.11
666.912	41982.87
667.262	41770.22
667.612	41729.31
667.962	41955.52
668.312	41791.23
668.662	42112.13
669.011	41987.38
669.361	41861.74
669.711	41865.58
670.06	41799.82
670.41	41785.36
670.76	41660.84
671.109	41929.08
671.459	41682.76
671.808	41777.9
672.157	41934.05
672.507	41444.8
672.856	41543.33
673.205	41628.98
673.554	41694.29
673.904	41585.36
674.253	41726.83
674.602	41676.66
674.951	41106.05
675.3	40967.3
675.649	41477.12
675.998	41480.73
676.346	41519.37
676.695	41584.68
677.044	41369.32
677.393	41529.54
677.741	41411.81
678.09	41392.82
678.438	41330.9
678.787	41307.85
679.135	41315.54
679.484	41235.99
679.832	41340.85
680.181	40974.53
680.529	41226.05
680.877	41139.72
681.225	40963
681.573	41141.98
681.922	41056.34
682.27	40886.17
682.618	40872.39
682.966	40711.49
683.314	40990.8
683.661	40718.94
684.009	40590.81
684.357	40488.89
684.705	40589
685.053	40516.24
685.4	40414.54
685.748	40257.49
686.095	40246.87
686.443	40117.83
686.79	40081.22
687.138	40037.38
687.485	40106.98
687.832	39855.46
688.18	39898.63
688.527	39749.03
688.874	39709.48
689.221	39625.19
689.568	39630.84
689.915	39446.21
690.262	39539.09
690.609	39485.08
690.956	39176.16
691.303	39177.97
691.65	38976.62
691.997	38985.88
692.344	39008.03
692.69	38915.6
693.037	38916.73
693.383	38685.32
693.73	38788.15
694.077	38409.63
694.423	38447.82
694.769	38272.23
695.116	38234.49
695.462	38291.66
695.808	37994.5
696.155	38210.99
696.501	37938.9
696.847	37908.62
697.193	37641.74
697.539	37737.1
697.885	37388.18
698.231	37310.9
698.577	37342.08
698.923	37366.72
699.269	37143.44
699.614	37035.42
699.96	36980.74
700.306	36883.11
700.651	36834.3
700.997	36734.42
701.342	36587.07
701.688	36713.63
702.033	36493.74
702.379	36368.1
702.724	36370.36
703.069	36439.51
703.415	35928.79
703.76	36166.75
704.105	36088.33
704.45	36022.12
704.795	35624.16
705.14	35632.3
705.485	35675.69
705.83	35548.91
706.175	35532.64
706.52	35446.99
706.865	35352.08
707.209	35255.81
707.554	35099.2
707.899	35279.09
708.243	34919.32
708.588	34845.2
708.932	34697.86
709.277	34712.77
709.621	34752.32
709.966	34486.11
710.31	34642.49
710.654	34343.97
710.998	34458.32
711.342	34442.27
711.687	34364.76
712.031	34130.87
712.375	33988.05
712.719	33949.86
713.063	33993.47
713.407	34115.5
713.75	33860.59
714.094	33869.86
714.438	33679.35
714.782	33846.13
715.125	33605.23
715.469	33717.77
715.812	33488.63
716.156	33364.11
716.499	33459.02
716.843	33463.99
717.186	33263.09
717.53	33368.85
717.873	33389.19
718.216	33124.34
718.559	33055.64
718.902	32847.06
719.246	33007.51
719.589	32832.82
719.932	32730.45
720.275	32773.84
720.617	32664.92
720.96	32457.47
721.303	32579.27
721.646	32578.82
721.989	32378.82
722.331	32474.64
722.674	32283.23
723.016	32386.96
723.359	32204.82
723.701	32312.16
724.044	32027.42
724.386	31971.83
724.729	32178.83
725.071	32126.4
725.413	32018.83
725.755	31920.53
726.097	31887.99
726.439	31761.66
726.782	31677.6
727.124	31963.92
727.465	31681.44
727.807	31689.12
728.149	31541.11
728.491	31561.67
728.833	31566.87
729.175	31390.15
729.516	31329.36
729.858	31388.79
730.199	31431.05
730.541	31315.8
730.882	31181.12
731.224	31364.61
731.565	31147.44
731.906	31110.38
732.248	31144.96
732.589	30968.24
732.93	30874.23
733.271	30781.35
733.612	30835.14
733.953	30769.83
734.294	30806.21
734.635	30713.78
734.976	30775.93
735.317	30528.7
735.658	30632.2
735.999	30568.25
736.339	30598.76
736.68	30508.14
737.021	30490.96
737.361	30316.96
737.702	30469.5
738.042	30336.39
738.383	30205.1
738.723	30338.65
739.063	30107.47
739.404	30241.25
739.744	30167.81
740.084	30185.66
740.424	30050.98
740.764	30074.93
741.104	30089.39
741.444	29952.22
741.784	29926.46
742.124	29807.37
742.464	29894.6
742.804	29821.6
743.143	29693.47
743.483	29625.68
743.823	29536.41
744.162	29600.82
744.502	29598.33
744.841	29404.21
745.181	29504.55
745.52	29441.5
745.86	29431.78
746.199	29332.8
746.538	29192.69
746.877	29420.26
747.216	29315.4
747.556	29271.56
747.895	29292.35
748.234	29160.6
748.573	29153.6
748.911	29051.23
749.25	29081.51
749.589	28898.69
749.928	29025.01
750.267	28948.86
750.605	28908.63
750.944	28937.11
751.283	28734.17
751.621	28757.22
751.96	28640.84
752.298	28764.68
752.636	28676.32
752.975	28579.6
753.313	28446.72
753.651	28571.92
753.989	28405.82
754.327	28378.7
754.666	28243.11
755.004	28383.22
755.342	28228.88
755.679	28211.02
756.017	28064.36
756.355	28206.05
756.693	27936.91
757.031	28070.69
757.368	27833.41
757.706	27938.04
758.044	27709.57
758.381	27808.77
758.719	27668.44
759.056	27712.28
759.394	27575.56
759.731	27345.96
760.068	27341.22
760.405	27188.23
760.743	27303.03
761.08	27368.33
761.417	27121.33
761.754	27026.87
762.091	26979.87
762.428	26871.17
762.765	26707.79
763.102	26839.08
763.438	26646.77
763.775	26562.25
764.112	26537.4
764.449	26534.91
764.785	26406.33
765.122	26258.08
765.458	26154.81
765.795	26151.42
766.131	26202.49
766.467	26030.52
766.804	25883.18
767.14	25815.15
767.476	25766.12
767.812	25650.41
768.148	25651.32
768.485	25451.55
768.821	25348.5
769.157	25301.95
769.492	25217.2
769.828	25237.54
770.164	25012.69
770.5	24944.67
770.836	25038.23
771.171	24863.54
771.507	24875.97
771.842	24726.37
772.178	24701.74
772.513	24592.81
772.849	24454.96
773.184	24413.38
773.519	24339.26
773.855	24228.98
774.19	24071.92
774.525	24056.78
774.86	23943.34
775.195	23913.51
775.53	23864.02
775.865	23773.85
776.2	23578.6
776.535	23392.39
776.87	23538.6
777.205	23499.74
777.539	23239.18
777.874	23196.69
778.209	23080.09
778.543	23076.02
778.878	22899.75
779.212	22878.06
779.547	22754.67
779.881	22768.46
780.215	22724.61
780.55	22690.04
780.884	22477.16
781.218	22460.89
781.552	22495.92
781.886	22275.59
782.22	22149.94
782.554	22098.19
782.888	21893.45
783.222	21800.57
783.556	21752.66
783.889	21825.65
784.223	21627.69
784.557	21452.33
784.89	21621.14
785.224	21392.22
785.557	21330.75
785.891	21381.15
786.224	21074.71
786.558	21138.44
786.891	20882.63
787.224	20859.8
787.557	20834.49
787.891	20720.37
788.224	20726.47
788.557	20751.33
788.89	20590.43
789.223	20554.05
789.556	20461.85
789.888	20374.62
790.221	20390.66
790.554	20156.32
790.887	20230.67
791.219	20104.34
791.552	20120.39
791.884	20020.5
792.217	19845.14
792.549	19831.36
792.882	19677.24
793.214	19626.16
793.546	19648.99
793.879	19472.72
794.211	19452.61
794.543	19510.24
794.875	19418.03
795.207	19453.97
795.539	19296.68
795.871	19359.51
796.203	19158.15
796.535	19097.14
796.867	19074.09
797.198	18998.16
797.53	18980.53
797.862	18842.46
798.193	18854.43
798.525	18747.32
798.856	18776.24
799.188	18514.33
799.519	18539.41
799.85	18384.84
800.182	18400.21
800.513	18339.19
800.844	18182.81
801.175	18373.54
801.506	18292.41
801.837	18141.01
802.168	18071.86
802.499	18094.45
802.83	17888.58
803.161	17941.46
803.491	17809.94
803.822	17905.76
804.153	17809.94
804.483	17683.62
804.814	17603.17
805.145	17656.27
805.475	17641.13
805.805	17509.61
806.136	17513.45
806.466	17478.65
806.796	17459.89
807.126	17313.01
807.457	17226
807.787	17313.01
808.117	17135.83
808.447	17082.5
808.777	17162.73
809.107	17069.62
809.436	16975.16
809.766	17003.86
810.096	16914.15
810.426	16754.15
810.755	16855.39
811.085	16716.86
811.414	16705.11
811.744	16564.32
812.073	16624.44
812.403	16550.09
812.732	16460.6
813.061	16466.47
813.39	16438.9
813.719	16339.7
814.049	16550.09
814.378	16340.6
814.707	16224.67
815.036	16219.7
815.365	16160.04
815.693	16115.52
816.022	16125.47
816.351	15955.07
816.68	15871.01
817.008	15951.91
817.337	15807.96
817.665	15735.65
817.994	15859.71
818.322	15793.27
818.651	15703.33
818.979	15642.54
819.307	15779.26
819.636	15660.62
819.964	15633.28
820.292	15647.29
820.62	15630.79
820.948	15509.44
821.276	15604.12
821.604	15532.49
821.932	15551.02
822.259	15549.44
822.587	15490.91
822.915	15476.44
823.243	15493.17
823.57	15467.86
823.898	15477.12
824.225	15441.42
824.553	15406.39
824.88	15465.14
825.207	15445.94
825.535	15362.1
825.862	15479.61
826.189	15369.33
826.516	15474.41
826.843	15483.67
827.17	15491.81
827.497	15490.23
827.824	15448.65
828.151	15577.91
828.478	15418.59
828.805	15496.33
829.131	15422.43
829.458	15465.37
829.785	15276
830.111	15443.22
830.438	15384.69
830.764	15372.27
831.09	15419.04
831.417	15343.57
831.743	15390.8
832.069	15340.4
832.395	15299.95
832.722	15356.45
833.048	15265.6
833.374	15339.5
833.7	15184.93
834.026	15255.66
834.351	15311.25
834.677	15266.96
835.003	15268.09
835.329	15226.51
835.654	15279.84
835.98	15121.65
836.306	15135.89
836.631	15107.64
836.956	15027.19
837.282	15056.79
837.607	15029.9
837.932	14973.63
838.258	15003.24
838.583	14909.45
838.908	14899.51
839.233	14895.44
839.558	14894.76
839.883	14774.31
840.208	14831.04
840.533	14820.64
840.858	14719.4
841.182	14746.29
841.507	14750.59
841.832	14719.4
842.156	14700.87
842.481	14628.56
842.805	14583.81
843.13	14577.26
843.454	14538.61
843.778	14520.31
844.103	14473.31
844.427	14463.36
844.751	14382.46
845.075	14414.32
845.399	14334.33
845.723	14223.59
846.047	14314.21
846.371	14097.95
846.695	14093.88
847.019	14039.87
847.343	14013.88
847.666	13950.38
847.99	13923.04
848.313	13838.97
848.637	13760.1
848.96	13688.69
849.284	13740.9
849.607	13598.3
849.931	13469.04
850.254	13471.98
850.577	13326.22
850.9	13319.21
851.223	13347.01
851.546	13227.91
851.869	13112.44
852.192	13260.91
852.515	13109.5
852.838	13093.68
853.161	13068.82
853.483	12980.46
853.806	12924.87
854.129	12882.39
854.451	12781.15
854.774	12783.63
855.096	12732.56
855.419	12730.07
855.741	12695.27
856.063	12592.45
856.385	12641.94
856.708	12561.49
857.03	12598.55
857.352	12541.15
857.674	12483.3
857.996	12369.18
858.318	12355.17
858.64	12357.43
858.961	12290.54
859.283	12281.5
859.605	12197.66
859.926	12231.78
860.248	12150.66
860.57	12104.78
860.891	12194.72
861.212	12047.83
861.534	12051.67
861.855	11955.18
862.176	11963.32
862.498	11992.92
862.819	11980.49
863.14	11944.56
863.461	11920.15
863.782	11884.45
864.103	11831.79
864.424	11831.12
864.745	11905.69
865.065	11778.91
865.386	11645.58
865.707	11752.25
866.027	11756.09
866.348	11689.2
866.668	11672.25
866.989	11634.96
867.309	11707.5
867.63	11613.49
867.95	11674.74
868.27	11430.45
868.59	11562.42
868.91	11581.18
869.23	11470
869.55	11470.45
869.87	11505.7
870.19	11452.59
870.51	11478.58
870.83	11452.59
871.15	11433.16
871.469	11366.49
871.789	11345.25
872.109	11333.05
872.428	11274.52
872.748	11284.46
873.067	11329.21
873.386	11284.46
873.706	11216.89
874.025	11166.27
874.344	11161.08
874.663	11197.91
874.982	11094.86
875.301	11146.39
875.62	11106.16
875.939	11179.38
876.258	11044.02
876.577	10991.14
876.896	11052.38
877.214	11036.79
877.533	11031.59
877.852	10972.16
878.17	10977.35
878.489	10983.23
878.807	11001.98
879.125	10938.26
879.444	10908.88
879.762	10892.16
880.08	10862.78
880.398	10825.49
880.716	10817.58
881.034	10821.65
881.352	10840.86
881.67	10794.31
881.988	10762.22
882.306	10777.36
882.624	10659.62
882.941	10643.8
883.259	10677.47
883.577	10596.12
883.894	10583.69
884.212	10592.73
884.529	10576.69
884.846	10460.98
885.164	10518.38
885.481	10475.22
885.798	10449.91
886.115	10367.43
886.432	10455.11
886.75	10375.79
887.067	10327.88
887.383	10319.52
887.7	10328.78
888.017	10278.16
888.334	10293.08
888.651	10190.71
888.967	10300.08
889.284	10168.56
889.6	10120.88
889.917	10104.61
890.233	10070.26
890.55	10039.3
890.866	10047.66
891.182	9942.13
891.498	9971.73
891.815	9906.87
892.131	9891.96
892.447	9842.24
892.763	9819.19
893.079	9832.07
893.395	9798.85
893.71	9746.65
894.026	9759.98
894.342	9746.65
894.657	9676.14
894.973	9633.66
895.289	9651.51
895.604	9581.01
895.92	9538.97
896.235	9542.59
896.55	9528.58
896.865	9501.46
897.181	9372.2
897.496	9376.26
897.811	9435.7
898.126	9331.97
898.441	9337.4
898.756	9338.3
899.071	9260.34
899.386	9215.82
899.7	9163.61
900.015	9138.98
900.33	9007.23
900.644	9037.74
900.959	9068.02
901.273	9022.83
901.588	8982.38
901.902	8961.36
902.216	8911.64
902.531	8830.29
902.845	8820.35
903.159	8777.64
903.473	8706.23
903.787	8743.29
904.101	8729.73
904.415	8651.09
904.729	8635.95
905.042	8614.02
905.356	8602.73
905.67	8552.33
905.984	8524.76
906.297	8537.19
906.611	8499.45
906.924	8395.5
907.237	8426.23
907.551	8395.95
907.864	8356.86
908.177	8275.73
908.491	8253.58
908.804	8252.45
909.117	8205.45
909.43	8184.88
909.743	8089.29
910.056	8093.13
910.368	8046.13
910.681	7996.87
910.994	7984.44
911.307	7983.08
911.619	7902.41
911.932	7951.44
912.244	7898.11
912.557	7850.66
912.869	7785.8
913.181	7749.41
913.494	7756.65
913.806	7674.84
914.118	7652.47
914.43	7628.74
914.742	7599.59
915.054	7581.28
915.366	7591.23
915.678	7531.12
915.99	7522.3
916.302	7458.35
916.613	7412.7
916.925	7356.88
917.236	7410.44
917.548	7363.66
917.859	7346.94
918.171	7316.21
918.482	7230.56
918.794	7208.41
919.105	7215.64
919.416	7138.58
919.727	7110.11
920.038	7126.61
920.349	7086.38
920.66	7062.65
920.971	7017.46
921.282	7006.38
921.593	6993.95
921.903	6920.74
922.214	6903.34
922.525	6827.63
922.835	6828.08
923.146	6768.65
923.456	6804.81
923.767	6734.3
924.077	6730.23
924.387	6763.9
924.697	6632.61
925.008	6672.61
925.318	6626.05
925.628	6585.83
925.938	6536.11
926.248	6484.59
926.558	6479.17
926.867	6508.32
927.177	6465.15
927.487	6383.12
927.796	6394.2
928.106	6337.93
928.416	6270.13
928.725	6343.35
929.034	6260.64
929.344	6283.69
929.653	6200.98
929.962	6190.59
930.271	6181.32
930.581	6170.02
930.89	6064.94
931.199	6043.92
931.508	6084.83
931.817	6032.17
932.125	6011.16
932.434	5983.81
932.743	5951.95
933.051	5880.99
933.36	5918.05
933.669	5826.53
933.977	5852.06
934.286	5818.84
934.594	5807.55
934.902	5749.24
935.21	5736.36
935.519	5732.97
935.827	5706.08
936.135	5664.5
936.443	5669.92
936.751	5662.69
937.059	5640.77
937.367	5581.56
937.674	5569.13
937.982	5595.8
938.29	5478.97
938.597	5516.93
938.905	5426.09
939.213	5391.28
939.52	5402.58
939.827	5410.04
940.135	5357.84
940.442	5308.12
940.749	5336.82
941.056	5311.29
941.363	5282.59
941.67	5216.83
941.977	5237.62
942.284	5226.09
942.591	5190.61
942.898	5126.21
943.205	5202.82
943.511	5108.58
943.818	5088.02
944.125	5087.56
944.431	5038.53
944.738	5025.64
945.044	5063.38
945.35	4989.94
945.657	4970.5
945.963	4951.3
946.269	4922.82
946.575	4942.03
946.881	4869.04
947.187	4852.77
947.493	4857.74
947.799	4819.77
948.105	4820.45
948.41	4754.01
948.716	4756.95
949.022	4754.24
949.327	4731.19
949.633	4653.68
949.938	4694.81
950.244	4666.33
950.549	4553.79
950.854	4636.73
951.16	4620.91
951.465	4555.37
951.77	4538.43
952.075	4529.39
952.38	4560.8
952.685	4502.95
952.99	4451.2
953.294	4430.18
953.599	4413.46
953.904	4405.32
954.209	4374.81
954.513	4354.25
954.818	4367.58
955.122	4351.31
955.426	4301.37
955.731	4303.4
956.035	4262.73
956.339	4240.13
956.643	4251.88
956.948	4207.59
957.252	4218.66
957.556	4150.19
957.86	4133.92
958.163	4162.39
958.467	4137.08
958.771	4105.44
959.075	4098.44
959.378	4078.32
959.682	4051.88
959.985	4048.72
960.289	4055.05
960.592	4014.6
960.896	3992
961.199	3958.78
961.502	4005.11
961.805	3952.9
962.108	3934.83
962.411	3923.98
962.714	3870.19
963.017	3894.83
963.32	3882.85
963.623	3867.48
963.926	3843.75
964.228	3805.56
964.531	3790.65
964.833	3780.03
965.136	3724.66
965.438	3749.97
965.741	3737.54
966.043	3745.45
966.345	3714.04
966.648	3726.47
966.95	3655.74
967.252	3657.55
967.554	3639.01
967.856	3591.78
968.158	3609.86
968.46	3595.17
968.761	3611.22
969.063	3563.99
969.365	3551.56
969.666	3488.96
969.968	3485.12
970.269	3484.22
970.571	3486.48
970.872	3476.53
971.174	3450.77
971.475	3439.47
971.776	3443.99
972.077	3417.78
972.378	3409.64
972.679	3354.5
972.98	3388.17
973.281	3366.93
973.582	3316.31
973.883	3290.78
974.183	3299.14
974.484	3264.79
974.785	3268.4
975.085	3249.65
975.386	3227.95
975.686	3247.61
975.986	3236.31
976.287	3187.05
976.587	3168.97
976.887	3159.25
977.187	3136.43
977.487	3154.73
977.787	3124.45
978.087	3116.32
978.387	3114.06
978.687	3090.55
978.987	3089.65
979.286	3049.43
979.586	3041.06
979.885	3017.11
980.185	3011.69
980.484	2955.19
980.784	2986.6
981.083	2986.6
981.382	2975.08
981.682	2969.65
981.981	2926.72
982.28	2904.34
982.579	2894.63
982.878	2878.81
983.177	2874.06
983.475	2871.58
983.774	2870
984.073	2844.91
984.372	2826.15
984.67	2817.79
984.969	2821.63
985.267	2829.77
985.566	2775.53
985.864	2813.05
986.162	2747.29
986.461	2744.57
986.759	2748.19
987.057	2741.64
987.355	2693.5
987.653	2700.28
987.951	2726.27
988.249	2683.11
988.547	2671.36
988.844	2649.66
989.142	2618.25
989.44	2598.36
989.737	2600.62
990.035	2580.29
990.332	2609.44
990.63	2588.19
990.927	2576.9
991.224	2547.97
991.521	2571.92
991.819	2532.83
992.116	2510.46
992.413	2485.37
992.71	2515.88
993.006	2462.55
993.303	2507.29
993.6	2479.72
993.897	2487.18
994.193	2439.72
994.49	2459.61
994.787	2425.71
995.083	2389.56
995.379	2414.19
995.676	2383.45
995.972	2363.12
996.268	2341.42
996.565	2350.23
996.861	2315.66
997.157	2331.03
997.453	2303
997.749	2329.9
998.044	2288.32
998.34	2296.22
998.636	2303.68
998.932	2264.59
999.227	2239.73
999.523	2227.3
999.818	2232.95
1000.114	2235.89
1000.409	2213.06
1000.704	2171.03
1001	2185.95
1001.295	2158.6
1001.59	2167.19
1001.885	2129.9
1002.18	2127.19
1002.475	2073.86
1002.77	2060.52
1003.065	2071.15
1003.359	2076.8
1003.654	2093.97
1003.949	2068.89
1004.243	2053.07
1004.538	2044.93
1004.832	2021.66
1005.127	2019.85
1005.421	2002.9
1005.715	1979.17
1006.009	1947.53
1006.304	1994.54
1006.598	1983.46
1006.892	1983.92
1007.186	1920.42
1007.48	1905.27
1007.773	1910.7
1008.067	1919.74
1008.361	1887.87
1008.655	1922.45
1008.948	1870.93
1009.242	1881.32
1009.535	1896.46
1009.829	1889.46
1010.122	1841.32
1010.415	1818.27
1010.708	1798.61
1011.001	1807.65
1011.295	1787.76
1011.588	1772.4
1011.881	1784.83
1012.173	1756.35
1012.466	1718.84
1012.759	1746.18
1013.052	1736.69
1013.344	1706.41
1013.637	1740.08
1013.93	1691.72
1014.222	1680.42
1014.514	1683.36
1014.807	1667.99
1015.099	1662.34
1015.391	1681.33
1015.683	1616.47
1015.976	1607.88
1016.268	1632.97
1016.56	1602.46
1016.851	1624.83
1017.143	1567.43
1017.435	1590.25
1017.727	1577.6
1018.018	1558.84
1018.31	1536.47
1018.602	1557.26
1018.893	1550.03
1019.185	1524.72
1019.476	1520.2
1019.767	1502.12
1020.058	1485.4
1020.35	1504.83
1020.641	1474.55
1020.932	1453.31
1021.223	1454.21
1021.514	1459.86
1021.804	1434.33
1022.095	1432.74
1022.386	1420.77
1022.677	1411.05
1022.967	1401.56
1023.258	1385.06
1023.548	1382.58
1023.839	1345.06
1024.129	1368.34
1024.419	1332.41
1024.709	1355.91
1025	1345.52
1025.29	1327.21
1025.58	1303.93
1025.87	1326.08
1026.16	1300.77
1026.449	1299.87
1026.739	1277.72
1027.029	1298.96
1027.319	1264.16
1027.608	1257.38
1027.898	1263.03
1028.187	1228.46
1028.477	1235.01
1028.766	1228.23
1029.055	1229.59
1029.344	1211.73
1029.634	1207.21
1029.923	1181
1030.212	1188.68
1030.501	1177.84
1030.79	1168.34
1031.078	1166.09
1031.367	1150.94
1031.656	1167.22
1031.945	1143.03
1032.233	1144.39
1032.522	1133.32
1032.81	1115.92
1033.099	1104.62
1033.387	1121.34
1033.675	1116.37
1033.963	1104.17
1034.251	1098.52
1034.54	1082.92
1034.828	1062.81
1035.116	1094.22
1035.403	1067.33
1035.691	1051.51
1035.979	1073.66
1036.267	1020.78
1036.554	1014.22
1036.842	1027.78
1037.129	999.76
1037.417	979.88
1037.704	1018.97
1037.992	998.63
1038.279	1004.73
1038.566	975.13
1038.853	975.13
1039.14	975.13
