Data from hue_10_FLMS001491_96.txt Node
Date: Mon Feb 06 15:32:50 GMT 2017
User: dcchb
Spectrometer: FLMS00149
Trigger mode: 0
Integration Time (sec): 2.000000E-2
Scans to average: 10
Electric dark correction enabled: true
Nonlinearity correction enabled: false
Boxcar width: 0
XAxis mode: Wavelengths
Number of Pixels in Spectrum: 2048
>>>>>Begin Spectral Data<<<<<
341.393	2.64
341.776	2.64
342.16	2.64
342.543	-63.12
342.927	-90.46
343.31	-59.28
343.693	-76.68
344.077	-79.84
344.46	-53.4
344.843	-61.31
345.226	-34.87
345.61	-31.71
345.993	-29.67
346.376	11.45
346.759	13.04
347.142	23.21
347.525	35.41
347.908	57.1
348.291	86.03
348.674	97.1
349.057	103.43
349.44	135.29
349.823	145.46
350.206	159.93
350.588	196.53
350.971	177.33
351.354	218
351.737	244.89
352.119	251.67
352.502	255.06
352.884	280.6
353.267	286.93
353.65	267.27
354.032	301.84
354.414	299.58
354.797	319.24
355.179	324.44
355.562	306.36
355.944	322.63
356.326	317.89
356.709	311.33
357.091	344.1
357.473	355.4
357.855	337.1
358.238	361.5
358.62	343.42
359.002	346.36
359.384	360.37
359.766	347.72
360.148	343.42
360.53	339.58
360.912	313.14
361.294	335.74
361.676	333.48
362.057	352.01
362.439	327.15
362.821	328.96
363.203	327.15
363.584	323.99
363.966	312.69
364.348	317.89
364.729	325.57
365.111	316.76
365.493	327.38
365.874	305.91
366.256	323.08
366.637	321.95
367.019	319.24
367.4	313.82
367.781	326.93
368.163	297.55
368.544	313.82
368.925	304.1
369.306	320.6
369.688	284.22
370.069	314.72
370.45	311.33
370.831	342.52
371.212	305.01
371.593	320.37
371.974	300.03
372.355	314.5
372.736	328.73
373.117	319.69
373.498	309.07
373.879	300.03
374.26	323.31
374.641	318.57
375.021	320.82
375.402	320.6
375.783	306.14
376.163	323.54
376.544	304.1
376.925	330.77
377.305	321.95
377.686	317.66
378.066	319.69
378.447	334.16
378.827	332.35
379.208	322.63
379.588	320.6
379.968	320.37
380.349	321.28
380.729	318.11
381.109	330.09
381.489	332.8
381.87	319.92
382.25	325.57
382.63	322.18
383.01	335.74
383.39	349.3
383.77	353.37
384.15	345.01
384.53	325.34
384.91	348.17
385.29	340.03
385.67	350.43
386.049	352.91
386.429	356.3
386.809	356.53
387.189	368.96
387.568	359.92
387.948	336.64
388.328	350.43
388.707	335.74
389.087	360.37
389.466	377.09
389.846	357.21
390.225	350.65
390.605	363.31
390.984	360.37
391.363	349.75
391.743	360.37
392.122	361.05
392.501	348.17
392.881	359.24
393.26	361.73
393.639	370.54
394.018	343.65
394.397	384.78
394.776	384.1
395.155	365.34
395.534	346.81
395.913	380.48
396.292	385.46
396.671	389.52
397.05	393.82
397.429	363.08
397.808	394.5
398.186	381.16
398.565	373.48
398.944	390.65
399.323	390.88
399.701	392.69
400.08	389.75
400.458	392.91
400.837	403.31
401.215	396.08
401.594	401.5
401.972	385.23
402.351	377.55
402.729	385
403.107	394.95
403.486	391.33
403.864	409.86
404.242	405.34
404.62	394.72
404.999	417.77
405.377	403.76
405.755	404.21
406.133	400.82
406.511	421.16
406.889	413.93
407.267	404.66
407.645	415.51
408.023	433.14
408.401	407.6
408.779	416.87
409.156	426.81
409.534	439.24
409.912	427.94
410.29	435.17
410.667	446.92
411.045	450.76
411.422	454.38
411.8	438.11
412.178	436.08
412.555	442.86
412.933	454.83
413.31	447.15
413.687	478.79
414.065	441.5
414.442	476.53
414.819	442.18
415.197	462.97
415.574	467.94
415.951	466.58
416.328	484.66
416.705	484.66
417.082	487.15
417.46	468.62
417.837	487.6
418.214	479.24
418.591	475.17
418.967	502.52
419.344	482.4
419.721	483.76
420.098	504.1
420.475	514.94
420.852	493.7
421.228	493.48
421.605	500.48
421.982	509.07
422.358	511.33
422.735	540.03
423.111	521.05
423.488	523.98
423.864	526.92
424.241	531.89
424.617	549.97
424.994	527.83
425.37	530.76
425.746	558.78
426.123	554.27
426.499	538.9
426.875	536.19
427.251	563.98
427.627	551.33
428.003	559.46
428.379	561.5
428.756	552.68
429.132	568.95
429.507	567.82
429.883	580.71
430.259	586.13
430.635	568.73
431.011	569.18
431.387	590.87
431.763	604.21
432.138	620.03
432.514	594.26
432.89	613.47
433.265	641.72
433.641	638.78
434.016	622.96
434.392	619.35
434.767	630.87
435.143	622.74
435.518	653.25
435.894	658.67
436.269	630.2
436.644	650.99
437.02	652.12
437.395	656.18
437.77	653.92
438.145	664.32
438.52	667.93
438.895	680.59
439.271	712.9
439.646	700.7
440.021	683.08
440.395	691.66
440.77	691.21
441.145	717.88
441.52	719.91
441.895	725.56
442.27	704.54
442.645	708.39
443.019	727.82
443.394	722.85
443.769	738.44
444.143	723.75
444.518	724.2
444.892	752.9
445.267	757.2
445.641	771.66
446.016	750.87
446.39	752.45
446.764	756.97
447.139	773.69
447.513	775.28
447.887	758.55
448.262	782.06
448.636	761.04
449.01	787.71
449.384	776.41
449.758	796.07
450.132	789.06
450.506	812.79
450.88	815.05
451.254	822.51
451.628	810.98
452.002	815.95
452.376	798.1
452.75	849.62
453.123	823.41
453.497	864.54
453.871	834.71
454.244	855.73
454.618	867.48
454.992	872
455.365	863.86
455.739	898.66
456.112	904.99
456.486	912.22
456.859	934.82
457.232	941.15
457.606	911.32
457.979	945.22
458.352	949.51
458.725	948.83
459.099	968.49
459.472	971.66
459.845	976.63
460.218	982.5
460.591	975.72
460.964	1004.42
461.337	1021.15
461.71	1030.86
462.083	1029.51
462.456	1042.39
462.829	1057.75
463.201	1053.24
463.574	1073.35
463.947	1070.18
464.32	1065.21
464.692	1126.68
465.065	1139.33
465.438	1157.87
465.81	1117.64
466.183	1143.85
466.555	1182.95
466.928	1173.68
467.3	1168.03
467.672	1177.75
468.045	1201.93
468.417	1230.63
468.789	1234.7
469.161	1211.87
469.534	1249.84
469.906	1305.66
470.278	1301.82
470.65	1294.81
471.022	1322.15
471.394	1325.32
471.766	1356.96
472.138	1382.72
472.51	1377.75
472.882	1417.29
473.253	1419.1
473.625	1462.49
473.997	1513.56
474.369	1475.14
474.74	1499.32
475.112	1519.44
475.484	1564.86
475.855	1582.49
476.227	1589.72
476.598	1642.15
476.97	1676.27
477.341	1706.55
477.713	1734.35
478.084	1718.3
478.455	1783.39
478.827	1814.34
479.198	1831.52
479.569	1864.29
479.94	1875.36
480.311	1921.23
480.682	1954.23
481.053	2024.51
481.424	2026.32
481.795	2100.89
482.166	2076.26
482.537	2155.35
482.908	2180.89
483.279	2179.31
483.65	2235.12
484.021	2257.95
484.391	2302.92
484.762	2385.4
485.133	2367.1
485.503	2418.62
485.874	2460.43
486.244	2483.48
486.615	2537.26
486.985	2589.24
487.356	2622.46
487.726	2673.76
488.097	2708.56
488.467	2727.32
488.837	2779.97
489.207	2825.62
489.578	2888.67
489.948	2934.32
490.318	2910.81
490.688	2937.93
491.058	3001.88
491.428	3051.6
491.798	3054.09
492.168	3146.74
492.538	3149
492.908	3189.68
493.278	3224.48
493.648	3269
494.017	3289.79
494.387	3303.12
494.757	3366.85
495.126	3391.48
495.496	3380.86
495.866	3474.64
496.235	3462.44
496.605	3523.45
496.974	3532.94
497.344	3571.81
497.713	3622.88
498.082	3652.49
498.452	3643.45
498.821	3675.31
499.19	3685.03
499.559	3715.76
499.928	3737.68
500.298	3797.12
500.667	3848.19
501.036	3854.74
501.405	3876.89
501.774	3844.12
502.143	3894.74
502.512	3921.63
502.88	3908.75
503.249	3956.89
503.618	3975.42
503.987	3991.01
504.356	3972.71
504.724	4030.78
505.093	4085.7
505.462	4035.53
505.83	4101.97
506.199	4143.32
506.567	4172.7
506.936	4177.45
507.304	4167.5
507.672	4212.7
508.041	4238.01
508.409	4247.95
508.777	4296.77
509.145	4299.93
509.514	4301.06
509.882	4368.18
510.25	4369.31
510.618	4332.47
510.986	4352.36
511.354	4410.43
511.722	4436.87
512.09	4453.6
512.458	4448.63
512.826	4471.45
513.193	4536.99
513.561	4539.02
513.929	4553.26
514.297	4578.11
514.664	4627.83
515.032	4601.84
515.4	4640.49
515.767	4677.55
516.135	4672.8
516.502	4638.9
516.869	4723.87
517.237	4730.2
517.604	4744.44
517.972	4748.73
518.339	4755.28
518.706	4787.37
519.073	4842.29
519.44	4808.39
519.808	4894.72
520.175	4907.37
520.542	4933.81
520.909	4901.72
521.276	4968.16
521.643	4947.14
522.009	4999.12
522.376	5000.93
522.743	4980.82
523.11	5079.8
523.477	5112.11
523.843	5130.19
524.21	5202.5
524.577	5199.57
524.943	5219.45
525.31	5235.5
525.676	5283.18
526.043	5335.83
526.409	5298.55
526.776	5396.4
527.142	5335.83
527.508	5405.21
527.874	5428.26
528.241	5449.28
528.607	5398.88
528.973	5555.26
529.339	5562.95
529.705	5578.31
530.071	5578.31
530.437	5611.31
530.803	5592.32
531.169	5682.72
531.535	5696.5
531.901	5684.53
532.267	5744.64
532.632	5769.95
532.998	5795.71
533.364	5829.38
533.73	5852.88
534.095	5876.61
534.461	5894.69
534.826	5912.32
535.192	5964.07
535.557	5972.65
535.923	5997.29
536.288	5992.54
536.653	6043.16
537.019	6026.44
537.384	6082.71
537.749	6111.86
538.114	6112.31
538.479	6155.7
538.845	6190.95
539.21	6125.42
539.575	6226.88
539.94	6213.55
540.305	6273.21
540.67	6224.62
541.034	6331.06
541.399	6327.67
541.764	6341.68
542.129	6391.63
542.494	6381.46
542.858	6350.27
543.223	6374.23
543.587	6488.12
543.952	6457.16
544.316	6518.63
544.681	6526.31
545.045	6550.04
545.41	6646.31
545.774	6617.16
546.138	6634.33
546.503	6695.57
546.867	6644.73
547.231	6686.76
547.595	6770.15
547.959	6764.05
548.324	6804.72
548.688	6818.73
549.052	6786.19
549.416	6852.4
549.779	6896.92
550.143	6878.84
550.507	6919.97
550.871	6969.69
551.235	6957.26
551.599	7032.51
551.962	7057.6
552.326	7041.33
552.689	7059.86
553.053	7066.64
553.417	7124.49
553.78	7144.6
554.143	7140.31
554.507	7151.83
554.87	7129.69
555.234	7228.21
555.597	7231.38
555.96	7266.18
556.323	7331.71
556.686	7331.49
557.05	7313.64
557.413	7415.1
557.776	7378.27
558.139	7423.46
558.502	7434.99
558.865	7507.53
559.228	7464.37
559.59	7489.45
559.953	7502.78
560.316	7563.57
560.679	7608.54
561.041	7639.95
561.404	7658.49
561.767	7690.35
562.129	7754.75
562.492	7805.15
562.854	7741.19
563.217	7775.77
563.579	7796.79
563.941	7804.02
564.304	7838.37
564.666	7914.98
565.028	7925.6
565.39	7964.24
565.753	7984.58
566.115	7994.75
566.477	8044.01
566.839	8083.78
567.201	8059.6
567.563	8152.26
567.925	8144.57
568.287	8244.01
568.648	8228.19
569.01	8234.06
569.372	8290.33
569.734	8278.58
570.095	8347.73
570.457	8404
570.819	8446.49
571.18	8417.11
571.542	8536.43
571.903	8462.98
572.265	8540.5
572.626	8562.19
572.987	8652.36
573.349	8659.81
573.71	8738.23
574.071	8768.96
574.432	8822.52
574.794	8941.84
575.155	8911.11
575.516	8933.25
575.877	8991.56
576.238	9047.83
576.599	9148.16
576.96	9165.34
577.32	9299.8
577.681	9354.03
578.042	9457.99
578.403	9435.39
578.763	9570.07
579.124	9664.99
579.485	9781.37
579.845	9942.04
580.206	9893.91
580.566	9973.45
580.927	10166.44
581.287	10273.11
581.648	10305.87
582.008	10471.07
582.368	10565.98
582.728	10745.18
583.089	10850.94
583.449	11022.46
583.809	11131.39
584.169	11276.7
584.529	11400.08
584.889	11622.9
585.249	11716.91
585.609	11754.42
585.969	12105.6
586.329	12223.79
586.688	12469.66
587.048	12664.46
587.408	12845.47
587.768	13010.21
588.127	13278.45
588.487	13411.1
588.846	13673.92
589.206	13837.76
589.565	14120.46
589.925	14257.18
590.284	14590.73
590.643	14770.16
591.003	15119.76
591.362	15323.37
591.721	15564.49
592.08	15803.36
592.44	16069.79
592.799	16394.75
593.158	16547.29
593.517	16818.02
593.876	17158.8
594.235	17326.71
594.593	17752
594.952	18012.79
595.311	18138.89
595.67	18407.13
596.029	18876.95
596.387	19138.18
596.746	19467.21
597.104	19553.09
597.463	19788.56
597.822	20252.28
598.18	20513.74
598.538	20755.32
598.897	21106.95
599.255	21328.18
599.613	21679.59
599.972	21831.45
600.33	22202.06
600.688	22386.23
601.046	22731.99
601.404	23155.7
601.762	23319.77
602.12	23674.11
602.478	23935.8
602.836	24187.99
603.194	24368.55
603.552	24670.69
603.91	24815.55
604.268	25238.59
604.625	25375.76
604.983	25718.58
605.341	25758.35
605.698	26241.95
606.056	26424.32
606.413	26762.62
606.771	27024.76
607.128	27193.34
607.485	27288.25
607.843	27543.16
608.2	27937.5
608.557	28194.22
608.914	28303.59
609.272	28704.26
609.629	28855.89
609.986	29119.39
610.343	29165.26
610.7	29594.18
611.057	29758.47
611.414	29870.78
611.771	30078.46
612.127	30333.6
612.484	30493.59
612.841	30788.72
613.198	30912.56
613.554	31189.39
613.911	31237.75
614.267	31462.6
614.624	31623.96
614.98	31809.49
615.337	32111.18
615.693	32103.49
616.05	32200.89
616.406	32613.54
616.762	32659.18
617.118	32618.96
617.475	32938.72
617.831	33183.24
618.187	33214.42
618.543	33432.04
618.899	33651.93
619.255	33721.53
619.611	33795.42
619.967	34088.75
620.323	34244.9
620.678	34148.86
621.034	34180.73
621.39	34388.86
621.746	34447.61
622.101	34897.09
622.457	34827.26
622.812	34822.52
623.168	35021.83
623.523	35016.86
623.879	35283.52
624.234	35112
624.589	35404.42
624.945	35438.55
625.3	35671.08
625.655	35621.82
626.01	35796.28
626.365	35833.79
626.72	35962.83
627.075	35934.8
627.43	35964.63
627.785	35964.41
628.14	36135.93
628.495	36233.1
628.85	36186.77
629.205	36108.58
629.559	36458.63
629.914	36230.84
630.269	36287.34
630.623	36311.07
630.978	36252.54
631.332	36434
631.687	36686.42
632.041	36470.61
632.396	36623.83
632.75	36554.9
633.104	36617.27
633.459	36352.87
633.813	36457.05
634.167	36515.58
634.521	36464.73
634.875	36633.77
635.229	36565.97
635.583	36520.33
635.937	36562.58
636.291	36465.86
636.645	36671.06
636.999	36527.56
637.352	36752.86
637.706	36424.96
638.06	36637.38
638.413	36561.45
638.767	36387.22
639.121	36601.68
639.474	36494.11
639.828	36506.31
640.181	36619.53
640.534	36625.41
640.888	36428.12
641.241	36466.54
641.594	36447.56
641.947	36545.41
642.301	36500.89
642.654	36570.72
643.007	36580.89
643.36	36549.93
643.713	36507.22
644.066	36545.18
644.419	36364.4
644.771	36155.59
645.124	35864.75
645.477	35659.78
645.83	35605.32
646.182	35532.78
646.535	35478.09
646.888	35430.86
647.24	35353.12
647.593	35608.71
647.945	35515.15
648.298	35233.58
648.65	35194.03
649.002	35138.21
649.355	35409.85
649.707	35329.85
650.059	35511.31
650.411	35814.81
650.763	35751.53
651.115	36247.34
651.467	36089.15
651.819	36155.36
652.171	36090.96
652.523	36038.76
652.875	36021.81
653.227	35932.09
653.578	36034.01
653.93	35828.82
654.282	35845.77
654.633	35994.92
654.985	35751.98
655.337	35897.74
655.688	35794.92
656.039	35994.69
656.391	35714.47
656.742	35701.59
657.094	35730.97
657.445	35996.5
657.796	35826.11
658.147	35834.02
658.498	35731.87
658.849	35876.27
659.2	35733.23
659.551	35717.63
659.902	35829.04
660.253	35756.5
660.604	35686.9
660.955	35523.74
661.306	35790.4
661.656	35652.33
662.007	35763.51
662.358	35733.45
662.708	35683.06
663.059	35711.53
663.409	35481.71
663.76	35724.64
664.11	35682.38
664.461	35711.76
664.811	35751.98
665.161	35704.75
665.511	35609.61
665.862	35739.1
666.212	35700.01
666.562	35641.03
666.912	35641.03
667.262	35599.67
667.612	35620.91
667.962	35664.75
668.312	35590.86
668.662	35704.98
669.011	35828.59
669.361	35561.71
669.711	35667.01
670.06	35410.98
670.41	35521.26
670.76	35545.66
671.109	35527.13
671.459	35446.23
671.808	35489.39
672.157	35498.21
672.507	35243.07
672.856	35278.32
673.205	35374.37
673.554	35393.12
673.904	35139.12
674.253	35480.35
674.602	35514.93
674.951	34941.38
675.3	34674.95
675.649	35299.11
675.998	35174.37
676.346	35221.15
676.695	35278.32
677.044	35026.58
677.393	35173.24
677.741	35284.43
678.09	35012.12
678.438	35114.26
678.787	35217.99
679.135	35237.42
679.484	35017.09
679.832	35119.01
680.181	34726.02
680.529	35017.77
680.877	34869.07
681.225	34931.89
681.573	35031.32
681.922	34735.51
682.27	34731.45
682.618	34738.23
682.966	34510.21
683.314	34682.18
683.661	34498.23
684.009	34247.84
684.357	34298.69
684.705	34225.47
685.053	34182.08
685.4	34244.68
685.748	34124.68
686.095	34086.94
686.443	34018.92
686.79	34039.49
687.138	33907.29
687.485	33926.27
687.832	33907.96
688.18	33835.65
688.527	33692.6
688.874	33731.25
689.221	33599.5
689.568	33494.87
689.915	33568.99
690.262	33522.89
690.609	33346.17
690.956	33112.73
691.303	33276.34
691.65	33043.81
691.997	33081.77
692.344	32874.77
692.69	32795.68
693.037	32850.37
693.383	32567.66
693.73	32985.95
694.077	32662.8
694.423	32604.5
694.769	32512.75
695.116	32352.07
695.462	32431.17
695.808	32265.52
696.155	32343.49
696.501	32014
696.847	32021.01
697.193	31726.78
697.539	31896.94
697.885	31635.93
698.231	31697.18
698.577	31664.41
698.923	31584.86
699.269	31462.15
699.614	31202.05
699.96	31238.66
700.306	31266.9
700.651	31087.93
700.997	30963.86
701.342	30996.18
701.688	30895.84
702.033	30823.75
702.379	30668.05
702.724	30645.23
703.069	30751.89
703.415	30372.92
703.76	30422.63
704.105	30428.51
704.45	30411.33
704.795	30218.57
705.14	30154.16
705.485	30047.5
705.83	29967.28
706.175	29924.34
706.52	29788.98
706.865	29796.66
707.209	29812.93
707.554	29724.35
707.899	29712.59
708.243	29556.89
708.588	29523.67
708.932	29160.29
709.277	29371.36
709.621	29285.49
709.966	29087.98
710.31	29035.78
710.654	28936.12
710.998	28962.33
711.342	28913.29
711.687	28805.73
712.031	28802.34
712.375	28684.15
712.719	28819.96
713.063	28691.6
713.407	28742.22
713.75	28564.83
714.094	28508.56
714.438	28498.39
714.782	28546.3
715.125	28362.57
715.469	28390.6
715.812	28216.36
716.156	28022.24
716.499	28119.42
716.843	28164.84
717.186	27979.31
717.53	28134.78
717.873	28097.95
718.216	27906.54
718.559	27804.85
718.902	27614.57
719.246	27723.72
719.589	27663.38
719.932	27584.74
720.275	27574.57
720.617	27462.71
720.96	27487.79
721.303	27406.44
721.646	27387.68
721.989	27257.74
722.331	27390.4
722.674	27185.2
723.016	27300.23
723.359	27120.12
723.701	27275.14
724.044	26984.98
724.386	26807.81
724.729	27116.96
725.071	26948.37
725.413	26960.58
725.755	26904.08
726.097	26753.12
726.439	26785.44
726.782	26719.9
727.124	26780.24
727.465	26622.96
727.807	26529.4
728.149	26551.1
728.491	26615.95
728.833	26546.58
729.175	26342.74
729.516	26387.94
729.858	26375.96
730.199	26360.82
730.541	26303.87
730.882	26276.3
731.224	26335.96
731.565	26142.74
731.906	26204.89
732.248	26157.89
732.589	25913.82
732.93	25980.26
733.271	25970.32
733.612	25921.51
733.953	25942.52
734.294	25893.71
734.635	25789.99
734.976	25908.17
735.317	25641.97
735.658	25804.45
735.999	25674.06
736.339	25648.97
736.68	25808.06
737.021	25528.07
737.361	25524.91
737.702	25633.15
738.042	25475.42
738.383	25500.5
738.723	25423.89
739.063	25393.84
739.404	25421.18
739.744	25362.88
740.084	25184.58
740.424	25275.65
740.764	25230
741.104	25316.33
741.444	25078.82
741.784	25155.65
742.124	25139.16
742.464	25140.06
742.804	25018.03
743.143	25089.89
743.483	24902.78
743.823	24885.83
744.162	24863.46
744.502	24960.63
744.841	24735.78
745.181	24829.56
745.52	24711.37
745.86	24856.68
746.199	24699.84
746.538	24667.98
746.877	24766.06
747.216	24730.13
747.556	24557.93
747.895	24658.26
748.234	24450.36
748.573	24495.33
748.911	24525.16
749.25	24349.35
749.589	24326.97
749.928	24315.45
750.267	24415.78
750.605	24274.09
750.944	24186.41
751.283	24246.75
751.621	24251.04
751.96	24030.94
752.298	24117.26
752.636	24082.91
752.975	24103.48
753.313	23887.44
753.651	24082.91
753.989	23936.02
754.327	23795.69
754.666	23738.51
755.004	23793.88
755.342	23771.28
755.679	23633.21
756.017	23624.39
756.355	23628.46
756.693	23444.51
757.031	23552.08
757.368	23474.11
757.706	23422.59
758.044	23367.9
758.381	23325.19
758.719	23296.94
759.056	23197.06
759.394	23174.46
759.731	23090.62
760.068	23062.83
760.405	23000.23
760.743	22887.24
761.08	22884.3
761.417	22852.44
761.754	22777.64
762.091	22657.86
762.428	22660.8
762.765	22541.71
763.102	22595.04
763.438	22425.1
763.775	22240.25
764.112	22400.02
764.449	22313.02
764.785	22292
765.122	22076.41
765.458	21988.28
765.795	22019.46
766.131	21951.44
766.467	21880.03
766.804	21784.44
767.14	21670.55
767.476	21753.48
767.812	21699.47
768.148	21639.13
768.485	21448.4
768.821	21340.39
769.157	21329.31
769.492	21332.7
769.828	21317.79
770.164	21087.28
770.5	21004.57
770.836	21068.98
771.171	20986.04
771.507	20879.15
771.842	20719.38
772.178	20748.54
772.513	20642.55
772.849	20519.39
773.184	20479.39
773.519	20457.02
773.855	20470.13
774.19	20345.61
774.525	20134.77
774.86	20215.9
775.195	20180.19
775.53	20047.09
775.865	19943.81
776.2	19777.26
776.535	19672.86
776.87	19713.31
777.205	19626.53
777.539	19546.31
777.874	19579.08
778.209	19505.18
778.543	19383.83
778.878	19196.49
779.212	19235.81
779.547	19118.3
779.881	19140.44
780.215	19060.45
780.55	19060.9
780.884	18897.74
781.218	18855.48
781.552	18841.02
781.886	18806.67
782.22	18759.44
782.554	18586.11
782.888	18460.91
783.222	18373.23
783.556	18207.59
783.889	18266.57
784.223	18157.64
784.557	18128.94
784.89	18105.22
785.224	17986.8
785.557	17958.55
785.891	17886.69
786.224	17849.63
786.558	17825
786.891	17702.74
787.224	17545.23
787.557	17470.66
787.891	17486.93
788.224	17477.89
788.557	17479.92
788.89	17297.33
789.223	17366.93
789.556	17145.47
789.888	17252.36
790.221	17139.37
790.554	16923.1
790.887	17077.22
791.219	16977.11
791.552	16895.76
791.884	16860.5
792.217	16766.49
792.549	16677.91
792.882	16589.78
793.214	16620.74
793.546	16518.59
793.879	16532.15
794.211	16384.58
794.543	16382.55
794.875	16296.45
795.207	16416.9
795.539	16223.68
795.871	16250.58
796.203	16010.58
796.535	16010.58
796.867	16020.3
797.198	16021.43
797.53	16011.49
797.862	15858.5
798.193	15887.65
798.525	15704.83
798.856	15869.12
799.188	15645.39
799.519	15602.23
799.85	15558.84
800.182	15484.27
800.513	15524.27
800.844	15310.49
801.175	15406.3
801.506	15358.85
801.837	15283.14
802.168	15241.34
802.499	15201.56
802.83	15165.86
803.161	15113.43
803.491	15115.92
803.822	15064.17
804.153	14967.9
804.483	14828.92
804.814	14795.92
805.145	14817.17
805.475	14743.5
805.805	14690.84
806.136	14730.16
806.466	14605.65
806.796	14603.39
807.126	14602.26
807.457	14522.26
807.787	14469.83
808.117	14425.99
808.447	14315.71
808.777	14378.76
809.107	14292.21
809.436	14329.95
809.766	14256.73
810.096	14262.38
810.426	14108.48
810.755	14282.27
811.085	14104.42
811.414	14020.8
811.744	13964.76
812.073	13942.84
812.403	13898.55
812.732	13827.36
813.061	13943.74
813.39	13805.89
813.719	13758.66
814.049	13795.95
814.378	13750.08
814.707	13717.76
815.036	13626.46
815.365	13601.83
815.693	13458.11
816.022	13571.78
816.351	13474.38
816.68	13344.44
817.008	13412.91
817.337	13336.98
817.665	13336.98
817.994	13339.92
818.322	13279.81
818.651	13281.84
818.979	13175.85
819.307	13257.21
819.636	13237.77
819.964	13055.86
820.292	13163.88
820.62	13119.13
820.948	13078.46
821.276	13173.37
821.604	13093.6
821.932	13077.33
822.259	13083.43
822.587	13053.6
822.915	13017.21
823.243	13052.69
823.57	13072.58
823.898	12957.1
824.225	13013.6
824.553	13075.29
824.88	12996.42
825.207	13071.9
825.535	12917.33
825.862	13009.76
826.189	12864.22
826.516	13064.44
826.843	13084.11
827.17	13034.39
827.497	13087.72
827.824	12981.51
828.151	12991.23
828.478	12987.61
828.805	12977.89
829.131	12942.19
829.458	13001.62
829.785	12962.98
830.111	12895.41
830.438	13051.79
830.764	12971.79
831.09	12957.33
831.417	12935.86
831.743	12983.99
832.069	12944.67
832.395	12983.09
832.722	12948.52
833.048	12879.36
833.374	12946.26
833.7	12877.56
834.026	12903.77
834.351	12851.34
834.677	12880.72
835.003	12859.7
835.329	12817.45
835.654	12714.4
835.98	12727.28
836.306	12772.7
836.631	12675.75
836.956	12700.16
837.282	12682.31
837.607	12607.96
837.932	12609.54
838.258	12599.37
838.583	12575.19
838.908	12582.65
839.233	12538.81
839.558	12589.2
839.883	12454.07
840.208	12473.5
840.533	12432.37
840.858	12447.96
841.182	12469.21
841.507	12385.59
841.832	12360.28
842.156	12318.48
842.481	12342.2
842.805	12341.75
843.13	12306.5
843.454	12248.19
843.778	12205.03
844.103	12174.07
844.427	12134.3
844.751	12155.99
845.075	12026.51
845.399	12058.14
845.723	12054.53
846.047	12018.82
846.371	11922.78
846.695	11868.09
847.019	11860.63
847.343	11800.52
847.666	11727.98
847.99	11667.19
848.313	11659.06
848.637	11598.95
848.96	11560.76
849.284	11509.46
849.607	11449.57
849.931	11387.65
850.254	11318.28
850.577	11297.26
850.9	11281.67
851.223	11229.92
851.546	11148.56
851.869	11058.85
852.192	11107.21
852.515	11040.32
852.838	10925.52
853.161	10979.08
853.483	10924.61
853.806	10858.63
854.129	10871.51
854.451	10758.29
854.774	10766.2
855.096	10735.47
855.419	10760.32
855.741	10706.77
856.063	10618.63
856.385	10537.51
856.708	10532.76
857.03	10498.18
857.352	10533.44
857.674	10500.44
857.996	10435.59
858.318	10370.05
858.64	10419.99
858.961	10387.9
859.283	10312.65
859.605	10298.19
859.926	10340.9
860.248	10261.13
860.57	10242.37
860.891	10221.13
861.212	10120.79
861.534	10140.68
861.855	10091.64
862.176	10079.21
862.498	10152.2
862.819	10115.6
863.14	9991.76
863.461	10054.81
863.782	9984.3
864.103	9974.58
864.424	9968.48
864.745	9968.71
865.065	9937.97
865.386	9919.89
865.707	9864.08
866.027	9804.19
866.348	9878.99
866.668	9895.49
866.989	9796.28
867.309	9776.4
867.63	9814.59
867.95	9798.99
868.27	9639.68
868.59	9733.01
868.91	9714.25
869.23	9671.54
869.55	9641.48
869.87	9706.79
870.19	9650.07
870.51	9675.38
870.83	9657.3
871.15	9575.27
871.469	9591.54
871.789	9611.2
872.109	9550.86
872.428	9509.51
872.748	9531.66
873.067	9620.47
873.386	9509.96
873.706	9574.59
874.025	9512.67
874.344	9435.16
874.663	9421.15
874.982	9409.4
875.301	9463.86
875.62	9361.27
875.939	9377.99
876.258	9358.55
876.577	9326.92
876.896	9332.34
877.214	9319.68
877.533	9265.22
877.852	9291.66
878.17	9175.51
878.489	9221.16
878.807	9273.81
879.125	9231.33
879.444	9167.82
879.762	9143.64
880.08	9176.19
880.398	9166.69
880.716	9152.68
881.034	9128.05
881.352	9139.8
881.67	9080.14
881.988	9085.57
882.306	9095.06
882.624	8970.31
882.941	9011.44
883.259	9002.18
883.577	8950.65
883.894	8969.19
884.212	8931.67
884.529	8930.99
884.846	8832.69
885.164	8855.74
885.481	8780.94
885.798	8791.79
886.115	8803.09
886.432	8691.23
886.75	8774.39
887.067	8686.71
887.383	8706.82
887.7	8697.1
888.017	8671.11
888.334	8655.3
888.651	8599.25
888.967	8585.01
889.284	8566.48
889.6	8571.46
889.917	8471.57
890.233	8486.71
890.55	8479.48
890.866	8493.04
891.182	8427.28
891.498	8408.07
891.815	8377.11
892.131	8361.74
892.447	8332.82
892.763	8260.28
893.079	8271.58
893.395	8291.01
893.71	8291.46
894.026	8237.68
894.342	8219.15
894.657	8128.98
894.973	8155.42
895.289	8159.26
895.604	8138.25
895.92	8026.61
896.235	8037.91
896.55	8012.15
896.865	7986.61
897.181	7990.91
897.496	7976.89
897.811	7922.66
898.126	7918.59
898.441	7895.77
898.756	7825.03
899.071	7832.04
899.386	7846.28
899.7	7725.6
900.015	7678.6
900.33	7650.58
900.644	7650.8
900.959	7627.3
901.273	7596.57
901.588	7609.45
901.902	7530.58
902.216	7504.14
902.531	7490.13
902.845	7487.64
903.159	7432.73
903.473	7432.5
903.787	7349.57
904.101	7330.81
904.415	7338.04
904.729	7288.1
905.042	7174.88
905.356	7255.56
905.67	7227.76
905.984	7193.19
906.297	7127.2
906.611	7141.44
906.924	7120.87
907.237	7032.51
907.551	7026.86
907.864	7031.83
908.177	6982.57
908.491	6981.67
908.804	6950.26
909.117	6932.85
909.43	6853.08
909.743	6840.43
910.056	6820.54
910.368	6800.43
910.681	6762.01
910.994	6762.01
911.307	6710.71
911.619	6702.13
911.932	6699.87
912.244	6628.68
912.557	6670.26
912.869	6585.74
913.181	6618.06
913.494	6609.47
913.806	6556.14
914.118	6470.04
914.43	6433.43
914.742	6469.82
915.054	6382.36
915.366	6440.44
915.678	6401.79
915.99	6305.75
916.302	6313.66
916.613	6274.57
916.925	6267.11
917.236	6250.39
917.548	6189.37
917.859	6188.92
918.171	6120.22
918.482	6143.27
918.794	6120.22
919.105	6093.55
919.416	5970.62
919.727	5983.27
920.038	6030.73
920.349	5981.47
920.66	5978.3
920.971	5930.85
921.282	5937.17
921.593	5833
921.903	5862.37
922.214	5811.08
922.525	5808.36
922.835	5802.94
923.146	5720.23
923.456	5743.73
923.767	5721.59
924.077	5673.45
924.387	5662.83
924.697	5604.75
925.008	5583.96
925.318	5598.43
925.628	5568.14
925.938	5548.26
926.248	5528.37
926.558	5460.58
926.867	5507.58
927.177	5462.38
927.487	5440.69
927.796	5382.84
928.106	5373.35
928.416	5374.93
928.725	5375.38
929.034	5321.37
929.344	5328.38
929.653	5310.75
929.962	5285.67
930.271	5172.22
930.581	5189.4
930.89	5162.96
931.199	5174.03
931.508	5186.01
931.817	5140.13
932.125	5096.97
932.434	5033.47
932.743	5049.74
933.051	5014.03
933.36	4980.14
933.669	4950.31
933.977	4945.79
934.286	4934.94
934.594	4920.48
934.902	4897.88
935.21	4916.18
935.519	4861.5
935.827	4872.12
936.135	4807.03
936.443	4778.11
936.751	4770.88
937.059	4755.28
937.367	4733.14
937.674	4677.09
937.982	4711.67
938.29	4630.54
938.597	4682.07
938.905	4591.67
939.213	4631.45
939.52	4571.11
939.827	4646.36
940.135	4571.11
940.442	4488.85
940.749	4572.92
941.056	4523.2
941.363	4449.53
941.67	4488.4
941.977	4475.97
942.284	4408.18
942.591	4383.09
942.898	4419.93
943.205	4344.9
943.511	4351
943.818	4332.24
944.125	4331.79
944.431	4276.65
944.738	4291.12
945.044	4282.3
945.35	4239.82
945.657	4245.92
945.963	4239.37
946.269	4216.09
946.575	4205.47
946.881	4140.61
947.187	4145.36
947.493	4132.48
947.799	4149.88
948.105	4089.31
948.41	4060.39
948.716	4082.31
949.022	4057.9
949.327	4037.79
949.633	3963.67
949.938	4020.61
950.244	3976.77
950.549	3903.1
950.854	3927.96
951.16	3894.29
951.465	3899.49
951.77	3925.48
952.075	3838.25
952.38	3869.66
952.685	3805.03
952.99	3787.63
953.294	3799.83
953.599	3752.83
953.904	3751.02
954.209	3769.55
954.513	3743.79
954.818	3697.46
955.122	3692.71
955.426	3662.43
955.731	3685.03
956.035	3644.58
956.339	3636.67
956.643	3640.29
956.948	3593.06
957.252	3585.82
957.556	3593.06
957.86	3530.46
958.163	3550.57
958.467	3538.59
958.771	3520.74
959.075	3506.73
959.378	3479.84
959.682	3494.07
959.985	3487.07
960.289	3450.01
960.592	3421.76
960.896	3413.17
961.199	3393.29
961.502	3420.63
961.805	3420.4
962.108	3332.27
962.411	3339.28
962.714	3327.07
963.017	3328.66
963.32	3289.79
963.623	3292.05
963.926	3279.62
964.228	3277.81
964.531	3205.04
964.833	3255.89
965.136	3194.2
965.438	3180.18
965.741	3202.11
966.043	3170.92
966.345	3157.81
966.648	3185.61
966.95	3134.31
967.252	3101.32
967.554	3135.44
967.856	3100.64
968.158	3054.99
968.46	3101.77
968.761	3054.31
969.063	3024.48
969.365	3040.53
969.666	3014.99
969.968	2965.5
970.269	2985.39
970.571	2988.1
970.872	2960.53
971.174	2939.29
971.475	2950.59
971.776	2905.16
972.077	2913.3
972.378	2872.62
972.679	2893.19
972.98	2869.23
973.281	2860.65
973.582	2842.34
973.883	2849.12
974.183	2831.49
974.484	2822.68
974.785	2781.1
975.085	2793.75
975.386	2753.53
975.686	2775.22
975.986	2776.58
976.287	2762.34
976.587	2729.12
976.887	2703.14
977.187	2717.82
977.487	2680.54
977.787	2674.21
978.087	2657.94
978.387	2652.74
978.687	2634.66
978.987	2654.1
979.286	2623.82
979.586	2610.71
979.885	2594.44
980.185	2594.89
980.484	2605.74
980.784	2580.43
981.083	2551.05
981.382	2542.01
981.682	2529.81
981.981	2521.9
982.28	2531.84
982.579	2500.65
982.878	2475.12
983.177	2481.67
983.475	2449.81
983.774	2489.13
984.073	2468.79
984.372	2428.34
984.67	2432.63
984.969	2453.88
985.267	2413.65
985.566	2428.11
985.864	2393.99
986.162	2375.01
986.461	2402.58
986.759	2351.96
987.057	2330.26
987.355	2349.25
987.653	2303.6
987.951	2279.64
988.249	2294.56
988.547	2295.69
988.844	2321
989.142	2255.01
989.44	2253.66
989.737	2252.98
990.035	2194.9
990.332	2267.89
990.63	2226.09
990.927	2199.87
991.224	2176.6
991.521	2195.13
991.819	2177.73
992.116	2166.2
992.413	2173.66
992.71	2153.77
993.006	2165.97
993.303	2133.66
993.6	2122.81
993.897	2075.36
994.193	2151.74
994.49	2118.74
994.787	2086.2
995.083	2078.29
995.379	2070.16
995.676	2037.16
995.972	2065.41
996.268	2066.99
996.565	2042.81
996.861	2009.14
997.157	2005.07
997.453	1967.79
997.749	1976.83
998.044	1960.78
998.34	1955.58
998.636	1939.31
998.932	1926.88
999.227	1956.04
999.523	1953.55
999.818	1896.6
1000.114	1930.95
1000.409	1907.45
1000.704	1867.45
1001	1884.17
1001.295	1853.89
1001.59	1858.64
1001.885	1835.14
1002.18	1858.19
1002.475	1857.73
1002.77	1831.75
1003.065	1793.55
1003.359	1833.33
1003.654	1793.78
1003.949	1782.48
1004.243	1772.31
1004.538	1775.25
1004.832	1746.78
1005.127	1765.31
1005.421	1744.52
1005.715	1736.83
1006.009	1681.02
1006.304	1731.41
1006.598	1723.95
1006.892	1685.76
1007.186	1645.76
1007.48	1679.21
1007.773	1633.11
1008.067	1649.38
1008.361	1661.58
1008.655	1635.37
1008.948	1628.36
1009.242	1590.17
1009.535	1574.58
1009.829	1607.57
1010.122	1590.85
1010.415	1573.9
1010.708	1578.64
1011.001	1611.19
1011.295	1566.44
1011.588	1544.52
1011.881	1547.01
1012.173	1552.43
1012.466	1532.32
1012.759	1521.7
1013.052	1508.82
1013.344	1505.2
1013.637	1505.2
1013.93	1479.21
1014.222	1464.98
1014.514	1447.57
1014.807	1475.6
1015.099	1468.37
1015.391	1443.28
1015.683	1424.07
1015.976	1442.83
1016.268	1414.58
1016.56	1436.05
1016.851	1403.51
1017.143	1413.68
1017.435	1401.02
1017.727	1390.4
1018.018	1354.7
1018.31	1380.68
1018.602	1359.89
1018.893	1345.43
1019.185	1338.2
1019.476	1299.1
1019.767	1339.56
1020.058	1318.09
1020.35	1313.57
1020.641	1304.75
1020.932	1310.4
1021.223	1292.1
1021.514	1290.97
1021.804	1245.77
1022.095	1244.19
1022.386	1237.64
1022.677	1223.63
1022.967	1251.65
1023.258	1208.94
1023.548	1243.74
1023.839	1227.69
1024.129	1196.28
1024.419	1186.11
1024.709	1167.36
1025	1182.95
1025.29	1183.85
1025.58	1172.33
1025.87	1144.53
1026.16	1126.68
1026.449	1145.89
1026.739	1142.95
1027.029	1138.88
1027.319	1111.31
1027.608	1111.99
1027.898	1093.46
1028.187	1121.71
1028.477	1097.75
1028.766	1100.01
1029.055	1050.75
1029.344	1079
1029.634	1056.4
1029.923	1068.15
1030.212	1071.54
1030.501	1062.05
1030.79	1034.25
1031.078	1027.02
1031.367	1033.35
1031.656	996.06
1031.945	1025.89
1032.233	1006.91
1032.522	1006.68
1032.81	1004.87
1033.099	995.84
1033.387	970.3
1033.675	999.45
1033.963	979.56
1034.251	970.07
1034.54	974.82
1034.828	950.19
1035.116	920.36
1035.403	950.86
1035.691	942.96
1035.979	941.6
1036.267	928.94
1036.554	904.09
1036.842	898.21
1037.129	924.65
1037.417	889.17
1037.704	914.48
1037.992	876.52
1038.279	880.13
1038.566	885.1
1038.853	885.1
1039.14	885.1
