Data from hue_200_FLMS001491_00054.txt Node
Date: Tue Feb 07 16:43:38 GMT 2017
User: dcchb
Spectrometer: FLMS00149
Trigger mode: 0
Integration Time (sec): 2.000000E-2
Scans to average: 10
Electric dark correction enabled: true
Nonlinearity correction enabled: false
Boxcar width: 0
XAxis mode: Wavelengths
Number of Pixels in Spectrum: 2048
>>>>>Begin Spectral Data<<<<<
341.393	-21.92
341.776	-21.92
342.16	-21.92
342.543	-56.27
342.927	-65.54
343.31	-62.37
343.693	-80
344.077	-62.82
344.46	-67.34
344.843	-60.11
345.226	-45.65
345.61	-30.96
345.993	-12.66
346.376	-1.81
346.759	24.41
347.142	25.54
347.525	46.1
347.908	65.31
348.291	68.02
348.674	97.17
349.057	97.17
349.44	147.11
349.823	152.09
350.206	177.17
350.588	173.78
350.971	195.25
351.354	221.01
351.737	227.11
352.119	250.16
352.502	260.33
352.884	258.98
353.267	270.73
353.65	286.09
354.032	305.3
354.414	300.56
354.797	320.9
355.179	327
355.562	317.51
355.944	329.03
356.326	343.72
356.709	335.36
357.091	346.66
357.473	338.75
357.855	326.77
358.238	320.67
358.62	343.04
359.002	345.75
359.384	338.3
359.766	341.69
360.148	359.31
360.53	337.84
360.912	322.7
361.294	348.24
361.676	337.39
362.057	328.13
362.439	319.77
362.821	339.43
363.203	331.29
363.584	316.83
363.966	320.67
364.348	326.32
364.729	313.66
365.111	328.35
365.493	326.32
365.874	324.96
366.256	336.71
366.637	315.7
367.019	313.89
367.4	315.47
367.781	290.61
368.163	312.31
368.544	289.26
368.925	304.17
369.306	319.54
369.688	317.51
370.069	310.95
370.45	320.9
370.831	311.86
371.212	306.66
371.593	339.43
371.974	303.49
372.355	334.68
372.736	323.16
373.117	304.17
373.498	300.56
373.879	311.4
374.26	313.66
374.641	321.57
375.021	335.58
375.402	317.05
375.783	314.57
376.163	317.05
376.544	328.8
376.925	295.59
377.305	324.96
377.686	330.84
378.066	334.68
378.447	305.98
378.827	325.87
379.208	325.64
379.588	327.9
379.968	343.95
380.349	330.61
380.729	326.77
381.109	347.11
381.489	332.42
381.87	322.48
382.25	350.27
382.63	333.55
383.01	351.86
383.39	348.24
383.77	329.26
384.15	320.22
384.53	345.3
384.91	353.89
385.29	344.4
385.67	347.34
386.049	366.77
386.429	350.95
386.809	347.56
387.189	357.05
387.568	357.5
387.948	365.87
388.328	346.21
388.707	362.93
389.087	345.53
389.466	349.37
389.846	376.04
390.225	350.05
390.605	369.71
390.984	379.43
391.363	366.09
391.743	369.93
392.122	345.98
392.501	370.61
392.881	370.84
393.26	376.71
393.639	356.37
394.018	368.58
394.397	392.08
394.776	384.4
395.155	398.86
395.534	392.08
395.913	385.75
396.292	396.6
396.671	426.2
397.05	398.63
397.429	406.77
397.808	378.75
398.186	398.63
398.565	389.59
398.944	401.8
399.323	399.76
399.701	433.66
400.08	405.19
400.458	416.26
400.837	410.84
401.215	427.11
401.594	428.01
401.972	403.83
402.351	423.04
402.729	418.97
403.107	424.4
403.486	426.66
403.864	438.41
404.242	419.42
404.62	446.54
404.999	431.4
405.377	454.45
405.755	465.75
406.133	468.69
406.511	447.45
406.889	483.15
407.267	486.31
407.645	498.74
408.023	511.4
408.401	516.82
408.779	520.89
409.156	515.47
409.534	527.67
409.912	513.43
410.29	530.83
410.667	535.13
411.045	542.36
411.422	563.83
411.8	559.08
412.178	560.89
412.555	576.71
412.933	593.88
413.31	610.83
413.687	586.43
414.065	617.16
414.442	623.49
414.819	640.66
415.197	642.47
415.574	652.64
415.951	658.74
416.328	676.37
416.705	673.65
417.082	693.32
417.46	689.25
417.837	695.57
418.214	710.26
418.591	710.04
418.967	700.32
419.344	727.21
419.721	762.92
420.098	760.66
420.475	773.76
420.852	779.87
421.228	795.01
421.605	791.62
421.982	806.08
422.358	790.26
422.735	840.2
423.111	841.56
423.488	856.02
423.864	872.52
424.241	916.59
424.617	932.86
424.994	939.41
425.37	933.99
425.746	935.79
426.123	968.34
426.499	947.09
426.875	975.79
427.251	1011.72
427.627	1023.02
428.003	1067.99
428.379	1064.15
428.756	1041.78
429.132	1067.77
429.507	1116.81
429.883	1097.6
430.259	1117.71
430.635	1140.99
431.011	1163.59
431.387	1155.45
431.763	1198.39
432.138	1179.4
432.514	1228.89
432.89	1209.91
433.265	1237.03
433.641	1296.01
434.016	1281.1
434.392	1335.56
434.767	1364.03
435.143	1375.11
435.518	1396.57
435.894	1411.94
436.269	1464.37
436.644	1500.53
437.02	1514.31
437.395	1527.42
437.77	1542.33
438.145	1569
438.52	1592.05
438.895	1624.14
439.271	1616.23
439.646	1698.26
440.021	1695.77
440.395	1716.57
440.77	1735.77
441.145	1724.02
441.52	1834.75
441.895	1821.65
442.27	1850.12
442.645	1854.41
443.019	1874.53
443.394	1914.53
443.769	1933.51
444.143	1953.39
444.518	1967.18
444.892	1958.37
445.267	1955.43
445.641	2003.34
446.016	2002.89
446.39	2056.44
446.764	2067.74
447.139	2091.24
447.513	2077.01
447.887	2084.46
448.262	2104.13
448.636	2159.49
449.01	2194.29
449.384	2190.45
449.758	2177.34
450.132	2216.89
450.506	2262.09
450.88	2249.66
451.254	2274.29
451.628	2319.26
452.002	2340.73
452.376	2333.72
452.75	2389.32
453.123	2410.78
453.497	2413.27
453.871	2437.45
454.244	2509.99
454.618	2514.51
454.992	2544.79
455.365	2555.64
455.739	2606.71
456.112	2640.83
456.486	2688.06
456.859	2671.79
457.232	2701.85
457.606	2718.12
457.979	2764
458.352	2804.9
458.725	2845.35
459.099	2831.56
459.472	2904.78
459.845	2933.03
460.218	2942.97
460.591	2994.05
460.964	2992.01
461.337	3047.15
461.71	3096.42
462.083	3175.74
462.456	3170.31
462.829	3161.5
463.201	3226.81
463.574	3264.09
463.947	3336.41
464.32	3376.86
464.692	3387.03
465.065	3409.18
465.438	3462.51
465.81	3521.94
466.183	3550.64
466.555	3631.99
466.928	3631.77
467.3	3636.29
467.672	3740.47
468.045	3799.22
468.417	3816.17
468.789	3839.22
469.161	3826.57
469.534	3968.48
469.906	4032.21
470.278	4021.82
470.65	4086.9
471.022	4149.95
471.394	4195.6
471.766	4235.14
472.138	4306.33
472.51	4360.56
472.882	4476.72
473.253	4540.45
473.625	4563.72
473.997	4616.6
474.369	4663.83
474.74	4743.38
475.112	4822.47
475.484	4843.04
475.855	4947.21
476.227	4984.95
476.598	5140.2
476.97	5118.28
477.341	5231.27
477.713	5297.94
478.084	5325.51
478.455	5496.8
478.827	5546.52
479.198	5655.67
479.569	5670.13
479.94	5805.5
480.311	5831.71
480.682	5988.54
481.053	6067.86
481.424	6189.67
481.795	6225.6
482.166	6317.35
482.537	6431.47
482.908	6436.21
483.279	6574.06
483.65	6662.65
484.021	6759.14
484.391	6856.09
484.762	6836.66
485.133	6963.66
485.503	6991
485.874	7114.84
486.244	7223.09
486.615	7299.02
486.985	7399.58
487.356	7522.29
487.726	7554.38
488.097	7741.72
488.467	7736.52
488.837	7891.09
489.207	7889.74
489.578	8073.91
489.948	8126.11
490.318	8232.55
490.688	8174.25
491.058	8276.84
491.428	8404.3
491.798	8549.15
492.168	8591.19
492.538	8613.11
492.908	8718.41
493.278	8777.85
493.648	8728.58
494.017	8934.23
494.387	9002.25
494.757	9102.81
495.126	9099.42
495.496	9040.67
495.866	9168.12
496.235	9276.14
496.605	9299.64
496.974	9374.67
497.344	9442.24
497.713	9426.42
498.082	9489.47
498.452	9562.46
498.821	9599.75
499.19	9624.83
499.559	9708.67
499.928	9742.79
500.298	9807.43
500.667	9789.12
501.036	9757.26
501.405	9879.51
501.774	9877.03
502.143	9959.29
502.512	9909.57
502.88	10045.39
503.249	10052.84
503.618	10007.42
503.987	10073.63
504.356	10133.07
504.724	10142.11
505.093	10159.28
505.462	10197.47
505.83	10284.25
506.199	10232.5
506.567	10377.58
506.936	10315.89
507.304	10412.61
507.672	10408.09
508.041	10452.38
508.409	10470.23
508.777	10554.75
509.145	10582.77
509.514	10521.53
509.882	10576.67
510.25	10566.95
510.618	10611.02
510.986	10578.48
511.354	10658.25
511.722	10729.44
512.09	10754.29
512.458	10591.13
512.826	10776.67
513.193	10751.13
513.561	10740.73
513.929	10777.8
514.297	10849.88
514.664	10923.78
515.032	10824.57
515.4	10920.62
515.767	10990.67
516.135	10867.06
516.502	10823.9
516.869	10947.73
517.237	10912.03
517.604	10870.9
517.972	10962.2
518.339	10944.8
518.706	10957.9
519.073	10925.81
519.44	11014.4
519.808	11099.37
520.175	10970.11
520.542	11088.75
520.909	11065.25
521.276	11047.85
521.643	11083.55
522.009	11107.28
522.376	11065.25
522.743	11192.02
523.11	11180.95
523.477	11165.58
523.843	11263.88
524.21	11303.21
524.577	11248.97
524.943	11311.79
525.31	11306.6
525.676	11341.62
526.043	11278.8
526.409	11254.62
526.776	11328.74
527.142	11279.48
527.508	11300.49
527.874	11334.84
528.241	11321.74
528.607	11323.32
528.973	11304.79
529.339	11216.88
529.705	11337.78
530.071	11360.15
530.437	11313.83
530.803	11260.72
531.169	11305.92
531.535	11207.84
531.901	11190.67
532.267	11162.42
532.632	11250.55
532.998	11157.67
533.364	11124.45
533.73	11084
534.095	11157.67
534.461	11097.56
534.826	11077.45
535.192	11066.15
535.557	11075.19
535.923	10952.25
536.288	11012.82
536.653	11004.23
537.019	10877.68
537.384	10897.34
537.749	10916.78
538.114	10745.25
538.479	10747.06
538.845	10814.4
539.21	10668.19
539.575	10691.47
539.94	10643.79
540.305	10684.24
540.67	10551.81
541.034	10507.75
541.399	10514.98
541.764	10486.73
542.129	10442.21
542.494	10346.17
542.858	10348.43
543.223	10274.76
543.587	10260.75
543.952	10213.97
544.316	10225.72
544.681	10158.38
545.045	10188.21
545.41	10101.2
545.774	10085.84
546.138	10105.5
546.503	9988.21
546.867	9924.48
547.231	9949.79
547.595	9852.85
547.959	9880.64
548.324	9818.72
548.688	9698.28
549.052	9673.87
549.416	9734.66
549.779	9645.85
550.143	9642.68
550.507	9639.75
550.871	9601.56
551.235	9533.53
551.599	9563.14
551.962	9480.2
552.326	9487.43
552.689	9430.94
553.053	9357.49
553.417	9368.57
553.78	9385.29
554.143	9284.73
554.507	9237.72
554.87	9263.94
555.234	9256.03
555.597	9173.32
555.96	9174.45
556.323	9126.09
556.686	9131.96
557.05	9123.15
557.413	9141.45
557.776	9130.61
558.139	9046.09
558.502	8995.47
558.865	9025.3
559.228	9006.99
559.59	9022.36
559.953	8986.66
560.316	9056.03
560.679	8961.8
561.041	8994.34
561.404	8997.28
561.767	8971.52
562.129	8976.94
562.492	8942.36
562.854	8889.03
563.217	8976.26
563.579	8940.56
563.941	8961.12
564.304	8958.63
564.666	8933.78
565.028	8926.54
565.39	8895.59
565.753	8981.46
566.115	8900.33
566.477	8925.87
566.839	8941.69
567.201	9013.77
567.563	8962.25
567.925	9015.13
568.287	8968.13
568.648	8948.92
569.01	8969.26
569.372	8980.1
569.734	8930.61
570.095	9036.82
570.457	8992.53
570.819	8976.26
571.18	8974
571.542	9001.35
571.903	8992.98
572.265	9036.6
572.626	8983.27
572.987	9034.56
573.349	9006.99
573.71	9080.67
574.071	8999.99
574.432	9009.48
574.794	9100.33
575.155	9028.92
575.516	9094.68
575.877	9047.22
576.238	9064.62
576.599	9077.5
576.96	9026.43
577.32	8991.18
577.681	9101.91
578.042	9116.82
578.403	9068.01
578.763	9050.16
579.124	9088.57
579.485	9072.53
579.845	9126.99
580.206	9096.03
580.566	9059.65
580.927	9101.23
581.287	9138.97
581.648	9058.97
582.008	9067.56
582.368	9085.64
582.728	9054.9
583.089	9018.52
583.449	9030.05
583.809	9098.29
584.169	9033.43
584.529	9020.78
584.889	9088.12
585.249	9020.55
585.609	9023.94
585.969	9056.49
586.329	8967.45
586.688	9071.17
587.048	8953.66
587.408	8956.15
587.768	8948.47
588.127	8920.22
588.487	8964.51
588.846	9027.56
589.206	8968.35
589.565	8997.05
589.925	9052.19
590.284	8979.2
590.643	8956.15
591.003	8962.25
591.362	8976.49
591.721	8928.58
592.08	8940.33
592.44	8961.8
592.799	8922.93
593.158	8887.22
593.517	8950.27
593.876	8951.18
594.235	8868.24
594.593	8912.53
594.952	8906.66
595.311	8905.08
595.67	8932.42
596.029	8966.54
596.387	8947.34
596.746	8960.22
597.104	8903.95
597.463	8863.5
597.822	8862.82
598.18	8836.83
598.538	8898.52
598.897	8915.47
599.255	8788.92
599.613	8966.09
599.972	8891.74
600.33	8933.78
600.688	8836.15
601.046	8894
601.404	8934.23
601.762	8814.46
602.12	8897.85
602.478	8898.98
602.836	8875.02
603.194	8837.96
603.552	8868.47
603.91	8764.29
604.268	8935.58
604.625	8823.95
604.983	8829.37
605.341	8827.11
605.698	8884.96
606.056	8924.74
606.413	8896.72
606.771	8945.08
607.128	8884.74
607.485	8839.32
607.843	8838.41
608.2	8923.38
608.557	8869.15
608.914	8882.48
609.272	8880.67
609.629	8917.28
609.986	8896.26
610.343	8891.52
610.7	8994.11
611.057	8948.24
611.414	8965.87
611.771	8984.17
612.127	8910.05
612.484	8945.98
612.841	8989.14
613.198	8963.83
613.554	8924.96
613.911	9084.96
614.267	8952.98
614.624	8965.19
614.98	8997.5
615.337	9036.6
615.693	8958.41
616.05	8987.56
616.406	9005.86
616.762	9047.22
617.118	9041.8
617.475	9044.96
617.831	9071.17
618.187	9046.54
618.543	9048.8
618.899	9104.85
619.255	9040.89
619.611	9032.53
619.967	9074.79
620.323	9122.47
620.678	9053.32
621.034	9004.96
621.39	9022.36
621.746	9002.7
622.101	9130.16
622.457	9053.32
622.812	9028.24
623.168	9086.31
623.523	9072.76
623.879	9069.14
624.234	9033.43
624.589	9049.93
624.945	9069.59
625.3	9096.94
625.655	9063.72
626.01	9015.58
626.365	9034.56
626.72	8994.79
627.075	9002.48
627.43	9004.96
627.785	8970.84
628.14	9038.63
628.495	9084.05
628.85	9066.65
629.205	8951.86
629.559	9039.76
629.914	8931.29
630.269	9010.61
630.623	8971.74
630.978	8966.54
631.332	8992.31
631.687	8976.26
632.041	8892.42
632.396	8930.61
632.75	8977.39
633.104	8875.02
633.459	8917.96
633.813	8877.28
634.167	8888.81
634.521	8889.48
634.875	8811.52
635.229	8877.73
635.583	8806.1
635.937	8765.42
636.291	8816.04
636.645	8868.02
636.999	8833.67
637.352	8807
637.706	8711.86
638.06	8783.05
638.413	8740.34
638.767	8705.76
639.121	8739.88
639.474	8667.34
639.828	8667.79
640.181	8736.27
640.534	8683.39
640.888	8723.16
641.241	8649.72
641.594	8714.12
641.947	8672.09
642.301	8661.47
642.654	8638.64
643.007	8708.7
643.36	8667.57
643.713	8614.46
644.066	8627.34
644.419	8615.37
644.771	8606.78
645.124	8477.07
645.477	8440.68
645.83	8426.45
646.182	8350.74
646.535	8371.98
646.888	8399.1
647.24	8384.19
647.593	8367.24
647.945	8343.28
648.298	8280.69
648.65	8300.12
649.002	8275.26
649.355	8365.43
649.707	8342.38
650.059	8378.99
650.411	8505.09
650.763	8471.19
651.115	8473.22
651.467	8533.33
651.819	8516.39
652.171	8533.79
652.523	8495.6
652.875	8477.74
653.227	8426.22
653.578	8538.08
653.93	8480.91
654.282	8468.03
654.633	8527.91
654.985	8524.07
655.337	8432.09
655.688	8470.06
656.039	8504.64
656.391	8440.68
656.742	8508.48
657.094	8465.09
657.445	8540.11
657.796	8449.27
658.147	8486.56
658.498	8541.7
658.849	8467.8
659.2	8476.84
659.551	8422.38
659.902	8583.73
660.253	8547.8
660.604	8514.8
660.955	8557.06
661.306	8544.41
661.656	8529.49
662.007	8544.18
662.358	8554.58
662.708	8511.19
663.059	8564.97
663.409	8482.49
663.76	8557.97
664.11	8562.03
664.461	8497.86
664.811	8580.34
665.161	8567.01
665.511	8436.39
665.862	8477.29
666.212	8521.58
666.562	8586.89
666.912	8517.06
667.262	8564.29
667.612	8567.23
667.962	8548.48
668.312	8581.7
668.662	8556.16
669.011	8508.02
669.361	8528.82
669.711	8508.02
670.06	8527.91
670.41	8439.78
670.76	8420.12
671.109	8506.67
671.459	8538.31
671.808	8442.49
672.157	8454.01
672.507	8428.93
672.856	8542.15
673.205	8477.52
673.554	8469.38
673.904	8490.4
674.253	8541.24
674.602	8413.79
674.951	8356.62
675.3	8277.07
675.649	8436.16
675.998	8423.51
676.346	8385.09
676.695	8431.64
677.044	8363.17
677.393	8377.86
677.741	8346.45
678.09	8375.37
678.438	8356.62
678.787	8346.45
679.135	8361.81
679.484	8283.85
679.832	8384.64
680.181	8248.82
680.529	8248.14
680.877	8219.9
681.225	8229.16
681.573	8310.52
681.922	8222.16
682.27	8197.75
682.618	8122.27
682.966	8115.27
683.314	8197.98
683.661	8150.29
684.009	8095.61
684.357	8128.15
684.705	8092.22
685.053	8136.28
685.4	8067.81
685.748	8010.18
686.095	8015.61
686.443	7984.42
686.79	7951.88
687.138	7974.48
687.485	8006.8
687.832	7991.65
688.18	7914.37
688.527	7910.53
688.874	7827.82
689.221	7886.35
689.568	7794.15
689.915	7713.47
690.262	7787.14
690.609	7761.38
690.956	7708.05
691.303	7707.82
691.65	7673.7
691.997	7684.09
692.344	7580.14
692.69	7633.7
693.037	7572.46
693.383	7547.6
693.73	7589.86
694.077	7466.7
694.423	7499.46
694.769	7532.46
695.116	7430.54
695.462	7462.85
695.808	7390.54
696.155	7423.99
696.501	7300.82
696.847	7305.57
697.193	7265.57
697.539	7266.7
697.885	7230.77
698.231	7218.12
698.577	7246.36
698.923	7166.59
699.269	7103.99
699.614	7112.58
699.96	7092.92
700.306	7107.38
700.651	7069.64
700.997	7023.09
701.342	6972.92
701.688	6987.84
702.033	6942.42
702.379	6899.25
702.724	6906.94
703.069	6902.42
703.415	6751.01
703.76	6826.26
704.105	6842.53
704.45	6810.67
704.795	6760.27
705.14	6765.25
705.485	6762.99
705.83	6696.77
706.175	6660.62
706.52	6671.91
706.865	6635.08
707.209	6663.33
707.554	6547.17
707.899	6574.06
708.243	6565.25
708.588	6526.16
708.932	6502.65
709.277	6469.43
709.621	6485.03
709.966	6459.49
710.31	6463.11
710.654	6406.84
710.998	6406.16
711.342	6390.11
711.687	6388.31
712.031	6342.88
712.375	6364.13
712.719	6319.38
713.063	6304.69
713.407	6402.32
713.75	6308.31
714.094	6276.22
714.438	6272.15
714.782	6321.19
715.125	6260.17
715.469	6280.06
715.812	6187.86
716.156	6252.72
716.499	6169.33
716.843	6225.37
717.186	6134.08
717.53	6224.24
717.873	6162.1
718.216	6162.1
718.559	6120.07
718.902	6129.33
719.246	6132.27
719.589	6146.73
719.932	6117.58
720.275	6089.56
720.617	6123.91
720.96	6039.39
721.303	6021.76
721.646	6076.68
721.989	6031.48
722.331	6038.94
722.674	6043.91
723.016	6056.11
723.359	6046.39
723.701	6035.32
724.044	5990.8
724.386	5984.93
724.729	6014.08
725.071	6037.13
725.413	6030.12
725.755	5999.39
726.097	5969.33
726.439	5961.65
726.782	5980.41
727.124	6025.6
727.465	5902.22
727.807	5959.84
728.149	5953.97
728.491	5963.68
728.833	5988.54
729.175	5970.69
729.516	5965.72
729.858	5914.42
730.199	5974.76
730.541	5911.48
730.882	5974.31
731.224	5949.67
731.565	5927.3
731.906	5949.22
732.248	5945.15
732.589	5952.61
732.93	5906.29
733.271	5974.76
733.612	5971.82
733.953	5959.39
734.294	5980.86
734.635	5924.14
734.976	5933.63
735.317	5970.24
735.658	5987.87
735.999	5966.85
736.339	5983.8
736.68	5966.4
737.021	6006.4
737.361	5953.74
737.702	5939.28
738.042	5918.04
738.383	5993.29
738.723	5979.73
739.063	5984.48
739.404	6029.9
739.744	5966.4
740.084	6018.37
740.424	6011.59
740.764	5979.73
741.104	6053.4
741.444	6081.87
741.784	6032.61
742.124	6097.69
742.464	6110.12
742.804	6109.9
743.143	6106.51
743.483	6129.33
743.823	6114.64
744.162	6117.58
744.502	6254.07
744.841	6221.53
745.181	6277.35
745.52	6272.15
745.86	6359.38
746.199	6340.4
746.538	6370.45
746.877	6466.72
747.216	6503.11
747.556	6454.52
747.895	6498.59
748.234	6537.91
748.573	6584.01
748.911	6698.81
749.25	6722.54
749.589	6753.72
749.928	6805.92
750.267	6884.34
750.605	6957.78
750.944	6996.2
751.283	7064.9
751.621	7134.95
751.96	7211.11
752.298	7274.16
752.636	7397.55
752.975	7427.6
753.313	7588.05
753.651	7666.47
753.989	7723.86
754.327	7871.21
754.666	7962.73
755.004	8095.15
755.342	8224.19
755.679	8322.04
756.017	8408.59
756.355	8605.42
756.693	8720.9
757.031	8820.33
757.368	8943.49
757.706	9067.33
758.044	9232.53
758.381	9346.65
758.719	9529.92
759.056	9723.59
759.394	9830.02
759.731	9906.63
760.068	10143.01
760.405	10232.95
760.743	10408.54
761.08	10619.83
761.417	10756.55
761.754	10948.19
762.091	11083.78
762.428	11229.76
762.765	11412.58
763.102	11594.27
763.438	11739.58
763.775	11873.81
764.112	12120.13
764.449	12331.88
764.785	12401.48
765.122	12547.24
765.458	12744.98
765.795	12876.05
766.131	13127.11
766.467	13198.97
766.804	13266.77
767.14	13480.1
767.476	13631.73
767.812	13756.25
768.148	13946.98
768.485	14107.65
768.821	14171.15
769.157	14400.98
769.492	14454.08
769.828	14659.05
770.164	14674.64
770.5	14784.47
770.836	14934.3
771.171	15121.64
771.507	15170
771.842	15297
772.178	15282.54
772.513	15510.1
772.849	15628.06
773.184	15596.88
773.519	15755.07
773.855	15776.99
774.19	15832.13
774.525	16004.1
774.86	16065.34
775.195	16170.42
775.53	16196.64
775.865	16182.17
776.2	16251.32
776.535	16228.05
776.87	16338.78
777.205	16381.26
777.539	16437.31
777.874	16548.27
778.209	16575.84
778.543	16611.99
778.878	16395.05
779.212	16586.46
779.547	16602.95
779.881	16718.43
780.215	16708.94
780.55	16753.23
780.884	16731.31
781.218	16752.78
781.552	16932.21
781.886	16755.72
782.22	16753.01
782.554	16827.35
782.888	16825.77
783.222	16779.45
783.556	16801.37
783.889	16810.63
784.223	16647.47
784.557	16750.97
784.89	16768.37
785.224	16735.61
785.557	16778.09
785.891	16844.98
786.224	16753.91
786.558	16749.16
786.891	16673.91
787.224	16580.58
787.557	16674.82
787.891	16688.6
788.224	16705.32
788.557	16794.13
788.89	16740.35
789.223	16718.66
789.556	16634.82
789.888	16659.9
790.221	16602.05
790.554	16586
790.887	16607.7
791.219	16504.65
791.552	16474.6
791.884	16370.87
792.217	16428.27
792.549	16373.81
792.882	16332.23
793.214	16401.15
793.546	16412.45
793.879	16233.7
794.211	16141.72
794.543	16290.42
794.875	16226.24
795.207	16219.46
795.539	16216.07
795.871	16209.29
796.203	16028.28
796.535	15986.7
796.867	16058.11
797.198	16066.92
797.53	16083.19
797.862	15951.67
798.193	15986.7
798.525	15804.1
798.856	15922.97
799.188	15725.24
799.519	15708.06
799.85	15617.22
800.182	15719.59
800.513	15672.81
800.844	15552.36
801.175	15690.89
801.506	15620.83
801.837	15544
802.168	15540.61
802.499	15535.41
802.83	15374.74
803.161	15362.53
803.491	15398.01
803.822	15344.91
804.153	15355.75
804.483	15212.03
804.814	15192.14
805.145	15193.05
805.475	15227.4
805.805	15158.25
806.136	15117.12
806.466	15112.15
806.796	15144.23
807.126	15047.97
807.457	14916.44
807.787	14965.48
808.117	14938.14
808.447	14987.85
808.777	14942.43
809.107	14833.73
809.436	14722.55
809.766	14784.7
810.096	14776.79
810.426	14718.26
810.755	14683
811.085	14690.24
811.414	14678.48
811.744	14552.16
812.073	14569.11
812.403	14651.82
812.732	14522.56
813.061	14507.19
813.39	14430.81
813.719	14390.13
814.049	14405.95
814.378	14434.87
814.707	14333.63
815.036	14374.54
815.365	14362.56
815.693	14160.98
816.022	14182.68
816.351	14219.74
816.68	14175.45
817.008	14123.02
817.337	14138.84
817.665	14001.67
817.994	14079.63
818.322	14095.67
818.651	14006.86
818.979	13940.65
819.307	13886.19
819.636	13933.64
819.964	13885.51
820.292	13991.95
820.62	13936.36
820.948	13848.22
821.276	13916.47
821.604	13818.85
821.932	13924.61
822.259	13929.35
822.587	13844.61
822.915	13855.91
823.243	13927.09
823.57	13819.3
823.898	13914.21
824.225	13876.25
824.553	13787.66
824.88	13787.89
825.207	13868.56
825.535	13831.27
825.862	13896.36
826.189	13872.4
826.516	13928.45
826.843	13958.05
827.17	13943.14
827.497	13913.31
827.824	13961.67
828.151	13976.36
828.478	13918.28
828.805	13909.24
829.131	14015.45
829.458	13831.73
829.785	13810.26
830.111	13886.19
830.438	13964.38
830.764	13846.42
831.09	13953.53
831.417	13844.38
831.743	13905.62
832.069	13872.86
832.395	13809.81
832.722	13882.8
833.048	13792.18
833.374	13865.17
833.7	13732.52
834.026	13828.56
834.351	13800.99
834.677	13820.88
835.003	13814.33
835.329	13793.76
835.654	13795.34
835.98	13666.08
836.306	13771.62
836.631	13652.75
836.956	13739.3
837.282	13727.55
837.607	13687.1
837.932	13564.84
838.258	13638.96
838.583	13625.18
838.908	13503.37
839.233	13600.32
839.558	13520.77
839.883	13579.08
840.208	13441.23
840.533	13478.29
840.858	13464.73
841.182	13488.23
841.507	13496.59
841.832	13361.23
842.156	13380.21
842.481	13323.04
842.805	13276.71
843.13	13279.65
843.454	13267.9
843.778	13211.63
844.103	13201.46
844.427	13133.44
844.751	13072.2
845.075	13171.63
845.399	13045.08
845.723	13005.31
846.047	13053.67
846.371	12953.11
846.695	12951.98
847.019	12766.44
847.343	12798.76
847.666	12719.21
847.99	12730.96
848.313	12674.47
848.637	12503.4
848.96	12565.55
849.284	12500.91
849.607	12339.11
849.931	12437.19
850.254	12285.1
850.577	12284.42
850.9	12173.24
851.223	12125.33
851.546	12057.31
851.869	12048.27
852.192	12013.7
852.515	11948.84
852.838	11906.58
853.161	12021.38
853.483	11792.01
853.806	11738.45
854.129	11761.72
854.451	11754.95
854.774	11643.08
855.096	11670.88
855.419	11611.9
855.741	11565.57
856.063	11547.72
856.385	11521.5
856.708	11539.81
857.03	11381.4
857.352	11368.97
857.674	11371.9
857.996	11361.06
858.318	11342.75
858.64	11298.91
858.961	11190.89
859.283	11222.76
859.605	11157.22
859.926	11214.39
860.248	11201.51
860.57	11106.6
860.891	11134.17
861.212	11020.95
861.534	11079.93
861.855	11009.43
862.176	10975.08
862.498	10986.6
862.819	10954.97
863.14	10939.6
863.461	10929.88
863.782	10876.55
864.103	10859.38
864.424	10848.3
864.745	10759.27
865.065	10780.28
865.386	10760.4
865.707	10774.63
866.027	10789.55
866.348	10695.09
866.668	10746.61
866.989	10645.14
867.309	10652.83
867.63	10665.03
867.95	10742.54
868.27	10588.42
868.59	10640.17
868.91	10592.26
869.23	10546.39
869.55	10468.2
869.87	10627.29
870.19	10598.82
870.51	10533.28
870.83	10473.17
871.15	10447.86
871.469	10513.85
871.789	10425.26
872.109	10481.08
872.428	10367.41
872.748	10332.84
873.067	10381.42
873.386	10377.81
873.706	10269.56
874.025	10296.45
874.344	10261.65
874.663	10324.47
874.982	10263.91
875.301	10287.87
875.62	10219.39
875.939	10230.92
876.258	10212.16
876.577	10174.87
876.896	10096.23
877.214	10154.31
877.533	10198.6
877.852	10093.75
878.17	10109.56
878.489	10139.39
878.807	10079.28
879.125	10089
879.444	10052.62
879.762	10046.97
880.08	10082.22
880.398	9969.91
880.716	9974.43
881.034	9898.5
881.352	9983.92
881.67	9876.12
881.988	9929.68
882.306	9826.18
882.624	9800.65
882.941	9794.09
883.259	9776.69
883.577	9737.37
883.894	9742.57
884.212	9682.91
884.529	9708.45
884.846	9634.32
885.164	9637.71
885.481	9603.82
885.798	9624.61
886.115	9549.35
886.432	9587.09
886.75	9510.94
887.067	9525.63
887.383	9525.63
887.7	9520.43
888.017	9486.98
888.334	9442.01
888.651	9470.26
888.967	9400.88
889.284	9389.13
889.6	9353.88
889.917	9249.93
890.233	9303.03
890.55	9239.08
890.866	9247.67
891.182	9189.59
891.498	9185.3
891.815	9130.38
892.131	9125.18
892.447	9055.81
892.763	9081.12
893.079	9050.84
893.395	8952.98
893.71	8953.66
894.026	8920.67
894.342	8952.53
894.657	8916.83
894.973	8864.17
895.289	8778.53
895.604	8807
895.92	8715.93
896.235	8734.23
896.55	8670.73
896.865	8708.92
897.181	8627.34
897.496	8697.62
897.811	8599.55
898.126	8536.72
898.441	8542.15
898.756	8526.1
899.071	8470.96
899.386	8513
899.7	8389.38
900.015	8323.17
900.33	8328.59
900.644	8331.53
900.959	8260.12
901.273	8286.34
901.588	8248.14
901.902	8182.38
902.216	8193.68
902.531	8170.63
902.845	8122.27
903.159	8083.4
903.473	8060.58
903.787	8016.29
904.101	7977.87
904.415	7994.14
904.729	7930.19
905.042	7871.21
905.356	7853.8
905.67	7866.23
905.984	7822.39
906.297	7737.42
906.611	7709.4
906.924	7733.13
907.237	7730.87
907.551	7710.98
907.864	7668.27
908.177	7632.57
908.491	7585.11
908.804	7536.98
909.117	7497.2
909.43	7423.76
909.743	7390.09
910.056	7364.78
910.368	7369.07
910.681	7316.19
910.994	7310.77
911.307	7296.53
911.619	7279.58
911.932	7238.68
912.244	7183.77
912.557	7166.59
912.869	7140.6
913.181	7089.76
913.494	7053.37
913.806	7024.22
914.118	7017.44
914.43	6982.19
914.742	6979.03
915.054	6940.16
915.366	6871.46
915.678	6887.73
915.99	6809.54
916.302	6751.46
916.613	6793.95
916.925	6774.06
917.236	6740.16
917.548	6690.67
917.859	6689.77
918.171	6623.33
918.482	6607.74
918.794	6619.71
919.105	6551.92
919.416	6533.16
919.727	6501.52
920.038	6531.81
920.349	6481.41
920.66	6452.49
920.971	6442.32
921.282	6427.18
921.593	6349.66
921.903	6349.21
922.214	6304.02
922.525	6295.88
922.835	6234.86
923.146	6165.49
923.456	6241.87
923.767	6167.75
924.077	6136.34
924.387	6105.38
924.697	6085.49
925.008	6111.25
925.318	6093.63
925.628	6083.46
925.938	6000.29
926.248	5984.02
926.558	5996
926.867	5986.96
927.177	5938.6
927.487	5914.65
927.796	5860.18
928.106	5829.45
928.416	5836.91
928.725	5850.24
929.034	5764.59
929.344	5751.71
929.653	5781.09
929.962	5698.61
930.271	5671.49
930.581	5701.32
930.89	5667.42
931.199	5583.13
931.508	5611.6
931.817	5597.37
932.125	5552.85
932.434	5573.41
932.743	5500.19
933.051	5511.49
933.36	5439.63
933.669	5408.9
933.977	5415.22
934.286	5436.24
934.594	5391.72
934.902	5356.02
935.21	5259.52
935.519	5288
935.827	5336.13
936.135	5297.71
936.443	5242.8
936.751	5200.32
937.059	5180.65
937.367	5130.94
937.674	5178.62
937.982	5095.69
938.29	5111.5
938.597	5088.68
938.905	5099.98
939.213	5045.52
939.52	5014.11
939.827	4997.61
940.135	5011.39
940.442	4941.79
940.749	4914.67
941.056	4923.03
941.363	4918.74
941.67	4898.85
941.977	4819.31
942.284	4850.27
942.591	4765.07
942.898	4764.85
943.205	4743.83
943.511	4719.65
943.818	4747.9
944.125	4709.25
944.431	4747.45
944.738	4676.94
945.044	4639.43
945.35	4640.78
945.657	4617.96
945.963	4586.55
946.269	4554.91
946.575	4532.08
946.881	4509.94
947.187	4497.96
947.493	4447.11
947.799	4519.88
948.105	4488.02
948.41	4412.54
948.716	4440.79
949.022	4376.61
949.327	4417.96
949.633	4329.15
949.938	4368.47
950.244	4335.93
950.549	4352.2
950.854	4311.07
951.16	4291.19
951.465	4243.05
951.77	4229.72
952.075	4202.38
952.38	4192.21
952.685	4208.25
952.99	4160.79
953.294	4141.36
953.599	4132.55
953.904	4119.21
954.209	4107.01
954.513	4045.09
954.818	4058.2
955.122	4037.63
955.426	4025.66
955.731	4037.18
956.035	4020.69
956.339	3950.63
956.643	3980.01
956.948	3936.39
957.252	3931.65
957.556	3968.71
957.86	3890.07
958.163	3904.3
958.467	3876.96
958.771	3819.79
959.075	3836.06
959.378	3837.41
959.682	3807.36
959.985	3761.03
960.289	3767.36
960.592	3736.85
960.896	3673.58
961.199	3728.49
961.502	3705.21
961.805	3692.33
962.108	3661.82
962.411	3595.16
962.714	3603.75
963.017	3627.93
963.32	3596.06
963.623	3579.34
963.926	3579.11
964.228	3561.49
964.531	3572.56
964.833	3520.59
965.136	3453.02
965.438	3475.84
965.741	3489.17
966.043	3460.93
966.345	3434.26
966.648	3441.27
966.95	3401.49
967.252	3390.19
967.554	3392.68
967.856	3364.43
968.158	3363.53
968.46	3315.39
968.761	3347.93
969.063	3324.43
969.365	3329.18
969.666	3279.91
969.968	3241.5
970.269	3239.69
970.571	3200.82
970.872	3254.38
971.174	3228.39
971.475	3204.66
971.776	3172.35
972.077	3176.41
972.378	3146.81
972.679	3181.61
972.98	3168.28
973.281	3134.83
973.582	3105.68
973.883	3108.39
974.183	3065.46
974.484	3070.2
974.785	3038.11
975.085	3057.09
975.386	3036.08
975.686	3010.77
975.986	3001.73
976.287	2986.36
976.587	2991.79
976.887	2994.27
977.187	2973.48
977.487	2932.13
977.787	2891.22
978.087	2887.38
978.387	2893.71
978.687	2892.58
978.987	2818.01
979.286	2819.13
979.586	2850.55
979.885	2837.21
980.185	2827.5
980.484	2801.96
980.784	2788.4
981.083	2783.43
981.382	2782.98
981.682	2766.25
981.981	2770.32
982.28	2745.92
982.579	2726.03
982.878	2726.71
983.177	2701.85
983.475	2685.81
983.774	2669.53
984.073	2670.66
984.372	2635.86
984.67	2642.42
984.969	2671.12
985.267	2638.12
985.566	2605.36
985.864	2577.56
986.162	2569.42
986.461	2540.27
986.759	2556.54
987.057	2540.27
987.355	2505.7
987.653	2548.86
987.951	2496.21
988.249	2506.6
988.547	2470.9
988.844	2501.63
989.142	2487.17
989.44	2435.42
989.737	2468.86
990.035	2437.9
990.332	2454.4
990.63	2372.37
990.927	2405.59
991.224	2397.23
991.521	2381.41
991.819	2350.22
992.116	2364.23
992.413	2359.26
992.71	2328.53
993.006	2331.69
993.303	2323.78
993.6	2311.58
993.897	2259.15
994.193	2275.19
994.49	2277.68
994.787	2266.16
995.083	2256.89
995.379	2255.76
995.676	2223.67
995.972	2220.73
996.268	2210.79
996.565	2178.02
996.861	2168.98
997.157	2199.04
997.453	2166.5
997.749	2164.24
998.044	2127.4
998.34	2133.96
998.636	2111.58
998.932	2113.84
999.227	2115.65
999.523	2087.18
999.818	2053.96
1000.114	2067.06
1000.409	2024.58
1000.704	2038.59
1001	2017.57
1001.295	2006.95
1001.59	1998.37
1001.885	1999.27
1002.18	1959.27
1002.475	1992.72
1002.77	1958.14
1003.065	1966.95
1003.359	1946.39
1003.654	1939.84
1003.949	1910.68
1004.243	1884.47
1004.538	1901.64
1004.832	1882.44
1005.127	1858.71
1005.421	1854.41
1005.715	1841.08
1006.009	1863.91
1006.304	1848.76
1006.598	1819.84
1006.892	1820.74
1007.186	1792.95
1007.48	1790.01
1007.773	1787.07
1008.067	1811.93
1008.361	1752.04
1008.655	1747.07
1008.948	1714.08
1009.242	1740.97
1009.535	1735.55
1009.829	1705.49
1010.122	1723.57
1010.415	1728.99
1010.708	1717.47
1011.001	1683.8
1011.295	1644.93
1011.588	1660.97
1011.881	1642.22
1012.173	1621.88
1012.466	1658.94
1012.759	1645.83
1013.052	1621.2
1013.344	1603.8
1013.637	1615.55
1013.93	1556.57
1014.222	1594.76
1014.514	1572.39
1014.807	1573.29
1015.099	1558.15
1015.391	1554.08
1015.683	1524.71
1015.976	1513.41
1016.268	1513.18
1016.56	1507.53
1016.851	1498.04
1017.143	1479.96
1017.435	1478.83
1017.727	1454.43
1018.018	1468.89
1018.31	1425.5
1018.602	1438.15
1018.893	1395.44
1019.185	1426.86
1019.476	1415.33
1019.767	1416.46
1020.058	1395.22
1020.35	1397.48
1020.641	1383.01
1020.932	1357.03
1021.223	1353.18
1021.514	1338.27
1021.804	1364.26
1022.095	1333.07
1022.386	1321.1
1022.677	1295.11
1022.967	1299.4
1023.258	1289.01
1023.548	1294.66
1023.839	1278.84
1024.129	1282
1024.419	1279.74
1024.709	1230.25
1025	1226.63
1025.29	1248.55
1025.58	1244.26
1025.87	1209.69
1026.16	1191.16
1026.449	1210.82
1026.739	1229.57
1027.029	1203.13
1027.319	1178.95
1027.608	1183.25
1027.898	1159.74
1028.187	1169.69
1028.477	1140.08
1028.766	1147.54
1029.055	1140.31
1029.344	1171.27
1029.634	1142.57
1029.923	1148.44
1030.212	1124.26
1030.501	1110.71
1030.79	1102.34
1031.078	1077.71
1031.367	1084.04
1031.656	1087.43
1031.945	1068.45
1032.233	1073.64
1032.522	1056.7
1032.81	1056.7
1033.099	1067.09
1033.387	1031.16
1033.675	1032.06
1033.963	1011.27
1034.251	1038.62
1034.54	999.52
1034.828	991.39
1035.116	983.03
1035.403	989.35
1035.691	971.73
1035.979	971.27
1036.267	978.05
1036.554	967.21
1036.842	1006.75
1037.129	980.31
1037.417	941.44
1037.704	931.05
1037.992	960.43
1038.279	908.22
1038.566	933.76
1038.853	933.76
1039.14	933.76
