Data from hue_00_FLMS001491_90.txt Node
Date: Mon Feb 06 15:30:23 GMT 2017
User: dcchb
Spectrometer: FLMS00149
Trigger mode: 0
Integration Time (sec): 2.000000E-2
Scans to average: 10
Electric dark correction enabled: true
Nonlinearity correction enabled: false
Boxcar width: 0
XAxis mode: Wavelengths
Number of Pixels in Spectrum: 2048
>>>>>Begin Spectral Data<<<<<
341.393	-28.15
341.776	-28.15
342.16	-28.15
342.543	-43.29
342.927	-56.4
343.31	-48.04
343.693	-70.86
344.077	-65.66
344.46	-64.98
344.843	-47.81
345.226	-49.17
345.61	-50.07
345.993	-19.11
346.376	2.58
346.759	18.63
347.142	27.89
347.525	36.93
347.908	49.14
348.291	76.71
348.674	93.88
349.057	109.93
349.44	136.14
349.823	148.57
350.206	179.98
350.588	197.38
350.971	199.42
351.354	209.13
351.737	237.83
352.119	233.09
352.502	257.27
352.884	295.68
353.267	262.46
353.65	268.11
354.032	286.42
354.414	326.42
354.797	302.01
355.179	321.67
355.562	327.1
355.944	321.22
356.326	328.23
356.709	338.4
357.091	322.12
357.473	330.49
357.855	331.84
358.238	340.65
358.62	320.77
359.002	329.13
359.384	339.07
359.766	337.27
360.148	338.17
360.53	349.92
360.912	325.06
361.294	324.84
361.676	324.84
362.057	338.4
362.439	306.53
362.821	337.27
363.203	316.7
363.584	331.62
363.966	326.42
364.348	314.67
364.729	319.19
365.111	318.51
365.493	330.26
365.874	309.92
366.256	320.99
366.637	331.62
367.019	307.89
367.4	314.89
367.781	316.47
368.163	306.08
368.544	311.28
368.925	288.23
369.306	315.34
369.688	329.13
370.069	308.79
370.45	314.21
370.831	310.15
371.212	303.82
371.593	318.06
371.974	294.33
372.355	310.37
372.736	303.37
373.117	300.2
373.498	306.08
373.879	340.43
374.26	295.68
374.641	322.8
375.021	322.12
375.402	325.97
375.783	320.54
376.163	321.45
376.544	301.33
376.925	317.6
377.305	331.39
377.686	313.76
378.066	326.87
378.447	308.34
378.827	323.25
379.208	302.24
379.588	316.7
379.968	319.19
380.349	332.52
380.729	327.77
381.109	331.39
381.489	327.1
381.87	344.95
382.25	339.75
382.63	331.62
383.01	305.85
383.39	324.61
383.77	340.2
384.15	342.91
384.53	358.06
384.91	348.11
385.29	358.96
385.67	346.53
386.049	359.86
386.429	326.87
386.809	334.33
387.189	343.82
387.568	330.94
387.948	343.59
388.328	342.91
388.707	332.52
389.087	365.29
389.466	364.61
389.846	357.83
390.225	342.46
390.605	366.64
390.984	364.61
391.363	360.32
391.743	356.7
392.122	350.15
392.501	372.74
392.881	365.06
393.26	358.96
393.639	361.22
394.018	368.9
394.397	384.5
394.776	376.36
395.155	367.32
395.534	363.48
395.913	384.95
396.292	384.72
396.671	353.76
397.05	358.51
397.429	372.29
397.808	394.89
398.186	374.55
398.565	384.72
398.944	391.05
399.323	405.29
399.701	379.3
400.08	383.59
400.458	362.35
400.837	375.23
401.215	401.44
401.594	380.65
401.972	376.13
402.351	392.86
402.729	395.57
403.107	405.51
403.486	413.65
403.864	407.32
404.242	405.74
404.62	409.13
404.999	401.44
405.377	426.3
405.755	425.85
406.133	414.33
406.511	399.18
406.889	403.25
407.267	406.87
407.645	409.81
408.023	432.4
408.401	429.92
408.779	426.53
409.156	430.6
409.534	438.96
409.912	437.6
410.29	430.6
410.667	431.95
411.045	450.48
411.422	422.46
411.8	433.76
412.178	470.82
412.555	464.27
412.933	439.64
413.31	447.77
413.687	467.88
414.065	483.93
414.442	484.15
414.819	474.89
415.197	478.5
415.574	482.35
415.951	471.95
416.328	488.67
416.705	498.84
417.082	488
417.46	494.78
417.837	483.02
418.214	487.77
418.591	494.32
418.967	492.74
419.344	488.67
419.721	502.46
420.098	520.99
420.475	512.4
420.852	492.29
421.228	500.2
421.605	524.6
421.982	504.72
422.358	522.8
422.735	520.76
423.111	541.1
423.488	522.8
423.864	528.67
424.241	529.8
424.617	538.84
424.994	567.77
425.37	550.14
425.746	535.68
426.123	551.72
426.499	571.38
426.875	562.57
427.251	573.19
427.627	562.57
428.003	567.09
428.379	566.41
428.756	578.16
429.132	589.01
429.507	591.95
429.883	612.74
430.259	599.86
430.635	610.93
431.011	603.92
431.387	633.3
431.763	634.43
432.138	609.35
432.514	638.95
432.89	645.96
433.265	656.35
433.641	652.06
434.016	651.61
434.392	644.6
434.767	657.03
435.143	658.61
435.518	681.21
435.894	656.8
436.269	679.18
436.644	684.15
437.02	684.83
437.395	695.22
437.77	695.67
438.145	709.68
438.52	684.15
438.895	712.62
439.271	713.75
439.646	729.8
440.021	728.44
440.395	724.37
440.77	721.44
441.145	693.87
441.52	757.82
441.895	724.37
442.27	762.11
442.645	747.42
443.019	764.15
443.394	754.43
443.769	767.31
444.143	770.25
444.518	786.52
444.892	786.52
445.267	783.13
445.641	788.33
446.016	793.75
446.39	815.22
446.764	776.12
447.139	800.98
447.513	803.92
447.887	815.22
448.262	807.08
448.636	829.91
449.01	824.94
449.384	823.13
449.758	832.85
450.132	830.36
450.506	831.94
450.88	842.34
451.254	855.44
451.628	830.59
452.002	875.33
452.376	854.77
452.75	861.32
453.123	891.37
453.497	906.29
453.871	896.57
454.244	912.84
454.618	904.26
454.992	916.91
455.365	916.46
455.739	931.37
456.112	937.48
456.486	928.89
456.859	957.36
457.232	967.31
457.606	988.1
457.979	981.32
458.352	977.02
458.725	1003.91
459.099	1010.02
459.472	1021.99
459.845	1034.42
460.218	1043.01
460.591	1049.56
460.964	1057.47
461.337	1064.03
461.71	1081.43
462.083	1073.74
462.456	1101.09
462.829	1097.02
463.201	1116.68
463.574	1104.02
463.947	1129.33
464.32	1150.35
464.692	1155.32
465.065	1166.17
465.438	1191.25
465.81	1211.59
466.183	1213.85
466.555	1228.99
466.928	1225.15
467.3	1219.05
467.672	1252.95
468.045	1273.74
468.417	1284.36
468.789	1297.01
469.161	1311.02
469.534	1335.66
469.906	1360.97
470.278	1372.49
470.65	1391.47
471.022	1393.06
471.394	1428.54
471.766	1445.94
472.138	1475.77
472.51	1500.62
472.882	1512.38
473.253	1523.67
473.625	1542.66
473.997	1575.2
474.369	1592.37
474.74	1606.84
475.112	1631.02
475.484	1642.54
475.855	1688.42
476.227	1692.71
476.598	1749.21
476.97	1755.53
477.341	1784.01
477.713	1824.68
478.084	1844.12
478.455	1880.05
478.827	1920.95
479.198	1978.58
479.569	1965.02
479.94	2049.76
480.311	2031.46
480.682	2073.72
481.053	2149.42
481.424	2137.22
481.795	2208.18
482.166	2215.41
482.537	2272.81
482.908	2299.02
483.279	2309.64
483.65	2373.6
484.021	2399.13
484.391	2453.37
484.762	2485.23
485.133	2475.97
485.503	2572.46
485.874	2587.83
486.244	2607.26
486.615	2641.84
486.985	2684.55
487.356	2800.03
487.726	2794.38
488.097	2794.38
488.467	2882.96
488.837	2892.68
489.207	2950.08
489.578	2986.91
489.948	3023.75
490.318	3067.81
490.688	3044.76
491.058	3107.14
491.428	3162.05
491.798	3231.88
492.168	3282.27
492.538	3282.95
492.908	3313.68
493.278	3293.8
493.648	3393
494.017	3403.63
494.387	3451.76
494.757	3463.06
495.126	3531.08
495.496	3542.15
495.866	3546.67
496.235	3639.55
496.605	3668.25
496.974	3688.14
497.344	3731.53
497.713	3717.74
498.082	3745.31
498.452	3824.18
498.821	3814.46
499.19	3835.93
499.559	3888.36
499.928	3870.51
500.298	3906.44
500.667	3917.28
501.036	3939.2
501.405	3973.78
501.774	4026.66
502.143	4035.47
502.512	4028.47
502.88	4094.68
503.249	4107.34
503.618	4109.14
503.987	4161.57
504.356	4163.83
504.724	4180.55
505.093	4170.61
505.462	4241.8
505.83	4252.64
506.199	4251.74
506.567	4314.79
506.936	4308.01
507.304	4298.74
507.672	4359.98
508.041	4394.33
508.409	4414.22
508.777	4419.64
509.145	4470.26
509.514	4449.47
509.882	4476.59
510.25	4458.06
510.618	4549.81
510.986	4516.59
511.354	4574.67
511.722	4583.03
512.09	4662.8
512.458	4588.23
512.826	4642.46
513.193	4682.69
513.561	4683.37
513.929	4718.17
514.297	4769.24
514.664	4734.89
515.032	4743.03
515.4	4801.1
515.767	4852.63
516.135	4888.33
516.502	4832.06
516.869	4879.29
517.237	4908.67
517.604	4852.17
517.972	4943.47
518.339	4905.05
518.706	4950.7
519.073	4947.77
519.44	4946.64
519.808	4977.14
520.175	5030.02
520.542	5067.31
520.909	5064.82
521.276	5084.94
521.643	5110.92
522.009	5113.64
522.376	5176.91
522.743	5174.88
523.11	5169
523.477	5272.73
523.843	5262.33
524.21	5306.63
524.577	5426.4
524.943	5405.83
525.31	5417.13
525.676	5450.35
526.043	5465.94
526.409	5503.91
526.776	5573.51
527.142	5585.49
527.508	5580.74
527.874	5594.98
528.241	5647.18
528.607	5648.09
528.973	5673.85
529.339	5694.86
529.705	5779.38
530.071	5773.73
530.437	5829.1
530.803	5805.14
531.169	5896.44
531.535	5906.61
531.901	5888.31
532.267	5953.84
532.632	5972.6
532.998	5990.9
533.364	6017.12
533.73	6026.83
534.095	6054.4
534.461	6122.65
534.826	6115.19
535.192	6085.36
535.557	6188.18
535.923	6210.56
536.288	6194.29
536.653	6254.62
537.019	6245.81
537.384	6262.99
537.749	6302.76
538.114	6342.3
538.479	6364.45
538.845	6374.85
539.21	6332.59
539.575	6413.94
539.94	6445.35
540.305	6449.42
540.67	6482.41
541.034	6500.04
541.399	6554.73
541.764	6535.75
542.129	6597.89
542.494	6582.07
542.858	6634.95
543.223	6662.52
543.587	6741.39
543.952	6736.42
544.316	6786.59
544.681	6771.22
545.045	6815.51
545.41	6801.05
545.774	6824.78
546.138	6849.18
546.503	6895.74
546.867	6905.23
547.231	6941.84
547.595	6950.42
547.959	7015.73
548.324	7014.15
548.688	6996.07
549.052	7042.4
549.416	7087.14
549.779	7119.23
550.143	7172.79
550.507	7162.4
550.871	7166.46
551.235	7162.62
551.599	7200.36
551.962	7255.5
552.326	7318.32
552.689	7328.49
553.053	7282.39
553.417	7319
553.78	7416.85
554.143	7378.89
554.507	7418.66
554.87	7379.57
555.234	7546.79
555.597	7499.34
555.96	7448.49
556.323	7536.85
556.686	7551.31
557.05	7591.09
557.413	7617.53
557.776	7613.01
558.139	7706.56
558.502	7716.05
558.865	7711.53
559.228	7776.62
559.59	7813
559.953	7755.6
560.316	7913.11
560.679	7949.27
561.041	7894.13
561.404	7949.72
561.767	7948.36
562.129	7910.85
562.492	8062.71
562.854	8027.46
563.217	8039.21
563.579	8010.74
563.941	8164.86
564.304	8171.41
564.666	8207.11
565.028	8205.98
565.39	8209.15
565.753	8267
566.115	8282.82
566.477	8325.08
566.839	8290.73
567.201	8438.07
567.563	8382.25
567.925	8429.71
568.287	8508.58
568.648	8548.12
569.01	8539.08
569.372	8588.57
569.734	8575.47
570.095	8683.03
570.457	8632.41
570.819	8681.68
571.18	8643.71
571.542	8800.09
571.903	8820.43
572.265	8822.01
572.626	8811.62
572.987	8923.48
573.349	8958.51
573.71	9037.15
574.071	9143.14
574.432	9150.14
574.794	9208.9
575.155	9311.49
575.516	9268.56
575.877	9320.98
576.238	9368.21
576.599	9454.99
576.96	9487.08
577.32	9539.51
577.681	9680.3
578.042	9777.47
578.403	9732.05
578.763	9897.47
579.124	9967.97
579.485	10013.17
579.845	10121.19
580.206	10239.83
580.566	10256.55
580.927	10421.75
581.287	10590.78
581.648	10664.9
582.008	10753.94
582.368	10948.29
582.728	11018.79
583.089	11219.24
583.449	11324.77
583.809	11472.57
584.169	11663.07
584.529	11778.32
584.889	11995.72
585.249	12064.19
585.609	12264.64
585.969	12512.31
586.329	12541.46
586.688	12811.97
587.048	12958.85
587.408	13152.52
587.768	13335.12
588.127	13579.4
588.487	13663.47
588.846	14019.84
589.206	14106.85
589.565	14324.24
589.925	14641.75
590.284	14852.36
590.643	15098.68
591.003	15400.37
591.362	15580.93
591.721	15797.88
592.08	15972.79
592.44	16374.36
592.799	16569.15
593.158	16809.6
593.517	17099.99
593.876	17409.58
594.235	17548.34
594.593	17909.46
594.952	18147.64
595.311	18288.66
595.67	18690.23
596.029	19040.28
596.387	19228.97
596.746	19590.77
597.104	19659.02
597.463	19883.19
597.822	20381.26
598.18	20461.48
598.538	20738.54
598.897	21142.14
599.255	21174.01
599.613	21625.97
599.972	21750.49
600.33	22184.83
600.688	22257.59
601.046	22550.92
601.404	22937.35
601.762	23119.04
602.12	23428.18
602.478	23712.7
602.836	23914.27
603.194	23998.79
603.552	24313.58
603.91	24484.65
604.268	24863.63
604.625	25111.3
604.983	25333.44
605.341	25409.6
605.698	25724.39
606.056	26008.91
606.413	26162.12
606.771	26491.61
607.128	26672.39
607.485	26752.84
607.843	27009.78
608.2	27322.32
608.557	27620.62
608.914	27659.71
609.272	28021.28
609.629	28238.68
609.986	28513.02
610.343	28404.78
610.7	28875.27
611.057	29033.91
611.414	29146.9
611.771	29328.82
612.127	29539.66
612.484	29821.01
612.841	30050.16
613.198	30071.85
613.554	30152.98
613.911	30447.21
614.267	30552.29
614.624	30722
614.98	30889.91
615.337	31104.59
615.693	31244.93
616.05	31375.77
616.406	31706.61
616.762	31595.43
617.118	31835.65
617.475	31842.43
617.831	31989.54
618.187	32185.02
618.543	32495.52
618.899	32755.85
619.255	32659.35
619.611	32732.8
619.967	32980.25
620.323	33250.3
620.678	33023.19
621.034	33138.21
621.39	33173.92
621.746	33221.37
622.101	33705.2
622.457	33636.05
622.812	33717.18
623.168	33857.51
623.523	33867
623.879	34167.11
624.234	33970.51
624.589	34173.21
624.945	34395.58
625.3	34354.9
625.655	34363.72
626.01	34504.73
626.365	34588.79
626.72	34478.29
627.075	34538.4
627.43	34644.39
627.785	34662.24
628.14	34841.67
628.495	34850.26
628.85	34777.04
629.205	34732.07
629.559	35069.91
629.914	34945.62
630.269	35058.61
630.623	35009.57
630.978	34936.36
631.332	35213.41
631.687	35173.41
632.041	35167.76
632.396	35281.43
632.75	35138.61
633.104	35205.95
633.459	35174.77
633.813	35134.09
634.167	35100.19
634.521	35198.72
634.875	35183.81
635.229	35278.95
635.583	35096.8
635.937	35200.3
636.291	35144.94
636.645	35209.79
636.999	35221.77
637.352	35292.96
637.706	35003.25
638.06	35296.8
638.413	35117.82
638.767	35189.23
639.121	35224.03
639.474	34877.83
639.828	35055.67
640.181	35200.98
640.534	35062
640.888	35042.34
641.241	35053.87
641.594	35048.89
641.947	35178.61
642.301	35071.04
642.654	35076.46
643.007	35186.52
643.36	35255.22
643.713	35117.37
644.066	35220.87
644.419	34979.74
644.771	34753.54
645.124	34362.13
645.477	34316.26
645.83	34303.15
646.182	34165.98
646.535	34076.49
646.888	34144.96
647.24	33922.6
647.593	34162.36
647.945	34083.04
648.298	34006.44
648.65	33806.67
649.002	33846.44
649.355	33929.83
649.707	33952.2
650.059	34115.59
650.411	34385.41
650.763	34379.31
651.115	34775.68
651.467	34665.4
651.819	34635.8
652.171	34652.3
652.523	34562.13
652.875	34530.49
653.227	34482.13
653.578	34638.74
653.93	34589.7
654.282	34537.04
654.633	34509.25
654.985	34579.53
655.337	34429.25
655.688	34446.88
656.039	34724.61
656.391	34309.93
656.742	34470.6
657.094	34448.01
657.445	34535.46
657.796	34471.96
658.147	34381.34
658.498	34365.97
658.849	34355.81
659.2	34422.7
659.551	34265.41
659.902	34398.06
660.253	34323.26
660.604	34332.98
660.955	34335.92
661.306	34465.63
661.656	34364.62
662.007	34356.71
662.358	34379.76
662.708	34391.06
663.059	34349.03
663.409	34090.28
663.76	34340.21
664.11	34400.78
664.461	34315.58
664.811	34341.57
665.161	34201.91
665.511	34191.52
665.862	34293.43
666.212	34411.62
666.562	34351.51
666.912	34213.89
667.262	34331.85
667.612	34278.52
667.962	34348.35
668.312	34224.28
668.662	34368.91
669.011	34263.38
669.361	34264.28
669.711	34126.43
670.06	34267.9
670.41	34125.76
670.76	34108.81
671.109	34245.53
671.459	34130.27
671.808	34302.93
672.157	34201.23
672.507	33961.01
672.856	33849.83
673.205	33983.84
673.554	34036.27
673.904	33960.56
674.253	34126.43
674.602	34067.23
674.951	33442.38
675.3	33461.37
675.649	33955.36
675.998	33803.28
676.346	34046.89
676.695	34090.28
677.044	33773.67
677.393	33878.98
677.741	33900.9
678.09	33729.38
678.438	33778.87
678.787	33841.47
679.135	33828.14
679.484	33558.54
679.832	33687.12
680.181	33460.91
680.529	33655.26
680.877	33509.5
681.225	33555.83
681.573	33798.76
681.922	33516.05
682.27	33375.49
682.618	33530.97
682.966	33365.1
683.314	33449.61
683.661	33322.61
684.009	33126.01
684.357	33130.98
684.705	32988.16
685.053	33089.4
685.4	32989.29
685.748	32886.24
686.095	32870.2
686.443	32837.2
686.79	32726.02
687.138	32791.55
687.485	32793.81
687.832	32759.46
688.18	32614.16
688.527	32617.77
688.874	32547.72
689.221	32409.19
689.568	32256.88
689.915	32322.19
690.262	32243.77
690.609	32115.64
690.956	32040.16
691.303	32120.61
691.65	32011.23
691.997	31855.76
692.344	31795.2
692.69	31632.49
693.037	31761.07
693.383	31458.25
693.73	31583.68
694.077	31382.78
694.423	31459.61
694.769	31152.95
695.116	31175.55
695.462	31103.24
695.808	31153.63
696.155	31200.18
696.501	30885.16
696.847	30917.25
697.193	30757.71
697.539	30756.58
697.885	30596.58
698.231	30424.61
698.577	30509.81
698.923	30391.16
699.269	30190.72
699.614	30170.83
699.96	30090.83
700.306	30126.54
700.651	29971.74
700.997	29875.92
701.342	29880.67
701.688	29886.54
702.033	29794.34
702.379	29661.01
702.724	29693.78
703.069	29679.77
703.415	29338.54
703.76	29265.32
704.105	29373.34
704.45	29129.5
704.795	29134.93
705.14	29003.63
705.485	29036.17
705.83	28905.78
706.175	29023.29
706.52	28850.87
706.865	28656.52
707.209	28792.79
707.554	28667.37
707.899	28677.54
708.243	28510.08
708.588	28558.9
708.932	28403.19
709.277	28151.22
709.621	28257.89
709.966	28076.42
710.31	28084.78
710.654	27919.82
710.998	27946.03
711.342	28047.95
711.687	27932.25
712.031	27797.79
712.375	27709.65
712.719	27741.97
713.063	27715.08
713.407	27755.53
713.75	27557.79
714.094	27476.21
714.438	27372.94
714.782	27435.99
715.125	27276.9
715.469	27294.3
715.812	27137.92
716.156	27060.86
716.499	27127.75
716.843	27166.16
717.186	26975.89
717.53	27097.92
717.873	27194.19
718.216	26964.14
718.559	26874.87
718.902	26826.06
719.246	26758.27
719.589	26763.46
719.932	26663.8
720.275	26559.17
720.617	26597.59
720.96	26521.89
721.303	26407.54
721.646	26483.02
721.989	26247.09
722.331	26400.31
722.674	26396.92
723.016	26385.17
723.359	26237.15
723.701	26274.44
724.044	26144.04
724.386	26013.43
724.729	26060.66
725.071	25981.56
725.413	25888.46
725.755	25985.18
726.097	25764.39
726.439	25711.06
726.782	25676.71
727.124	25779.76
727.465	25692.3
727.807	25633.32
728.149	25621.35
728.491	25718.07
728.833	25606.21
729.175	25563.72
729.516	25492.99
729.858	25428.81
730.199	25542.93
730.541	25374.35
730.882	25416.61
731.224	25323.05
731.565	25238.31
731.906	25234.01
732.248	25253.45
732.589	25144.75
732.93	25084.64
733.271	25064.98
733.612	25051.19
733.953	24980.23
734.294	24989.72
734.635	25000.8
734.976	25026.33
735.317	24822.72
735.658	24798.99
735.999	24802.38
736.339	24725.55
736.68	24751.54
737.021	24660.47
737.361	24659.34
737.702	24716.51
738.042	24556.29
738.383	24523.52
738.723	24594.71
739.063	24511.32
739.404	24533.92
739.744	24406.91
740.084	24429.51
740.424	24378.21
740.764	24317.43
741.104	24452.11
741.444	24233.81
741.784	24178.45
742.124	24170.76
742.464	24221.16
742.804	24120.59
743.143	24056.42
743.483	24156.75
743.823	23938.68
744.162	23914.72
744.502	24071.1
744.841	23799.7
745.181	24066.36
745.52	23810.09
745.86	23802.41
746.199	23868.4
746.538	23782.07
746.877	23744.79
747.216	23828.17
747.556	23718.12
747.895	23674.5
748.234	23517.9
748.573	23593.38
748.911	23601.29
749.25	23445.81
749.589	23528.52
749.928	23455.98
750.267	23488.97
750.605	23342.99
750.944	23360.84
751.283	23320.62
751.621	23365.36
751.96	23172.82
752.298	23198.58
752.636	23162.88
752.975	22962.21
753.313	23026.61
753.651	23060.06
753.989	22923.56
754.327	22926.95
754.666	22845.37
755.004	22808.54
755.342	22821.65
755.679	22860.06
756.017	22668.2
756.355	22740.97
756.693	22597.92
757.031	22684.7
757.368	22560.41
757.706	22535.55
758.044	22424.82
758.381	22408.55
758.719	22292.39
759.056	22397.7
759.394	22320.19
759.731	22130.82
760.068	22093.3
760.405	21979.41
760.743	21919.07
761.08	22009.01
761.417	21851.73
761.754	21733.31
762.091	21721.79
762.428	21716.59
762.765	21531.51
763.102	21681.79
763.438	21524.5
763.775	21414.68
764.112	21362.02
764.449	21378.97
764.785	21255.59
765.122	21197.96
765.458	20996.38
765.795	21080
766.131	21007.68
766.467	20883.84
766.804	20887.23
767.14	20820.34
767.476	20734.02
767.812	20561.59
768.148	20745.32
768.485	20597.52
768.821	20401.37
769.157	20438.21
769.492	20335.84
769.828	20289.96
770.164	20219.68
770.5	20154.6
770.836	20101.94
771.171	20115.28
771.507	20043.87
771.842	19817.2
772.178	19903.98
772.513	19747.6
772.849	19694.5
773.184	19590.54
773.519	19582.18
773.855	19462.41
774.19	19532.69
774.525	19371.34
774.86	19338.8
775.195	19312.13
775.53	19169.99
775.865	19114.85
776.2	18939.71
776.535	18926.15
776.87	18890.22
777.205	18729.55
777.539	18748.98
777.874	18738.36
778.209	18500.63
778.543	18461.31
778.878	18497.92
779.212	18393.06
779.547	18324.59
779.881	18393.29
780.215	18275.78
780.55	18217.92
780.884	18057.7
781.218	18045.73
781.552	18043.24
781.886	17939.06
782.22	17926.86
782.554	17777.94
782.888	17636.25
783.222	17493.88
783.556	17517.6
783.889	17464.05
784.223	17389.25
784.557	17363.03
784.89	17342.69
785.224	17262.7
785.557	17161.23
785.891	17138.18
786.224	17038.07
786.558	17034.45
786.891	16829.03
787.224	16858.41
787.557	16810.96
787.891	16759.66
788.224	16648.7
788.557	16661.58
788.89	16583.62
789.223	16604.86
789.556	16436.5
789.888	16438.31
790.221	16393.11
790.554	16306.79
790.887	16176.62
791.219	16126.91
791.552	16105.44
791.884	16010.3
792.217	15996.97
792.549	16045.55
792.882	15857.31
793.214	15820.25
793.546	15834.03
793.879	15718.1
794.211	15617.54
794.543	15682.85
794.875	15599.24
795.207	15642.17
795.539	15554.27
795.871	15512.01
796.203	15354.27
796.535	15219.81
796.867	15352.69
797.198	15196.54
797.53	15292.35
797.862	15108.18
798.193	15095.97
798.525	14984.34
798.856	15066.82
799.188	14899.82
799.519	14891.46
799.85	14850.78
800.182	14877
800.513	14798.58
800.844	14641.3
801.175	14709.99
801.506	14704.8
801.837	14580.51
802.168	14512.03
802.499	14592.26
802.83	14453.96
803.161	14434.3
803.491	14392.71
803.822	14451.02
804.153	14293.06
804.483	14151.82
804.814	14169.22
805.145	14143.23
805.475	14208.99
805.805	14099.16
806.136	14016.91
806.466	13972.39
806.796	13937.81
807.126	13877.02
807.457	13912.5
807.787	13903.01
808.117	13699.17
808.447	13784.6
808.777	13804.93
809.107	13717.25
809.436	13674.09
809.766	13647.88
810.096	13633.86
810.426	13599.52
810.755	13583.47
811.085	13509.35
811.414	13528.33
811.744	13339.64
812.073	13330.82
812.403	13442.91
812.732	13263.03
813.061	13334.21
813.39	13209.7
813.719	13190.26
814.049	13275.46
814.378	13126.53
814.707	13127.44
815.036	13060.77
815.365	12962.02
815.693	12878.18
816.022	13009.7
816.351	12841.12
816.68	12791.63
817.008	12813.32
817.337	12797.95
817.665	12761.12
817.994	12770.38
818.322	12728.8
818.651	12604.06
818.979	12648.35
819.307	12772.42
819.636	12582.59
819.964	12547.11
820.292	12571.52
820.62	12533.33
820.948	12546.89
821.276	12557.73
821.604	12486.32
821.932	12524.29
822.259	12501.24
822.587	12505.31
822.915	12468.92
823.243	12502.14
823.57	12419.66
823.898	12448.13
824.225	12440.9
824.553	12408.81
824.88	12415.14
825.207	12432.54
825.535	12443.39
825.862	12505.08
826.189	12400
826.516	12398.42
826.843	12519.54
827.17	12466.89
827.497	12501.47
827.824	12449.26
828.151	12487
828.478	12412.88
828.805	12485.42
829.131	12378.3
829.458	12406.33
829.785	12286.56
830.111	12299.89
830.438	12442.94
830.764	12363.16
831.09	12447
831.417	12345.99
831.743	12414.01
832.069	12406.78
832.395	12304.41
832.722	12328.81
833.048	12251.3
833.374	12352.54
833.7	12176.5
834.026	12261.7
834.351	12336.27
834.677	12276.61
835.003	12251.08
835.329	12241.58
835.654	12176.73
835.98	12181.7
836.306	12146.22
836.631	12155.71
836.956	12193.45
837.282	12133.57
837.607	12099.89
837.932	11999.33
838.258	12066.67
838.583	12111.42
838.908	12045.43
839.233	11918.2
839.558	11962.5
839.883	11931.99
840.208	11876.17
840.533	11894.93
840.858	11907.81
841.182	11939.45
841.507	11842.73
841.832	11813.57
842.156	11770.64
842.481	11755.27
842.805	11745.1
843.13	11722.28
843.454	11674.14
843.778	11641.83
844.103	11748.26
844.427	11634.82
844.751	11680.24
845.075	11550.53
845.399	11578.33
845.723	11531.55
846.047	11480.25
846.371	11438.44
846.695	11421.72
847.019	11336.52
847.343	11254.27
847.666	11183.99
847.99	11157.77
848.313	11150.31
848.637	11127.49
848.96	11133.82
849.284	10998.23
849.607	10956.19
849.931	10884.33
850.254	10913.94
850.577	10804.33
850.9	10800.27
851.223	10746.03
851.546	10743.55
851.869	10578.58
852.192	10638.01
852.515	10534.29
852.838	10501.74
853.161	10512.82
853.483	10474.85
853.806	10387.85
854.129	10352.6
854.451	10366.38
854.774	10340.84
855.096	10285.03
855.419	10261.3
855.741	10226.95
856.063	10166.39
856.385	10152.15
856.708	10084.58
857.03	10082.77
857.352	10106.5
857.674	10053.39
857.996	9968.42
858.318	9926.62
858.64	9954.64
858.961	9863.79
859.283	9813.4
859.605	9804.36
859.926	9864.92
860.248	9773.18
860.57	9835.77
860.891	9746.06
861.212	9699.73
861.534	9677.81
861.855	9712.61
862.176	9746.28
862.498	9704.25
862.819	9686.85
863.14	9640.98
863.461	9622.44
863.782	9624.93
864.103	9584.25
864.424	9584.71
864.745	9531.37
865.065	9502.9
865.386	9451.83
865.707	9506.29
866.027	9464.26
866.348	9426.74
866.668	9412.73
866.989	9364.37
867.309	9349.68
867.63	9361.66
867.95	9356.91
868.27	9368.44
868.59	9326.41
868.91	9363.69
869.23	9245.73
869.55	9246.41
869.87	9266.97
870.19	9211.83
870.51	9288.67
870.83	9192.85
871.15	9169.58
871.469	9247.77
871.789	9239.86
872.109	9177.48
872.428	9177.94
872.748	9119.41
873.067	9110.82
873.386	9191.72
873.706	9081.67
874.025	9068.11
874.344	9000.99
874.663	9028.79
874.982	8991.05
875.301	9046.64
875.62	8945.63
875.939	8923.03
876.258	8949.92
876.577	8908.11
876.896	8942.01
877.214	8843.93
877.533	8871.73
877.852	8885.06
878.17	8899.3
878.489	8854.56
878.807	8827.66
879.125	8789.47
879.444	8856.82
879.762	8798.96
880.08	8775.46
880.398	8780.88
880.716	8787.21
881.034	8745.63
881.352	8729.13
881.67	8682.13
881.988	8724.39
882.306	8660.44
882.624	8646.43
882.941	8585.64
883.259	8582.25
883.577	8622.02
883.894	8474.68
884.212	8604.62
884.529	8519.2
884.846	8511.74
885.164	8492.53
885.481	8463.38
885.798	8497.28
886.115	8439.42
886.432	8383.38
886.75	8402.14
887.067	8417.28
887.383	8347.68
887.7	8369.37
888.017	8309.26
888.334	8332.08
888.651	8301.8
888.967	8268.13
889.284	8214.8
889.6	8165.99
889.917	8165.99
890.233	8200.79
890.55	8108.13
890.866	8111.52
891.182	8182.48
891.498	8046.89
891.815	8073.33
892.131	8041.7
892.447	8002.15
892.763	7994.24
893.079	7925.31
893.395	7977.97
893.71	7949.27
894.026	7915.6
894.342	7889.38
894.657	7888.71
894.973	7847.35
895.289	7796.5
895.604	7753.57
895.92	7752.44
896.235	7617.53
896.55	7733.23
896.865	7632.67
897.181	7642.61
897.496	7619.11
897.811	7573.69
898.126	7608.03
898.441	7462.5
898.756	7551.09
899.071	7436.29
899.386	7420.69
899.7	7401.26
900.015	7350.41
900.33	7319.23
900.644	7311.55
900.959	7342.73
901.273	7246.24
901.588	7232.68
901.902	7247.14
902.216	7267.7
902.531	7201.04
902.845	7113.81
903.159	7048.28
903.473	7093.02
903.787	7115.17
904.101	7061.61
904.415	7025.45
904.729	7040.37
905.042	6945.9
905.356	6964.44
905.67	6926.24
905.984	6939.35
906.297	6880.37
906.611	6857.77
906.924	6825.46
907.237	6789.98
907.551	6805.8
907.864	6739.13
908.177	6737.1
908.491	6664.78
908.804	6695.97
909.117	6667.49
909.43	6649.64
909.743	6536.2
910.056	6573.49
910.368	6545.69
910.681	6497.78
910.994	6489.42
911.307	6505.69
911.619	6399.03
911.932	6455.75
912.244	6368.97
912.557	6387.28
912.869	6363.77
913.181	6219.37
913.494	6329.88
913.806	6218.01
914.118	6267.73
914.43	6185.47
914.742	6178.69
915.054	6166.94
915.366	6137.11
915.678	6174.85
915.99	6108.64
916.302	6102.99
916.613	6023.9
916.925	5964.91
917.236	6058.92
917.548	5987.51
917.859	5933.28
918.171	5936.67
918.482	5877.01
918.794	5838.14
919.105	5814.18
919.416	5832.04
919.727	5766.73
920.038	5759.72
920.349	5725.82
920.66	5740.51
920.971	5698.25
921.282	5681.31
921.593	5640.4
921.903	5644.47
922.214	5586.62
922.525	5549.33
922.835	5537.81
923.146	5519.05
923.456	5507.98
923.767	5454.19
924.077	5454.42
924.387	5414.65
924.697	5407.19
925.008	5339.62
925.318	5392.95
925.628	5313.86
925.938	5302.33
926.248	5258.27
926.558	5284.71
926.867	5254.65
927.177	5265.27
927.487	5172.62
927.796	5196.12
928.106	5136.69
928.416	5226.18
928.725	5145.95
929.034	5107.76
929.344	5059.85
929.653	5054.2
929.962	5080.19
930.271	5063.47
930.581	4995
930.89	4945.73
931.199	4932.4
931.508	4958.39
931.817	4942.12
932.125	4911.83
932.434	4891.72
932.743	4839.75
933.051	4838.62
933.36	4799.07
933.669	4796.36
933.977	4768.79
934.286	4753.65
934.594	4790.48
934.902	4719.97
935.21	4693.31
935.519	4653.31
935.827	4646.08
936.135	4647.43
936.443	4586.87
936.751	4574.22
937.059	4545.29
937.367	4532.18
937.674	4551.39
937.982	4501.9
938.29	4469.81
938.597	4459.87
938.905	4451.96
939.213	4455.12
939.52	4429.81
939.827	4424.62
940.135	4406.08
940.442	4336.03
940.749	4372.41
941.056	4356.59
941.363	4285.86
941.67	4312.53
941.977	4328.57
942.284	4232.3
942.591	4220.55
942.898	4209.71
943.205	4225.3
943.511	4166.09
943.818	4198.18
944.125	4179.65
944.431	4174.9
944.738	4122.7
945.044	4104.17
945.35	4101.69
945.657	4067.79
945.963	4082.7
946.269	4012.65
946.575	4030.73
946.881	3957.51
947.187	3976.04
947.493	3923.16
947.799	3890.17
948.105	3910.28
948.41	3878.87
948.716	3907.57
949.022	3879.77
949.327	3882.93
949.633	3851.97
949.938	3815.59
950.244	3833.22
950.549	3819.66
950.854	3793.22
951.16	3769.94
951.465	3749.38
951.77	3754.35
952.075	3705.09
952.38	3697.63
952.685	3670.96
952.99	3677.06
953.294	3647.69
953.599	3645.43
953.904	3634.13
954.209	3606.56
954.513	3604.3
954.818	3545.32
955.122	3544.64
955.426	3565.2
955.731	3541.7
956.035	3516.16
956.339	3444.3
956.643	3484.53
956.948	3465.54
957.252	3458.54
957.556	3426.45
957.86	3437.97
958.163	3389.84
958.467	3378.32
958.771	3388.48
959.075	3378.09
959.378	3379.45
959.682	3358.88
959.985	3350.07
960.289	3329.73
960.592	3286.57
960.896	3261.26
961.199	3285.21
961.502	3266.45
961.805	3249.05
962.108	3195.04
962.411	3245.89
962.714	3197.98
963.017	3177.87
963.32	3175.16
963.623	3193.91
963.926	3150.75
964.228	3122.73
964.531	3099.9
964.833	3117.53
965.136	3079.79
965.438	3047.7
965.741	3038.44
966.043	3064.43
966.345	3042.28
966.648	3014.93
966.95	2991.88
967.252	2967.93
967.554	2981.26
967.856	2953.69
968.158	2994.82
968.46	2933.58
968.761	2909.4
969.063	2931.1
969.365	2900.59
969.666	2929.06
969.968	2870.08
970.269	2859.01
970.571	2863.07
970.872	2840.93
971.174	2814.71
971.475	2829.4
971.776	2816.52
972.077	2823.53
972.378	2777.2
972.679	2772.68
972.98	2766.35
973.281	2765
973.582	2756.64
973.883	2768.84
974.183	2722.29
974.484	2692.91
974.785	2706.47
975.085	2692.46
975.386	2704.43
975.686	2678.22
975.986	2647.49
976.287	2679.35
976.587	2627.6
976.887	2579.69
977.187	2601.39
977.487	2607.04
977.787	2572.46
978.087	2523.42
978.387	2536.76
978.687	2560.03
978.987	2519.81
979.286	2520.94
979.586	2543.76
979.885	2531.33
980.185	2485.91
980.484	2470.09
980.784	2456.98
981.083	2474.84
981.382	2474.84
981.682	2448.62
981.981	2435.29
982.28	2444.33
982.579	2414.05
982.878	2423.99
983.177	2396.19
983.475	2373.6
983.774	2337.21
984.073	2334.95
984.372	2342.86
984.67	2343.54
984.969	2350.32
985.267	2333.6
985.566	2321.62
985.864	2325.24
986.162	2308.96
986.461	2283.43
986.759	2278.46
987.057	2233.03
987.355	2260.38
987.653	2246.82
987.951	2216.99
988.249	2215.63
988.547	2213.37
988.844	2171.34
989.142	2197.56
989.44	2172.47
989.737	2170.89
990.035	2158.23
990.332	2178.35
990.63	2164.11
990.927	2154.84
991.224	2116.88
991.521	2103.32
991.819	2088.63
992.116	2108.52
992.413	2089.54
992.71	2052.02
993.006	2061.51
993.303	2061.97
993.6	2039.14
993.897	2049.08
994.193	2039.14
994.49	2036.66
994.787	2011.12
995.083	2004.79
995.379	1954.62
995.676	1981.74
995.972	2006.83
996.268	1972.7
996.565	1973.61
996.861	1973.61
997.157	1927.51
997.453	1923.21
997.749	1894.51
998.044	1942.19
998.34	1906.49
998.636	1888.86
998.932	1873.5
999.227	1843.44
999.523	1899.94
999.818	1882.31
1000.114	1846.83
1000.409	1844.12
1000.704	1828.75
1001	1816.1
1001.295	1838.92
1001.59	1816.77
1001.885	1791.69
1002.18	1811.8
1002.475	1779.49
1002.77	1797.34
1003.065	1758.02
1003.359	1758.7
1003.654	1725.93
1003.949	1718.02
1004.243	1708.3
1004.538	1732.48
1004.832	1715.08
1005.127	1714.4
1005.421	1679.38
1005.715	1690.45
1006.009	1652.94
1006.304	1657.91
1006.598	1637.12
1006.892	1645.71
1007.186	1627.63
1007.48	1602.99
1007.773	1618.59
1008.067	1602.32
1008.361	1611.58
1008.655	1594.86
1008.948	1557.12
1009.242	1571.58
1009.535	1548.76
1009.829	1564.58
1010.122	1535.2
1010.415	1527.74
1010.708	1526.39
1011.001	1517.8
1011.295	1512.83
1011.588	1490.68
1011.881	1467.63
1012.173	1484.35
1012.466	1496.78
1012.759	1461.76
1013.052	1452.94
1013.344	1487.29
1013.637	1440.29
1013.93	1440.06
1014.222	1426.73
1014.514	1404.13
1014.807	1400.97
1015.099	1401.19
1015.391	1389.67
1015.683	1394.41
1015.976	1386.05
1016.268	1370.01
1016.56	1357.8
1016.851	1352.83
1017.143	1342.44
1017.435	1342.89
1017.727	1320.97
1018.018	1325.04
1018.31	1355.32
1018.602	1308.31
1018.893	1283.23
1019.185	1311.93
1019.476	1294.08
1019.767	1275.32
1020.058	1275.55
1020.35	1270.12
1020.641	1273.96
1020.932	1271.25
1021.223	1229.45
1021.514	1240.29
1021.804	1228.77
1022.095	1214.53
1022.386	1243.46
1022.677	1205.04
1022.967	1194.42
1023.258	1189.22
1023.548	1189.9
1023.839	1184.93
1024.129	1167.98
1024.419	1193.74
1024.709	1151.26
1025	1137.92
1025.29	1135.44
1025.58	1127.53
1025.87	1140.86
1026.16	1110.13
1026.449	1121.88
1026.739	1111.71
1027.029	1094.08
1027.319	1111.03
1027.608	1094.99
1027.898	1069
1028.187	1075.55
1028.477	1070.13
1028.766	1055.66
1029.055	1031.94
1029.344	1060.41
1029.634	1038.04
1029.923	1021.09
1030.212	1016.8
1030.501	1025.38
1030.79	989
1031.078	1021.99
1031.367	994.87
1031.656	981.99
1031.945	984.03
1032.233	981.77
1032.522	981.09
1032.81	944.25
1033.099	996.68
1033.387	944.71
1033.675	963.92
1033.963	929.11
1034.251	947.87
1034.54	922.11
1034.828	951.71
1035.116	923.01
1035.403	923.46
1035.691	919.4
1035.979	914.65
1036.267	900.64
1036.554	903.13
1036.842	907.42
1037.129	895.22
1037.417	891.83
1037.704	883.69
1037.992	835.78
1038.279	846.86
1038.566	887.08
1038.853	887.08
1039.14	887.08
