Data from hue_170_FLMS001491_00076.txt Node
Date: Tue Feb 07 16:49:10 GMT 2017
User: dcchb
Spectrometer: FLMS00149
Trigger mode: 0
Integration Time (sec): 2.000000E-2
Scans to average: 10
Electric dark correction enabled: true
Nonlinearity correction enabled: false
Boxcar width: 0
XAxis mode: Wavelengths
Number of Pixels in Spectrum: 2048
>>>>>Begin Spectral Data<<<<<
341.393	-8.95
341.776	-8.95
342.16	-8.95
342.543	-78.56
342.927	-57.77
343.31	-65.45
343.693	-87.37
344.077	-55.06
344.46	-46.69
344.843	-65
345.226	-50.99
345.61	-22.51
345.993	-13.25
346.376	-14.6
346.759	15.9
347.142	15.9
347.525	38.28
347.908	62.91
348.291	81.21
348.674	85.05
349.057	121.66
349.44	116.01
349.823	137.03
350.206	142.68
350.588	199.85
350.971	207.76
351.354	227.42
351.737	238.72
352.119	249.12
352.502	259.74
352.884	269
353.267	304.71
353.65	286.4
354.032	323.24
354.414	311.04
354.797	311.04
355.179	326.63
355.562	324.6
355.944	323.92
356.326	320.3
356.709	340.41
357.091	315.56
357.473	335.22
357.855	329.79
358.238	346.06
358.62	334.99
359.002	348.1
359.384	331.38
359.766	346.29
360.148	332.51
360.53	332.28
360.912	326.86
361.294	334.77
361.676	331.6
362.057	355.56
362.439	324.82
362.821	327.53
363.203	332.28
363.584	333.64
363.966	304.03
364.348	295.67
364.729	314.88
365.111	310.36
365.493	328.21
365.874	335.22
366.256	328.21
366.637	310.13
367.019	325.5
367.4	302.9
367.781	297.48
368.163	303.13
368.544	312.84
368.925	325.27
369.306	312.17
369.688	315.33
370.069	319.17
370.45	307.42
370.831	313.52
371.212	282.79
371.593	313.3
371.974	285.27
372.355	326.63
372.736	318.49
373.117	306.97
373.498	306.74
373.879	321.66
374.26	316.23
374.641	307.42
375.021	302.68
375.402	326.4
375.783	327.53
376.163	328.89
376.544	335.44
376.925	319.85
377.305	337.25
377.686	320.3
378.066	325.05
378.447	326.86
378.827	311.04
379.208	318.49
379.588	310.59
379.968	341.54
380.349	324.6
380.729	320.75
381.109	311.94
381.489	322.11
381.87	327.99
382.25	311.71
382.63	327.31
383.01	324.14
383.39	336.57
383.77	333.18
384.15	347.65
384.53	323.01
384.91	339.74
385.29	364.14
385.67	365.27
386.049	345.84
386.429	348.55
386.809	360.98
387.189	350.81
387.568	382.9
387.948	351.94
388.328	346.74
388.707	347.65
389.087	361.21
389.466	377.93
389.846	349.45
390.225	365.05
390.605	363.01
390.984	343.13
391.363	357.59
391.743	375.44
392.122	354.2
392.501	359.62
392.881	367.76
393.26	363.47
393.639	357.59
394.018	374.76
394.397	361.21
394.776	356.69
395.155	390.13
395.534	354.65
395.913	356.01
396.292	384.93
396.671	387.19
397.05	382.67
397.429	379.74
397.808	373.18
398.186	404.37
398.565	385.16
398.944	393.97
399.323	371.37
399.701	408.66
400.08	410.02
400.458	390.13
400.837	385.61
401.215	392.16
401.594	396.91
401.972	393.29
402.351	417.25
402.729	388.1
403.107	408.44
403.486	383.58
403.864	403.24
404.242	411.37
404.62	425.84
404.999	418.38
405.377	420.19
405.755	431.26
406.133	428.77
406.511	412.96
406.889	418.38
407.267	450.02
407.645	445.04
408.023	422.9
408.401	437.14
408.779	455.21
409.156	469.9
409.534	431.71
409.912	450.92
410.29	446.4
410.667	468.77
411.045	461.09
411.422	476.91
411.8	474.65
412.178	477.36
412.555	504.03
412.933	487.76
413.31	493.18
413.687	512.16
414.065	517.81
414.442	501.54
414.819	519.17
415.197	506.29
415.574	518.26
415.951	517.81
416.328	549.45
416.705	527.98
417.082	548.32
417.46	549
417.837	545.38
418.214	532.5
418.591	546.74
418.967	572.95
419.344	548.77
419.721	568.66
420.098	566.62
420.475	581.99
420.852	577.47
421.228	594.65
421.605	610.01
421.982	626.28
422.358	591.26
422.735	620.18
423.111	610.24
423.488	611.14
423.864	622.22
424.241	642.55
424.617	642.78
424.994	671.25
425.37	648.66
425.746	652.95
426.123	680.74
426.499	678.71
426.875	683.23
427.251	676.9
427.627	708.99
428.003	700.18
428.379	714.42
428.756	687.98
429.132	724.13
429.507	734.3
429.883	721.2
430.259	744.25
430.635	761.19
431.011	768.43
431.387	772.95
431.763	770.91
432.138	789.67
432.514	777.92
432.89	778.6
433.265	808.2
433.641	815.88
434.016	803.68
434.392	850.91
434.767	832.15
435.143	847.75
435.518	854.3
435.894	869.89
436.269	891.36
436.644	890.68
437.02	883.68
437.395	909.67
437.77	920.96
438.145	933.39
438.52	926.16
438.895	950.12
439.271	946.5
439.646	988.99
440.021	994.86
440.395	1013.17
440.77	974.75
441.145	1035.31
441.52	1034.41
441.895	1043.45
442.27	1032.37
442.645	1045.03
443.019	1070.11
443.394	1035.09
443.769	1083.45
444.143	1073.5
444.518	1071.69
444.892	1078.93
445.267	1111.47
445.641	1108.3
446.016	1117.12
446.39	1135.2
446.764	1105.14
447.139	1116.89
447.513	1141.07
447.887	1146.5
448.262	1154.18
448.636	1162.54
449.01	1179.71
449.384	1194.63
449.758	1192.14
450.132	1221.07
450.506	1223.56
450.88	1232.14
451.254	1219.71
451.628	1254.06
452.002	1266.27
452.376	1264.68
452.75	1306.04
453.123	1278.92
453.497	1302.42
453.871	1344.46
454.244	1371.8
454.618	1331.58
454.992	1393.27
455.365	1365.02
455.739	1410.44
456.112	1430.56
456.486	1452.7
456.859	1448.63
457.232	1491.57
457.606	1482.53
457.979	1514.62
458.352	1524.11
458.725	1528.86
459.099	1540.84
459.472	1583.09
459.845	1611.34
460.218	1625.8
460.591	1621.29
460.964	1668.52
461.337	1678.91
461.71	1702.64
462.083	1725.92
462.456	1739.7
462.829	1769.98
463.201	1779.25
463.574	1796.42
463.947	1818.79
464.32	1878.45
464.692	1887.27
465.065	1896.53
465.438	1944.21
465.81	1993.93
466.183	1992.57
466.555	1980.82
466.928	2050.2
467.3	2071.67
467.672	2092.69
468.045	2159.12
468.417	2174.26
468.789	2160.48
469.161	2195.28
469.534	2255.84
469.906	2346.46
470.278	2342.85
470.65	2399.12
471.022	2438.21
471.394	2465.78
471.766	2493.58
472.138	2528.61
472.51	2579.45
472.882	2671.88
473.253	2708.04
473.625	2733.57
473.997	2825.55
474.369	2850.63
474.74	2905.55
475.112	2969.05
475.484	3008.14
475.855	3082.49
476.227	3157.29
476.598	3225.99
476.97	3321.35
477.341	3353.44
477.713	3448.13
478.084	3515.47
478.455	3632.53
478.827	3645.41
479.198	3791.4
479.569	3818.52
479.94	3914.33
480.311	3986.19
480.682	4075.91
481.053	4226.87
481.424	4353.64
481.795	4421.89
482.166	4489.68
482.537	4634.54
482.908	4718.15
483.279	4776
483.65	4884.48
484.021	5014.64
484.391	5145.71
484.762	5220.51
485.133	5311.58
485.503	5371.47
485.874	5597.68
486.244	5665.02
486.615	5812.81
486.985	5898.23
487.356	6060.04
487.726	6132.35
488.097	6239.69
488.467	6348.17
488.837	6496.64
489.207	6625
489.578	6775.73
489.948	6874.03
490.318	7078.32
490.688	7060.24
491.058	7250.06
491.428	7345.88
491.798	7488.02
492.168	7631.75
492.538	7666.1
492.908	7857.51
493.278	7964.4
493.648	8053.66
494.017	8168.91
494.387	8327.32
494.757	8396.25
495.126	8548.33
495.496	8514.44
495.866	8688.44
496.235	8733.87
496.605	8887.53
496.974	8902.22
497.344	9104.93
497.713	9163.46
498.082	9146.74
498.452	9360.52
498.821	9339.05
499.19	9435.54
499.559	9567.97
499.928	9634.18
500.298	9658.14
500.667	9815.87
501.036	9815.87
501.405	9920.95
501.774	9917.11
502.143	10027.17
502.512	10062.42
502.88	10228.74
503.249	10167.95
503.618	10291.11
503.987	10377.66
504.356	10465.8
504.724	10532.24
505.093	10492.69
505.462	10480.49
505.83	10588.73
506.199	10649.97
506.567	10722.51
506.936	10717.09
507.304	10851.55
507.672	10885
508.041	10923.87
508.409	10959.34
508.777	11010.42
509.145	11142.62
509.514	11117.98
509.882	11212.67
510.25	11290.64
510.618	11317.08
510.986	11309.17
511.354	11385.55
511.722	11420.58
512.09	11447.47
512.458	11477.52
512.826	11510.74
513.193	11538.31
513.561	11564.07
513.929	11599.55
514.297	11734.24
514.664	11669.38
515.032	11740.12
515.4	11800.68
515.767	11804.07
516.135	11827.57
516.502	11706.9
516.869	11904.4
517.237	11917.74
517.604	11884.29
517.972	11946.89
518.339	11971.3
518.706	11928.81
519.073	11927.91
519.44	12061.46
519.808	12057.39
520.175	12094.91
520.542	12149.37
520.909	12110.5
521.276	12163.15
521.643	12272.76
522.009	12222.14
522.376	12265.52
522.743	12184.85
523.11	12240.89
523.477	12321.34
523.843	12303.72
524.21	12462.58
524.577	12488.8
524.943	12396.82
525.31	12390.27
525.676	12464.84
526.043	12444.28
526.409	12505.07
526.776	12609.92
527.142	12573.99
527.508	12514.11
527.874	12568.34
528.241	12561.56
528.607	12560.21
528.973	12576.03
529.339	12470.94
529.705	12568.12
530.071	12602.47
530.437	12583.26
530.803	12573.31
531.169	12605.4
531.535	12500.55
531.901	12509.81
532.267	12486.08
532.632	12543.03
532.998	12560.88
533.364	12529.7
533.73	12419.87
534.095	12509.81
534.461	12524.73
534.826	12486.31
535.192	12316.82
535.557	12411.28
535.923	12378.29
536.288	12299.87
536.653	12321.79
537.019	12250.84
537.384	12292.19
537.749	12267.33
538.114	12151.63
538.479	12132.65
538.845	12171.97
539.21	11994.35
539.575	12010.39
539.94	12045.42
540.305	12040.22
540.67	11918.19
541.034	11905.08
541.399	11868.7
541.764	11832.09
542.129	11887.46
542.494	11724.75
542.858	11776.27
543.223	11665.54
543.587	11638.87
543.952	11694.01
544.316	11580.35
544.681	11508.71
545.045	11501.48
545.41	11533.57
545.774	11496.28
546.138	11478.65
546.503	11394.36
546.867	11354.59
547.231	11373.12
547.595	11300.58
547.959	11324.76
548.324	11231.88
548.688	11206.34
549.052	11219.22
549.416	11131.54
549.779	11041.6
550.143	11035.5
550.507	11072.34
550.871	10951.66
551.235	10917.99
551.599	10930.19
551.962	10897.65
552.326	10850.87
552.689	10857.43
553.053	10742.18
553.417	10750.08
553.78	10812.91
554.143	10709.86
554.507	10648.62
554.87	10719.8
555.234	10717.54
555.597	10643.87
555.96	10563.2
556.323	10632.12
556.686	10530.43
557.05	10599.58
557.413	10518
557.776	10493.37
558.139	10567.49
558.502	10477.78
558.865	10495.4
559.228	10513.03
559.59	10431.45
559.953	10495.18
560.316	10539.47
560.679	10396.42
561.041	10474.16
561.404	10398.23
561.767	10477.55
562.129	10402.07
562.492	10410.66
562.854	10417.21
563.217	10348.06
563.579	10368.63
563.941	10424.67
564.304	10423.54
564.666	10492.24
565.028	10349.19
565.39	10482.97
565.753	10456.98
566.115	10491.79
566.477	10397.78
566.839	10438.68
567.201	10473.48
567.563	10465.35
567.925	10435.06
568.287	10422.41
568.648	10520.03
569.01	10445.91
569.372	10460.83
569.734	10483.42
570.095	10516.42
570.457	10526.36
570.819	10479.36
571.18	10519.13
571.542	10539.24
571.903	10513.25
572.265	10537.89
572.626	10576.53
572.987	10554.61
573.349	10550.77
573.71	10549.64
574.071	10534.05
574.432	10523.2
574.794	10530.43
575.155	10529.07
575.516	10525.01
575.877	10546.47
576.238	10572.69
576.599	10584.89
576.96	10539.24
577.32	10538.79
577.681	10533.37
578.042	10546.47
578.403	10559.58
578.763	10574.95
579.124	10548.73
579.485	10613.14
579.845	10669.41
580.206	10569.75
580.566	10629.86
580.927	10637.55
581.287	10624.44
581.648	10506.93
582.008	10574.27
582.368	10576.76
582.728	10527.27
583.089	10550.09
583.449	10507.61
583.809	10583.76
584.169	10537.21
584.529	10456.31
584.889	10560.49
585.249	10500.37
585.609	10443.43
585.969	10473.26
586.329	10429.87
586.688	10478.68
587.048	10503.09
587.408	10514.61
587.768	10369.76
588.127	10427.38
588.487	10393.26
588.846	10404.78
589.206	10340.38
589.565	10343.54
589.925	10404.1
590.284	10366.37
590.643	10395.97
591.003	10426.93
591.362	10466.02
591.721	10343.54
592.08	10311.23
592.44	10354.16
592.799	10301.28
593.158	10349.64
593.517	10300.38
593.876	10311
594.235	10327.72
594.593	10259.93
594.952	10306.48
595.311	10287.72
595.67	10263.09
596.029	10322.53
596.387	10334.73
596.746	10318.91
597.104	10239.82
597.463	10285.69
597.822	10327.95
598.18	10181.06
598.538	10279.36
598.897	10341.51
599.255	10180.61
599.613	10275.29
599.972	10259.02
600.33	10230.78
600.688	10225.8
601.046	10211.57
601.404	10264.45
601.762	10246.14
602.12	10247.95
602.478	10223.09
602.836	10273.94
603.194	10173.83
603.552	10223.77
603.91	10170.21
604.268	10219.25
604.625	10187.84
604.983	10178.57
605.341	10149.42
605.698	10235.52
606.056	10198.01
606.413	10151
606.771	10201.62
607.128	10291.57
607.485	10183.55
607.843	10227.61
608.2	10211.57
608.557	10308.51
608.914	10234.17
609.272	10266.03
609.629	10257.67
609.986	10306.25
610.343	10230.32
610.7	10307.61
611.057	10305.58
611.414	10278.68
611.771	10337.89
612.127	10291.79
612.484	10300.83
612.841	10378.12
613.198	10256.99
613.554	10312.58
613.911	10284.79
614.267	10285.46
614.624	10327.72
614.98	10341.28
615.337	10409.98
615.693	10363.2
616.05	10356.2
616.406	10400.26
616.762	10365.01
617.118	10336.99
617.475	10453.14
617.831	10460.37
618.187	10388.74
618.543	10427.38
618.899	10444.56
619.255	10423.99
619.611	10444.33
619.967	10464.89
620.323	10552.35
620.678	10451.56
621.034	10402.3
621.39	10415.4
621.746	10360.49
622.101	10540.15
622.457	10398.91
622.812	10487.27
623.168	10466.25
623.523	10456.76
623.879	10460.15
624.234	10406.14
624.589	10524.33
624.945	10459.47
625.3	10482.75
625.655	10448.4
626.01	10464.44
626.365	10474.61
626.72	10437.1
627.075	10495.4
627.43	10489.75
627.785	10343.54
628.14	10428.51
628.495	10406.36
628.85	10451.79
629.205	10352.13
629.559	10445.46
629.914	10418.12
630.269	10372.24
630.623	10378.57
630.978	10382.18
631.332	10316.88
631.687	10411.79
632.041	10337.67
632.396	10373.15
632.75	10345.58
633.104	10323.88
633.459	10247.27
633.813	10277.1
634.167	10220.61
634.521	10295.18
634.875	10299.47
635.229	10287.27
635.583	10221.96
635.937	10172.7
636.291	10276.42
636.645	10253.37
636.999	10193.49
637.352	10219.93
637.706	10191.91
638.06	10184.22
638.413	10164.11
638.767	10162.53
639.121	10144.45
639.474	10014.28
639.828	10059.48
640.181	10074.4
640.534	10101.06
640.888	10012.93
641.241	10020.61
641.594	10065.36
641.947	10054.06
642.301	10036.21
642.654	9980.84
643.007	10073.04
643.36	10045.7
643.713	10035.98
644.066	9980.16
644.419	9984.91
644.771	9916.89
645.124	9843.67
645.477	9813.84
645.83	9730.9
646.182	9739.49
646.535	9732.03
646.888	9743.78
647.24	9661.75
647.593	9717.12
647.945	9764.12
648.298	9680.96
648.65	9641.64
649.002	9674.63
649.355	9698.59
649.707	9696.78
650.059	9740.39
650.411	9784.01
650.763	9834.63
651.115	9988.3
651.467	9829.2
651.819	9919.82
652.171	9906.72
652.523	9977.22
652.875	9892.48
653.227	9860.16
653.578	9886.83
653.93	9890.45
654.282	9896.1
654.633	9819.49
654.985	9928.64
655.337	9866.72
655.688	9868.98
656.039	9985.81
656.391	9920.05
656.742	9887.51
657.094	9933.61
657.445	9906.94
657.796	9914.85
658.147	9942.2
658.498	9838.24
658.849	9912.14
659.2	9944.46
659.551	9950.11
659.902	9948.3
660.253	9925.25
660.604	9968.18
660.955	9911.91
661.306	9929.09
661.656	9982.65
662.007	9977.22
662.358	9979.26
662.708	10022.42
663.059	9989.2
663.409	9889.99
663.76	9967.73
664.11	9950.33
664.461	10033.49
664.811	10032.36
665.161	10057
665.511	9939.71
665.862	10000.95
666.212	10027.62
666.562	10006.38
666.912	10039.37
667.262	9975.42
667.612	9938.13
667.962	10018.8
668.312	10033.04
668.662	10068.07
669.011	10056.32
669.361	9995.08
669.711	9949.65
670.06	9948.52
670.41	9931.8
670.76	9893.61
671.109	9984.45
671.459	9991.01
671.808	9998.69
672.157	9957.34
672.507	9939.94
672.856	9910.11
673.205	9880.05
673.554	9928.41
673.904	9845.48
674.253	9983.1
674.602	9897.45
674.951	9742.65
675.3	9755.99
675.649	9912.59
675.998	9865.14
676.346	9860.16
676.695	9892.48
677.044	9785.36
677.393	9798.02
677.741	9760.73
678.09	9753.27
678.438	9752.82
678.787	9706.04
679.135	9791.24
679.484	9696.55
679.832	9783.1
680.181	9648.87
680.529	9699.49
680.877	9731.58
681.225	9706.95
681.573	9686.38
681.922	9633.5
682.27	9602.09
682.618	9611.58
682.966	9578.14
683.314	9611.58
683.661	9548.53
684.009	9490.46
684.357	9507.18
684.705	9526.61
685.053	9433.06
685.4	9451.59
685.748	9433.28
686.095	9386.73
686.443	9386.73
686.79	9401.19
687.138	9399.16
687.485	9328.65
687.832	9289.56
688.18	9343.12
688.527	9285.04
688.874	9240.52
689.221	9260.18
689.568	9257.47
689.915	9250.69
690.262	9126.62
690.609	9176.34
690.956	9126.85
691.303	9093.18
691.65	9059.06
691.997	8997.14
692.344	9035.78
692.69	8988.55
693.037	8954.65
693.383	8889.34
693.73	8919.62
694.077	8835.11
694.423	8871.94
694.769	8795.33
695.116	8773.64
695.462	8711.04
695.808	8718.73
696.155	8703.13
696.501	8685.51
696.847	8613.19
697.193	8633.76
697.539	8574.77
697.885	8494.32
698.231	8485.29
698.577	8454.78
698.923	8398.73
699.269	8461.33
699.614	8378.85
699.96	8361.67
700.306	8360.32
700.651	8280.32
700.997	8243.26
701.342	8301.79
701.688	8209.13
702.033	8191.06
702.379	8137.95
702.724	8102.24
703.069	8160.55
703.415	8059.53
703.76	8057.05
704.105	8032.87
704.45	7947.45
704.795	7932.53
705.14	7868.13
705.485	7880.78
705.83	7893.21
706.175	7864.28
706.52	7834.46
706.865	7828.81
707.209	7801.24
707.554	7777.73
707.899	7784.29
708.243	7654.8
708.588	7752.42
708.932	7604.4
709.277	7673.56
709.621	7642.37
709.966	7578.64
710.31	7579.55
710.654	7490.96
710.998	7564.18
711.342	7548.59
711.687	7477.85
712.031	7500.23
712.375	7383.85
712.719	7466.56
713.063	7432.21
713.407	7465.43
713.75	7354.47
714.094	7416.84
714.438	7340
714.782	7362.15
715.125	7304.75
715.469	7393.34
715.812	7266.11
716.156	7287.8
716.499	7300.01
716.843	7321.02
717.186	7233.34
717.53	7265.66
717.873	7281.02
718.216	7177.98
718.559	7198.77
718.902	7179.56
719.246	7143.17
719.589	7128.48
719.932	7122.16
720.275	7132.78
720.617	7151.08
720.96	7110.41
721.303	7109.28
721.646	7173
721.989	7165.55
722.331	7157.64
722.674	7131.42
723.016	7105.66
723.359	7071.09
723.701	7094.59
724.044	7062.5
724.386	7031.76
724.729	7087.81
725.071	7048.71
725.413	7058.88
725.755	7070.18
726.097	6976.4
726.439	7013.69
726.782	6980.47
727.124	6996.51
727.465	6994.03
727.807	7003.97
728.149	7012.1
728.491	6966.91
728.833	6976.85
729.175	6952.67
729.516	6911.32
729.858	7015.27
730.199	7005.78
730.541	7006.45
730.882	7016.85
731.224	7015.04
731.565	6962.16
731.906	7005.32
732.248	6954.25
732.589	6884.42
732.93	6916.29
733.271	6904.99
733.612	6954.7
733.953	7006.23
734.294	7016.85
734.635	6973.91
734.976	7010.07
735.317	6994.93
735.658	6950.41
735.999	6937.98
736.339	7014.36
736.68	7010.97
737.021	6981.37
737.361	7031.99
737.702	7033.57
738.042	7021.37
738.383	7006
738.723	7051.2
739.063	7041.93
739.404	7024.53
739.744	7021.82
740.084	7079.9
740.424	7096.17
740.764	7085.32
741.104	7146.56
741.444	7093.46
741.784	7119.45
742.124	7143.85
742.464	7147.02
742.804	7229.73
743.143	7132.33
743.483	7217.07
743.823	7253.91
744.162	7197.41
744.502	7260.23
744.841	7221.82
745.181	7340.23
745.52	7366.22
745.86	7416.84
746.199	7417.06
746.538	7462.04
746.877	7557.63
747.216	7549.04
747.556	7610.96
747.895	7645.53
748.234	7663.61
748.573	7715.14
748.911	7787.68
749.25	7882.82
749.589	7912.87
749.928	7934.34
750.267	8039.87
750.605	8136.37
750.944	8127.55
751.283	8244.84
751.621	8359.41
751.96	8410.26
752.298	8511.27
752.636	8528
752.975	8659.74
753.313	8760.08
753.651	8888.66
753.989	8909.91
754.327	9013.18
754.666	9183.8
755.004	9370.69
755.342	9396
755.679	9568.65
756.017	9618.36
756.355	9872.82
756.693	9889.32
757.031	10117.78
757.368	10142.19
757.706	10345.58
758.044	10474.84
758.381	10618.11
758.719	10740.14
759.056	11009.51
759.394	11102.17
759.731	11222.84
760.068	11379.45
760.405	11505.09
760.743	11718.19
761.08	11829.6
761.417	11994.8
761.754	12121.57
762.091	12369.7
762.428	12491.96
762.765	12621.9
763.102	12801.1
763.438	12925.62
763.775	13066.63
764.112	13251.26
764.449	13556.56
764.785	13610.35
765.122	13654.87
765.458	13858.48
765.795	14029.32
766.131	14236.77
766.467	14423.89
766.804	14396.77
767.14	14679.7
767.476	14787.94
767.812	14838.11
768.148	14982.06
768.485	15161.95
768.821	15249.4
769.157	15393.13
769.492	15459.34
769.828	15650.07
770.164	15613.91
770.5	15798.54
770.836	15944.52
771.171	16003.96
771.507	15997.63
771.842	16088.02
772.178	16263.39
772.513	16269.26
772.849	16522.81
773.184	16528.69
773.519	16614.34
773.855	16626.77
774.19	16685.52
774.525	16813.43
774.86	16890.94
775.195	16990.37
775.53	16989.69
775.865	16936.59
776.2	17052.07
776.535	17035.12
776.87	17069.24
777.205	17027.89
777.539	17115.11
777.874	17233.53
778.209	17160.31
778.543	17255.9
778.878	17115.11
779.212	17251.61
779.547	17281.21
779.881	17341.78
780.215	17357.14
780.55	17447.54
780.884	17384.94
781.218	17330.93
781.552	17423.13
781.886	17391.27
782.22	17415.67
782.554	17390.81
782.888	17353.53
783.222	17321.44
783.556	17332.96
783.889	17361.89
784.223	17228.11
784.557	17224.94
784.89	17370.7
785.224	17180.2
785.557	17215.23
785.891	17211.38
786.224	17245.51
786.558	17290.25
786.891	17162.8
787.224	17106.53
787.557	17130.48
787.891	17195.79
788.224	17201.89
788.557	17192.63
788.89	17120.76
789.223	17099.97
789.556	17088
789.888	17018.85
790.221	17060.88
790.554	16852.97
790.887	16938.17
791.219	16892.75
791.552	16953.31
791.884	16803.03
792.217	16824.95
792.549	16790.83
792.882	16684.84
793.214	16639.65
793.546	16735.01
793.879	16637.61
794.211	16555.13
794.543	16725.07
794.875	16466.09
795.207	16605.98
795.539	16410.73
795.871	16486.43
796.203	16496.15
796.535	16338.19
796.867	16292.09
797.198	16275.36
797.53	16352.65
797.862	16168.47
798.193	16270.84
798.525	16144.07
798.856	16166.21
799.188	15985.43
799.519	15966.9
799.85	15895.26
800.182	16024.52
800.513	15971.42
800.844	15892.1
801.175	16005.99
801.506	15890.97
801.837	15850.74
802.168	15754.25
802.499	15713.57
802.83	15696.4
803.161	15584.53
803.491	15648.71
803.822	15641.26
804.153	15622.95
804.483	15519.68
804.814	15485.1
805.145	15442.39
805.475	15468.83
805.805	15345.22
806.136	15394.26
806.466	15399
806.796	15397.42
807.126	15290.98
807.457	15271.55
807.787	15155.17
808.117	15146.58
808.447	15087.37
808.777	15146.13
809.107	15071.78
809.436	15059.35
809.766	15057.77
810.096	14895.51
810.426	14940.26
810.755	14917.21
811.085	14886.7
811.414	14864.55
811.744	14778.91
812.073	14785.23
812.403	14786.59
812.732	14665.01
813.061	14639.7
813.39	14575.97
813.719	14579.59
814.049	14745.91
814.378	14595.41
814.707	14513.83
815.036	14526.48
815.365	14497.33
815.693	14427.28
816.022	14354.74
816.351	14331.91
816.68	14373.27
817.008	14350.89
817.337	14243.1
817.665	14189.09
817.994	14152.26
818.322	14244.23
818.651	14169.66
818.979	14120.17
819.307	14185.02
819.636	14225.25
819.964	14070.45
820.292	14125.14
820.62	14006.72
820.948	13998.13
821.276	14090.79
821.604	14050.56
821.932	14106.83
822.259	14058.02
822.587	14050.56
822.915	13963.11
823.243	14004.46
823.57	13964.24
823.898	14019.15
824.225	14031.35
824.553	13959.49
824.88	14003.78
825.207	14055.31
825.535	13984.35
825.862	14014.86
826.189	13914.97
826.516	14026.61
826.843	14067.74
827.17	14060.05
827.497	14026.38
827.824	14058.92
828.151	13981.86
828.478	14061.86
828.805	14107.96
829.131	14006.5
829.458	13985.25
829.785	13985.03
830.111	14046.5
830.438	14116.78
830.764	14003.56
831.09	14063.67
831.417	14040.39
831.743	14007.4
832.069	14083.56
832.395	14008.08
832.722	13993.16
833.048	13949.1
833.374	13945.48
833.7	13915.65
834.026	13979.6
834.351	13985.93
834.677	13851.92
835.003	14025.93
835.329	13878.82
835.654	13876.78
835.98	13864.58
836.306	13922.88
836.631	13813.05
836.956	13925.37
837.282	13906.61
837.607	13821.87
837.932	13746.84
838.258	13793.39
838.583	13703.45
838.908	13672.04
839.233	13687.18
839.558	13682.89
839.883	13628.65
840.208	13550.91
840.533	13564.02
840.858	13593.85
841.182	13568.99
841.507	13528.77
841.832	13545.72
842.156	13435.21
842.481	13470.24
842.805	13391.6
843.13	13416.46
843.454	13378.26
843.778	13292.16
844.103	13297.36
844.427	13226.63
844.751	13260.3
845.075	13198.16
845.399	13168.55
845.723	13102.34
846.047	13089.01
846.371	13013.75
846.695	13023.92
847.019	12841.56
847.343	12879.75
847.666	12809.01
847.99	12727.66
848.313	12673.42
848.637	12567.66
848.96	12623.03
849.284	12606.08
849.607	12516.82
849.931	12474.11
850.254	12461.68
850.577	12358.63
850.9	12262.59
851.223	12290.84
851.546	12262.81
851.869	12144.4
852.192	12173.32
852.515	12089.26
852.838	11963.16
853.161	12034.57
853.483	11908.02
853.806	11921.58
854.129	11909.38
854.451	11863.73
854.774	11727.69
855.096	11699.89
855.419	11679.33
855.741	11731.98
856.063	11625.99
856.385	11596.84
856.708	11529.27
857.03	11545.54
857.352	11510.29
857.674	11454.02
857.996	11415.6
858.318	11339.67
858.64	11347.81
858.961	11409.5
859.283	11320.24
859.605	11260.58
859.926	11313.46
860.248	11213.58
860.57	11259.68
860.891	11179.23
861.212	11112.79
861.534	11044.09
861.855	11061.71
862.176	11043.41
862.498	11085.67
862.819	10980.59
863.14	11027.59
863.461	11016.74
863.782	10955.28
864.103	10945.11
864.424	10952.11
864.745	10965.67
865.065	10865.79
865.386	10829.63
865.707	10889.06
866.027	10849.97
866.348	10805.45
866.668	10827.14
866.989	10794.83
867.309	10726.81
867.63	10781.04
867.95	10736.3
868.27	10680.71
868.59	10623.76
868.91	10673.48
869.23	10608.62
869.55	10577.21
869.87	10651.56
870.19	10572.69
870.51	10629.86
870.83	10616.08
871.15	10493.37
871.469	10588.05
871.789	10554.16
872.109	10495.63
872.428	10486.81
872.748	10458.11
873.067	10468.28
873.386	10430.09
873.706	10461.96
874.025	10371.56
874.344	10356.65
874.663	10412.24
874.982	10326.14
875.301	10344.9
875.62	10245.01
875.939	10273.94
876.258	10318.46
876.577	10256.31
876.896	10274.62
877.214	10227.61
877.533	10224
877.852	10187.39
878.17	10168.86
878.489	10269.19
878.807	10201.17
879.125	10146.94
879.444	10088.63
879.762	10026.04
880.08	10100.16
880.398	10023.32
880.716	10005.25
881.034	9961.18
881.352	10003.44
881.67	9974.29
881.988	9962.31
882.306	10006.83
882.624	9945.81
882.941	9874.18
883.259	9774.29
883.577	9864.46
883.894	9847.96
884.212	9755.08
884.529	9738.13
884.846	9804.35
885.164	9731.58
885.481	9671.02
885.798	9644.12
886.115	9619.72
886.432	9648.64
886.75	9639.15
887.067	9629.66
887.383	9595.31
887.7	9570.23
888.017	9549.21
888.334	9500.17
888.651	9449.78
888.967	9486.84
889.284	9399.16
889.6	9409.78
889.917	9310.35
890.233	9334.08
890.55	9319.39
890.866	9228.99
891.182	9314.64
891.498	9267.19
891.815	9201.2
892.131	9144.03
892.447	9129.34
892.763	9151.93
893.079	9071.48
893.395	9061.09
893.71	9046.85
894.026	9044.59
894.342	9071.71
894.657	8934.99
894.973	8938.38
895.289	8968.44
895.604	8936.35
895.92	8840.76
896.235	8786.75
896.55	8807.08
896.865	8754.2
897.181	8675.34
897.496	8677.14
897.811	8658.16
898.126	8616.13
898.441	8620.88
898.756	8643.47
899.071	8588.33
899.386	8554.21
899.7	8443.03
900.015	8446.42
900.33	8357.15
900.644	8427.43
900.959	8386.76
901.273	8356.48
901.588	8226.31
901.902	8249.59
902.216	8155.35
902.531	8245.97
902.845	8154.22
903.159	8091.85
903.473	8079.19
903.787	8048.23
904.101	8053.21
904.415	8048.69
904.729	7938.86
905.042	7897.96
905.356	7957.39
905.67	7937.96
905.984	7936.6
906.297	7885.53
906.611	7740.45
906.924	7770.5
907.237	7772.31
907.551	7712.88
907.864	7675.14
908.177	7720.11
908.491	7645.76
908.804	7572.32
909.117	7509.27
909.43	7562.37
909.743	7535.48
910.056	7424.07
910.368	7450.51
910.681	7420.45
910.994	7358.08
911.307	7329.61
911.619	7260.68
911.932	7273.57
912.244	7213.23
912.557	7261.59
912.869	7175.04
913.181	7176.17
913.494	7158.09
913.806	7063.85
914.118	7151.99
914.43	7044.19
914.742	7106.11
915.054	6985.21
915.366	6979.79
915.678	6891.65
915.99	6905.21
916.302	6869.96
916.613	6851.88
916.925	6790.41
917.236	6780.47
917.548	6757.87
917.859	6769.85
918.171	6745.22
918.482	6652.11
918.794	6601.72
919.105	6652.57
919.416	6566.01
919.727	6597.2
920.038	6581.83
920.349	6529.86
920.66	6478.78
920.971	6496.19
921.282	6475.62
921.593	6438.79
921.903	6402.85
922.214	6336.19
922.525	6367.83
922.835	6274.5
923.146	6285.34
923.456	6319.24
923.767	6239.24
924.077	6253.25
924.387	6251.45
924.697	6137.78
925.008	6160.15
925.318	6129.42
925.628	6120.83
925.938	6077.89
926.248	6023.43
926.558	5989.31
926.867	6025.69
927.177	5973.94
927.487	5954.96
927.796	5895.07
928.106	5902.08
928.416	5894.17
928.725	5834.51
929.034	5760.84
929.344	5774.62
929.653	5786.37
929.962	5727.84
930.271	5675.42
930.581	5656.21
930.89	5695.08
931.199	5660.27
931.508	5679.94
931.817	5648.07
932.125	5585.7
932.434	5551.58
932.743	5541.86
933.051	5505.93
933.36	5521.52
933.669	5468.42
933.977	5440.39
934.286	5465.93
934.594	5411.69
934.902	5403.56
935.21	5383.9
935.519	5319.94
935.827	5319.72
936.135	5269.1
936.443	5264.13
936.751	5205.15
937.059	5244.69
937.367	5206.95
937.674	5227.07
937.982	5152.49
938.29	5134.41
938.597	5119.27
938.905	5093.96
939.213	5034.75
939.52	5035.21
939.827	5031.82
940.135	5012.83
940.442	4990.24
940.749	4996.79
941.056	4964.7
941.363	4934.64
941.67	4899.84
941.977	4854.19
942.284	4852.16
942.591	4867.3
942.898	4819.62
943.205	4809.9
943.511	4809
943.818	4818.72
944.125	4714.54
944.431	4706.85
944.738	4707.08
945.044	4712.28
945.35	4692.84
945.657	4632.28
945.963	4623.69
946.269	4569.68
946.575	4594.77
946.881	4557.71
947.187	4522.9
947.493	4511.6
947.799	4529.68
948.105	4476.58
948.41	4448.33
948.716	4468.67
949.022	4428.44
949.327	4420.53
949.633	4331.27
949.938	4384.6
950.244	4316.13
950.549	4330.14
950.854	4280.88
951.16	4281.33
951.465	4265.51
951.77	4292.63
952.075	4202.23
952.38	4245.4
952.685	4222.12
952.99	4191.16
953.294	4164.72
953.599	4137.6
953.904	4098.51
954.209	4145.74
954.513	4095.57
954.818	4081.33
955.122	4079.75
955.426	4050.37
955.731	4028
956.035	3988.68
956.339	4007.44
956.643	3989.36
956.948	3931.05
957.252	3923.15
957.556	3902.36
957.86	3903.48
958.163	3891.28
958.467	3861
958.771	3860.55
959.075	3852.19
959.378	3842.92
959.682	3887.89
959.985	3787.56
960.289	3791.85
960.592	3765.18
960.896	3783.71
961.199	3736.26
961.502	3749.36
961.805	3723.15
962.108	3702.36
962.411	3662.59
962.714	3661.91
963.017	3632.76
963.32	3646.99
963.623	3599.09
963.926	3618.52
964.228	3580.1
964.531	3551.86
964.833	3542.59
965.136	3521.8
965.438	3547.79
965.741	3506.89
966.043	3490.39
966.345	3468.92
966.648	3438.86
966.95	3474.12
967.252	3424.63
967.554	3444.06
967.856	3401.8
968.158	3363.39
968.46	3367
968.761	3305.99
969.063	3326.78
969.365	3333.33
969.666	3283.84
969.968	3308.02
970.269	3297.85
970.571	3283.61
970.872	3251.3
971.174	3214.92
971.475	3242.71
971.776	3226.89
972.077	3157.29
972.378	3182.15
972.679	3174.24
972.98	3165.2
973.281	3128.14
973.582	3136.95
973.883	3124.75
974.183	3097.86
974.484	3096.73
974.785	3117.29
975.085	3063.51
975.386	3027.58
975.686	3036.62
975.986	3004.75
976.287	3004.53
976.587	2964.98
976.887	2999.78
977.187	2932.89
977.487	2970.85
977.787	2934.7
978.087	2937.41
978.387	2886.56
978.687	2868.71
978.987	2886.11
979.286	2870.52
979.586	2841.59
979.885	2868.26
980.185	2830.74
980.484	2827.58
980.784	2821.48
981.083	2831.42
981.382	2791.42
981.682	2789.84
981.981	2751.42
982.28	2723.18
982.579	2702.16
982.878	2750.07
983.177	2703.29
983.475	2710.3
983.774	2713.69
984.073	2694.93
984.372	2672.78
984.67	2656.51
984.969	2668.94
985.267	2640.24
985.566	2594.82
985.864	2624.2
986.162	2587.36
986.461	2608.83
986.759	2585.1
987.057	2553.01
987.355	2588.04
987.653	2541.49
987.951	2530.41
988.249	2498.78
988.547	2510.08
988.844	2502.39
989.142	2493.8
989.44	2481.6
989.737	2456.29
990.035	2438.21
990.332	2443.41
990.63	2408.16
990.927	2416.07
991.224	2399.12
991.521	2407.71
991.819	2375.84
992.116	2367.93
992.413	2355.05
992.71	2346.01
993.006	2384.43
993.303	2329.52
993.6	2307.14
993.897	2320.25
994.193	2297.88
994.49	2292.68
994.787	2253.13
995.083	2229.63
995.379	2258.78
995.676	2228.95
995.972	2216.75
996.268	2203.19
996.565	2215.39
996.861	2163.19
997.157	2169.07
997.453	2172.01
997.749	2143.53
998.044	2124.1
998.34	2140.37
998.636	2137.66
998.932	2102.63
999.227	2099.24
999.523	2104.89
999.818	2078.67
1000.114	2073.93
1000.409	2038.22
1000.704	2033.25
1001	2040.03
1001.295	2031.22
1001.59	1992.12
1001.885	2041.39
1002.18	1994.61
1002.475	2005.46
1002.77	1970.88
1003.065	1985.34
1003.359	1954.38
1003.654	1940.37
1003.949	1921.16
1004.243	1918.23
1004.538	1916.87
1004.832	1911.67
1005.127	1873.71
1005.421	1878
1005.715	1860.6
1006.009	1886.59
1006.304	1868.74
1006.598	1836.65
1006.892	1842.3
1007.186	1812.47
1007.48	1818.12
1007.773	1795.29
1008.067	1769.3
1008.361	1776.99
1008.655	1749.42
1008.948	1765.46
1009.242	1750.32
1009.535	1737.89
1009.829	1744.9
1010.122	1729.3
1010.415	1716.88
1010.708	1673.49
1011.001	1680.27
1011.295	1663.54
1011.588	1671.45
1011.881	1658.57
1012.173	1645.01
1012.466	1652.47
1012.759	1615.41
1013.052	1630.1
1013.344	1622.41
1013.637	1607.73
1013.93	1592.13
1014.222	1598.91
1014.514	1587.84
1014.807	1565.92
1015.099	1579.7
1015.391	1534.51
1015.683	1536.09
1015.976	1544
1016.268	1512.36
1016.56	1503.32
1016.851	1489.31
1017.143	1504
1017.435	1496.09
1017.727	1475.98
1018.018	1484.34
1018.31	1479.14
1018.602	1468.75
1018.893	1440.27
1019.185	1434.62
1019.476	1397.79
1019.767	1400.27
1020.058	1408.64
1020.35	1387.84
1020.641	1399.14
1020.932	1352.14
1021.223	1348.52
1021.514	1349.2
1021.804	1347.62
1022.095	1332.71
1022.386	1324.57
1022.677	1331.8
1022.967	1340.16
1023.258	1310.56
1023.548	1297.68
1023.839	1294.29
1024.129	1275.08
1024.419	1261.52
1024.709	1248.41
1025	1268.07
1025.29	1257.45
1025.58	1252.48
1025.87	1231.46
1026.16	1211.8
1026.449	1189.66
1026.739	1214.29
1027.029	1195.08
1027.319	1194.4
1027.608	1196.21
1027.898	1167.96
1028.187	1177.23
1028.477	1165.48
1028.766	1155.31
1029.055	1158.7
1029.344	1129.09
1029.634	1146.95
1029.923	1133.61
1030.212	1101.07
1030.501	1103.33
1030.79	1107.63
1031.078	1099.72
1031.367	1091.58
1031.656	1092.26
1031.945	1075.54
1032.233	1052.94
1032.522	1066.05
1032.81	1047.06
1033.099	1055.2
1033.387	1051.13
1033.675	1023.79
1033.963	1019.94
1034.251	994.63
1034.54	1029.89
1034.828	1017.23
1035.116	989.66
1035.403	994.63
1035.691	1011.58
1035.979	975.43
1036.267	985.37
1036.554	981.98
1036.842	969.55
1037.129	958.25
1037.417	960.29
1037.704	937.69
1037.992	944.92
1038.279	915.31
1038.566	928.42
1038.853	928.42
1039.14	928.42
