Data from hue_190_FLMS001491_00002.txt Node
Date: Tue Feb 07 16:44:42 GMT 2017
User: dcchb
Spectrometer: FLMS00149
Trigger mode: 0
Integration Time (sec): 2.000000E-2
Scans to average: 10
Electric dark correction enabled: true
Nonlinearity correction enabled: false
Boxcar width: 0
XAxis mode: Wavelengths
Number of Pixels in Spectrum: 2048
>>>>>Begin Spectral Data<<<<<
341.393	-10.86
341.776	-10.86
342.16	-10.86
342.543	-56.51
342.927	-71.88
343.31	-65.55
343.693	-77.3
344.077	-68.49
344.46	-69.62
344.843	-56.06
345.226	-38.21
345.61	-34.82
345.993	-20.13
346.376	-9.51
346.759	25.52
347.142	29.59
347.525	36.82
347.908	77.05
348.291	78.63
348.674	88.57
349.057	103.49
349.44	128.8
349.823	136.03
350.206	146.42
350.588	195.69
350.971	213.31
351.354	239.08
351.737	235.23
352.119	233.65
352.502	259.64
352.884	241.79
353.267	281.11
353.65	283.37
354.032	291.5
354.414	304.84
354.797	306.64
355.179	309.36
355.562	305.97
355.944	325.18
356.326	319.53
356.709	354.55
357.091	346.42
357.473	339.64
357.855	346.19
358.238	339.86
358.62	342.58
359.002	350.71
359.384	339.41
359.766	331.28
360.148	346.87
360.53	330.37
360.912	331.5
361.294	317.94
361.676	345.29
362.057	336.47
362.439	322.24
362.821	337.83
363.203	344.61
363.584	319.75
363.966	327.89
364.348	343.03
364.729	303.48
365.111	344.61
365.493	319.53
365.874	314.33
366.256	300.32
366.637	327.89
367.019	323.82
367.4	305.06
367.781	299.64
368.163	315.01
368.544	315.23
368.925	324.95
369.306	329.24
369.688	309.58
370.069	326.76
370.45	303.71
370.831	321.11
371.212	314.78
371.593	314.55
371.974	311.16
372.355	305.97
372.736	313.88
373.117	299.19
373.498	301.45
373.879	284.72
374.26	314.55
374.641	310.03
375.021	300.32
375.402	330.82
375.783	306.19
376.163	323.82
376.544	323.82
376.925	322.01
377.305	304.61
377.686	324.27
378.066	319.3
378.447	307.32
378.827	322.92
379.208	330.6
379.588	327.43
379.968	324.05
380.349	345.29
380.729	330.15
381.109	320.66
381.489	326.08
381.87	329.02
382.25	343.25
382.63	327.66
383.01	338.51
383.39	349.58
383.77	343.93
384.15	349.13
384.53	320.88
384.91	343.25
385.29	340.32
385.67	338.28
386.049	357.04
386.429	329.47
386.809	358.85
387.189	348.45
387.568	326.76
387.948	350.94
388.328	341.45
388.707	356.81
389.087	349.81
389.466	355.46
389.846	366.3
390.225	360.43
390.605	367.43
390.984	350.49
391.363	352.52
391.743	364.72
392.122	361.56
392.501	386.19
392.881	357.26
393.26	381.22
393.639	395.23
394.018	372.63
394.397	389.81
394.776	366.98
395.155	369.47
395.534	398.62
395.913	379.18
396.292	387.09
396.671	372.18
397.05	376.25
397.429	394.33
397.808	382.8
398.186	408.56
398.565	400.2
398.944	402.46
399.323	392.29
399.701	426.42
400.08	393.2
400.458	388.9
400.837	414.21
401.215	402.01
401.594	416.47
401.972	415.34
402.351	407.66
402.729	409.01
403.107	425.06
403.486	429.81
403.864	420.99
404.242	434.32
404.62	429.35
404.999	425.06
405.377	431.39
405.755	436.13
406.133	435
406.511	425.51
406.889	428.9
407.267	452.63
407.645	450.6
408.023	460.09
408.401	477.49
408.779	477.94
409.156	497.6
409.534	481.56
409.912	498.05
410.29	511.84
410.667	512.29
411.045	525.4
411.422	511.38
411.8	530.14
412.178	558.39
412.555	561.55
412.933	571.27
413.31	570.82
413.687	574.21
414.065	597.03
414.442	592.96
414.819	605.17
415.197	604.72
415.574	631.83
415.951	631.61
416.328	615.56
416.705	653.98
417.082	645.62
417.46	649.46
417.837	676.58
418.214	655.56
418.591	683.58
418.967	700.98
419.344	691.72
419.721	682
420.098	704.37
420.475	717.26
420.852	731.72
421.228	737.59
421.605	732.4
421.982	765.16
422.358	790.02
422.735	804.03
423.111	789.8
423.488	815.33
423.864	853.75
424.241	839.96
424.617	847.42
424.994	854.2
425.37	868.66
425.746	908.89
426.123	901.21
426.499	896.23
426.875	938.04
427.251	957.25
427.627	981.65
428.003	963.8
428.379	973.75
428.756	1010.81
429.132	1025.5
429.507	1026.17
429.883	1041.54
430.259	1054.42
430.635	1047.64
431.011	1046.51
431.387	1071.37
431.763	1102.33
432.138	1108.66
432.514	1140.29
432.89	1108.66
433.265	1203.12
433.641	1180.29
434.016	1215.32
434.392	1208.99
434.767	1270.01
435.143	1257.13
435.518	1270.46
435.894	1292.16
436.269	1318.37
436.644	1328.99
437.02	1368.31
437.395	1415.77
437.77	1398.82
438.145	1445.82
438.52	1473.39
438.895	1442.43
439.271	1510
439.646	1533.28
440.021	1555.2
440.395	1574.41
440.77	1559.94
441.145	1594.07
441.52	1634.75
441.895	1653.5
442.27	1698.47
442.645	1676.33
443.019	1709.09
443.394	1732.6
443.769	1718.36
444.143	1700.28
444.518	1791.8
444.892	1764.69
445.267	1771.92
445.641	1815.76
446.016	1809.88
446.39	1829.32
446.764	1895.3
447.139	1838.36
447.513	1908.64
447.887	1892.59
448.262	1881.74
448.636	1899.37
449.01	1943.44
449.384	1974.62
449.758	2011.01
450.132	1990.89
450.506	2014.85
450.88	2058.24
451.254	2030.67
451.628	2058.46
452.002	2094.85
452.376	2114.05
452.75	2114.73
453.123	2157.9
453.497	2210.32
453.871	2200.15
454.244	2227.27
454.618	2309.53
454.992	2279.25
455.365	2311.79
455.739	2324.22
456.112	2371.9
456.486	2364.67
456.859	2392.92
457.232	2443.99
457.606	2471.56
457.979	2484.89
458.352	2543.2
458.725	2554.95
459.099	2599.92
459.472	2649.41
459.845	2676.75
460.218	2686.47
460.591	2711.55
460.964	2730.54
461.337	2792.91
461.71	2786.81
462.083	2851.44
462.456	2829.52
462.829	2864.77
463.201	2951.77
463.574	2964.43
463.947	2995.39
464.32	3081.94
464.692	3062.96
465.065	3064.31
465.438	3156.74
465.81	3186.12
466.183	3223.18
466.555	3319.45
466.928	3323.97
467.3	3323.06
467.672	3350.41
468.045	3461.82
468.417	3498.42
468.789	3512.44
469.161	3584.98
469.534	3655.71
469.906	3686.89
470.278	3730.74
470.65	3756.72
471.022	3841.47
471.394	3902.71
471.766	3941.8
472.138	3948.81
472.51	4080.78
472.882	4135.47
473.253	4154.23
473.625	4275.81
473.997	4338.63
474.369	4302.92
474.74	4410.27
475.112	4535.46
475.484	4588.79
475.855	4657.72
476.227	4695
476.598	4823.81
476.97	4862
477.341	5019.74
477.713	5102.68
478.084	5102.22
478.455	5224.93
478.827	5313.52
479.198	5451.14
479.569	5408.88
479.94	5577.92
480.311	5660.18
480.682	5759.38
481.053	5922.32
481.424	5975.65
481.795	6044.8
482.166	6162.76
482.537	6254.74
482.908	6375.19
483.279	6431.68
483.65	6569.08
484.021	6668.96
484.391	6784.44
484.762	6800.26
485.133	6826.47
485.503	6945.57
485.874	7111.66
486.244	7189.18
486.615	7295.61
486.985	7421.94
487.356	7524.31
487.726	7573.57
488.097	7797.75
488.467	7833.23
488.837	7931.3
489.207	7983.96
489.578	8121.81
489.948	8250.84
490.318	8381.23
490.688	8368.81
491.058	8510.5
491.428	8555.24
491.798	8656.26
492.168	8807.89
492.538	8885.4
492.908	8987.09
493.278	9027.77
493.648	9070.26
494.017	9198.84
494.387	9226.18
494.757	9284.49
495.126	9348.21
495.496	9395.67
495.866	9419.4
496.235	9552.96
496.605	9628.89
496.974	9764.47
497.344	9734.87
497.713	9855.32
498.082	9841.99
498.452	9936.45
498.821	9923.11
499.19	9964.24
499.559	9997.46
499.928	10058.93
500.298	10118.59
500.667	10233.62
501.036	10143.45
501.405	10314.52
501.774	10211.69
502.143	10349.77
502.512	10390.67
502.88	10426.83
503.249	10484
503.618	10420.05
503.987	10573.95
504.356	10631.57
504.724	10625.7
505.093	10547.28
505.462	10640.38
505.83	10630.67
506.199	10708.63
506.567	10834.05
506.936	10720.61
507.304	10861.4
507.672	10844.9
508.041	10799.02
508.409	10836.54
508.777	10924.67
509.145	11025.68
509.514	10948.17
509.882	11049.86
510.25	11036.31
510.618	11025.01
510.986	11028.85
511.354	11095.74
511.722	11124.67
512.09	11158.79
512.458	11152.91
512.826	11117.43
513.193	11170.31
513.561	11206.7
513.929	11268.84
514.297	11244.44
514.664	11293.02
515.032	11328.05
515.4	11363.3
515.767	11289.18
516.135	11312
516.502	11232.68
516.869	11364.88
517.237	11363.08
517.604	11272.91
517.972	11340.25
518.339	11354.94
518.706	11347.48
519.073	11361.27
519.44	11384.77
519.808	11448.5
520.175	11387.48
520.542	11484.2
520.909	11462.28
521.276	11316.52
521.643	11451.89
522.009	11446.01
522.376	11495.73
522.743	11512.9
523.11	11509.74
523.477	11521.04
523.843	11588.16
524.21	11580.92
524.577	11588.38
524.943	11522.62
525.31	11577.08
525.676	11591.09
526.043	11594.94
526.409	11499.34
526.776	11629.06
527.142	11518.1
527.508	11572.11
527.874	11555.16
528.241	11525.56
528.607	11476.29
528.973	11521.26
529.339	11443.3
529.705	11498.67
530.071	11524.65
530.437	11445.33
530.803	11418.44
531.169	11457.76
531.535	11306.36
531.901	11275.85
532.267	11247.37
532.632	11310.87
532.998	11178.9
533.364	11209.86
533.73	11204.21
534.095	11189.3
534.461	11142.29
534.826	11140.03
535.192	11080.37
535.557	11076.76
535.923	10969.41
536.288	10958.57
536.653	10909.08
537.019	10791.57
537.384	10840.38
537.749	10848.29
538.114	10778.69
538.479	10734.39
538.845	10707.73
539.21	10579.14
539.575	10483.1
539.94	10474.51
540.305	10442.88
540.67	10418.69
541.034	10367.85
541.399	10317.91
541.764	10267.74
542.129	10213.05
542.494	10177.12
542.858	10190
543.223	10134.41
543.587	10123.11
543.952	10013.06
544.316	9956.11
544.681	9884.47
545.045	9886.51
545.41	9840.86
545.774	9848.99
546.138	9644.7
546.503	9641.54
546.867	9587.08
547.231	9601.77
547.595	9532.84
547.959	9493.97
548.324	9373.98
548.688	9405.61
549.052	9373.3
549.416	9328.33
549.779	9259.86
550.143	9164.26
550.507	9179.18
550.871	9148.22
551.235	9018.05
551.599	9026.42
551.962	8934.67
552.326	8917.94
552.689	8920.88
553.053	8834.56
553.417	8847.21
553.78	8919.75
554.143	8727.89
554.507	8778.51
554.87	8746.2
555.234	8747.78
555.597	8612.87
555.96	8656.93
556.323	8526.32
556.686	8575.35
557.05	8524.06
557.413	8534
557.776	8503.49
558.139	8481.8
558.502	8425.53
558.865	8415.13
559.228	8358.41
559.59	8426.88
559.953	8375.58
560.316	8372.42
560.679	8349.37
561.041	8367
561.404	8275.25
561.767	8345.3
562.129	8284.51
562.492	8293.55
562.854	8239.77
563.217	8157.06
563.579	8223.72
563.941	8195.25
564.304	8177.4
564.666	8241.13
565.028	8217.62
565.39	8127.23
565.753	8191.41
566.115	8194.8
566.477	8172.88
566.839	8149.6
567.201	8214.01
567.563	8149.83
567.925	8183.5
568.287	8180.11
568.648	8123.39
569.01	8097.4
569.372	8192.76
569.734	8101.47
570.095	8127.91
570.457	8181.69
570.819	8122.48
571.18	8081.58
571.542	8104.86
571.903	8075.93
572.265	8100.11
572.626	8052.43
572.987	8111.19
573.349	8149.83
573.71	8132.2
574.071	8121.13
574.432	8153.9
574.794	8168.13
575.155	8131.52
575.516	8111.41
575.877	8129.94
576.238	8083.39
576.599	8080
576.96	8086.33
577.32	8104.63
577.681	8131.52
578.042	8034.35
578.403	8076.84
578.763	8047.91
579.124	8085.87
579.485	8069.83
579.845	8104.18
580.206	8052.66
580.566	8088.36
580.927	8046.78
581.287	8089.72
581.648	8085.87
582.008	8123.16
582.368	8056.27
582.728	8030.74
583.089	8064.41
583.449	7998.87
583.809	7969.72
584.169	8068.25
584.529	7978.31
584.889	7989.15
585.249	7959.55
585.609	7923.39
585.969	8023.73
586.329	7899.21
586.688	7960.45
587.048	7934.24
587.408	7914.13
587.768	7844.53
588.127	7889.27
588.487	7830.74
588.846	7910.74
589.206	7858.31
589.565	7793
589.925	7838.42
590.284	7836.62
590.643	7800.46
591.003	7789.61
591.362	7812.66
591.721	7814.47
592.08	7862.15
592.44	7764.53
592.799	7777.86
593.158	7840.01
593.517	7802.04
593.876	7790.29
594.235	7758.2
594.593	7726.79
594.952	7776.05
595.311	7696.96
595.67	7698.09
596.029	7708.03
596.387	7707.58
596.746	7734.25
597.104	7690.86
597.463	7649.28
597.822	7734.47
598.18	7651.31
598.538	7717.52
598.897	7667.13
599.255	7673.46
599.613	7686.11
599.972	7654.25
600.33	7666.45
600.688	7636.85
601.046	7665.32
601.404	7695.15
601.762	7671.42
602.12	7689.73
602.478	7639.78
602.836	7628.94
603.194	7639.33
603.552	7623.51
603.91	7543.06
604.268	7635.27
604.625	7609.28
604.983	7615.6
605.341	7551.88
605.698	7622.16
606.056	7613.12
606.413	7567.7
606.771	7657.64
607.128	7622.84
607.485	7591.88
607.843	7574.25
608.2	7675.94
608.557	7629.62
608.914	7618.54
609.272	7614.02
609.629	7592.78
609.986	7641.82
610.343	7564.31
610.7	7640.01
611.057	7641.59
611.414	7695.15
611.771	7673
612.127	7686.11
612.484	7689.5
612.841	7698.54
613.198	7667.81
613.554	7651.08
613.911	7727.47
614.267	7705.55
614.624	7644.3
614.98	7654.7
615.337	7733.79
615.693	7725.66
616.05	7708.48
616.406	7743.29
616.762	7693.79
617.118	7645.43
617.475	7677.75
617.831	7721.14
618.187	7660.8
618.543	7733.79
618.899	7757.3
619.255	7737.41
619.611	7741.25
619.967	7770.4
620.323	7783.96
620.678	7745.09
621.034	7705.77
621.39	7698.31
621.746	7745.32
622.101	7778.54
622.457	7749.84
622.812	7758.43
623.168	7721.59
623.523	7688.82
623.879	7788.26
624.234	7677.07
624.589	7697.18
624.945	7783.06
625.3	7740.8
625.655	7737.41
626.01	7817.63
626.365	7830.74
626.72	7671.2
627.075	7715.26
627.43	7714.36
627.785	7703.74
628.14	7733.12
628.495	7768.14
628.85	7700.12
629.205	7687.24
629.559	7698.99
629.914	7669.39
630.269	7688.82
630.623	7687.92
630.978	7605.66
631.332	7658.09
631.687	7669.39
632.041	7609.05
632.396	7643.4
632.75	7573.8
633.104	7621.48
633.459	7559.56
633.813	7604.98
634.167	7536.06
634.521	7600.01
634.875	7573.35
635.229	7603.18
635.583	7543.74
635.937	7552.56
636.291	7516.17
636.645	7519.79
636.999	7442.28
637.352	7516.17
637.706	7435.72
638.06	7475.27
638.413	7474.37
638.767	7467.81
639.121	7407.7
639.474	7435.72
639.828	7407.02
640.181	7460.35
640.534	7428.72
640.888	7425.1
641.241	7422.84
641.594	7380.13
641.947	7385.1
642.301	7360.92
642.654	7377.42
643.007	7373.13
643.36	7326.57
643.713	7387.81
644.066	7378.1
644.419	7361.15
644.771	7307.82
645.124	7225.56
645.477	7190.76
645.83	7177.2
646.182	7143.07
646.535	7123.87
646.888	7159.35
647.24	7178.78
647.593	7213.58
647.945	7159.35
648.298	7107.82
648.65	7080.03
649.002	7057.88
649.355	7139.91
649.707	7162.51
650.059	7133.36
650.411	7226.01
650.763	7204.99
651.115	7315.05
651.467	7319.12
651.819	7258.1
652.171	7309.4
652.523	7299.23
652.875	7310.75
653.227	7259.91
653.578	7322.28
653.93	7322.05
654.282	7311.43
654.633	7252
654.985	7304.65
655.337	7276.86
655.688	7262.62
656.039	7310.08
656.391	7285.9
656.742	7365.44
657.094	7295.61
657.445	7340.58
657.796	7338.55
658.147	7318.44
658.498	7345.78
658.849	7345.33
659.2	7373.8
659.551	7360.92
659.902	7390.75
660.253	7376.52
660.604	7283.64
660.955	7346.91
661.306	7360.7
661.656	7417.19
662.007	7328.61
662.358	7352.33
662.708	7352.79
663.059	7360.92
663.409	7285.9
663.76	7451.09
664.11	7349.85
664.461	7391.66
664.811	7409.96
665.161	7404.08
665.511	7454.48
665.862	7364.09
666.212	7410.19
666.562	7361.15
666.912	7352.33
667.262	7386.23
667.612	7430.52
667.962	7375.61
668.312	7291.09
668.662	7352.11
669.011	7401.83
669.361	7358.66
669.711	7349.62
670.06	7347.36
670.41	7321.6
670.76	7391.66
671.109	7406.34
671.459	7391.66
671.808	7351.43
672.157	7344.88
672.507	7360.24
672.856	7366.12
673.205	7306.46
673.554	7324.31
673.904	7285.9
674.253	7363.18
674.602	7331.77
674.951	7261.26
675.3	7200.93
675.649	7320.7
675.998	7249.74
676.346	7273.69
676.695	7353.46
677.044	7243.86
677.393	7264.2
677.741	7305.33
678.09	7248.61
678.438	7236.86
678.787	7278.21
679.135	7221.04
679.484	7173.13
679.832	7226.01
680.181	7194.15
680.529	7158.89
680.877	7188.5
681.225	7153.02
681.573	7220.36
681.922	7109.63
682.27	7059.01
682.618	7113.7
682.966	7091.32
683.314	7066.24
683.661	7021.5
684.009	7017.2
684.357	7007.94
684.705	7039.8
685.053	6976.53
685.4	6992.12
685.748	6944.21
686.095	6908.5
686.443	6908.73
686.79	6882.52
687.138	6923.19
687.485	6900.37
687.832	6883.65
688.18	6905.79
688.527	6832.35
688.874	6810.65
689.221	6747.38
689.568	6787.83
689.915	6801.61
690.262	6780.37
690.609	6700.6
690.956	6716.19
691.303	6681.39
691.65	6673.26
691.997	6595.52
692.344	6609.3
692.69	6593.26
693.037	6550.77
693.383	6516.65
693.73	6554.62
694.077	6488.18
694.423	6483.66
694.769	6434.39
695.116	6377.9
695.462	6446.14
695.808	6390.55
696.155	6362.53
696.501	6306.94
696.847	6292.93
697.193	6299.26
697.539	6311.23
697.885	6273.72
698.231	6260.61
698.577	6190.11
698.923	6225.36
699.269	6165.93
699.614	6131.35
699.96	6110.79
700.306	6128.19
700.651	6068.53
700.997	6002.99
701.342	6029.43
701.688	6014.07
702.033	5986.72
702.379	6015.19
702.724	6002.09
703.069	5926.61
703.415	5890.9
703.76	5855.65
704.105	5906.72
704.45	5885.03
704.795	5847.52
705.14	5798.93
705.485	5788.08
705.83	5743.34
706.175	5791.02
706.52	5750.34
706.865	5715.32
707.209	5731.36
707.554	5708.08
707.899	5675.54
708.243	5674.41
708.588	5633.51
708.932	5586.51
709.277	5647.97
709.621	5598.93
709.966	5570.69
710.31	5544.92
710.654	5556
710.998	5543.79
711.342	5543.34
711.687	5519.39
712.031	5520.29
712.375	5487.75
712.719	5504.25
713.063	5531.37
713.407	5463.12
713.75	5432.39
714.094	5447.75
714.438	5430.8
714.782	5453.4
715.125	5442.78
715.469	5398.71
715.812	5383.8
716.156	5350.81
716.499	5368.88
716.843	5326.17
717.186	5326.63
717.53	5354.87
717.873	5343.57
718.216	5350.35
718.559	5310.35
718.902	5256.57
719.246	5341.31
719.589	5246.85
719.932	5289.79
720.275	5294.08
720.617	5238.94
720.96	5234.88
721.303	5288.43
721.646	5293.86
721.989	5225.39
722.331	5249.34
722.674	5273.52
723.016	5272.16
723.359	5246.4
723.701	5235.33
724.044	5182.22
724.386	5195.56
724.729	5204.59
725.071	5203.46
725.413	5152.17
725.755	5193.75
726.097	5210.92
726.439	5170.7
726.782	5171.38
727.124	5221.32
727.465	5188.78
727.807	5200.53
728.149	5168.89
728.491	5182
728.833	5184.71
729.175	5176.12
729.516	5217.48
729.858	5174.31
730.199	5204.37
730.541	5233.97
730.882	5198.72
731.224	5196.91
731.565	5178.61
731.906	5191.04
732.248	5152.39
732.589	5160.98
732.93	5153.75
733.271	5161.88
733.612	5163.01
733.953	5175.44
734.294	5175.67
734.635	5144.26
734.976	5213.41
735.317	5194.65
735.658	5195.33
735.999	5194.88
736.339	5215.22
736.68	5199.4
737.021	5207.76
737.361	5198.49
737.702	5189.68
738.042	5233.52
738.383	5176.8
738.723	5213.18
739.063	5255.21
739.404	5260.41
739.744	5274.2
740.084	5278.49
740.424	5255.21
740.764	5305.61
741.104	5321.65
741.444	5301.54
741.784	5290.47
742.124	5351.03
742.464	5367.98
742.804	5382.9
743.143	5384.25
743.483	5419.5
743.823	5421.54
744.162	5461.09
744.502	5550.35
744.841	5501.31
745.181	5522.78
745.52	5549.67
745.86	5589.44
746.199	5613.4
746.538	5692.94
746.877	5749.89
747.216	5740.85
747.556	5762.32
747.895	5845.03
748.234	5822.43
748.573	5931.81
748.911	5946.72
749.25	6007.74
749.589	6087.96
749.928	6107.4
750.267	6235.53
750.605	6275.3
750.944	6348.29
751.283	6402.3
751.621	6547.61
751.96	6550.55
752.298	6726.36
752.636	6724.1
752.975	6791.45
753.313	6972.01
753.651	7053.59
753.989	7106.24
754.327	7248.61
754.666	7304.2
755.004	7473.01
755.342	7563.4
755.679	7745.54
756.017	7854.24
756.355	7984.41
756.693	8030.06
757.031	8262.59
757.368	8374.68
757.706	8482.47
758.044	8664.39
758.381	8816.03
758.719	9011.27
759.056	9157.03
759.394	9364.03
759.731	9445.16
760.068	9664.14
760.405	9714.98
760.743	9863.46
761.08	10168.76
761.417	10266.61
761.754	10468.41
762.091	10587.05
762.428	10811.68
762.765	10971.22
763.102	11218.45
763.438	11324.21
763.775	11470.19
764.112	11663.63
764.449	11952.89
764.785	12048.71
765.122	12135.71
765.458	12344.52
765.795	12522.82
766.131	12702.48
766.467	12852.53
766.804	13045.74
767.14	13172.52
767.476	13324.83
767.812	13416.36
768.148	13597.14
768.485	13771.6
768.821	13810.02
769.157	14033.74
769.492	14200.52
769.828	14326.39
770.164	14310.8
770.5	14599.38
770.836	14801.4
771.171	14808.64
771.507	14886.83
771.842	14983.09
772.178	15068.52
772.513	15232.35
772.849	15253.14
773.184	15333.37
773.519	15509.18
773.855	15515.06
774.19	15664.21
774.525	15755.05
774.86	15794.82
775.195	15930.41
775.53	16046.34
775.865	16029.62
776.2	16071.43
776.535	16086.34
776.87	16155.04
777.205	16140.35
777.539	16236.4
777.874	16348.71
778.209	16336.73
778.543	16388.93
778.878	16389.16
779.212	16383.74
779.547	16415.37
779.881	16621.24
780.215	16566.1
780.55	16679.32
780.884	16570.17
781.218	16613.56
781.552	16671.64
781.886	16699.66
782.22	16622.37
782.554	16755.7
782.888	16632.54
783.222	16632.54
783.556	16619.21
783.889	16679.55
784.223	16652.43
784.557	16617.63
784.89	16767.45
785.224	16645.65
785.557	16623.5
785.891	16653.79
786.224	16650.17
786.558	16680.68
786.891	16540.79
787.224	16558.42
787.557	16499.21
787.891	16547.35
788.224	16616.95
788.557	16603.39
788.89	16626.44
789.223	16610.85
789.556	16505.54
789.888	16610.62
790.221	16517.74
790.554	16385.77
790.887	16508.48
791.219	16407.24
791.552	16382.38
791.884	16364.98
792.217	16410.18
792.549	16428.48
792.882	16311.42
793.214	16181.48
793.546	16228.26
793.879	16157.53
794.211	16080.92
794.543	16228.71
794.875	16119.11
795.207	16240.69
795.539	16090.18
795.871	16151.2
796.203	15997.31
796.535	15945.56
796.867	15917.99
797.198	15987.81
797.53	15997.76
797.862	15832.79
798.193	15994.14
798.525	15798.67
798.856	15796.41
799.188	15702.4
799.519	15650.87
799.85	15526.36
800.182	15566.81
800.513	15715.73
800.844	15494.27
801.175	15613.81
801.506	15695.62
801.837	15502.86
802.168	15410.65
802.499	15522.06
802.83	15348.51
803.161	15350.99
803.491	15381.95
803.822	15369.98
804.153	15299.47
804.483	15128.18
804.814	15133.37
805.145	15033.49
805.475	15095.63
805.805	15077.78
806.136	15055.18
806.466	15056.99
806.796	14981.74
807.126	14910.1
807.457	14915.75
807.787	14849.54
808.117	14907.16
808.447	14800.95
808.777	14859.03
809.107	14708.3
809.436	14702.2
809.766	14748.07
810.096	14643.89
810.426	14649.09
810.755	14682.99
811.085	14663.78
811.414	14600.73
811.744	14496.55
812.073	14413.84
812.403	14515.08
812.732	14404.13
813.061	14443.45
813.39	14365.26
813.719	14362.77
814.049	14512.82
814.378	14411.36
814.707	14308.99
815.036	14304.02
815.365	14221.76
815.693	14150.12
816.022	14157.35
816.351	14071.93
816.68	14119.61
817.008	14164.81
817.337	13969.11
817.665	13953.29
817.994	13989.22
818.322	14018.15
818.651	13877.59
818.979	13895.89
819.307	13998.26
819.636	13878.72
819.964	13913.97
820.292	13846.18
820.62	13869.68
820.948	13832.62
821.276	13902.67
821.604	13841.88
821.932	13856.8
822.259	13836.01
822.587	13878.27
822.915	13825.84
823.243	13899.06
823.57	13850.7
823.898	13870.13
824.225	13782.9
824.553	13793.3
824.88	13770.47
825.207	13797.82
825.535	13773.41
825.862	13854.31
826.189	13827.64
826.516	13835.55
826.843	13979.96
827.17	13902.9
827.497	13846.18
827.824	13889.34
828.151	13889.34
828.478	13840.98
828.805	14006.62
829.131	13870.58
829.458	13838.94
829.785	13768.89
830.111	13778.38
830.438	13954.65
830.764	13844.14
831.09	13910.58
831.417	13814.76
831.743	13897.47
832.069	13885.95
832.395	13770.02
832.722	13826.06
833.048	13801.88
833.374	13746.07
833.7	13742.22
834.026	13774.54
834.351	13728.66
834.677	13750.36
835.003	13760.3
835.329	13823.35
835.654	13704.71
835.98	13639.63
836.306	13679.4
836.631	13601.66
836.956	13648.44
837.282	13724.37
837.607	13665.62
837.932	13583.58
838.258	13568.67
838.583	13607.54
838.908	13509.24
839.233	13553.75
839.558	13616.35
839.883	13538.61
840.208	13383.14
840.533	13365.51
840.858	13415.9
841.182	13432.18
841.507	13385.17
841.832	13394.89
842.156	13368.45
842.481	13290.26
842.805	13276.02
843.13	13266.08
843.454	13238.28
843.778	13199.19
844.103	13229.69
844.427	13168.23
844.751	13220.2
845.075	13108.57
845.399	13066.08
845.723	12965.29
846.047	13015.01
846.371	12833.55
846.695	12888.01
847.019	12800.55
847.343	12747.45
847.666	12791.51
847.99	12656.6
848.313	12657.96
848.637	12587.45
848.96	12565.76
849.284	12528.92
849.607	12387
849.931	12342.71
850.254	12284.63
850.577	12208.93
850.9	12144.75
851.223	12089.39
851.546	12145.66
851.869	12013.91
852.192	12050.74
852.515	11846.91
852.838	11919.67
853.161	11886.23
853.483	11884.19
853.806	11762.84
854.129	11753.58
854.451	11743.63
854.774	11660.02
855.096	11607.59
855.419	11630.87
855.741	11644.2
856.063	11527.37
856.385	11518.55
856.708	11465.67
857.03	11382.96
857.352	11376.64
857.674	11439.23
857.996	11370.08
858.318	11302.74
858.64	11256.19
858.961	11249.18
859.283	11228.84
859.605	11068.17
859.926	11142.52
860.248	11141.39
860.57	11101.39
860.891	11136.87
861.212	11047.15
861.534	10955.18
861.855	11012.35
862.176	10901.85
862.498	11003.76
862.819	10919.47
863.14	10891.68
863.461	10889.87
863.782	10820.49
864.103	10883.54
864.424	10843.54
864.745	10798.57
865.065	10759.7
865.386	10711.34
865.707	10719.7
866.027	10722.19
866.348	10690.55
866.668	10685.81
866.989	10691.68
867.309	10579.37
867.63	10720.38
867.95	10670.21
868.27	10556.77
868.59	10548.18
868.91	10497.56
869.23	10581.18
869.55	10508.41
869.87	10545.92
870.19	10520.61
870.51	10458.02
870.83	10491.46
871.15	10429.09
871.469	10441.97
871.789	10423.44
872.109	10448.07
872.428	10354.29
872.748	10366.94
873.067	10360.39
873.386	10334.18
873.706	10331.47
874.025	10291.01
874.344	10246.04
874.663	10229.55
874.982	10279.26
875.301	10226.16
875.62	10234.75
875.939	10248.3
876.258	10183.22
876.577	10208.53
876.896	10200.4
877.214	10142.54
877.533	10108.87
877.852	10095.31
878.17	10095.31
878.489	10074.52
878.807	10056.9
879.125	10008.31
879.444	10011.93
879.762	9997.46
880.08	9954.53
880.398	9919.5
880.716	9943.91
881.034	9890.12
881.352	9925.6
881.67	9880.63
881.988	9935.54
882.306	9864.13
882.624	9740.52
882.941	9781.65
883.259	9718.6
883.577	9703.23
883.894	9722.22
884.212	9747.53
884.529	9736
884.846	9750.92
885.164	9656.46
885.481	9641.31
885.798	9559.51
886.115	9538.04
886.432	9557.47
886.75	9545.72
887.067	9555.89
887.383	9515.89
887.7	9528.1
888.017	9472.51
888.334	9482.45
888.651	9436.12
888.967	9431.83
889.284	9361.55
889.6	9312.28
889.917	9232.06
890.233	9283.81
890.55	9249.23
890.866	9293.53
891.182	9225.51
891.498	9100.09
891.815	9073.87
892.131	9125.85
892.447	9093.31
892.763	9038.17
893.079	9039.3
893.395	9001.56
893.71	8998.85
894.026	8996.59
894.342	8913.65
894.657	8919.07
894.973	8920.2
895.289	8849.47
895.604	8814.9
895.92	8821.9
896.235	8752.98
896.55	8811.51
896.865	8661
897.181	8617.61
897.496	8673.88
897.811	8568.8
898.126	8610.38
898.441	8524.06
898.756	8471.18
899.071	8475.02
899.386	8448.13
899.7	8338.3
900.015	8347.56
900.33	8388.01
900.644	8268.7
900.959	8326.32
901.273	8255.81
901.588	8221.46
901.902	8176.04
902.216	8249.71
902.531	8108.93
902.845	8123.39
903.159	8039.32
903.473	8005.43
903.787	8014.69
904.101	7943.96
904.415	7992.77
904.729	7953.68
905.042	7869.16
905.356	7833.23
905.67	7834.81
905.984	7767.69
906.297	7825.32
906.611	7724.98
906.924	7744.87
907.237	7690.63
907.551	7648.6
907.864	7637.75
908.177	7636.17
908.491	7569.73
908.804	7488.38
909.117	7459
909.43	7445.67
909.743	7451.77
910.056	7388.04
910.368	7400.92
910.681	7289.51
910.994	7337.19
911.307	7304.2
911.619	7214.71
911.932	7240.25
912.244	7172.23
912.557	7113.47
912.869	7148.95
913.181	7120.02
913.494	7120.25
913.806	7044.55
914.118	7030.76
914.43	6964.77
914.742	6940.37
915.054	6960.03
915.366	6885.45
915.678	6885.45
915.99	6852.69
916.302	6804.1
916.613	6789.86
916.925	6814.27
917.236	6787.15
917.548	6707.15
917.859	6688.85
918.171	6643.88
918.482	6662.18
918.794	6568.63
919.105	6611.79
919.416	6561.62
919.727	6541.73
920.038	6488.18
920.349	6478.91
920.66	6448.63
920.971	6388.74
921.282	6414.73
921.593	6341.74
921.903	6370.67
922.214	6312.36
922.525	6282.08
922.835	6237.34
923.146	6234.85
923.456	6238.69
923.767	6211.35
924.077	6159.6
924.387	6144.01
924.697	6078.24
925.008	6094.29
925.318	6032.14
925.628	5998.02
925.938	6010.68
926.248	5983.78
926.558	6008.19
926.867	5939.04
927.177	5921.64
927.487	5917.12
927.796	5809.1
928.106	5802.77
928.416	5836.89
928.725	5789.21
929.034	5730.23
929.344	5794.64
929.653	5746.28
929.962	5690.91
930.271	5675.77
930.581	5657.92
930.89	5662.44
931.199	5652.04
931.508	5604.13
931.817	5606.39
932.125	5558.03
932.434	5527.3
932.743	5522.55
933.051	5472.38
933.36	5466.73
933.669	5396.68
933.977	5450.01
934.286	5375.89
934.594	5387.19
934.902	5340.86
935.21	5307.64
935.519	5315.1
935.827	5321.65
936.135	5289.11
936.443	5205.72
936.751	5257.7
937.059	5233.75
937.367	5177.02
937.674	5206.63
937.982	5116.91
938.29	5123.47
938.597	5144.26
938.905	5012.28
939.213	5043.47
939.52	5017.48
939.827	5025.16
940.135	5018.61
940.442	4967.31
940.749	4943.81
941.056	4958.95
941.363	4922.34
941.67	4843.47
941.977	4854.1
942.284	4843.02
942.591	4823.59
942.898	4779.07
943.205	4801.22
943.511	4779.75
943.818	4757.6
944.125	4735.45
944.431	4695.46
944.738	4680.31
945.044	4673.54
945.35	4590.6
945.657	4593.09
945.963	4597.83
946.269	4574.1
946.575	4592.18
946.881	4552.63
947.187	4491.62
947.493	4479.42
947.799	4455.46
948.105	4494.56
948.41	4444.61
948.716	4420.21
949.022	4416.37
949.327	4410.72
949.633	4336.14
949.938	4360.32
950.244	4370.49
950.549	4271.29
950.854	4258.18
951.16	4287.1
951.465	4229.03
951.77	4246.65
952.075	4218.18
952.38	4199.65
952.685	4188.12
952.99	4085.53
953.294	4160.78
953.599	4126.88
953.904	4121.23
954.209	4040.78
954.513	4087.56
954.818	4048.02
955.122	4038.3
955.426	4001.24
955.731	3978.64
956.035	4003.04
956.339	3961.92
956.643	3987.68
956.948	3891.86
957.252	3934.12
957.556	3905.42
957.86	3927.79
958.163	3883.05
958.467	3888.92
958.771	3886.66
959.075	3820
959.378	3790.85
959.682	3769.6
959.985	3775.71
960.289	3775.48
960.592	3722.83
960.896	3705.88
961.199	3737.74
961.502	3671.3
961.805	3710.85
962.108	3641.92
962.411	3636.27
962.714	3608.93
963.017	3655.48
963.32	3603.05
963.623	3608.48
963.926	3595.6
964.228	3598.54
964.531	3547.24
964.833	3527.12
965.136	3495.26
965.438	3497.3
965.741	3460.01
966.043	3472.44
966.345	3476.05
966.648	3443.96
966.95	3420.01
967.252	3391.31
967.554	3380.01
967.856	3374.59
968.158	3335.04
968.46	3357.19
968.761	3330.97
969.063	3347.92
969.365	3313.57
969.666	3272.67
969.968	3271.99
970.269	3261.37
970.571	3230.41
970.872	3246.91
971.174	3229.51
971.475	3214.14
971.776	3184.31
972.077	3175.72
972.378	3145.89
972.679	3159.45
972.98	3135.72
973.281	3116.51
973.582	3130.75
973.883	3112.9
974.183	3079.45
974.484	3076.74
974.785	3064.09
975.085	3068.61
975.386	3045.1
975.686	2993.58
975.986	3030.64
976.287	3005.56
976.587	2967.14
976.887	2984.99
977.187	2960.59
977.487	2961.94
977.787	2907.71
978.087	2930.53
978.387	2922.62
978.687	2883.53
978.987	2858.22
979.286	2878.1
979.586	2802.4
979.885	2835.17
980.185	2867.48
980.484	2816.41
980.784	2794.49
981.083	2814.6
981.382	2797.65
981.682	2774.6
981.981	2754.26
982.28	2753.36
982.579	2738.9
982.878	2716.07
983.177	2707.03
983.475	2688.28
983.774	2689.86
984.073	2674.94
984.372	2638.11
984.67	2617.54
984.969	2619.58
985.267	2620.71
985.566	2596.98
985.864	2584.1
986.162	2576.42
986.461	2554.95
986.759	2539.35
987.057	2514.27
987.355	2535.51
987.653	2523.76
987.951	2511.78
988.249	2517.89
988.547	2512.24
988.844	2514.27
989.142	2483.54
989.44	2457.55
989.737	2438.11
990.035	2409.41
990.332	2422.52
990.63	2401.28
990.927	2479.92
991.224	2405.35
991.521	2409.19
991.819	2365.8
992.116	2397.44
992.413	2352.69
992.71	2342.52
993.006	2336.65
993.303	2295.52
993.6	2296.65
993.897	2304.11
994.193	2268.17
994.49	2303.43
994.787	2270.66
995.083	2289.42
995.379	2227.5
995.676	2220.49
995.972	2227.72
996.268	2204
996.565	2230.44
996.861	2169.19
997.157	2211.23
997.453	2177.56
997.749	2135.52
998.044	2139.82
998.34	2129.42
998.636	2136.65
998.932	2108.86
999.227	2107.28
999.523	2121.29
999.818	2090.1
1000.114	2086.48
1000.409	2052.81
1000.704	2047.62
1001	2049.2
1001.295	2050.1
1001.59	2009.88
1001.885	2019.37
1002.18	2002.65
1002.475	1997
1002.77	1983.21
1003.065	1967.39
1003.359	1938.69
1003.654	1941.18
1003.949	1913.61
1004.243	1907.51
1004.538	1894.17
1004.832	1893.04
1005.127	1868.64
1005.421	1917
1005.715	1854.85
1006.009	1843.55
1006.304	1871.35
1006.598	1802.42
1006.892	1838.81
1007.186	1835.42
1007.48	1818.02
1007.773	1799.71
1008.067	1780.05
1008.361	1773.5
1008.655	1750.9
1008.948	1733.95
1009.242	1744.12
1009.535	1731.01
1009.829	1705.25
1010.122	1722.43
1010.415	1703.44
1010.708	1704.35
1011.001	1688.08
1011.295	1699.6
1011.588	1650.56
1011.881	1642.2
1012.173	1630.45
1012.466	1637.23
1012.759	1610.34
1013.052	1658.25
1013.344	1608.76
1013.637	1644.46
1013.93	1609.66
1014.222	1568.53
1014.514	1579.38
1014.807	1605.14
1015.099	1554.75
1015.391	1524.92
1015.683	1540.74
1015.976	1551.58
1016.268	1489.44
1016.56	1523.11
1016.851	1495.99
1017.143	1480.62
1017.435	1439.04
1017.727	1476.78
1018.018	1429.1
1018.31	1452.38
1018.602	1430.46
1018.893	1435.65
1019.185	1442.43
1019.476	1400.85
1019.767	1387.52
1020.058	1397.24
1020.35	1376.45
1020.641	1375.32
1020.932	1360.4
1021.223	1367.63
1021.514	1393.17
1021.804	1353.4
1022.095	1339.39
1022.386	1323.34
1022.677	1322.21
1022.967	1300.29
1023.258	1291.25
1023.548	1291.03
1023.839	1258.26
1024.129	1281.99
1024.419	1279.95
1024.709	1263
1025	1251.25
1025.29	1252.16
1025.58	1272.72
1025.87	1249.44
1026.16	1241.31
1026.449	1227.52
1026.739	1209.9
1027.029	1191.37
1027.319	1178.49
1027.608	1201.54
1027.898	1144.14
1028.187	1181.65
1028.477	1172.61
1028.766	1158.15
1029.055	1147.53
1029.344	1156.79
1029.634	1143.46
1029.923	1133.97
1030.212	1138.04
1030.501	1120.18
1030.79	1115.21
1031.078	1094.42
1031.367	1095.55
1031.656	1071.37
1031.945	1102.56
1032.233	1079.73
1032.522	1049
1032.81	1049.9
1033.099	1025.72
1033.387	1034.31
1033.675	1047.42
1033.963	1042.9
1034.251	1018.04
1034.54	1016.46
1034.828	1030.47
1035.116	1001.99
1035.403	1009.9
1035.691	988.89
1035.979	1004.03
1036.267	983.91
1036.554	985.04
1036.842	990.47
1037.129	967.87
1037.417	936.68
1037.704	941.2
1037.992	946.4
1038.279	929.23
1038.566	957.7
1038.853	957.7
1039.14	957.7
