Data from hue_220_FLMS001491_00051.txt Node
Date: Tue Feb 07 16:39:38 GMT 2017
User: dcchb
Spectrometer: FLMS00149
Trigger mode: 0
Integration Time (sec): 2.000000E-2
Scans to average: 10
Electric dark correction enabled: true
Nonlinearity correction enabled: false
Boxcar width: 0
XAxis mode: Wavelengths
Number of Pixels in Spectrum: 2048
>>>>>Begin Spectral Data<<<<<
341.393	-26.02
341.776	-26.02
342.16	-26.02
342.543	-64.21
342.927	-64.21
343.31	-56.75
343.693	-54.94
344.077	-75.96
344.46	-61.72
344.843	-36.86
345.226	-20.82
345.61	-56.52
345.993	-26.69
346.376	-29.63
346.759	-13.36
347.142	25.28
347.525	47.65
347.908	68.44
348.291	82
348.674	100.31
349.057	109.57
349.44	129.46
349.823	145.05
350.206	165.62
350.588	185.28
350.971	222.56
351.354	206.75
351.737	255.33
352.119	241.1
352.502	249.91
352.884	283.35
353.267	287.42
353.65	270.7
354.032	329.68
354.414	300.75
354.797	311.15
355.179	317.93
355.562	305.95
355.944	324.03
356.326	324.93
356.709	319.29
357.091	340.08
357.473	364.26
357.855	364.26
358.238	338.49
358.62	325.84
359.002	350.47
359.384	326.06
359.766	329.91
360.148	316.35
360.53	343.92
360.912	334.65
361.294	341.66
361.676	324.26
362.057	340.3
362.439	314.77
362.821	330.13
363.203	326.52
363.584	325.39
363.966	319.29
364.348	327.87
364.729	322.45
365.111	339.62
365.493	311.6
365.874	308.21
366.256	320.19
366.637	323.81
367.019	331.71
367.4	321.55
367.781	302.56
368.163	323.13
368.544	303.92
368.925	312.96
369.306	326.97
369.688	301.88
370.069	317.48
370.45	312.96
370.831	322.9
371.212	308.21
371.593	309.34
371.974	330.13
372.355	320.87
372.736	306.4
373.117	309.79
373.498	339.85
373.879	324.03
374.26	329.68
374.641	321.77
375.021	294.2
375.402	312.28
375.783	333.07
376.163	315.44
376.544	309.12
376.925	313.64
377.305	324.03
377.686	320.64
378.066	325.16
378.447	331.71
378.827	318.16
379.208	338.27
379.588	300.75
379.968	343.01
380.349	325.84
380.729	323.13
381.109	325.61
381.489	324.93
381.87	328.1
382.25	339.4
382.63	355.22
383.01	347.99
383.39	323.13
383.77	340.98
384.15	349.34
384.53	333.52
384.91	334.43
385.29	324.03
385.67	349.79
386.049	351.83
386.429	344.14
386.809	347.53
387.189	336.91
387.568	352.5
387.948	344.14
388.328	352.5
388.707	338.72
389.087	389.34
389.466	365.39
389.846	357.02
390.225	350.25
390.605	355.44
390.984	362.45
391.363	360.64
391.743	384.59
392.122	371.71
392.501	383.69
392.881	359.28
393.26	373.97
393.639	395.89
394.018	367.42
394.397	389.79
394.776	394.31
395.155	386.85
395.534	374.2
395.913	371.71
396.292	388.89
396.671	385.27
397.05	385.27
397.429	389.57
397.808	396.57
398.186	382.56
398.565	383.01
398.944	394.99
399.323	391.37
399.701	397.7
400.08	395.67
400.458	398.38
400.837	410.81
401.215	416.68
401.594	418.94
401.972	431.6
402.351	421.66
402.729	435.21
403.107	421.43
403.486	422.56
403.864	427.31
404.242	413.52
404.62	413.29
404.999	431.82
405.377	469.56
405.755	441.32
406.133	451.94
406.511	453.75
406.889	468.43
407.267	451.26
407.645	461.65
408.023	479.28
408.401	463.91
408.779	500.52
409.156	493.07
409.534	506.85
409.912	490.13
410.29	521.09
410.667	504.82
411.045	521.54
411.422	525.38
411.8	513.4
412.178	539.39
412.555	571.03
412.933	568.77
413.31	558.6
413.687	578.49
414.065	561.31
414.442	587.3
414.819	602.44
415.197	587.98
415.574	619.84
415.951	599.05
416.328	622.78
416.705	642.67
417.082	637.7
417.46	629.79
417.837	653.51
418.214	641.31
418.591	664.81
418.967	681.76
419.344	697.58
419.721	691.25
420.098	660.29
420.475	719.73
420.852	714.98
421.228	714.76
421.605	725.6
421.982	731.03
422.358	750.01
422.735	752.27
423.111	792.27
423.488	805.37
423.864	801.31
424.241	798.37
424.617	838.82
424.994	833.17
425.37	859.38
425.746	851.25
426.123	888.08
426.499	885.82
426.875	879.72
427.251	896.9
427.627	924.92
428.003	923.56
428.379	933.96
428.756	940.51
429.132	957.01
429.507	964.24
429.883	982.09
430.259	989.1
430.635	1026.84
431.011	1015.99
431.387	1038.81
431.763	1036.55
432.138	1055.54
432.514	1083.56
432.89	1064.35
433.265	1119.72
433.641	1136.21
434.016	1162.2
434.392	1191.58
434.767	1205.14
435.143	1222.99
435.518	1234.06
435.894	1240.39
436.269	1261.41
436.644	1284.01
437.02	1275.19
437.395	1325.59
437.77	1343.21
438.145	1385.25
438.52	1384.34
438.895	1387.28
439.271	1417.79
439.646	1450.33
440.021	1496.2
440.395	1489.88
440.77	1477
441.145	1509.31
441.52	1536.65
441.895	1555.86
442.27	1587.05
442.645	1547.05
443.019	1607.84
443.394	1618.23
443.769	1638.8
444.143	1605.35
444.518	1657.33
444.892	1646.71
445.267	1688.97
445.641	1712.92
446.016	1705.24
446.39	1715.86
446.764	1760.38
447.139	1706.82
447.513	1738.68
447.887	1781.62
448.262	1787.5
448.636	1808.06
449.01	1823.2
449.384	1815.97
449.758	1841.05
450.132	1883.09
450.506	1883.76
450.88	1866.59
451.254	1886.02
451.628	1922.18
452.002	1905.01
452.376	1950.43
452.75	1946.36
453.123	1970.77
453.497	1989.98
453.871	1980.48
454.244	2030.88
454.618	2053.93
454.992	2096.64
455.365	2095.96
455.739	2138.9
456.112	2126.47
456.486	2152.91
456.859	2165.56
457.232	2215.05
457.606	2219.57
457.979	2242.62
458.352	2289.4
458.725	2295.96
459.099	2307.93
459.472	2345.45
459.845	2365.11
460.218	2417.99
460.591	2400.13
460.964	2456.18
461.337	2496.86
461.71	2518.1
462.083	2544.31
462.456	2550.87
462.829	2549.28
463.201	2588.83
463.574	2598.32
463.947	2618.66
464.32	2686.45
464.692	2700.47
465.065	2732.1
465.438	2762.84
465.81	2803.74
466.183	2808.26
466.555	2886.45
466.928	2861.82
467.3	2895.04
467.672	2936.84
468.045	3026.33
468.417	3006.22
468.789	3034.47
469.161	3031.08
469.534	3096.61
469.906	3128.93
470.278	3159.21
470.65	3191.07
471.022	3233.33
471.394	3284.18
471.766	3333.67
472.138	3386.32
472.51	3374.35
472.882	3494.57
473.253	3504.06
473.625	3513.55
473.997	3618.18
474.369	3605.98
474.74	3610.05
475.112	3732.53
475.484	3761.68
475.855	3773.66
476.227	3781.57
476.598	3923.94
476.97	3964.16
477.341	3970.71
477.713	4057.27
478.084	4078.96
478.455	4160.09
478.827	4196.92
479.198	4324.38
479.569	4306.53
479.94	4371.61
480.311	4438.95
480.682	4512.17
481.053	4586.52
481.424	4673.97
481.795	4740.19
482.166	4756.68
482.537	4796
482.908	4890.92
483.279	4930.92
483.65	5047.75
484.021	5085.04
484.391	5141.31
484.762	5146.96
485.133	5203.22
485.503	5283.67
485.874	5334.07
486.244	5392.82
486.615	5485.48
486.985	5528.41
487.356	5621.97
487.726	5650.9
488.097	5736.54
488.467	5744.23
488.837	5791.91
489.207	5903.32
489.578	5968.63
489.948	6015.86
490.318	6118
490.688	6068.96
491.058	6144.22
491.428	6197.1
491.798	6307.6
492.168	6419.92
492.538	6410.88
492.908	6442.51
493.278	6508.5
493.648	6554.83
494.017	6602.74
494.387	6660.81
494.757	6671.21
495.126	6682.28
495.496	6705.33
495.866	6757.31
496.235	6824.43
496.605	6877.31
496.974	6901.49
497.344	6915.95
497.713	6981.71
498.082	6997.53
498.452	7068.71
498.821	7019
499.19	7056.51
499.559	7115.26
499.928	7158.65
500.298	7182.61
500.667	7294.24
501.036	7206.79
501.405	7275.71
501.774	7256.5
502.143	7315.26
502.512	7350.74
502.88	7382.6
503.249	7351.19
503.618	7444.52
503.987	7377.63
504.356	7435.48
504.724	7463.96
505.093	7442.94
505.462	7495.14
505.83	7505.31
506.199	7557.97
506.567	7564.97
506.936	7601.35
507.304	7629.83
507.672	7675.7
508.041	7688.81
508.409	7720.45
508.777	7700.56
509.145	7732.88
509.514	7764.74
509.882	7764.06
510.25	7798.64
510.618	7775.59
510.986	7813.1
511.354	7817.85
511.722	7898.3
512.09	7938.29
512.458	7923.15
512.826	7945.98
513.193	7955.69
513.561	7893.55
513.929	7957.5
514.297	8011.29
514.664	7990.95
515.032	7977.84
515.4	8018.74
515.767	7987.56
516.135	8008.12
516.502	7947.11
516.869	8033.21
517.237	8046.99
517.604	8071.17
517.972	8085.86
518.339	8107.1
518.706	8074.79
519.073	8106.2
519.44	8127.44
519.808	8139.19
520.175	8060.78
520.542	8130.83
520.909	8150.49
521.276	8117.05
521.643	8188.46
522.009	8216.93
522.376	8148.46
522.743	8229.13
523.11	8211.28
523.477	8275.23
523.843	8249.92
524.21	8285.86
524.577	8347.55
524.943	8275.91
525.31	8251.51
525.676	8379.19
526.043	8293.76
526.409	8326.98
526.776	8347.32
527.142	8350.94
527.508	8289.02
527.874	8380.54
528.241	8404.04
528.607	8300.54
528.973	8371.73
529.339	8318.17
529.705	8383.25
530.071	8448.56
530.437	8392.75
530.803	8359.07
531.169	8406.76
531.535	8376.93
531.901	8318.85
532.267	8314.78
532.632	8295.35
532.998	8308.68
533.364	8386.64
533.73	8325.18
534.095	8379.19
534.461	8334.22
534.826	8291.96
535.192	8331.28
535.557	8305.74
535.923	8303.26
536.288	8277.95
536.653	8244.95
537.019	8153.2
537.384	8239.3
537.749	8225.74
538.114	8186.42
538.479	8118.18
538.845	8155.92
539.21	8113.88
539.575	8115.46
539.94	8122.24
540.305	8079.53
540.67	8081.34
541.034	8054.68
541.399	8088.8
541.764	8005.18
542.129	8013.32
542.494	7992.08
542.858	8042.02
543.223	7936.03
543.587	7955.02
543.952	7949.14
544.316	7863.27
544.681	7922.25
545.045	7886.32
545.41	7887
545.774	7864.85
546.138	7825.53
546.503	7758.41
546.867	7709.37
547.231	7769.94
547.595	7783.72
547.959	7784.85
548.324	7663.05
548.688	7684.97
549.052	7714.35
549.416	7668.24
549.779	7656.04
550.143	7586.89
550.507	7596.16
550.871	7632.99
551.235	7515.25
551.599	7622.37
551.962	7527.23
552.326	7597.96
552.689	7560.22
553.053	7489.04
553.417	7482.03
553.78	7550.06
554.143	7423.28
554.507	7488.36
554.87	7537.85
555.234	7549.15
555.597	7405.88
555.96	7449.27
556.323	7445.88
556.686	7430.96
557.05	7426.22
557.413	7393
557.776	7351.64
558.139	7423.96
558.502	7410.17
558.865	7403.17
559.228	7463.5
559.59	7419.89
559.953	7410.4
560.316	7432.09
560.679	7421.02
561.041	7431.87
561.404	7417.86
561.767	7452.21
562.129	7422.83
562.492	7456.5
562.854	7457.4
563.217	7388.03
563.579	7482.49
563.941	7485.42
564.304	7447.23
564.666	7515.48
565.028	7466.89
565.39	7502.15
565.753	7471.64
566.115	7475.48
566.477	7617.4
566.839	7561.81
567.201	7591.86
567.563	7597.29
567.925	7640.45
568.287	7616.72
568.648	7654.69
569.01	7640.67
569.372	7637.51
569.734	7693.78
570.095	7703.27
570.457	7733.78
570.819	7693.55
571.18	7632.31
571.542	7790.28
571.903	7724.97
572.265	7767
572.626	7782.37
572.987	7797.28
573.349	7790.73
573.71	7790.05
574.071	7769.71
574.432	7831.18
574.794	7839.99
575.155	7851.74
575.516	7863.95
575.877	7926.09
576.238	7890.39
576.599	7904.4
576.96	7946.2
577.32	7923.38
577.681	7990.5
578.042	7953.43
578.403	7994.79
578.763	8004.06
579.124	8002.02
579.485	8041.79
579.845	8081.34
580.206	8101.45
580.566	8089.48
580.927	8054
581.287	8134.67
581.648	8072.98
582.008	8144.84
582.368	8178.51
582.728	8156.37
583.089	8174.9
583.449	8190.72
583.809	8197.95
584.169	8252.18
584.529	8157.72
584.889	8303.71
585.249	8205.86
585.609	8218.29
585.969	8292.18
586.329	8266.42
586.688	8275.01
587.048	8361.56
587.408	8330.15
587.768	8309.36
588.127	8343.26
588.487	8333.99
588.846	8358.4
589.206	8339.41
589.565	8432.52
589.925	8374.44
590.284	8383.93
590.643	8431.16
591.003	8450.15
591.362	8479.75
591.721	8477.49
592.08	8504.61
592.44	8441.33
592.799	8477.04
593.158	8474.55
593.517	8456.25
593.876	8515.68
594.235	8517.71
594.593	8503.93
594.952	8546.87
595.311	8590.48
595.67	8580.09
596.029	8597.94
596.387	8634.1
596.746	8599.29
597.104	8581.67
597.463	8593.64
597.822	8677.48
598.18	8583.47
598.538	8618.95
598.897	8667.09
599.255	8573.76
599.613	8724.49
599.972	8622.8
600.33	8695.79
600.688	8686.3
601.046	8616.92
601.404	8775.79
601.762	8747.09
602.12	8701.89
602.478	8734.43
602.836	8750.02
603.194	8626.19
603.552	8683.81
603.91	8648.78
604.268	8762.91
604.625	8695.56
604.983	8680.87
605.341	8708.22
605.698	8693.53
606.056	8772.17
606.413	8791.6
606.771	8743.24
607.128	8755.67
607.485	8761.1
607.843	8787.99
608.2	8753.19
608.557	8806.75
608.914	8803.81
609.272	8927.65
609.629	8829.8
609.986	8854.43
610.343	8831.15
610.7	8879.51
611.057	8921.09
611.414	8966.52
611.771	8846.74
612.127	8856.91
612.484	8874.77
612.841	8934.43
613.198	8927.65
613.554	8921.55
613.911	8969.23
614.267	8937.36
614.624	8887.87
614.98	8965.39
615.337	9009.68
615.693	8997.25
616.05	8979.4
616.406	8990.47
616.762	8962.45
617.118	8963.8
617.475	8985.05
617.831	9079.06
618.187	9014.65
618.543	8973.3
618.899	9070.69
619.255	9076.12
619.611	9031.37
619.967	9044.25
620.323	9085.83
620.678	9072.73
621.034	9091.48
621.39	9123.57
621.746	9029.79
622.101	9095.55
622.457	9075.67
622.812	9046.74
623.168	9132.84
623.523	9123.8
623.879	9132.39
624.234	9057.13
624.589	9079.51
624.945	9100.98
625.3	9105.27
625.655	9078.15
626.01	9118.15
626.365	9054.65
626.72	9038.6
627.075	9074.99
627.43	9063.01
627.785	9047.64
628.14	9060.75
628.495	9100.07
628.85	9065.72
629.205	8986.63
629.559	9066.85
629.914	9053.29
630.269	9010.36
630.623	8967.65
630.978	9024.14
631.332	9029.56
631.687	9011.94
632.041	8946.4
632.396	9002.67
632.75	8992.96
633.104	8933.75
633.459	8851.72
633.813	8853.07
634.167	8967.87
634.521	8917.03
634.875	8900.75
635.229	8858.72
635.583	8869.34
635.937	8870.92
636.291	8874.31
636.645	8835.45
636.999	8871.6
637.352	8863.24
637.706	8767.42
638.06	8803.13
638.413	8771.94
638.767	8796.8
639.121	8778.27
639.474	8724.71
639.828	8716.13
640.181	8740.31
640.534	8734.21
640.888	8734.21
641.241	8742.79
641.594	8687.43
641.947	8735.34
642.301	8696.92
642.654	8701.44
643.007	8724.04
643.36	8658.05
643.713	8765.84
644.066	8684.72
644.419	8691.72
644.771	8611.5
645.124	8570.37
645.477	8520.2
645.83	8460.54
646.182	8419.64
646.535	8379.41
646.888	8407.89
647.24	8340.32
647.593	8418.96
647.945	8384.84
648.298	8355.01
648.65	8317.49
649.002	8306.87
649.355	8387.32
649.707	8362.92
650.059	8431.61
650.411	8502.35
650.763	8489.69
651.115	8654.21
651.467	8556.36
651.819	8568.33
652.171	8596.58
652.523	8508.45
652.875	8519.52
653.227	8526.98
653.578	8579.63
653.93	8517.94
654.282	8526.08
654.633	8529.69
654.985	8552.74
655.337	8539.18
655.688	8545.74
656.039	8571.72
656.391	8493.08
656.742	8533.31
657.094	8527.88
657.445	8544.15
657.796	8511.39
658.147	8538.73
658.498	8543.7
658.849	8559.52
659.2	8595.23
659.551	8548.45
659.902	8523.82
660.253	8502.8
660.604	8569.69
660.955	8564.27
661.306	8578.5
661.656	8562.68
662.007	8620.31
662.358	8593.42
662.708	8601.78
663.059	8610.82
663.409	8520.2
663.76	8597.71
664.11	8566.98
664.461	8624.6
664.811	8673.19
665.161	8543.02
665.511	8599.75
665.862	8618.95
666.212	8557.49
666.562	8645.85
666.912	8593.64
667.262	8592.51
667.612	8577.83
667.962	8565.4
668.312	8604.49
668.662	8636.35
669.011	8660.76
669.361	8599.75
669.711	8610.37
670.06	8599.97
670.41	8597.49
670.76	8604.94
671.109	8599.97
671.459	8598.16
671.808	8557.03
672.157	8615.34
672.507	8530.82
672.856	8595.45
673.205	8505.06
673.554	8466.64
673.904	8507.77
674.253	8560.2
674.602	8520.43
674.951	8372.41
675.3	8368.34
675.649	8467.77
675.998	8505.28
676.346	8454.21
676.695	8461.67
677.044	8417.6
677.393	8425.29
677.741	8456.92
678.09	8472.52
678.438	8411.5
678.787	8451.27
679.135	8440.65
679.484	8389.81
679.832	8391.16
680.181	8384.84
680.529	8434.1
680.877	8287.66
681.225	8319.3
681.573	8388
681.922	8281.79
682.27	8269.58
682.618	8278.4
682.966	8298.74
683.314	8240.43
683.661	8269.58
684.009	8196.37
684.357	8180.32
684.705	8163.37
685.053	8170.6
685.4	8211.06
685.748	8150.04
686.095	8139.19
686.443	8079.99
686.79	8043.83
687.138	8054.9
687.485	8033.66
687.832	8018.97
688.18	7977.62
688.527	7941.91
688.874	7969.03
689.221	7952.76
689.568	7862.36
689.915	7905.3
690.262	7880.67
690.609	7816.04
690.956	7851.74
691.303	7854.45
691.65	7735.14
691.997	7776.94
692.344	7663.05
692.69	7691.07
693.037	7720.45
693.383	7609.94
693.73	7596.38
694.077	7552.77
694.423	7591.18
694.769	7560.22
695.116	7511.86
695.462	7428.93
695.808	7456.5
696.155	7469.15
696.501	7407.46
696.847	7405.88
697.193	7323.17
697.539	7368.82
697.885	7287.69
698.231	7266.45
698.577	7319.33
698.923	7244.53
699.269	7153.68
699.614	7168.37
699.96	7175.15
700.306	7059
700.651	7111.2
700.997	7091.08
701.342	7048.15
701.688	7016.28
702.033	6992.56
702.379	6985.55
702.724	6972.67
703.069	6992.33
703.415	6925.21
703.76	6934.7
704.105	6888.6
704.45	6828.72
704.795	6785.33
705.14	6785.56
705.485	6813.58
705.83	6824.43
706.175	6775.16
706.52	6734.94
706.865	6743.52
707.209	6707.59
707.554	6691.55
707.899	6695.61
708.243	6669.85
708.588	6717.08
708.932	6625.79
709.277	6604.54
709.621	6614.04
709.966	6563.19
710.31	6560.93
710.654	6513.47
710.998	6519.35
711.342	6582.4
711.687	6476.86
712.031	6469.63
712.375	6447.49
712.719	6470.31
713.063	6431.67
713.407	6447.03
713.75	6456.75
714.094	6428.73
714.438	6344.66
714.782	6358.9
715.125	6384.44
715.469	6368.17
715.812	6355.28
716.156	6264.89
716.499	6332.23
716.843	6343.08
717.186	6279.58
717.53	6312.8
717.873	6329.97
718.216	6336.75
718.559	6268.28
718.902	6226.02
719.246	6252.91
719.589	6223.08
719.932	6235.97
720.275	6255.4
720.617	6220.83
720.96	6233.93
721.303	6203.65
721.646	6200.26
721.989	6176.31
722.331	6207.04
722.674	6113.71
723.016	6158.91
723.359	6186.93
723.701	6123.88
724.044	6113.94
724.386	6128.17
724.729	6132.47
725.071	6137.66
725.413	6104.22
725.755	6120.26
726.097	6135.63
726.439	6070.32
726.782	6050.21
727.124	6131.34
727.465	6026.93
727.807	6056.99
728.149	6136.31
728.491	6068.29
728.833	6074.61
729.175	6056.99
729.516	6055.18
729.858	6108.06
730.199	6093.6
730.541	6096.31
730.882	6059.25
731.224	6035.75
731.565	6048.4
731.906	6128.62
732.248	6060.83
732.589	6012.24
732.93	6045.91
733.271	6033.71
733.612	6073.26
733.953	6035.07
734.294	6020.6
734.635	6025.35
734.976	6033.26
735.317	6051.34
735.658	6031.9
735.999	6108.51
736.339	6077.55
736.68	6065.57
737.021	6046.82
737.361	6033.71
737.702	6157.1
738.042	6099.7
738.383	6067.61
738.723	6117.33
739.063	6090.66
739.404	6152.35
739.744	6114.84
740.084	6119.58
740.424	6193.71
740.764	6147.61
741.104	6154.39
741.444	6106.48
741.784	6148.06
742.124	6193.26
742.464	6166.59
742.804	6240.26
743.143	6236.87
743.483	6310.99
743.823	6239.81
744.162	6311.9
744.502	6329.97
744.841	6315.74
745.181	6367.94
745.52	6339.24
745.86	6392.57
746.199	6464.89
746.538	6488.39
746.877	6524.32
747.216	6542.4
747.556	6558.44
747.895	6676.63
748.234	6682.06
748.573	6696.74
748.911	6750.53
749.25	6840.92
749.589	6838.66
749.928	6930.41
750.267	6966.12
750.605	7007.92
750.944	7093.34
751.283	7088.6
751.621	7187.13
751.96	7281.14
752.298	7366.56
752.636	7509.83
752.975	7540.34
753.313	7600.68
753.651	7732.42
753.989	7859.2
754.327	7908.69
754.666	7968.8
755.004	8174.22
755.342	8247.44
755.679	8362.69
756.017	8481.1
756.355	8605.17
756.693	8715
757.031	8938.04
757.368	9015.33
757.706	9143.69
758.044	9280.41
758.381	9359.05
758.719	9625.93
759.056	9707.51
759.394	9893.27
759.731	10004.68
760.068	10152.02
760.405	10310.89
760.743	10416.42
761.08	10619.58
761.417	10827.94
761.754	10960.81
762.091	11102.05
762.428	11279.22
762.765	11349.96
763.102	11583.62
763.438	11760.11
763.775	11905.42
764.112	12112.42
764.449	12337.27
764.785	12410.72
765.122	12500.21
765.458	12689.58
765.795	12894.77
766.131	13107.42
766.467	13224.48
766.804	13341.09
767.14	13460.86
767.476	13745.37
767.812	13800.74
768.148	13972.94
768.485	14082.09
768.821	14208.41
769.157	14344.23
769.492	14526.82
769.828	14644.78
770.164	14653.6
770.5	14820.6
770.836	14991.22
771.171	15024.21
771.507	15104.66
771.842	15214.94
772.178	15376.74
772.513	15448.15
772.849	15574.48
773.184	15643.4
773.519	15721.82
773.855	15818.09
774.19	15853.79
774.525	16006.78
774.86	16109.6
775.195	16174.01
775.53	16225.53
775.865	16268.02
776.2	16232.77
776.535	16245.19
776.87	16311.86
777.205	16471.63
777.539	16487
777.874	16638.18
778.209	16488.8
778.543	16520.22
778.878	16622.59
779.212	16717.72
779.547	16797.72
779.881	16848.79
780.215	16686.76
780.55	16935.12
780.884	16775.8
781.218	16892.63
781.552	16838.17
781.886	16825.52
782.22	16870.04
782.554	16866.19
782.888	16831.62
783.222	16938.96
783.556	16858.74
783.889	16891.51
784.223	16763.82
784.557	16874.33
784.89	16922.46
785.224	16873.2
785.557	16865.07
785.891	16835.46
786.224	16880.21
786.558	16854.9
786.891	16734
787.224	16762.24
787.557	16766.31
787.891	16715.92
788.224	16830.49
788.557	16719.31
788.89	16835.91
789.223	16764.73
789.556	16640.44
789.888	16662.58
790.221	16689.93
790.554	16646.99
790.887	16635.69
791.219	16602.7
791.552	16565.64
791.884	16507.79
792.217	16559.31
792.549	16510.27
792.882	16414.23
793.214	16512.76
793.546	16430.95
793.879	16369.94
794.211	16291.29
794.543	16327.23
794.875	16272.99
795.207	16488.13
795.539	16292.42
795.871	16313.22
796.203	16168.36
796.535	16149.83
796.867	16077.52
797.198	16127.68
797.53	16151.19
797.862	15997.07
798.193	16021.92
798.525	15964.3
798.856	16119.77
799.188	15866.22
799.519	15754.13
799.85	15655.83
800.182	15818.31
800.513	15766.34
800.844	15580.35
801.175	15763.63
801.506	15730.63
801.837	15648.15
802.168	15574.93
802.499	15538.32
802.83	15574.25
803.161	15477.08
803.491	15504.42
803.822	15499.45
804.153	15430.75
804.483	15295.84
804.814	15314.82
805.145	15269.63
805.475	15219.01
805.805	15175.84
806.136	15236.86
806.466	15233.24
806.796	15171.55
807.126	15077.32
807.457	15035.06
807.787	15020.59
808.117	14960.48
808.447	14937.43
808.777	15052.23
809.107	14965.45
809.436	14803.42
809.766	14905.57
810.096	14783.54
810.426	14777.21
810.755	14772.01
811.085	14773.14
811.414	14742.41
811.744	14776.76
812.073	14643.43
812.403	14668.29
812.732	14580.83
813.061	14629.87
813.39	14550.78
813.719	14468.97
814.049	14553.94
814.378	14482.3
814.707	14475.75
815.036	14397.33
815.365	14403.89
815.693	14334.51
816.022	14318.24
816.351	14288.41
816.68	14224.46
817.008	14333.38
817.337	14206.38
817.665	14106.72
817.994	14133.16
818.322	14142.42
818.651	14114.4
818.979	14019.72
819.307	14129.32
819.636	14075.99
819.964	13995.76
820.292	14071.01
820.62	13998.25
820.948	13983.56
821.276	14070.11
821.604	14064.46
821.932	14021.75
822.259	14005.25
822.587	13916.67
822.915	13888.19
823.243	13988.76
823.57	13889.55
823.898	13961.41
824.225	13884.13
824.553	13887.74
824.88	14011.13
825.207	13877.12
825.535	13915.31
825.862	13959.38
826.189	13879.83
826.516	13973.39
826.843	14059.26
827.17	14039.83
827.497	14043.9
827.824	14038.47
828.151	13986.95
828.478	14036.21
828.805	14055.42
829.131	14009.32
829.458	13975.88
829.785	13942.66
830.111	13975.42
830.438	14015.2
830.764	14064.23
831.09	14036.21
831.417	14017
831.743	13997.34
832.069	13998.25
832.395	13905.37
832.722	14025.37
833.048	13913.5
833.374	13973.84
833.7	13901.3
834.026	13899.27
834.351	13962.99
834.677	13892.49
835.003	13846.84
835.329	13874.41
835.654	13834.64
835.98	13800.06
836.306	13932.49
836.631	13827.18
836.956	13962.32
837.282	13735.66
837.607	13805.71
837.932	13797.12
838.258	13718.71
838.583	13757.8
838.908	13657.92
839.233	13712.15
839.558	13654.3
839.883	13616.79
840.208	13630.12
840.533	13539.73
840.858	13509.9
841.182	13610.69
841.507	13488.43
841.832	13429.9
842.156	13451.37
842.481	13431.48
842.805	13446.85
843.13	13394.65
843.454	13407.75
843.778	13349
844.103	13317.59
844.427	13302.45
844.751	13193.52
845.075	13291.15
845.399	13178.16
845.723	13103.81
846.047	13034.66
846.371	12929.12
846.695	12950.59
847.019	12946.98
847.343	12838.73
847.666	12802.12
847.99	12782.23
848.313	12685.29
848.637	12662.01
848.96	12686.64
849.284	12604.16
849.607	12506.76
849.931	12473.99
850.254	12413.43
850.577	12373.66
850.9	12255.69
851.223	12274.23
851.546	12259.08
851.869	12071.07
852.192	12155.81
852.515	11987.91
852.838	11961.47
853.161	12023.38
853.483	11943.61
853.806	11930.05
854.129	11812.99
854.451	11810.28
854.774	11720.12
855.096	11805.54
855.419	11688.48
855.741	11641.25
856.063	11598.08
856.385	11638.31
856.708	11595.83
857.03	11524.41
857.352	11516.96
857.674	11419.11
857.996	11425.66
858.318	11369.62
858.64	11346.79
858.961	11300.69
859.283	11298.21
859.605	11245.78
859.926	11208.94
860.248	11240.81
860.57	11144.54
860.891	11184.54
861.212	11027.7
861.534	11064.54
861.855	11059.34
862.176	11069.29
862.498	11053.01
862.819	11086.91
863.14	11017.54
863.461	11015.28
863.782	11002.39
864.103	10958.33
864.424	10953.58
864.745	10900.93
865.065	10843.3
865.386	10849.4
865.707	10810.53
866.027	10878.1
866.348	10744.55
866.668	10796.3
866.989	10782.06
867.309	10683.53
867.63	10781.61
867.95	10696.19
868.27	10587.04
868.59	10689.41
868.91	10650.99
869.23	10663.65
869.55	10626.36
869.87	10620.71
870.19	10595.63
870.51	10639.92
870.83	10580.48
871.15	10528.96
871.469	10510.2
871.789	10587.04
872.109	10499.81
872.428	10373.26
872.748	10443.99
873.067	10462.97
873.386	10422.75
873.706	10491.22
874.025	10345.24
874.344	10344.11
874.663	10363.32
874.982	10387.5
875.301	10276.99
875.62	10276.31
875.939	10233.37
876.258	10274.73
876.577	10272.92
876.896	10242.41
877.214	10194.28
877.533	10239.25
877.852	10183.21
878.17	10189.76
878.489	10152.93
878.807	10164.9
879.125	10119.25
879.444	10177.33
879.762	10102.98
880.08	10150.44
880.398	10021.63
880.716	10022.99
881.034	10048.75
881.352	10011.01
881.67	9921.52
881.988	9979.6
882.306	9936.21
882.624	9862.99
882.941	9814.4
883.259	9794.06
883.577	9815.98
883.894	9822.54
884.212	9788.64
884.529	9754.52
884.846	9749.77
885.164	9746.61
885.481	9696.89
885.798	9590.45
886.115	9592.49
886.432	9632.26
886.75	9528.31
887.067	9571.7
887.383	9563.79
887.7	9543.22
888.017	9550
888.334	9519.04
888.651	9507.29
888.967	9469.55
889.284	9404.24
889.6	9406.96
889.917	9348.65
890.233	9288.54
890.55	9295.09
890.866	9332.61
891.182	9281.08
891.498	9205.61
891.815	9244.02
892.131	9187.98
892.447	9119.96
892.763	9076.57
893.079	9101.2
893.395	9096.23
893.71	9062.11
894.026	9015.78
894.342	8982.56
894.657	8909.12
894.973	8959.28
895.289	8899.17
895.604	8882.68
895.92	8825.95
896.235	8768.1
896.55	8740.53
896.865	8741.21
897.181	8754.09
897.496	8705.05
897.811	8635.9
898.126	8616.02
898.441	8590.03
898.756	8594.1
899.071	8550.26
899.386	8529.24
899.7	8395.46
900.015	8402.01
900.33	8371.5
900.644	8400.2
900.959	8312.52
901.273	8324.5
901.588	8267.1
901.902	8210.38
902.216	8282.01
902.531	8220.55
902.845	8200.89
903.159	8115.46
903.473	8098.52
903.787	8078.63
904.101	7990.72
904.415	7979.65
904.729	7938.29
905.042	7969.25
905.356	7905.53
905.67	7833.21
905.984	7925.41
906.297	7831.86
906.611	7820.11
906.924	7756.15
907.237	7725.87
907.551	7705.31
907.864	7634.57
908.177	7615.59
908.491	7593.22
908.804	7616.49
909.117	7560.9
909.43	7451.08
909.743	7440.23
910.056	7406.56
910.368	7395.94
910.681	7353.22
910.994	7342.15
911.307	7338.08
911.619	7241.14
911.932	7274.58
912.244	7216.05
912.557	7188.71
912.869	7151.42
913.181	7132.89
913.494	7154.59
913.806	7042.27
914.118	7032.78
914.43	6991.43
914.742	7010.41
915.054	7006.79
915.366	6993.69
915.678	6920.02
915.99	6901.94
916.302	6898.55
916.613	6808.83
916.925	6828.94
917.236	6794.82
917.548	6790.53
917.859	6790.98
918.171	6722.51
918.482	6654.26
918.794	6626.92
919.105	6636.18
919.416	6615.84
919.727	6524.77
920.038	6557.99
920.349	6544.21
920.66	6454.72
920.971	6515.73
921.282	6512.34
921.593	6382.4
921.903	6371.1
922.214	6444.1
922.525	6327.04
922.835	6299.02
923.146	6322.29
923.456	6320.71
923.767	6232.35
924.077	6201.16
924.387	6173.14
924.697	6162.97
925.008	6146.7
925.318	6112.13
925.628	6065.35
925.938	6058.57
926.248	6069.87
926.558	6009.76
926.867	5996.65
927.177	5980.61
927.487	5960.04
927.796	5909.65
928.106	5890.66
928.416	5845.69
928.725	5838.46
929.034	5814.96
929.344	5773.15
929.653	5800.27
929.962	5696.77
930.271	5704.68
930.581	5719.82
930.89	5669.43
931.199	5612.71
931.508	5606.83
931.817	5605.02
932.125	5577.68
932.434	5571.8
932.743	5475.53
933.051	5503.78
933.36	5505.82
933.669	5435.31
933.977	5417.91
934.286	5433.05
934.594	5419.26
934.902	5362.99
935.21	5358.93
935.519	5367.74
935.827	5299.49
936.135	5299.95
936.443	5268.76
936.751	5259.27
937.059	5212.72
937.367	5169.55
937.674	5205.48
937.982	5102.44
938.29	5160.97
938.597	5099.27
938.905	5116.9
939.213	5051.36
939.52	5072.15
939.827	5023.34
940.135	4971.59
940.442	4968.88
940.749	4990.57
941.056	5021.76
941.363	4893.18
941.67	4900.86
941.977	4873.97
942.284	4858.15
942.591	4887.3
942.898	4826.29
943.205	4790.81
943.511	4796.68
943.818	4726.18
944.125	4740.41
944.431	4759.62
944.738	4699.06
945.044	4707.64
945.35	4672.39
945.657	4660.19
945.963	4607.53
946.269	4620.87
946.575	4598.27
946.881	4552.39
947.187	4530.7
947.493	4577.7
947.799	4497.03
948.105	4504.03
948.41	4457.93
948.716	4446.86
949.022	4400.08
949.327	4429.69
949.633	4373.42
949.938	4392.17
950.244	4392.4
950.549	4317.82
950.854	4306.53
951.16	4314.89
951.465	4272.4
951.77	4261.78
952.075	4250.26
952.38	4244.38
952.685	4206.19
952.99	4166.19
953.294	4191.95
953.599	4170.71
953.904	4125.29
954.209	4096.81
954.513	4113.08
954.818	4068.11
955.122	4051.84
955.426	4063.14
955.731	4052.29
956.035	4039.87
956.339	4038.06
956.643	3977.04
956.948	3927.33
957.252	3898.17
957.556	3886.2
957.86	3828.35
958.163	3870.38
958.467	3872.86
958.771	3896.82
959.075	3845.75
959.378	3816.37
959.682	3864.73
959.985	3832.64
960.289	3786.76
960.592	3776.37
960.896	3754.68
961.199	3746.99
961.502	3718.97
961.805	3717.16
962.108	3707.22
962.411	3682.13
962.714	3618.18
963.017	3655.69
963.32	3608.24
963.623	3603.94
963.926	3612.31
964.228	3565.53
964.531	3562.82
964.833	3549.03
965.136	3529.6
965.438	3541.35
965.741	3497.05
966.043	3530.73
966.345	3466.55
966.648	3468.36
966.95	3435.14
967.252	3394.91
967.554	3407.11
967.856	3383.84
968.158	3339.54
968.46	3380.67
968.761	3356.72
969.063	3368.7
969.365	3365.31
969.666	3331.41
969.968	3309.94
970.269	3305.87
970.571	3218.87
970.872	3254.35
971.174	3241.47
971.475	3241.02
971.776	3236.27
972.077	3195.14
972.378	3171.87
972.679	3154.01
972.98	3147.69
973.281	3158.08
973.582	3135.03
973.883	3124.64
974.183	3108.82
974.484	3137.29
974.785	3059.1
975.085	3063.62
975.386	3058.87
975.686	3024.75
975.986	3044.86
976.287	3024.07
976.587	2940.91
976.887	3004.86
977.187	3004.64
977.487	2976.16
977.787	2962.83
978.087	2905.21
978.387	2911.99
978.687	2906.79
978.987	2909.27
979.286	2899.78
979.586	2869.05
979.885	2848.94
980.185	2850.52
980.484	2823.4
980.784	2832.44
981.083	2822.95
981.382	2802.16
981.682	2782.72
981.981	2755.38
982.28	2745.21
982.579	2768.94
982.878	2731.65
983.177	2744.08
983.475	2719.22
983.774	2716.28
984.073	2710.41
984.372	2698.21
984.67	2629.96
984.969	2638.09
985.267	2657.53
985.566	2605.1
985.864	2617.3
986.162	2576.4
986.461	2592.67
986.759	2572.11
987.057	2558.55
987.355	2543.41
987.653	2548.61
987.951	2512.45
988.249	2506.12
988.547	2520.81
988.844	2499.79
989.142	2510.41
989.44	2488.27
989.737	2474.26
990.035	2450.53
990.332	2471.77
990.63	2421.83
990.927	2395.16
991.224	2404.88
991.521	2433.81
991.819	2371.43
992.116	2363.3
992.413	2351.55
992.71	2327.82
993.006	2384.32
993.303	2334.83
993.6	2274.04
993.897	2286.47
994.193	2314.04
994.49	2306.8
994.787	2274.94
995.083	2260.93
995.379	2250.76
995.676	2290.76
995.972	2250.76
996.268	2232.46
996.565	2238.78
996.861	2205.34
997.157	2198.78
997.453	2178.67
997.749	2173.93
998.044	2135.28
998.34	2139.35
998.636	2145
998.932	2127.37
999.227	2119.01
999.523	2145.68
999.818	2073.14
1000.114	2072.69
1000.409	2093.25
1000.704	2065.45
1001	2046.25
1001.295	2076.98
1001.59	2031.78
1001.885	2046.92
1002.18	2010.31
1002.475	1992.91
1002.77	1986.59
1003.065	1978.68
1003.359	1969.86
1003.654	1966.25
1003.949	1958.79
1004.243	1923.76
1004.538	1898.9
1004.832	1915.4
1005.127	1930.77
1005.421	1885.35
1005.715	1861.62
1006.009	1849.19
1006.304	1877.89
1006.598	1861.39
1006.892	1845.35
1007.186	1845.8
1007.48	1781.39
1007.773	1801.51
1008.067	1820.26
1008.361	1778.68
1008.655	1761.51
1008.948	1735.97
1009.242	1755.18
1009.535	1755.86
1009.829	1714.28
1010.122	1715.63
1010.415	1692.13
1010.708	1690.77
1011.001	1704.79
1011.295	1686.71
1011.588	1686.48
1011.881	1654.62
1012.173	1655.07
1012.466	1635.41
1012.759	1640.83
1013.052	1639.48
1013.344	1629.53
1013.637	1622.08
1013.93	1594.51
1014.222	1599.93
1014.514	1574.85
1014.807	1565.13
1015.099	1551.34
1015.391	1560.38
1015.683	1546.15
1015.976	1530.1
1016.268	1523.55
1016.56	1521.06
1016.851	1519.48
1017.143	1485.58
1017.435	1475.19
1017.727	1474.28
1018.018	1469.99
1018.31	1466.15
1018.602	1452.14
1018.893	1449.43
1019.185	1437.9
1019.476	1435.19
1019.767	1429.09
1020.058	1405.36
1020.35	1397.68
1020.641	1381.86
1020.932	1383.66
1021.223	1408.3
1021.514	1371.46
1021.804	1328.3
1022.095	1359.94
1022.386	1320.16
1022.677	1332.14
1022.967	1310.9
1023.258	1343.89
1023.548	1306.6
1023.839	1288.75
1024.129	1291.24
1024.419	1269.77
1024.709	1251.46
1025	1258.24
1025.29	1250.33
1025.58	1244.91
1025.87	1241.75
1026.16	1206.27
1026.449	1204.46
1026.739	1207.17
1027.029	1197
1027.319	1208.98
1027.608	1178.47
1027.898	1191.8
1028.187	1168.53
1028.477	1166.49
1028.766	1160.85
1029.055	1174.86
1029.344	1165.36
1029.634	1144.57
1029.923	1132.82
1030.212	1111.81
1030.501	1138.7
1030.79	1103.45
1031.078	1108.87
1031.367	1077.91
1031.656	1091.92
1031.945	1099.83
1032.233	1082.2
1032.522	1058.7
1032.81	1082.66
1033.099	1074.52
1033.387	1078.14
1033.675	1040.85
1033.963	1007.18
1034.251	1037.46
1034.54	1021.19
1034.828	1007.18
1035.116	996.33
1035.403	1026.84
1035.691	1016.67
1035.979	992.49
1036.267	971.7
1036.554	979.16
1036.842	969.89
1037.129	977.12
1037.417	945.71
1037.704	929.44
1037.992	945.26
1038.279	936.9
1038.566	900.06
1038.853	900.06
1039.14	900.06
