Data from hue_110_FLMS001491_00040.txt Node
Date: Tue Feb 07 17:01:15 GMT 2017
User: dcchb
Spectrometer: FLMS00149
Trigger mode: 0
Integration Time (sec): 2.000000E-2
Scans to average: 10
Electric dark correction enabled: true
Nonlinearity correction enabled: false
Boxcar width: 0
XAxis mode: Wavelengths
Number of Pixels in Spectrum: 2048
>>>>>Begin Spectral Data<<<<<
341.393	-10.89
341.776	-10.89
342.16	-10.89
342.543	-54.28
342.927	-74.39
343.31	-55.18
343.693	-66.26
344.077	-66.71
344.46	-71
344.843	-47.72
345.226	-36.43
345.61	-28.29
345.993	-24.45
346.376	-19.02
346.759	-2.75
347.142	20.07
347.525	59.62
347.908	61.65
348.291	68.43
348.674	101.88
349.057	106.17
349.44	123.12
349.823	147.07
350.206	178.71
350.588	191.59
350.971	211.7
351.354	229.1
351.737	247.63
352.119	243.12
352.502	255.09
352.884	265.04
353.267	261.42
353.65	303.9
354.032	319.95
354.414	304.58
354.797	326.28
355.179	313.62
355.562	325.82
355.944	333.73
356.326	324.02
356.709	325.6
357.091	335.32
357.473	346.62
357.855	360.4
358.238	339.61
358.62	350.68
359.002	335.77
359.384	334.19
359.766	336.22
360.148	335.54
360.53	364.69
360.912	333.51
361.294	340.29
361.676	333.51
362.057	335.99
362.439	344.81
362.821	338.48
363.203	325.37
363.584	326.05
363.966	348.65
364.348	332.6
364.729	333.73
365.111	314.98
365.493	332.6
365.874	332.38
366.256	316.11
366.637	321.31
367.019	312.94
367.4	311.81
367.781	308.42
368.163	325.15
368.544	302.77
368.925	324.02
369.306	316.56
369.688	313.62
370.069	320.18
370.45	313.17
370.831	331.02
371.212	321.53
371.593	308.2
371.974	330.8
372.355	306.84
372.736	328.31
373.117	345.94
373.498	326.73
373.879	325.15
374.26	322.44
374.641	325.37
375.021	326.95
375.402	316.11
375.783	333.51
376.163	329.44
376.544	335.99
376.925	329.67
377.305	322.66
377.686	332.83
378.066	326.05
378.447	333.96
378.827	327.63
379.208	339.84
379.588	343.23
379.968	339.16
380.349	346.62
380.729	344.36
381.109	321.31
381.489	365.15
381.87	345.49
382.25	354.07
382.63	326.5
383.01	349.55
383.39	327.86
383.77	351.36
384.15	358.59
384.53	339.38
384.91	348.65
385.29	350.23
385.67	357.69
386.049	370.8
386.429	348.2
386.809	362.21
387.189	339.84
387.568	351.13
387.948	375.54
388.328	368.31
388.707	363.11
389.087	356.56
389.466	357.46
389.846	361.3
390.225	362.43
390.605	381.42
390.984	377.35
391.363	377.57
391.743	394.75
392.122	385.26
392.501	381.64
392.881	380.96
393.26	394.3
393.639	408.99
394.018	379.16
394.397	388.42
394.776	386.84
395.155	388.42
395.534	377.8
395.913	397.69
396.292	415.31
396.671	384.81
397.05	405.37
397.429	406.05
397.808	390.23
398.186	410.12
398.565	390.68
398.944	397.91
399.323	410.34
399.701	413.05
400.08	391.81
400.458	417.12
400.837	421.42
401.215	400.4
401.594	411.02
401.972	414.41
402.351	415.54
402.729	420.51
403.107	410.12
403.486	426.61
403.864	425.71
404.242	420.96
404.62	443.79
404.999	438.36
405.377	430
405.755	449.21
406.133	446.27
406.511	460.51
406.889	447.63
407.267	430.45
407.645	446.05
408.023	446.5
408.401	455.99
408.779	453.96
409.156	480.85
409.534	455.76
409.912	458.7
410.29	480.4
410.667	462.77
411.045	476.1
411.422	492.6
411.8	484.92
412.178	503.9
412.555	505.93
412.933	512.71
413.31	509.1
413.687	514.52
414.065	487.4
414.442	494.41
414.819	505.71
415.197	511.58
415.574	503.22
415.951	516.33
416.328	524.24
416.705	507.97
417.082	544.12
417.46	520.4
417.837	545.03
418.214	540.96
418.591	534.41
418.967	524.69
419.344	545.03
419.721	563.78
420.098	538.47
420.475	536.44
420.852	540.51
421.228	557.68
421.605	559.49
421.982	563.33
422.358	574.63
422.735	598.81
423.111	570.34
423.488	582.09
423.864	600.17
424.241	578.93
424.617	593.16
424.994	616.89
425.37	592.94
425.746	614.63
426.123	589.55
426.499	592.26
426.875	612.14
427.251	622.09
427.627	627.06
428.003	627.96
428.379	649.88
428.756	628.87
429.132	660.73
429.507	671.13
429.883	649.21
430.259	667.96
430.635	670.22
431.011	680.39
431.387	693.27
431.763	695.08
432.138	682.65
432.514	724.68
432.89	696.44
433.265	713.39
433.641	697.57
434.016	719.03
434.392	744.8
434.767	729.43
435.143	727.17
435.518	766.72
435.894	764.91
436.269	768.98
436.644	781.86
437.02	789.32
437.395	791.35
437.77	792.93
438.145	797.9
438.52	815.53
438.895	784.34
439.271	813.27
439.646	831.8
440.021	851.23
440.395	821.86
440.77	850.56
441.145	841.29
441.52	844
441.895	854.4
442.27	864.79
442.645	846.04
443.019	865.92
443.394	880.16
443.769	881.74
444.143	891.23
444.518	873.16
444.892	885.36
445.267	912.25
445.641	910.22
446.016	901.18
446.39	908.18
446.764	905.24
447.139	920.84
447.513	906.83
447.887	948.41
448.262	936.2
448.636	969.2
449.01	952.7
449.384	949.76
449.758	982.76
450.132	951.35
450.506	990.44
450.88	969.42
451.254	1004.68
451.628	1039.7
452.002	1008.07
452.376	1025.24
452.75	1048.97
453.123	1034.28
453.497	1065.24
453.871	1065.92
454.244	1071.34
454.618	1090.32
454.992	1096.65
455.365	1116.31
455.739	1119.7
456.112	1148.4
456.486	1173.94
456.859	1144.56
457.232	1191.79
457.606	1178.46
457.979	1209.64
458.352	1232.24
458.725	1212.36
459.099	1229.76
459.472	1250.32
459.845	1261.17
460.218	1339.58
460.591	1294.39
460.964	1308.4
461.337	1309.53
461.71	1357.21
462.083	1406.93
462.456	1376.87
462.829	1400.6
463.201	1407.6
463.574	1444.89
463.947	1408.51
464.32	1476.53
464.692	1481.95
465.065	1522.4
465.438	1531.89
465.81	1562.18
466.183	1569.41
466.555	1618.9
466.928	1646.24
467.3	1601.27
467.672	1656.19
468.045	1720.36
468.417	1726.24
468.789	1731.44
469.161	1757.2
469.534	1772.57
469.906	1849.17
470.278	1856.86
470.65	1905.22
471.022	1916.52
471.394	1974.14
471.766	2010.75
472.138	1992.67
472.51	2077.64
472.882	2147.92
473.253	2137.08
473.625	2203.29
473.997	2247.58
474.369	2291.65
474.74	2327.58
475.112	2396.96
475.484	2453.68
475.855	2481.25
476.227	2530.29
476.598	2638.98
476.97	2681.02
477.341	2768.7
477.713	2880.79
478.084	2861.8
478.455	3006.88
478.827	3043.49
479.198	3131.4
479.569	3201.23
479.94	3302.47
480.311	3358.51
480.682	3464.95
481.053	3629.69
481.424	3689.8
481.795	3772.74
482.166	3862.45
482.537	3938.61
482.908	4101.32
483.279	4231.71
483.65	4309.9
484.021	4419.5
484.391	4545.15
484.762	4614.75
485.133	4690.23
485.503	4831.02
485.874	5041.86
486.244	5088.41
486.615	5244.79
486.985	5382.64
487.356	5502.64
487.726	5637.1
488.097	5772.69
488.467	5896.75
488.837	6073.02
489.207	6165.45
489.578	6377.42
489.948	6461.93
490.318	6709.61
490.688	6747.35
491.058	6932.88
491.428	7090.62
491.798	7193.44
492.168	7416.49
492.538	7513.88
492.908	7660.32
493.278	7863.03
493.648	7948.68
494.017	8128.33
494.387	8298.72
494.757	8398.83
495.126	8556.34
495.496	8640.63
495.866	8767.41
496.235	8902.1
496.605	9100.06
496.974	9259.38
497.344	9362.65
497.713	9438.35
498.082	9548.63
498.452	9793.82
498.821	9824.78
499.19	9906.82
499.559	10045.12
499.928	10257.09
500.298	10301.83
500.667	10439.01
501.036	10482.17
501.405	10623.18
501.774	10714.48
502.143	10822.27
502.512	10909.28
502.88	11047.58
503.249	11073.79
503.618	11236.72
503.987	11278.31
504.356	11354.91
504.724	11468.58
505.093	11585.19
505.462	11594
505.83	11695.47
506.199	11937.04
506.567	12011.62
506.936	12019.3
507.304	12215.68
507.672	12180.2
508.041	12297.04
508.409	12403.93
508.777	12500.87
509.145	12552.62
509.514	12603.69
509.882	12696.57
510.25	12814.99
510.618	12832.39
510.986	12836
511.354	12894.53
511.722	13050.01
512.09	13290.46
512.458	13104.02
512.826	13225.6
513.193	13276.22
513.561	13387.4
513.929	13505.82
514.297	13564.35
514.664	13656.77
515.032	13583.78
515.4	13708.98
515.767	13714.17
516.135	13825.58
516.502	13717.11
516.869	13998.69
517.237	13986.93
517.604	13867.84
517.972	14105.58
518.339	14077.78
518.706	14060.38
519.073	14071.9
519.44	14193.71
519.808	14330.43
520.175	14278.9
520.542	14470.54
520.909	14414.04
521.276	14471.44
521.643	14469.41
522.009	14644.32
522.376	14673.47
522.743	14653.36
523.11	14737.65
523.477	14792.56
523.843	14868.04
524.21	14953.46
524.577	14986.46
524.943	14988.49
525.31	15035.72
525.676	15145.32
526.043	15121.82
526.409	15245.43
526.776	15237.3
527.142	15234.36
527.508	15324.3
527.874	15372.66
528.241	15315.49
528.607	15376.73
528.973	15471.42
529.339	15371.98
529.705	15463.05
530.071	15497.86
530.437	15467.8
530.803	15563.16
531.169	15453.56
531.535	15471.19
531.901	15380.12
532.267	15438.2
532.632	15543.73
532.998	15501.47
533.364	15529.72
533.73	15567.46
534.095	15574.01
534.461	15567.23
534.826	15595.93
535.192	15518.87
535.557	15600.9
535.923	15525.88
536.288	15560.68
536.653	15563.62
537.019	15461.7
537.384	15517.06
537.749	15419.44
538.114	15408.37
538.479	15404.52
538.845	15369.95
539.21	15374.24
539.575	15310.29
539.94	15279.33
540.305	15409.04
540.67	15204.08
541.034	15208.15
541.399	15303.51
541.764	15237.52
542.129	15226.68
542.494	15211.08
542.858	15145.55
543.223	15129.73
543.587	15090.63
543.952	15069.62
544.316	15096.06
544.681	15046.34
545.045	15049.28
545.41	15021.03
545.774	14959.79
546.138	14934.03
546.503	14848.15
546.867	14768.83
547.231	14972.67
547.595	14875.5
547.959	14758.44
548.324	14716.18
548.688	14708.95
549.052	14678.44
549.416	14698.78
549.779	14603.64
550.143	14601.83
550.507	14653.13
550.871	14663.98
551.235	14559.57
551.599	14613.81
551.962	14547.15
552.326	14596.64
552.689	14523.64
553.053	14480.71
553.417	14466.7
553.78	14558.67
554.143	14410.65
554.507	14501.27
554.87	14381.5
555.234	14470.54
555.597	14362.52
555.96	14377.21
556.323	14308.28
556.686	14338.11
557.05	14354.61
557.413	14313.25
557.776	14264.22
558.139	14416.3
558.502	14343.31
558.865	14282.07
559.228	14336.76
559.59	14340.6
559.953	14354.83
560.316	14420.14
560.679	14344.44
561.041	14486.58
561.404	14390.99
561.767	14448.84
562.129	14422.86
562.492	14516.64
562.854	14364.55
563.217	14441.61
563.579	14484.77
563.941	14471.89
564.304	14501.5
564.666	14566.13
565.028	14539.01
565.39	14492.01
565.753	14550.08
566.115	14626.01
566.477	14610.19
566.839	14569.97
567.201	14681.83
567.563	14642.96
567.925	14643.41
568.287	14674.83
568.648	14650.42
569.01	14693.36
569.372	14819
569.734	14700.81
570.095	14761.38
570.457	14802.96
570.819	14771.55
571.18	14751.21
571.542	14896.29
571.903	14796.4
572.265	14814.03
572.626	14908.72
572.987	14934.71
573.349	14846.8
573.71	14906.68
574.071	14897.65
574.432	14909.85
574.794	14999.11
575.155	14917.08
575.516	14930.64
575.877	14877.31
576.238	14991.65
576.599	15016.06
576.96	15053.57
577.32	15002.73
577.681	14902.62
578.042	14975.38
578.403	14994.37
578.763	15082.95
579.124	15036.4
579.485	15154.36
579.845	15181.25
580.206	15106.23
580.566	15008.38
580.927	15022.61
581.287	15155.27
581.648	15030.97
582.008	15120.69
582.368	15090.18
582.728	15049.05
583.089	14994.59
583.449	15026.23
583.809	14951.88
584.169	15084.53
584.529	14962.95
584.889	15137.86
585.249	14895.84
585.609	14946.23
585.969	14975.61
586.329	14974.03
586.688	14968.83
587.048	14889.28
587.408	14929.96
587.768	14810.42
588.127	14886.35
588.487	14863.97
588.846	14991.43
589.206	14819.91
589.565	14935.84
589.925	14942.16
590.284	14895.61
590.643	14880.24
591.003	14882.05
591.362	14960.92
591.721	14844.99
592.08	14919.11
592.44	14874.37
592.799	14890.87
593.158	14776.52
593.517	14757.31
593.876	14782.17
594.235	14759.12
594.593	14785.78
594.952	14803.86
595.311	14734.94
595.67	14755.28
596.029	14826.23
596.387	14824.65
596.746	14760.7
597.104	14793.01
597.463	14756.86
597.822	14753.69
598.18	14742.17
598.538	14780.36
598.897	14771.77
599.255	14591.21
599.613	14898.32
599.972	14677.76
600.33	14739.91
600.688	14660.36
601.046	14831.66
601.404	14763.19
601.762	14765.22
602.12	14827.14
602.478	14809.29
602.836	14800.25
603.194	14767.48
603.552	14767.03
603.91	14700.59
604.268	14775.61
604.625	14657.88
604.983	14841.6
605.341	14733.81
605.698	14713.7
606.056	14816.29
606.413	14729.29
606.771	14845.44
607.128	14821.49
607.485	14656.52
607.843	14807.48
608.2	14822.84
608.557	14798.66
608.914	14786.91
609.272	14892.22
609.629	14817.42
609.986	14863.97
610.343	14847.25
610.7	15019.22
611.057	14945.78
611.414	14916.18
611.771	14959.56
612.127	14939
612.484	14947.81
612.841	14919.57
613.198	14945.1
613.554	14991.2
613.911	15002.73
614.267	15019.9
614.624	14989.39
614.98	14992.11
615.337	15066.91
615.693	15028.04
616.05	15067.36
616.406	15171.99
616.762	15045.89
617.118	15189.61
617.475	15156.62
617.831	15170.18
618.187	15191.87
618.543	15202.72
618.899	15160.91
619.255	15211.31
619.611	15218.31
619.967	15248.14
620.323	15300.12
620.678	15188.71
621.034	15125.44
621.39	15183.97
621.746	15101.26
622.101	15272.32
622.457	15166.79
622.812	15158.43
623.168	15180.8
623.523	15204.98
623.879	15282.72
624.234	15199.56
624.589	15297.18
624.945	15240.69
625.3	15291.53
625.655	15200.69
626.01	15269.39
626.365	15207.47
626.72	15192.33
627.075	15233.68
627.43	15312.1
627.785	15148.71
628.14	15285.43
628.495	15199.56
628.85	15211.76
629.205	15159.56
629.559	15178.32
629.914	15132.89
630.269	15175.38
630.623	15063.52
630.978	14999.79
631.332	15157.07
631.687	15147.36
632.041	15040.92
632.396	15150.52
632.75	15004.08
633.104	15021.48
633.459	14998.43
633.813	14979.45
634.167	14978.77
634.521	14934.71
634.875	14944.88
635.229	14947.36
635.583	14874.59
635.937	14930.19
636.291	14935.38
636.645	14864.2
636.999	14855.61
637.352	14828.27
637.706	14743.07
638.06	14850.41
638.413	14858.55
638.767	14785.56
639.121	14799.12
639.474	14679.8
639.828	14689.97
640.181	14678.44
640.534	14762.28
640.888	14701.72
641.241	14671.21
641.594	14606.13
641.947	14616.97
642.301	14621.72
642.654	14683.41
643.007	14624.66
643.36	14637.09
643.713	14656.3
644.066	14725.45
644.419	14595.05
644.771	14522.29
645.124	14400.26
645.477	14383.99
645.83	14298.79
646.182	14169.75
646.535	14215.86
646.888	14195.74
647.24	14122.07
647.593	14113.94
647.945	14140.83
648.298	13983.77
648.65	14073.49
649.002	13994.39
649.355	14066.48
649.707	14056.09
650.059	14115.74
650.411	14363.65
650.763	14291.33
651.115	14434.15
651.467	14433.7
651.819	14377.21
652.171	14404.32
652.523	14396.87
652.875	14436.19
653.227	14361.84
653.578	14515.73
653.93	14445.91
654.282	14421.95
654.633	14316.19
654.985	14398.68
655.337	14356.19
655.688	14433.02
656.039	14513.7
656.391	14316.42
656.742	14385.79
657.094	14436.87
657.445	14522.06
657.796	14416.3
658.147	14372.46
658.498	14374.27
658.849	14420.37
659.2	14355.51
659.551	14316.19
659.902	14480.71
660.253	14363.42
660.604	14438.9
660.955	14359.58
661.306	14458.11
661.656	14472.35
662.007	14449.52
662.358	14498.11
662.708	14360.26
663.059	14419.01
663.409	14284.78
663.76	14417.21
664.11	14497.43
664.461	14433.02
664.811	14482.06
665.161	14483.87
665.511	14461.95
665.862	14456.07
666.212	14501.05
666.562	14506.92
666.912	14459.24
667.262	14434.38
667.612	14461.5
667.962	14446.13
668.312	14428.96
668.662	14580.59
669.011	14483.64
669.361	14453.14
669.711	14362.29
670.06	14472.35
670.41	14322.07
670.76	14324.1
671.109	14383.08
671.459	14298.11
671.808	14408.17
672.157	14388.51
672.507	14294.72
672.856	14285.46
673.205	14415.62
673.554	14418.56
673.904	14259.24
674.253	14282.07
674.602	14312.58
674.951	14050.66
675.3	14014.5
675.649	14261.5
675.998	14206.36
676.346	14229.64
676.695	14233.03
677.044	14168.17
677.393	14275.51
677.741	14230.32
678.09	14140.38
678.438	14239.13
678.787	14112.13
679.135	14139.47
679.484	14059.02
679.832	14092.92
680.181	13962.98
680.529	13990.1
680.877	14019.7
681.225	13962.75
681.573	14048.18
681.922	13923.66
682.27	13939.48
682.618	13918.69
682.966	13876.88
683.314	13950.1
683.661	13879.82
684.009	13825.81
684.357	13814.06
684.705	13809.31
685.053	13782.65
685.4	13707.85
685.748	13706.26
686.095	13604.12
686.443	13563.89
686.79	13575.87
687.138	13560.28
687.485	13544.91
687.832	13484.8
688.18	13466.27
688.527	13445.71
688.874	13432.37
689.221	13421.07
689.568	13377.68
689.915	13295.88
690.262	13238.03
690.609	13266.05
690.956	13235.32
691.303	13141.53
691.65	13091.82
691.997	13084.13
692.344	13092.27
692.69	12973.63
693.037	12936.79
693.383	12836.46
693.73	12887.08
694.077	12845.72
694.423	12828.09
694.769	12737.48
695.116	12578.84
695.462	12667.2
695.808	12580.19
696.155	12629.68
696.501	12609.57
696.847	12441.44
697.193	12438.95
697.539	12506.52
697.885	12321.22
698.231	12378.62
698.577	12313.08
698.923	12299.75
699.269	12226.08
699.614	12108.11
699.96	12082.13
700.306	12100.43
700.651	12006.65
700.997	11979.98
701.342	11918.29
701.688	11915.12
702.033	11829.7
702.379	11805.97
702.724	11773.66
703.069	11800.1
703.415	11663.15
703.76	11665.19
704.105	11688.69
704.45	11608.01
704.795	11569.6
705.14	11535.7
705.485	11475.14
705.83	11424.74
706.175	11354.46
706.52	11398.98
706.865	11298.19
707.209	11291.41
707.554	11278.31
707.899	11288.93
708.243	11194.69
708.588	11244.63
708.932	11177.74
709.277	11125.54
709.621	11140
709.966	11079.44
710.31	11145.2
710.654	10964.19
710.998	10936.85
711.342	10936.39
711.687	10904.98
712.031	10840.12
712.375	10814.59
712.719	10843.51
713.063	10822.95
713.407	10842.61
713.75	10766.91
714.094	10829.05
714.438	10724.42
714.782	10735.04
715.125	10628.15
715.469	10726
715.812	10602.39
716.156	10614.37
716.499	10535.5
716.843	10617.76
717.186	10537.99
717.53	10523.97
717.873	10582.28
718.216	10565.78
718.559	10466.58
718.902	10467.7
719.246	10375.05
719.589	10429.29
719.932	10365.33
720.275	10393.58
720.617	10294.6
720.96	10355.17
721.303	10304.32
721.646	10368.95
721.989	10293.92
722.331	10361.27
722.674	10312
723.016	10285.79
723.359	10265
723.701	10301.61
724.044	10269.07
724.386	10186.13
724.729	10277.88
725.071	10273.13
725.413	10224.32
725.755	10214.38
726.097	10183.42
726.439	10134.38
726.782	10143.19
727.124	10195.85
727.465	10165.11
727.807	10138.67
728.149	10151.33
728.491	10164.66
728.833	10115.4
729.175	10101.84
729.516	10060.26
729.858	10142.29
730.199	10119.24
730.541	10065.91
730.882	10069.52
731.224	10131.89
731.565	10071.78
731.906	10084.21
732.248	10054.38
732.589	10019.81
732.93	10008.28
733.271	10053.03
733.612	10114.04
733.953	10084.89
734.294	10031.33
734.635	10045.34
734.976	10051.44
735.317	10074.49
735.658	9986.14
735.999	10029.75
736.339	10038.11
736.68	10130.76
737.021	10110.65
737.361	10027.72
737.702	10125.34
738.042	10040.82
738.383	10059.58
738.723	10145
739.063	10061.84
739.404	10132.12
739.744	10042.18
740.084	10078.11
740.424	10171.67
740.764	10080.37
741.104	10175.06
741.444	10159.24
741.784	10160.82
742.124	10246.69
742.464	10229.97
742.804	10191.78
743.143	10220.03
743.483	10259.35
743.823	10243.76
744.162	10279.69
744.502	10309.97
744.841	10365.11
745.181	10454.6
745.52	10468.38
745.86	10525.33
746.199	10491.89
746.538	10457.08
746.877	10694.37
747.216	10615.27
747.556	10649.85
747.895	10750.86
748.234	10755.38
748.573	10782.5
748.911	10851.65
749.25	10934.59
749.589	11055.49
749.928	11080.34
750.267	11143.17
750.605	11220.23
750.944	11302.49
751.283	11327.8
751.621	11445.31
751.96	11520.33
752.298	11592.87
752.636	11705.64
752.975	11764.62
753.313	11873.09
753.651	11992.86
753.989	12131.84
754.327	12252.06
754.666	12234.89
755.004	12448.44
755.342	12606.41
755.679	12756.46
756.017	12787.87
756.355	12996.45
756.693	13125.04
757.031	13334.52
757.368	13401.87
757.706	13610
758.044	13662.88
758.381	13845.92
758.719	14018.57
759.056	14204.56
759.394	14298.56
759.731	14357.55
760.068	14596.86
760.405	14666.69
760.743	14905.1
761.08	15108.71
761.417	15039.56
761.754	15283.62
762.091	15452.21
762.428	15675.48
762.765	15797.28
763.102	16019.2
763.438	16099.2
763.775	16289.92
764.112	16573.99
764.449	16696.92
764.785	16710.7
765.122	16832.28
765.458	16961.32
765.795	17169.22
766.131	17390.01
766.467	17477.92
766.804	17564.69
767.14	17677.01
767.476	17811.24
767.812	17903.22
768.148	18027.51
768.485	18114.74
768.821	18224.34
769.157	18314.96
769.492	18482.41
769.828	18570.54
770.164	18516.98
770.5	18754.72
770.836	18830.2
771.171	18944.32
771.507	18956.3
771.842	18944.54
772.178	19069.96
772.513	19241.49
772.849	19253.01
773.184	19336.4
773.519	19382.72
773.855	19328.49
774.19	19434.7
774.525	19479.45
774.86	19582.72
775.195	19679.67
775.53	19695.71
775.865	19703.39
776.2	19652.32
776.535	19655.26
776.87	19676.28
777.205	19728.93
777.539	19696.39
777.874	19805.54
778.209	19709.27
778.543	19802.37
778.878	19730.74
779.212	19770.06
779.547	19779.55
779.881	19857.74
780.215	19869.27
780.55	19875.59
780.884	19771.19
781.218	19791.3
781.552	19852.99
781.886	19790.4
782.22	19776.61
782.554	19779.55
782.888	19623.4
783.222	19755.14
783.556	19556.05
783.889	19595.37
784.223	19523.74
784.557	19540.69
784.89	19719.89
785.224	19493.91
785.557	19465.66
785.891	19415.04
786.224	19542.95
786.558	19533.46
786.891	19374.82
787.224	19410.75
787.557	19341.37
787.891	19355.83
788.224	19292.11
788.557	19313.8
788.89	19338.88
789.223	19294.82
789.556	19087.82
789.888	19090.53
790.221	19134.37
790.554	18894.83
790.887	19042.62
791.219	18921.72
791.552	19039.23
791.884	18850.76
792.217	18850.08
792.549	18733.25
792.882	18703.42
793.214	18643.54
793.546	18774.61
793.879	18594.95
794.211	18558.34
794.543	18513.82
794.875	18509.08
795.207	18694.83
795.539	18455.97
795.871	18513.6
796.203	18214.17
796.535	18365.35
796.867	18268.63
797.198	18199.25
797.53	18266.37
797.862	18026.38
798.193	18203.09
798.525	18055.53
798.856	18070.89
799.188	17945.25
799.519	17803.33
799.85	17813.95
800.182	17840.17
800.513	17780.51
800.844	17572.83
801.175	17800.85
801.506	17737.8
801.837	17716.33
802.168	17583.45
802.499	17564.92
802.83	17424.36
803.161	17444.7
803.491	17476.56
803.822	17446.73
804.153	17314.08
804.483	17251.26
804.814	17183.91
805.145	17103.46
805.475	17134.42
805.805	17058.04
806.136	17152.5
806.466	17144.37
806.796	17047.87
807.126	16974.43
807.457	16889.01
807.787	16937.82
808.117	16766.07
808.447	16730.59
808.777	16801.78
809.107	16699.18
809.436	16647.43
809.766	16737.6
810.096	16531.73
810.426	16533.08
810.755	16516.59
811.085	16508.45
811.414	16510.48
811.744	16400.88
812.073	16338.06
812.403	16372.18
812.732	16241.34
813.061	16291.05
813.39	16192.53
813.719	16199.53
814.049	16260.32
814.378	16108.23
814.707	16096.94
815.036	16054.68
815.365	16010.16
815.693	15966.54
816.022	15898.52
816.351	15910.27
816.68	15681.13
817.008	15870.95
817.337	15647.91
817.665	15750.28
817.994	15725.87
818.322	15711.18
818.651	15517.97
818.979	15539.21
819.307	15776.04
819.636	15619.66
819.964	15523.84
820.292	15592.09
820.62	15585.54
820.948	15534.01
821.276	15625.08
821.604	15524.07
821.932	15603.84
822.259	15655.37
822.587	15583.5
822.915	15515.93
823.243	15507.8
823.57	15490.4
823.898	15425.99
824.225	15463.73
824.553	15431.42
824.88	15486.33
825.207	15523.84
825.535	15466.9
825.862	15500.79
826.189	15475.48
826.516	15548.93
826.843	15532.88
827.17	15550.06
827.497	15537.85
827.824	15537.63
828.151	15561.58
828.478	15522.94
828.805	15620.11
829.131	15514.13
829.458	15506.22
829.785	15482.94
830.111	15472.55
830.438	15543.5
830.764	15496.73
831.09	15515.26
831.417	15409.27
831.743	15525.88
832.069	15404.3
832.395	15304.64
832.722	15495.14
833.048	15352.55
833.374	15440.68
833.7	15288.6
834.026	15353.9
834.351	15320.01
834.677	15292.66
835.003	15310.74
835.329	15346.9
835.654	15343.96
835.98	15232.55
836.306	15364.75
836.631	15210.63
836.956	15200.91
837.282	15221.48
837.607	15218.54
837.932	15152.1
838.258	15232.55
838.583	15099.45
838.908	14966.34
839.233	15025.1
839.558	15001.6
839.883	14997.3
840.208	14966.8
840.533	14995.5
840.858	15014.03
841.182	14936.74
841.507	14911.88
841.832	14849.96
842.156	14819.91
842.481	14791.43
842.805	14764.32
843.13	14665.11
843.454	14698.33
843.778	14704.88
844.103	14651.1
844.427	14654.71
844.751	14605.68
845.075	14489.29
845.399	14504.44
845.723	14357.09
846.047	14444.55
846.371	14382.63
846.695	14299.24
847.019	14266.7
847.343	14178.34
847.666	14053.37
847.99	13984
848.313	14066.93
848.637	13935.18
848.96	13962.75
849.284	13823.77
849.607	13817.45
849.931	13774.51
850.254	13629.43
850.577	13602.09
850.9	13495.2
851.223	13441.19
851.546	13453.62
851.869	13379.04
852.192	13349.89
852.515	13290
852.838	13225.15
853.161	13210.23
853.483	13150.35
853.806	13142.44
854.129	13086.17
854.451	13061.08
854.774	12973.85
855.096	12927.08
855.419	12867.87
855.741	12893.63
856.063	12822.9
856.385	12862.67
856.708	12741.32
857.03	12652.28
857.352	12677.36
857.674	12588.1
857.996	12582
858.318	12567.31
858.64	12506.3
858.961	12511.49
859.283	12398.95
859.605	12384.49
859.926	12386.52
860.248	12423.36
860.57	12255.23
860.891	12289.58
861.212	12215.23
861.534	12222.01
861.855	12131.39
862.176	12197.83
862.498	12177.26
862.819	12138.4
863.14	12086.87
863.461	12043.03
863.782	12067.21
864.103	12007.33
864.424	11942.92
864.745	11963.71
865.065	11963.48
865.386	11864.96
865.707	11891.85
866.027	11856.14
866.348	11853.21
866.668	11816.14
866.989	11778.18
867.309	11704.28
867.63	11833.54
867.95	11734.79
868.27	11681.46
868.59	11718.52
868.91	11697.96
869.23	11745.64
869.55	11647.79
869.87	11700.89
870.19	11617.73
870.51	11645.53
870.83	11610.05
871.15	11552.42
871.469	11561.24
871.789	11616.15
872.109	11579.54
872.428	11450.96
872.748	11493.67
873.067	11498.41
873.386	11456.15
873.706	11465.42
874.025	11351.07
874.344	11309.94
874.663	11416.15
874.982	11325.54
875.301	11431.07
875.62	11440.11
875.939	11304.52
876.258	11323.28
876.577	11273.79
876.896	11252.54
877.214	11131.19
877.533	11210.28
877.852	11131.64
878.17	11096.62
878.489	11102.94
878.807	11174.81
879.125	11087.8
879.444	11151.53
879.762	11077.86
880.08	11066.33
880.398	11035.15
880.716	11013.45
881.034	10999.67
881.352	10968.26
881.67	10975.71
881.988	10943.85
882.306	10910.63
882.624	10871.31
882.941	10810.97
883.259	10717.42
883.577	10748.38
883.894	10743.86
884.212	10734.82
884.529	10721.94
884.846	10678.09
885.164	10659.11
885.481	10634.25
885.798	10647.81
886.115	10542.51
886.432	10557.42
886.75	10575.5
887.067	10554.26
887.383	10528.04
887.7	10482.39
888.017	10451.66
888.334	10539.12
888.651	10353.13
888.967	10407.82
889.284	10329.63
889.6	10347.03
889.917	10313.58
890.233	10284.43
890.55	10217.77
890.866	10222.97
891.182	10152.01
891.498	10109.52
891.815	10060.71
892.131	10067.94
892.447	10079.92
892.763	9982.75
893.079	9933.03
893.395	9930.32
893.71	9936.65
894.026	9902.75
894.342	9878.34
894.657	9806.48
894.973	9852.58
895.289	9767.38
895.604	9776.65
895.92	9721.96
896.235	9656.2
896.55	9631.34
896.865	9608.29
897.181	9536.2
897.496	9492.82
897.811	9545.47
898.126	9505.92
898.441	9430.22
898.756	9437.68
899.071	9288.53
899.386	9389.09
899.7	9252.6
900.015	9255.76
900.33	9162.88
900.644	9182.77
900.959	9208.08
901.273	9072.04
901.588	9129.44
901.902	9038.14
902.216	9035.2
902.531	8947.29
902.845	8936.45
903.159	8882.66
903.473	8872.49
903.787	8901.42
904.101	8738.26
904.415	8811.03
904.729	8755.21
905.042	8743.46
905.356	8690.8
905.67	8647.41
905.984	8660.29
906.297	8567.19
906.611	8585.95
906.924	8567.87
907.237	8534.87
907.551	8472.05
907.864	8400.19
908.177	8392.73
908.491	8442.9
908.804	8314.09
909.117	8327.42
909.43	8274.77
909.743	8230.93
910.056	8240.64
910.368	8163.81
910.681	8089.24
910.994	8082.01
911.307	8056.92
911.619	8025.06
911.932	8016.02
912.244	7924.95
912.557	7921.11
912.869	7879.3
913.181	7867.77
913.494	7830.94
913.806	7813.09
914.118	7751.17
914.43	7697.61
914.742	7739.64
915.054	7609.25
915.366	7629.14
915.678	7599.76
915.99	7650.38
916.302	7505.52
916.613	7477.95
916.925	7485.18
917.236	7461.46
917.548	7462.81
917.859	7433.66
918.171	7351.63
918.482	7317.05
918.794	7277.73
919.105	7272.76
919.416	7248.35
919.727	7227.79
920.038	7156.83
920.349	7105.76
920.66	7095.82
920.971	7121.8
921.282	7106.89
921.593	7029.83
921.903	6974.46
922.214	6983.28
922.525	6938.98
922.835	6886.78
923.146	6845.43
923.456	6844.07
923.767	6806.11
924.077	6748.25
924.387	6790.74
924.697	6668.93
925.008	6736.28
925.318	6660.12
925.628	6651.31
925.938	6626.68
926.248	6574.93
926.558	6528.6
926.867	6553.91
927.177	6532.67
927.487	6489.5
927.796	6490.18
928.106	6421.48
928.416	6410.86
928.725	6383.74
929.034	6358.21
929.344	6315.5
929.653	6348.04
929.962	6244.54
930.271	6246.8
930.581	6208.61
930.89	6161.83
931.199	6156.86
931.508	6143.07
931.817	6134.94
932.125	6120.25
932.434	6080.02
932.743	6026.01
933.051	6049.97
933.36	5974.49
933.669	5976.52
933.977	5965
934.286	5918.45
934.594	5990.53
934.902	5894.27
935.21	5824.21
935.519	5849.75
935.827	5804.78
936.135	5800.71
936.443	5746.47
936.751	5729.98
937.059	5747.38
937.367	5674.84
937.674	5689.53
937.982	5675.97
938.29	5589.64
938.597	5576.76
938.905	5525.46
939.213	5526.59
939.52	5493.82
939.827	5551.45
940.135	5461.06
940.442	5393.71
940.749	5405.24
941.056	5369.53
941.363	5383.54
941.67	5379.25
941.977	5351.68
942.284	5314.62
942.591	5301.29
942.898	5221.74
943.205	5279.82
943.511	5210.67
943.818	5184.23
944.125	5165.92
944.431	5139.26
944.738	5113.27
945.044	5114.85
945.35	5052.93
945.657	5013.84
945.963	5002.31
946.269	4980.62
946.575	4991.46
946.881	4959.15
947.187	4939.94
947.493	4906.5
947.799	4900.17
948.105	4871.24
948.41	4905.14
948.716	4887.06
949.022	4824.24
949.327	4821.07
949.633	4771.36
949.938	4751.7
950.244	4730.23
950.549	4690.68
950.854	4698.37
951.16	4686.61
951.465	4664.02
951.77	4628.76
952.075	4626.5
952.38	4585.37
952.685	4601.64
952.99	4579.05
953.294	4525.04
953.599	4518.71
953.904	4501.76
954.209	4440.74
954.513	4443.68
954.818	4411.82
955.122	4419.95
955.426	4411.37
955.731	4384.25
956.035	4335.89
956.339	4355.78
956.643	4372.72
956.948	4342.22
957.252	4241.2
957.556	4346.28
957.86	4277.36
958.163	4227.87
958.467	4253.63
958.771	4221.54
959.075	4186.74
959.378	4187.19
959.682	4159.17
959.985	4147.19
960.289	4111.49
960.592	4070.13
960.896	4052.73
961.199	4080.08
961.502	4046.63
961.805	4002.79
962.108	4058.16
962.411	3973.41
962.714	3973.41
963.017	3961.21
963.32	3937.93
963.623	3895.67
963.926	3910.82
964.228	3890.02
964.531	3875.11
964.833	3868.33
965.136	3801.21
965.438	3814.09
965.741	3766.41
966.043	3780.42
966.345	3759.63
966.648	3758.95
966.95	3746.3
967.252	3699.97
967.554	3714.89
967.856	3684.83
968.158	3649.81
968.46	3669.01
968.761	3675.34
969.063	3605.96
969.365	3626.75
969.666	3584.04
969.968	3584.5
970.269	3504.72
970.571	3570.03
970.872	3565.74
971.174	3535.23
971.475	3510.15
971.776	3459.3
972.077	3487.55
972.378	3447.1
972.679	3450.04
972.98	3425.4
973.281	3421.79
973.582	3399.19
973.883	3385.41
974.183	3351.28
974.484	3371.39
974.785	3362.81
975.085	3313.32
975.386	3335.69
975.686	3341.11
975.986	3264.5
976.287	3297.27
976.587	3278.97
976.887	3215.01
977.187	3219.53
977.487	3209.36
977.787	3181.79
978.087	3149.25
978.387	3175.47
978.687	3160.55
978.987	3162.36
979.286	3124.4
979.586	3128.46
979.885	3106.54
980.185	3082.81
980.484	3079.65
980.784	3067.67
981.083	3065.64
981.382	3013.89
981.682	3025.19
981.981	2989.48
982.28	2973.66
982.579	2979.99
982.878	2963.72
983.177	2953.1
983.475	2925.98
983.774	2897.73
984.073	2887.34
984.372	2860
984.67	2859.09
984.969	2883.27
985.267	2834.01
985.566	2864.29
985.864	2850.28
986.162	2820
986.461	2814.35
986.759	2789.71
987.057	2784.74
987.355	2734.12
987.653	2762.6
987.951	2736.16
988.249	2720.56
988.547	2702.26
988.844	2735.93
989.142	2707.91
989.44	2630.17
989.737	2664.29
990.035	2656.16
990.332	2633.79
990.63	2618.65
990.927	2603.96
991.224	2600.57
991.521	2560.12
991.819	2570.74
992.116	2581.58
992.413	2560.12
992.71	2533.9
993.006	2495.71
993.303	2517.18
993.6	2511.3
993.897	2484.86
994.193	2484.19
994.49	2496.16
994.787	2453.9
995.083	2442.38
995.379	2414.36
995.676	2442.15
995.972	2417.07
996.268	2408.93
996.565	2401.7
996.861	2371.65
997.157	2343.17
997.453	2380.01
997.749	2359.22
998.044	2328.48
998.34	2322.16
998.636	2311.54
998.932	2285.32
999.227	2300.01
999.523	2267.69
999.818	2242.84
1000.114	2242.84
1000.409	2241.03
1000.704	2207.58
1001	2220.92
1001.295	2222.27
1001.59	2177.08
1001.885	2160.58
1002.18	2161.93
1002.475	2189.96
1002.77	2143.86
1003.065	2109.28
1003.359	2136.4
1003.654	2131.43
1003.949	2109.96
1004.243	2105.21
1004.538	2072.22
1004.832	2050.3
1005.127	2055.04
1005.421	2050.53
1005.715	2039
1006.009	2030.86
1006.304	1994.26
1006.598	1999.45
1006.892	1995.61
1007.186	1960.36
1007.48	1952.45
1007.773	1950.64
1008.067	1945.22
1008.361	1922.62
1008.655	1870.19
1008.948	1893.24
1009.242	1870.87
1009.535	1861.15
1009.829	1853.47
1010.122	1839.91
1010.415	1834.49
1010.708	1839.23
1011.001	1815.28
1011.295	1834.71
1011.588	1824.32
1011.881	1809.4
1012.173	1786.8
1012.466	1760.82
1012.759	1786.13
1013.052	1775.73
1013.344	1746.58
1013.637	1746.13
1013.93	1715.84
1014.222	1693.47
1014.514	1719.23
1014.807	1708.61
1015.099	1711.33
1015.391	1682.85
1015.683	1683.98
1015.976	1639.46
1016.268	1673.81
1016.56	1648.73
1016.851	1624.55
1017.143	1641.5
1017.435	1599.46
1017.727	1600.82
1018.018	1593.36
1018.31	1596.53
1018.602	1561.72
1018.893	1545.23
1019.185	1546.58
1019.476	1537.09
1019.767	1538.9
1020.058	1517.21
1020.35	1509.97
1020.641	1461.61
1020.932	1494.61
1021.223	1498.45
1021.514	1456.19
1021.804	1451.22
1022.095	1425
1022.386	1437.43
1022.677	1455.51
1022.967	1414.38
1023.258	1390.88
1023.548	1397.44
1023.839	1395.4
1024.129	1401.05
1024.419	1350.88
1024.709	1334.16
1025	1346.81
1025.29	1342.75
1025.58	1311.11
1025.87	1324.22
1026.16	1311.79
1026.449	1312.24
1026.739	1291.9
1027.029	1276.99
1027.319	1290.55
1027.608	1269.53
1027.898	1273.82
1028.187	1238.12
1028.477	1242.41
1028.766	1248.74
1029.055	1233.37
1029.344	1241.96
1029.634	1201.96
1029.923	1223.43
1030.212	1203.77
1030.501	1173.26
1030.79	1202.41
1031.078	1185.46
1031.367	1187.5
1031.656	1148.63
1031.945	1168.06
1032.233	1159.48
1032.522	1166.48
1032.81	1107.73
1033.099	1115.86
1033.387	1104.79
1033.675	1117.44
1033.963	1115.86
1034.251	1084.9
1034.54	1076.31
1034.828	1095.3
1035.116	1114.05
1035.403	1068.4
1035.691	1074.05
1035.979	1060.72
1036.267	1038.8
1036.554	1056.2
1036.842	1051.23
1037.129	1041.29
1037.417	987.95
1037.704	1025.02
1037.992	1022.53
1038.279	1001.51
1038.566	1005.81
1038.853	1005.81
1039.14	1005.81
