Data from hue_60_FLMS001491_88.txt Node
Date: Mon Feb 06 15:18:03 GMT 2017
User: dcchb
Spectrometer: FLMS00149
Trigger mode: 0
Integration Time (sec): 2.000000E-2
Scans to average: 10
Electric dark correction enabled: true
Nonlinearity correction enabled: false
Boxcar width: 0
XAxis mode: Wavelengths
Number of Pixels in Spectrum: 2048
>>>>>Begin Spectral Data<<<<<
341.393	-25.47
341.776	-25.47
342.16	-25.47
342.543	-50.78
342.927	-77.89
343.31	-85.12
343.693	-77.67
344.077	-64.11
344.46	-49.19
344.843	-41.96
345.226	-40.15
345.61	-36.31
345.993	-9.65
346.376	7.98
346.759	7.3
347.142	19.28
347.525	49.11
347.908	51.37
348.291	73.97
348.674	95.21
349.057	99.95
349.44	119.84
349.823	131.59
350.206	160.29
350.588	204.59
350.971	196.45
351.354	228.54
351.737	238.48
352.119	241.42
352.502	259.05
352.884	266.73
353.267	298.59
353.65	291.36
354.032	311.02
354.414	314.64
354.797	312.38
355.179	330.46
355.562	338.37
355.944	341.98
356.326	330.01
356.709	327.52
357.091	336.11
357.473	344.92
357.855	331.81
358.238	338.59
358.62	345.37
359.002	345.82
359.384	342.21
359.766	341.08
360.148	332.04
360.53	313.28
360.912	327.29
361.294	323.23
361.676	330.46
362.057	342.66
362.439	328.42
362.821	310.12
363.203	353.96
363.584	331.59
363.966	321.87
364.348	311.47
364.729	307.18
365.111	311.7
365.493	323
365.874	313.96
366.256	332.27
366.637	319.61
367.019	338.37
367.4	325.26
367.781	308.99
368.163	307.86
368.544	320.06
368.925	314.41
369.306	318.25
369.688	291.14
370.069	302.66
370.45	321.64
370.831	303.34
371.212	309.89
371.593	307.63
371.974	322.55
372.355	309.89
372.736	328.88
373.117	319.38
373.498	321.87
373.879	313.73
374.26	315.77
374.641	314.19
375.021	301.53
375.402	321.19
375.783	299.72
376.163	322.32
376.544	320.97
376.925	315.99
377.305	330.68
377.686	340.17
378.066	332.04
378.447	337.01
378.827	315.99
379.208	329.78
379.588	320.74
379.968	335.66
380.349	340.85
380.729	323.45
381.109	333.4
381.489	339.72
381.87	334.53
382.25	314.64
382.63	331.59
383.01	351.02
383.39	332.49
383.77	359.16
384.15	316.22
384.53	328.42
384.91	338.14
385.29	330.23
385.67	349.89
386.049	335.88
386.429	351.7
386.809	358.25
387.189	358.03
387.568	358.25
387.948	369.55
388.328	363.45
388.707	358.93
389.087	342.89
389.466	359.61
389.846	350.8
390.225	349.89
390.605	347.63
390.984	364.58
391.363	360.74
391.743	362.09
392.122	360.51
392.501	354.64
392.881	366.39
393.26	382.43
393.639	375.88
394.018	361.19
394.397	380.4
394.776	381.08
395.155	355.32
395.534	360.51
395.913	377.46
396.292	376.78
396.671	386.73
397.05	354.86
397.429	387.63
397.808	368.42
398.186	357.35
398.565	369.78
398.944	390.57
399.323	370.23
399.701	360.51
400.08	396.22
400.458	377.24
400.837	386.5
401.215	395.99
401.594	386.95
401.972	394.41
402.351	409.55
402.729	412.26
403.107	398.7
403.486	395.31
403.864	422.43
404.242	411.13
404.62	398.25
404.999	411.59
405.377	381.76
405.755	414.3
406.133	406.84
406.511	410.91
406.889	421.3
407.267	402.09
407.645	409.1
408.023	423.56
408.401	426.27
408.779	419.95
409.156	433.96
409.534	423.56
409.912	418.59
410.29	428.08
410.667	431.92
411.045	424.69
411.422	437.12
411.8	449.78
412.178	447.97
412.555	433.51
412.933	469.66
413.31	451.81
413.687	464.01
414.065	466.05
414.442	447.97
414.819	480.06
415.197	479.61
415.574	470.11
415.951	464.92
416.328	465.37
416.705	484.58
417.082	491.58
417.46	474.86
417.837	501.98
418.214	469.44
418.591	476.22
418.967	490.91
419.344	490
419.721	489.32
420.098	500.85
420.475	473.73
420.852	504.24
421.228	493.39
421.605	491.36
421.982	506.27
422.358	529.1
422.735	509.89
423.111	522.09
423.488	507.85
423.864	522.77
424.241	540.17
424.617	515.76
424.994	526.84
425.37	561.19
425.746	546.27
426.123	550.56
426.499	537.68
426.875	554.86
427.251	546.5
427.627	544.69
428.003	566.61
428.379	552.15
428.756	568.87
429.132	568.87
429.507	549.21
429.883	588.76
430.259	588.53
430.635	585.14
431.011	574.74
431.387	585.14
431.763	593.73
432.138	596.21
432.514	588.3
432.89	607.96
433.265	598.25
433.641	620.62
434.016	629.21
434.392	643.67
434.767	635.31
435.143	631.69
435.518	620.85
435.894	620.17
436.269	642.54
436.644	646.83
437.02	672.14
437.395	650.22
437.77	660.39
438.145	666.49
438.52	682.09
438.895	685.25
439.271	685.93
439.646	673.95
440.021	680.05
440.395	673.05
440.77	704.01
441.145	707.85
441.52	693.84
441.895	699.26
442.27	721.63
442.645	720.96
443.019	701.07
443.394	725.48
443.769	706.04
444.143	717.79
444.518	732.48
444.892	730.9
445.267	742.88
445.641	746.04
446.016	732.48
446.39	753.95
446.764	771.12
447.139	760.95
447.513	761.86
447.887	769.09
448.262	781.52
448.636	783.78
449.01	781.97
449.384	786.49
449.758	796.66
450.132	813.61
450.506	792.37
450.88	814.29
451.254	799.37
451.628	809.54
452.002	823.33
452.376	819.26
452.75	845.7
453.123	832.37
453.497	852.03
453.871	872.59
454.244	858.81
454.618	869.2
454.992	871.01
455.365	861.29
455.739	882.31
456.112	912.59
456.486	920.27
456.859	921.63
457.232	910.33
457.606	937.22
457.979	951.46
458.352	957.56
458.725	955.3
459.099	991.91
459.472	1002.08
459.845	987.39
460.218	1009.08
460.591	996.88
460.964	1033.04
461.337	1038.91
461.71	1037.33
462.083	1063.55
462.456	1064.45
462.829	1076.43
463.201	1094.28
463.574	1102.87
463.947	1124.79
464.32	1136.54
464.692	1149.42
465.065	1166.37
465.438	1190.77
465.81	1193.26
466.183	1219.7
466.555	1250.66
466.928	1268.51
467.3	1279.58
467.672	1287.72
468.045	1305.12
468.417	1324.1
468.789	1337.89
469.161	1348.96
469.534	1387.83
469.906	1379.47
470.278	1450.88
470.65	1424.21
471.022	1492.91
471.394	1508.96
471.766	1517.09
472.138	1550.54
472.51	1621.27
472.882	1629.63
473.253	1647.26
473.625	1680.25
473.997	1751.66
474.369	1731.32
474.74	1799.8
475.112	1844.09
475.484	1881.6
475.855	1938.32
476.227	1964.09
476.598	2058.32
476.97	2072.11
477.341	2161.14
477.713	2182.84
478.084	2224.87
478.455	2340.35
478.827	2392.78
479.198	2486.11
479.569	2500.8
479.94	2582.6
480.311	2651.75
480.682	2743.05
481.053	2822.82
481.424	2920.9
481.795	3001.57
482.166	3067.79
482.537	3141
482.908	3266.43
483.279	3304.84
483.65	3448.57
484.021	3584.16
484.391	3665.51
484.762	3757.94
485.133	3832.06
485.503	3921.55
485.874	4067.31
486.244	4169.23
486.615	4338.04
486.985	4384.14
487.356	4573.28
487.726	4691.7
488.097	4844.46
488.467	4872.26
488.837	5131.01
489.207	5190.44
489.578	5370.32
489.948	5521.96
490.318	5621.84
490.688	5747.04
491.058	5902.06
491.428	6078.1
491.798	6254.37
492.168	6420.01
492.538	6467.92
492.908	6650.74
493.278	6841.92
493.648	6949.49
494.017	7121.69
494.387	7284.17
494.757	7438.52
495.126	7624.05
495.496	7714.9
495.866	7830.37
496.235	7986.75
496.605	8162.57
496.974	8362.11
497.344	8511.03
497.713	8634.19
498.082	8765.72
498.452	8927.75
498.821	9090.45
499.19	9167.06
499.559	9372.48
499.928	9551.46
500.298	9655.18
500.667	9856.53
501.036	9929.98
501.405	10182.4
501.774	10248.39
502.143	10377.42
502.512	10519.57
502.88	10709.62
503.249	10795.72
503.618	10918.43
503.987	11041.81
504.356	11201.58
504.724	11390.96
505.093	11499.43
505.462	11623.04
505.83	11780.55
506.199	11883.37
506.567	12178.51
506.936	12203.59
507.304	12452.85
507.672	12488.1
508.041	12637.25
508.409	12779.17
508.777	12995.21
509.145	13235.43
509.514	13155.88
509.882	13337.35
510.25	13453.95
510.618	13622.09
510.986	13654.85
511.354	13898.46
511.722	14158.79
512.09	14253.93
512.458	14320.37
512.826	14451.22
513.193	14529.86
513.561	14669.06
513.929	14844.2
514.297	15109.73
514.664	15022.73
515.032	15195.38
515.4	15340.01
515.767	15521.24
516.135	15706.78
516.502	15637.85
516.869	15933.44
517.237	16048.91
517.604	15987.45
517.972	16262.92
518.339	16317.83
518.706	16512.63
519.073	16663.59
519.44	16739.97
519.808	16943.35
520.175	16885.95
520.542	17222.67
520.909	17311.48
521.276	17380.4
521.643	17643
522.009	17738.81
522.376	17945.14
522.743	18093.15
523.11	18180.16
523.477	18463.77
523.843	18470.77
524.21	18668.05
524.577	18921.38
524.943	18993.24
525.31	19125.67
525.676	19387.58
526.043	19483.63
526.409	19510.74
526.776	19808.59
527.142	19858.08
527.508	19955.48
527.874	20199.09
528.241	20314.79
528.607	20325.19
528.973	20540.1
529.339	20620.77
529.705	20827.32
530.071	20884.04
530.437	21012.4
530.803	21147.31
531.169	21266.4
531.535	21141.66
531.901	21431.37
532.267	21410.13
532.632	21614.42
532.998	21801.31
533.364	21893.28
533.73	21861.64
534.095	22093.28
534.461	22167.4
534.826	22328.98
535.192	22462.76
535.557	22596.76
535.923	22567.84
536.288	22686.93
536.653	22870.66
537.019	22808.51
537.384	22957.43
537.749	23050.09
538.114	23084.89
538.479	23235.17
538.845	23324.43
539.21	23248.05
539.575	23385.44
539.94	23412.34
540.305	23526.91
540.67	23658.88
541.034	23750.86
541.399	23825.66
541.764	23918.76
542.129	24002.83
542.494	24129.15
542.858	24106.78
543.223	24115.59
543.587	24345.42
543.952	24291.41
544.316	24446.21
544.681	24496.38
545.045	24553.1
545.41	24742.47
545.774	24690.72
546.138	24775.01
546.503	24883.94
546.867	24901.79
547.231	25061.78
547.595	25158.73
547.959	25251.84
548.324	25275.56
548.688	25450.02
549.052	25455.9
549.416	25578.38
549.779	25633.07
550.143	25626.06
550.507	25783.8
550.871	25826.06
551.235	25891.82
551.599	26096.56
551.962	26144.92
552.326	26252.49
552.689	26324.12
553.053	26260.85
553.417	26357.34
553.78	26727.28
554.143	26613.83
554.507	26569.09
554.87	26872.81
555.234	27055.18
555.597	26997.55
555.96	27147.83
556.323	27296.3
556.686	27267.15
557.05	27511.21
557.413	27483.42
557.776	27619.91
558.139	27830.75
558.502	27903.52
558.865	27913.23
559.228	28155.04
559.59	28100.8
559.953	28281.36
560.316	28566.78
560.679	28542.6
561.041	28806.54
561.404	28870.05
561.767	28948.24
562.129	29002.02
562.492	29378.28
562.854	29323.37
563.217	29350.71
563.579	29475.68
563.941	29692.85
564.304	29839.29
564.666	29943.69
565.028	30073.63
565.39	30230.01
565.753	30278.6
566.115	30391.81
566.477	30449.44
566.839	30606.05
567.201	30738.25
567.563	30853.95
567.925	30983.21
568.287	31236.54
568.648	31243.09
569.01	31405.57
569.372	31555.63
569.734	31512.01
570.095	31640.82
570.457	31770.99
570.819	31909.97
571.18	31965.33
571.542	32140.69
571.903	32096.85
572.265	32250.75
572.626	32306.11
572.987	32343.17
573.349	32584.52
573.71	32671.98
574.071	32707.23
574.432	32890.96
574.794	32972.76
575.155	32957.85
575.516	32916.95
575.877	33081.69
576.238	33183.38
576.599	33274.45
576.96	33493.43
577.32	33390.61
577.681	33531.17
578.042	33549.47
578.403	33619.98
578.763	33648
579.124	33819.97
579.485	33749.01
579.845	33960.76
580.206	33737.04
580.566	33923.02
580.927	33947.43
581.287	34085.95
581.648	34029.01
582.008	34091.83
582.368	34073.98
582.728	34125.28
583.089	34225.61
583.449	34085.95
583.809	34330.69
584.169	34318.04
584.529	34241.2
584.889	34466.73
585.249	34295.67
585.609	34212.28
585.969	34485.72
586.329	34256.8
586.688	34324.14
587.048	34378.83
587.408	34396
587.768	34419.73
588.127	34315.1
588.487	34314.42
588.846	34575.43
589.206	34510.58
589.565	34463.8
589.925	34548.31
590.284	34528.88
590.643	34527.3
591.003	34577.01
591.362	34720.97
591.721	34610.69
592.08	34752.15
592.44	34715.99
592.799	34828.76
593.158	34810.91
593.517	34869.44
593.876	34850.45
594.235	34775.88
594.593	34767.52
594.952	34855.2
595.311	34816.56
595.67	35015.2
596.029	35131.58
596.387	34986.27
596.746	35188.75
597.104	34945.59
597.463	35013.39
597.822	35222.87
598.18	35029.66
598.538	35115.53
598.897	35213.61
599.255	35039.83
599.613	35561.17
599.972	35126.38
600.33	35366.15
600.688	35211.35
601.046	35408.18
601.404	35532.7
601.762	35506.26
602.12	35648.85
602.478	35734.27
602.836	35720.71
603.194	35433.94
603.552	35600.26
603.91	35613.6
604.268	35844.1
604.625	35714.16
604.983	35848.17
605.341	35751.67
605.698	36001.84
606.056	36037.77
606.413	35912.57
606.771	36109.86
607.128	36224.2
607.485	36058.56
607.843	36089.29
608.2	36370.87
608.557	36431.43
608.914	36341.26
609.272	36432.56
609.629	36587.58
609.986	36790.97
610.343	36509.62
610.7	36864.19
611.057	36923.39
611.414	36744.42
611.771	36926.33
612.127	37134.46
612.484	37167.68
612.841	37171.75
613.198	37071.19
613.554	37037.29
613.911	37439.09
614.267	37429.37
614.624	37392.76
614.98	37253.78
615.337	37526.99
615.693	37511.4
616.05	37494.23
616.406	37596.14
616.762	37594.11
617.118	37613.09
617.475	37669.14
617.831	37857.83
618.187	37804.27
618.543	38033.19
618.899	38176.02
619.255	38024.83
619.611	38058.28
619.967	38222.12
620.323	38231.38
620.678	38122.23
621.034	38168.78
621.39	38100.31
621.746	38244.94
622.101	38523.35
622.457	38340.31
622.812	38402.45
623.168	38444.48
623.523	38489.91
623.879	38581.43
624.234	38321.55
624.589	38513.63
624.945	38505.95
625.3	38622.33
625.655	38456.01
626.01	38618.49
626.365	38636.34
626.72	38595.89
627.075	38671.37
627.43	38533.75
627.785	38561.09
628.14	38609.9
628.495	38704.59
628.85	38702.1
629.205	38576.01
629.559	38821.2
629.914	38585.72
630.269	38754.98
630.623	38568.1
630.978	38561.77
631.332	38599.06
631.687	38678.6
632.041	38529
632.396	38705.04
632.75	38518.15
633.104	38650.35
633.459	38465.5
633.813	38519.06
634.167	38377.59
634.521	38543.69
634.875	38402
635.229	38424.15
635.583	38369.01
635.937	38392.96
636.291	38296.69
636.645	38322
636.999	38263.7
637.352	38429.57
637.706	38200.65
638.06	38300.31
638.413	38147.54
638.767	38013.31
639.121	38073.42
639.474	37968.79
639.828	38069.58
640.181	38061.44
640.534	38054.89
640.888	38006.3
641.241	37906.19
641.594	37927.89
641.947	38052.4
642.301	37797.72
642.654	37991.16
643.007	37964.5
643.36	37897.38
643.713	37811.73
644.066	37950.49
644.419	37815.8
644.771	37426.66
645.124	37069.6
645.477	37103.28
645.83	36899.21
646.182	36820.57
646.535	36619.22
646.888	36734.25
647.24	36523.86
647.593	36639.11
647.945	36663.51
648.298	36527.02
648.65	36478.89
649.002	36373.35
649.355	36434.14
649.707	36388.49
650.059	36602.27
650.411	37053.79
650.763	37077.06
651.115	37461.23
651.467	37278.86
651.819	37367.9
652.171	37308.47
652.523	37051.53
652.875	37084.07
653.227	36972.21
653.578	37261.69
653.93	37383.27
654.282	37131.07
654.633	36922.26
654.985	37172.88
655.337	37129.26
655.688	37098.3
656.039	37127.46
656.391	36864.19
656.742	36848.59
657.094	36860.12
657.445	36951.64
657.796	37054.92
658.147	36857.63
658.498	36817.18
658.849	36893.56
659.2	36804.75
659.551	36874.13
659.902	36891.08
660.253	36947.12
660.604	36835.03
660.955	36600.01
661.306	36879.33
661.656	36695.83
662.007	36738.54
662.358	36747.35
662.708	36925.2
663.059	36731.08
663.409	36455.61
663.76	36744.87
664.11	36738.09
664.461	36723.62
664.811	36754.36
665.161	36630.97
665.511	36527.92
665.862	36522.05
666.212	36681.14
666.562	36658.32
666.912	36675.94
667.262	36511.88
667.612	36611.54
667.962	36724.3
668.312	36488.6
668.662	36700.8
669.011	36624.87
669.361	36519.56
669.711	36505.33
670.06	36445.89
670.41	36594.81
670.76	36561.37
671.109	36630.97
671.459	36454.93
671.808	36505.78
672.157	36494.7
672.507	36234.37
672.856	36399.34
673.205	36327.03
673.554	36545.32
673.904	36289.96
674.253	36471.43
674.602	36279.79
674.951	35788.51
675.3	35705.35
675.649	36236.18
675.998	36197.08
676.346	36137.88
676.695	36369.96
677.044	35874.83
677.393	36120.25
677.741	35999.8
678.09	35904.21
678.438	35944.66
678.787	35878.9
679.135	35800.26
679.484	35747.15
679.832	35939.46
680.181	35653.6
680.529	35916.87
680.877	35655.4
681.225	35723.2
681.573	35850.65
681.922	35622.18
682.27	35547.61
682.618	35583.77
682.966	35461.51
683.314	35556.65
683.661	35348.07
684.009	35296.09
684.357	35210.67
684.705	35146.94
685.053	35249.99
685.4	35151.46
685.748	35091.35
686.095	34987.17
686.443	34931.13
686.79	34779.5
687.138	34926.84
687.485	34996.44
687.832	34810.45
688.18	34779.27
688.527	34677.12
688.874	34618.6
689.221	34421.31
689.568	34377.92
689.915	34334.54
690.262	34377.02
690.609	34280.75
690.956	34164.37
691.303	34015.45
691.65	34048.67
691.997	33905.62
692.344	33551.5
692.69	33695.23
693.037	33769.8
693.383	33494.56
693.73	33655.68
694.077	33312.64
694.423	33524.84
694.769	33152.65
695.116	33127.34
695.462	33177.05
695.808	33035.13
696.155	33152.19
696.501	32784.75
696.847	32815.25
697.193	32698.65
697.539	32883.27
697.885	32514.24
698.231	32464.08
698.577	32358.09
698.923	32431.99
699.269	32191.77
699.614	32074.26
699.96	32003.75
700.306	32002.17
700.651	31917.42
700.997	31833.13
701.342	31825.22
701.688	31857.31
702.033	31654.61
702.379	31566.02
702.724	31399.25
703.069	31659.8
703.415	31203.54
703.76	31181.85
704.105	31253.71
704.45	31190.21
704.795	30960.16
705.14	30804.46
705.485	30961.29
705.83	30700.51
706.175	30882.2
706.52	30786.83
706.865	30544.35
707.209	30466.39
707.554	30450.8
707.899	30556.1
708.243	30397.24
708.588	30387.52
708.932	30137.58
709.277	30043.35
709.621	30116.57
709.966	29957.25
710.31	29981.2
710.654	29700.98
710.998	29753.19
711.342	29839.51
711.687	29818.04
712.031	29638.61
712.375	29500.31
712.719	29538.95
713.063	29468.22
713.407	29540.54
713.75	29324.27
714.094	29345.06
714.438	29159.53
714.782	29254.22
715.125	29124.28
715.469	29094.22
715.812	29006.09
716.156	28828.92
716.499	28856.04
716.843	28980.78
717.186	28658.75
717.53	28798.18
717.873	28792.99
718.216	28618.53
718.559	28514.12
718.902	28487.01
719.246	28519.32
719.589	28271.87
719.932	28315.26
720.275	28276.39
720.617	28168.14
720.96	28159.1
721.303	28191.65
721.646	28163.4
721.989	28020.8
722.331	28015.83
722.674	27976.28
723.016	27933.35
723.359	27861.71
723.701	27872.33
724.044	27683.64
724.386	27547.59
724.729	27706.01
725.071	27677.76
725.413	27634.15
725.755	27666.91
726.097	27484.09
726.439	27423.3
726.782	27463.76
727.124	27430.99
727.465	27260.14
727.807	27315.96
728.149	27272.57
728.491	27137.89
728.833	27212.46
729.175	27133.37
729.516	27140.83
729.858	27060.38
730.199	27081.17
730.541	26976.08
730.882	26935.63
731.224	27028.74
731.565	26900.61
731.906	26847.5
732.248	26878.69
732.589	26700.61
732.93	26718.92
733.271	26678.24
733.612	26647.51
733.953	26664.68
734.294	26531.8
734.635	26482.99
734.976	26571.35
735.317	26393.27
735.658	26442.77
735.999	26404.35
736.339	26299.72
736.68	26299.27
737.021	26346.04
737.361	26162.55
737.702	26229.44
738.042	26145.82
738.383	26078.25
738.723	26149.67
739.063	26030.35
739.404	26113.96
739.744	25914.64
740.084	25964.59
740.424	26004.36
740.764	25920.29
741.104	25952.38
741.444	25767.3
741.784	25730.69
742.124	25732.05
742.464	25721.43
742.804	25587.19
743.143	25625.84
743.483	25565.05
743.823	25479.85
744.162	25527.53
744.502	25479.4
744.841	25317.82
745.181	25472.4
745.52	25300.42
745.86	25301.1
746.199	25186.3
746.538	25165.96
746.877	25171.61
747.216	25092.97
747.556	25092.29
747.895	25091.84
748.234	25010.94
748.573	25053.65
748.911	25024.05
749.25	24843.71
749.589	24759.65
749.928	24849.59
750.267	24876.7
750.605	24821.79
750.944	24670.38
751.283	24718.52
751.621	24683.72
751.96	24475.36
752.298	24619.99
752.636	24565.07
752.975	24381.58
753.313	24263.61
753.651	24391.52
753.989	24227.68
754.327	24276.04
754.666	24066.33
755.004	24183.62
755.342	24130.06
755.679	24220.9
756.017	23918.99
756.355	23960.8
756.693	23851.87
757.031	23870.18
757.368	23831.53
757.706	23636.29
758.044	23603.52
758.381	23693.91
758.719	23610.52
759.056	23498.66
759.394	23535.72
759.731	23322.17
760.068	23354.94
760.405	23236.07
760.743	23058.45
761.08	23180.7
761.417	23118.56
761.754	22977.55
762.091	22878.11
762.428	22860.03
762.765	22677.21
763.102	22811
763.438	22695.07
763.775	22540.04
764.112	22545.47
764.449	22607.16
764.785	22363.55
765.122	22283.55
765.458	22258.24
765.795	22166.72
766.131	22192.71
766.467	22067.96
766.804	21973.5
767.14	21969.89
767.476	22011.92
767.812	21823
768.148	21758.14
768.485	21691.7
768.821	21566.74
769.157	21537.81
769.492	21496
769.828	21452.39
770.164	21291.71
770.5	21245.61
770.836	21178.04
771.171	21087.88
771.507	21057.6
771.842	20882.23
772.178	20753.88
772.513	20835.68
772.849	20676.36
773.184	20649.47
773.519	20647.89
773.855	20492.41
774.19	20444.73
774.525	20355.47
774.86	20322.47
775.195	20374.45
775.53	20259.88
775.865	20089.03
776.2	19983.5
776.535	19858.53
776.87	19868.7
777.205	19722.72
777.539	19666.45
777.874	19630.06
778.209	19589.84
778.543	19493.12
778.878	19304.2
779.212	19430.97
779.547	19329.05
779.881	19268.49
780.215	19142.62
780.55	19192.56
780.884	19053.58
781.218	19014.49
781.552	19028.04
781.886	18927.26
782.22	18748.28
782.554	18679.35
782.888	18499.02
783.222	18504.44
783.556	18473.03
783.889	18456.31
784.223	18214.28
784.557	18219.48
784.89	18291.34
785.224	18133.15
785.557	18011.57
785.891	17983.78
786.224	17884.12
786.558	17934.06
786.891	17756.67
787.224	17786.04
787.557	17675.31
787.891	17687.52
788.224	17666.5
788.557	17572.94
788.89	17619.72
789.223	17487.52
789.556	17408.65
789.888	17330.69
790.221	17335.66
790.554	17026.06
790.887	17108.32
791.219	17018.83
791.552	16987.87
791.884	16945.84
792.217	16821.1
792.549	16833.53
792.882	16709.91
793.214	16635.57
793.546	16781.78
793.879	16529.81
794.211	16491.84
794.543	16474.89
794.875	16390.6
795.207	16448.23
795.539	16406.87
795.871	16403.26
796.203	16218.18
796.535	16153.09
796.867	16039.87
797.198	16052.98
797.53	15974.11
797.862	15948.58
798.193	15933.44
798.525	15800.56
798.856	15826.55
799.188	15717.62
799.519	15663.84
799.85	15564.41
800.182	15503.17
800.513	15596.95
800.844	15415.71
801.175	15491.64
801.506	15381.59
801.837	15339.55
802.168	15273.12
802.499	15207.35
802.83	15186.11
803.161	15038.55
803.491	15135.72
803.822	15154.47
804.153	15068.83
804.483	14916.74
804.814	14888.49
805.145	14862.28
805.475	14815.5
805.805	14753.36
806.136	14808.95
806.466	14799.23
806.796	14697.09
807.126	14651.66
807.457	14571.44
807.787	14560.37
808.117	14488.5
808.447	14406.47
808.777	14434.49
809.107	14365.34
809.436	14361.73
809.766	14267.72
810.096	14255.97
810.426	14191.56
810.755	14220.71
811.085	14130.55
811.414	14080.83
811.744	14010.55
812.073	14009.65
812.403	13962.42
812.732	13953.83
813.061	13883.77
813.39	13777.56
813.719	13786.15
814.049	13876.32
814.378	13787.05
814.707	13711.12
815.036	13762.87
815.365	13579.6
815.693	13528.08
816.022	13638.13
816.351	13532.37
816.68	13444.46
817.008	13484.24
817.337	13395.65
817.665	13345.71
817.994	13421.41
818.322	13283.79
818.651	13260.96
818.979	13267.29
819.307	13294.18
819.636	13296.22
819.964	13175.32
820.292	13199.72
820.62	13123.57
820.948	13087.41
821.276	13198.37
821.604	13171.02
821.932	13227.07
822.259	13142.1
822.587	13088.31
822.915	13051.7
823.243	13149.78
823.57	13033.85
823.898	13006.51
824.225	12982.78
824.553	13060.07
824.88	13016.23
825.207	13040.86
825.535	13001.31
825.862	13005.83
826.189	12942.33
826.516	13066.17
826.843	13171.02
827.17	13104.81
827.497	13169.67
827.824	13044.02
828.151	13137.35
828.478	13024.13
828.805	13084.7
829.131	12985.27
829.458	13022.55
829.785	12938.26
830.111	12945.49
830.438	13039.95
830.764	13028.43
831.09	13066.62
831.417	12986.4
831.743	12960.86
832.069	12974.64
832.395	12952.05
832.722	12990.69
833.048	12852.39
833.374	12928.32
833.7	12811.94
834.026	12928.09
834.351	12830.92
834.677	12832.05
835.003	12969
835.329	12921.54
835.654	12853.74
835.98	12743.46
836.306	12784.82
836.631	12776.23
836.956	12788.21
837.282	12743.92
837.607	12679.96
837.932	12647.87
838.258	12644.48
838.583	12660.08
838.908	12598.61
839.233	12540.76
839.558	12591.15
839.883	12483.13
840.208	12559.74
840.533	12501.89
840.858	12485.62
841.182	12468.44
841.507	12449.91
841.832	12454.43
842.156	12412.85
842.481	12400.2
842.805	12301.44
843.13	12322.23
843.454	12258.28
843.778	12247.43
844.103	12296.92
844.427	12110.03
844.751	12181.22
845.075	12176.47
845.399	12037.95
845.723	12079.08
846.047	12071.84
846.371	11885.41
846.695	11959.98
847.019	11913.43
847.343	11854.45
847.666	11709.59
847.99	11715.92
848.313	11700.78
848.637	11624.4
848.96	11556.15
849.284	11538.07
849.607	11494.23
849.931	11397.74
850.254	11381.01
850.577	11297.63
850.9	11238.19
851.223	11209.04
851.546	11183.73
851.869	11066.45
852.192	11158.2
852.515	10980.57
852.838	11078.88
853.161	10990.97
853.483	10905.09
853.806	10889.73
854.129	10935.83
854.451	10915.94
854.774	10767.02
855.096	10762.05
855.419	10697.42
855.741	10727.92
856.063	10600.47
856.385	10616.06
856.708	10620.58
857.03	10540.36
857.352	10616.29
857.674	10500.81
857.996	10463.3
858.318	10468.95
858.64	10406.8
858.961	10361.15
859.283	10329.29
859.605	10318.44
859.926	10237.54
860.248	10288.39
860.57	10265.79
860.891	10263.3
861.212	10255.85
861.534	10157.32
861.855	10130.43
862.176	10086.59
862.498	10154.38
862.819	10172.46
863.14	10050.88
863.461	10074.61
863.782	10005.23
864.103	10073.25
864.424	9925.69
864.745	10060.15
865.065	9961.84
865.386	9918.23
865.707	9847.72
866.027	9884.33
866.348	9865.35
866.668	9887.27
866.989	9829.87
867.309	9754.84
867.63	9775.18
867.95	9820.6
868.27	9697.22
868.59	9738.8
868.91	9690.44
869.23	9736.31
869.55	9720.04
869.87	9765.92
870.19	9658.8
870.51	9676.2
870.83	9663.32
871.15	9685.69
871.469	9633.72
871.789	9620.61
872.109	9591.23
872.428	9619.7
872.748	9608.63
873.067	9535.19
873.386	9567.95
873.706	9508.97
874.025	9501.29
874.344	9430.33
874.663	9448.18
874.982	9453.38
875.301	9512.59
875.62	9369.32
875.939	9390.78
876.258	9376.1
876.577	9378.81
876.896	9319.37
877.214	9255.87
877.533	9326.15
877.852	9291.35
878.17	9315.53
878.489	9269.21
878.807	9244.57
879.125	9209.55
879.444	9200.05
879.762	9173.16
880.08	9176.55
880.398	9166.84
880.716	9162.77
881.034	9154.86
881.352	9147.85
881.67	9130.68
881.988	9104.24
882.306	9121.41
882.624	9029.44
882.941	8980.63
883.259	8998.48
883.577	8943.79
883.894	8960.06
884.212	8890.01
884.529	8925.03
884.846	8857.01
885.164	8902.21
885.481	8873.28
885.798	8877.13
886.115	8770.46
886.432	8833.51
886.75	8725.49
887.067	8765.26
887.383	8773.17
887.7	8691.14
888.017	8645.49
888.334	8683.46
888.651	8634.65
888.967	8630.13
889.284	8569.79
889.6	8596.68
889.917	8536.8
890.233	8510.36
890.55	8480.3
890.866	8554.87
891.182	8451.15
891.498	8402.56
891.815	8435.78
892.131	8404.14
892.447	8364.14
892.763	8303.13
893.079	8309.46
893.395	8226.07
893.71	8240.76
894.026	8228.1
894.342	8166.64
894.657	8113.53
894.973	8150.14
895.289	8163.02
895.604	8190.82
895.92	8059.29
896.235	7948.34
896.55	8035.34
896.865	7980.43
897.181	7993.98
897.496	7946.08
897.811	7948.56
898.126	7917.83
898.441	7883.48
898.756	7829.47
899.071	7804.39
899.386	7847.32
899.7	7745.86
900.015	7727.78
900.33	7656.37
900.644	7598.29
900.959	7663.37
901.273	7587.67
901.588	7547.44
901.902	7518.07
902.216	7544.96
902.531	7504.73
902.845	7451.85
903.159	7437.39
903.473	7417.95
903.787	7437.16
904.101	7364.62
904.415	7274
904.729	7296.6
905.042	7282.14
905.356	7257.73
905.67	7247.79
905.984	7252.99
906.297	7213.21
906.611	7200.11
906.924	7149.26
907.237	7114.01
907.551	7057.96
907.864	7048.02
908.177	7022.94
908.491	7062.48
908.804	6915.14
909.117	6996.95
909.43	6886.67
909.743	6897.97
910.056	6849.38
910.368	6867.91
910.681	6857.29
910.994	6753.57
911.307	6751.53
911.619	6714.7
911.932	6690.97
912.244	6678.99
912.557	6661.82
912.869	6533.23
913.181	6591.54
913.494	6579.78
913.806	6541.82
914.118	6485.32
914.43	6454.14
914.742	6450.3
915.054	6415.27
915.366	6419.11
915.678	6383.41
915.99	6353.35
916.302	6300.7
916.613	6314.71
916.925	6288.27
917.236	6288.72
917.548	6187.25
917.859	6254.14
918.171	6156.74
918.482	6139.57
918.794	6145.45
919.105	6093.92
919.416	6007.82
919.727	6075.17
920.038	6016.18
920.349	6033.81
920.66	5954.94
920.971	5940.03
921.282	5952.68
921.593	5892.8
921.903	5900.71
922.214	5847.15
922.525	5796.3
922.835	5769.18
923.146	5732.12
923.456	5780.48
923.767	5746.59
924.077	5734.61
924.387	5690.99
924.697	5643.31
925.008	5593.82
925.318	5610.32
925.628	5595.4
925.938	5570.32
926.248	5535.29
926.558	5528.06
926.867	5513.37
927.177	5461.62
927.487	5468.63
927.796	5327.84
928.106	5412.36
928.416	5349.08
928.725	5380.49
929.034	5360.83
929.344	5343.21
929.653	5280.16
929.962	5271.8
930.271	5258.01
930.581	5204.23
930.89	5204.45
931.199	5136.43
931.508	5145.7
931.817	5120.84
932.125	5065.7
932.434	5139.14
932.743	5025.7
933.051	5030.67
933.36	5023.89
933.669	4966.95
933.977	4997.68
934.286	4945.03
934.594	4951.35
934.902	4907.74
935.21	4884.46
935.519	4885.82
935.827	4834.52
936.135	4808.31
936.443	4777.57
936.751	4815.54
937.059	4792.71
937.367	4739.16
937.674	4748.19
937.982	4709.78
938.29	4648.54
938.597	4701.64
938.905	4671.13
939.213	4639.95
939.52	4580.29
939.827	4601.53
940.135	4560.18
940.442	4517.69
940.749	4519.95
941.056	4492.16
941.363	4444.25
941.67	4481.99
941.977	4479.27
942.284	4392.05
942.591	4441.31
942.898	4398.15
943.205	4400.41
943.511	4337.81
943.818	4362.89
944.125	4287.19
944.431	4332.39
944.738	4300.52
945.044	4301.88
945.35	4279.51
945.657	4243.57
945.963	4214.88
946.269	4187.98
946.575	4205.38
946.881	4156.35
947.187	4140.07
947.493	4137.36
947.799	4104.82
948.105	4046.97
948.41	4018.72
948.716	4036.57
949.022	4009.46
949.327	4027.31
949.633	3965.16
949.938	3981.43
950.244	3991.15
950.549	3936.01
950.854	3957.93
951.16	3935.11
951.465	3909.35
951.77	3863.92
952.075	3885.39
952.38	3877.71
952.685	3814.21
952.99	3787.99
953.294	3795.68
953.599	3784.38
953.904	3739.86
954.209	3719.75
954.513	3729.01
954.818	3723.59
955.122	3709.35
955.426	3714.55
955.731	3691.05
956.035	3630.94
956.339	3620.54
956.643	3611.95
956.948	3600.65
957.252	3582.8
957.556	3591.16
957.86	3593.87
958.163	3537.83
958.467	3535.57
958.771	3501.22
959.075	3503.93
959.378	3445.63
959.682	3446.76
959.985	3453.99
960.289	3457.83
960.592	3404.73
960.896	3429.81
961.199	3420.09
961.502	3346.65
961.805	3397.72
962.108	3366.99
962.411	3357.04
962.714	3286.76
963.017	3293.32
963.32	3328.57
963.623	3244.51
963.926	3317.5
964.228	3256.26
964.531	3234.56
964.833	3217.61
965.136	3226.88
965.438	3206.54
965.741	3188.01
966.043	3161.34
966.345	3147.11
966.648	3141.23
966.95	3099.42
967.252	3118.86
967.554	3133.1
967.856	3025.08
968.158	3087
968.46	3059.65
968.761	3032.31
969.063	3041.12
969.365	3034.12
969.666	3003.61
969.968	2951.18
970.269	2996.6
970.571	2962.7
970.872	2984.17
971.174	2949.82
971.475	2957.51
971.776	2895.59
972.077	2925.87
972.378	2875.02
972.679	2885.64
972.98	2879.54
973.281	2872.76
973.582	2848.58
973.883	2834.35
974.183	2815.14
974.484	2793.22
974.785	2774.69
975.085	2747.57
975.386	2751.86
975.686	2741.24
975.986	2726.33
976.287	2763.84
976.587	2714.35
976.887	2696.27
977.187	2723.16
977.487	2698.98
977.787	2660.34
978.087	2686.1
978.387	2639.32
978.687	2657.4
978.987	2647.68
979.286	2607.23
979.586	2577.63
979.885	2581.47
980.185	2611.75
980.484	2593.22
980.784	2573.56
981.083	2587.12
981.382	2525.88
981.682	2509.84
981.981	2540.12
982.28	2514.13
982.579	2497.86
982.878	2505.77
983.177	2475.03
983.475	2476.39
983.774	2449.05
984.073	2458.09
984.372	2429.39
984.67	2407.92
984.969	2437.75
985.267	2427.58
985.566	2394.36
985.864	2390.29
986.162	2390.52
986.461	2322.27
986.759	2346
987.057	2346.68
987.355	2305.09
987.653	2303.29
987.951	2317.98
988.249	2324.76
988.547	2290.86
988.844	2263.29
989.142	2236.85
989.44	2250.63
989.737	2245.89
990.035	2222.39
990.332	2230.52
990.63	2211.99
990.927	2204.53
991.224	2206.79
991.521	2187.81
991.819	2203.63
992.116	2152.56
992.413	2132.22
992.71	2134.93
993.006	2169.05
993.303	2153.46
993.6	2086.57
993.897	2111.88
994.193	2072.33
994.49	2094.03
994.787	2065.1
995.083	2051.54
995.379	2078.89
995.676	2052.9
995.972	2053.58
996.268	2045.21
996.565	2030.98
996.861	2029.4
997.157	2008.38
997.453	2010.87
997.749	1986.46
998.044	1976.97
998.34	1952.34
998.636	1961.83
998.932	1925.22
999.227	1923.41
999.523	1920.92
999.818	1927.48
1000.114	1886.8
1000.409	1923.18
1000.704	1911.43
1001	1859.46
1001.295	1859.91
1001.59	1848.84
1001.885	1862.62
1002.18	1867.82
1002.475	1813.81
1002.77	1816.97
1003.065	1815.62
1003.359	1783.53
1003.654	1816.07
1003.949	1790.31
1004.243	1790.53
1004.538	1750.99
1004.832	1747.82
1005.127	1755.5
1005.421	1727.03
1005.715	1702.4
1006.009	1733.36
1006.304	1691.55
1006.598	1675.73
1006.892	1679.35
1007.186	1662.85
1007.48	1683.64
1007.773	1656.75
1008.067	1651.1
1008.361	1616.53
1008.655	1649.74
1008.948	1623.53
1009.242	1635.96
1009.535	1623.08
1009.829	1616.53
1010.122	1591.22
1010.415	1582.18
1010.708	1560.26
1011.001	1578.56
1011.295	1560.03
1011.588	1532.69
1011.881	1530.65
1012.173	1514.16
1012.466	1523.87
1012.759	1505.57
1013.052	1495.85
1013.344	1499.24
1013.637	1450.88
1013.93	1456.76
1014.222	1445.68
1014.514	1447.04
1014.807	1439.13
1015.099	1433.71
1015.391	1442.52
1015.683	1437.09
1015.976	1401.39
1016.268	1400.26
1016.56	1397.77
1016.851	1402.07
1017.143	1388.51
1017.435	1356.65
1017.727	1411.33
1018.018	1354.84
1018.31	1372.92
1018.602	1336.08
1018.893	1349.64
1019.185	1332.46
1019.476	1304.44
1019.767	1332.46
1020.058	1302.86
1020.35	1282.3
1020.641	1268.74
1020.932	1279.13
1021.223	1268.06
1021.514	1261.96
1021.804	1228.29
1022.095	1261.05
1022.386	1230.77
1022.677	1253.37
1022.967	1211.11
1023.258	1220.83
1023.548	1204.78
1023.839	1204.78
1024.129	1213.6
1024.419	1156.65
1024.709	1191.23
1025	1161.17
1025.29	1151.68
1025.58	1189.19
1025.87	1141.51
1026.16	1139.25
1026.449	1153.49
1026.739	1120.72
1027.029	1099.93
1027.319	1120.04
1027.608	1107.84
1027.898	1109.87
1028.187	1089.31
1028.477	1092.47
1028.766	1072.36
1029.055	1080.27
1029.344	1097.44
1029.634	1076.43
1029.923	1038.24
1030.212	1050.66
1030.501	1024.45
1030.79	1012.93
1031.078	1045.69
1031.367	1055.18
1031.656	1019.03
1031.945	993.49
1032.233	1020.61
1032.522	984.9
1032.81	965.69
1033.099	979.71
1033.387	939.48
1033.675	964.34
1033.963	940.61
1034.251	929.09
1034.54	951.23
1034.828	931.35
1035.116	924.11
1035.403	936.77
1035.691	911.91
1035.979	933.61
1036.267	904.68
1036.554	919.82
1036.842	934.96
1037.129	879.82
1037.417	879.82
1037.704	888.41
1037.992	876.88
1038.279	879.14
1038.566	876.43
1038.853	876.43
1039.14	876.43
