Data from hue_30_FLMS001491_14.txt Node
Date: Mon Feb 06 15:04:49 GMT 2017
User: dcchb
Spectrometer: FLMS00149
Trigger mode: 0
Integration Time (sec): 2.000000E-2
Scans to average: 10
Electric dark correction enabled: true
Nonlinearity correction enabled: false
Boxcar width: 0
XAxis mode: Wavelengths
Number of Pixels in Spectrum: 2048
>>>>>Begin Spectral Data<<<<<
341.393	-6.55
341.776	-6.55
342.16	-6.55
342.543	-54.91
342.927	-75.25
343.31	-65.53
343.693	-85.42
344.077	-66.21
344.46	-50.85
344.843	-32.54
345.226	-40.45
345.61	-35.93
345.993	-20.11
346.376	-22.37
346.759	4.07
347.142	18.08
347.525	43.61
347.908	56.72
348.291	95.59
348.674	90.39
349.057	110.96
349.44	117.29
349.823	139.21
350.206	166.55
350.588	181.92
350.971	193.89
351.354	216.04
351.737	218.07
352.119	251.97
352.502	260.33
352.884	270.5
353.267	281.12
353.65	280.22
354.032	301.91
354.414	308.92
354.797	324.51
355.179	319.31
355.562	313.44
355.944	322.7
356.326	326.09
356.709	324.74
357.091	330.61
357.473	350.73
357.855	333.55
358.238	344.4
358.62	334.45
359.002	331.74
359.384	360.22
359.766	354.11
360.148	343.49
360.53	328.35
360.912	330.39
361.294	337.62
361.676	334.23
362.057	324.51
362.439	336.49
362.821	321.12
363.203	316.38
363.584	319.77
363.966	309.6
364.348	337.17
364.729	328.13
365.111	325.87
365.493	321.57
365.874	330.61
366.256	322.03
366.637	316.15
367.019	311.4
367.4	321.35
367.781	306.88
368.163	308.47
368.544	327.22
368.925	303.49
369.306	324.29
369.688	320.9
370.069	309.6
370.45	313.21
370.831	311.18
371.212	295.13
371.593	290.16
371.974	300.11
372.355	315.25
372.736	343.49
373.117	312.99
373.498	307.34
373.879	309.37
374.26	309.82
374.641	306.66
375.021	302.82
375.402	317.05
375.783	317.51
376.163	322.03
376.544	331.52
376.925	311.4
377.305	332.42
377.686	324.96
378.066	327.67
378.447	323.38
378.827	308.01
379.208	336.94
379.588	308.24
379.968	312.76
380.349	335.13
380.729	320.67
381.109	326.32
381.489	330.61
381.87	327.9
382.25	331.97
382.63	339.43
383.01	317.05
383.39	350.5
383.77	341.23
384.15	347.56
384.53	358.18
384.91	338.52
385.29	346.88
385.67	345.75
386.049	340.1
386.429	342.59
386.809	334.91
387.189	345.98
387.568	346.43
387.948	364.96
388.328	366.32
388.707	366.09
389.087	346.43
389.466	365.19
389.846	352.53
390.225	357.96
390.605	363.61
390.984	367.67
391.363	355.24
391.743	357.5
392.122	376.94
392.501	361.8
392.881	391.85
393.26	379.2
393.639	370.39
394.018	385.3
394.397	394.34
394.776	371.29
395.155	371.97
395.534	384.62
395.913	380.78
396.292	369.93
396.671	395.47
397.05	370.39
397.429	412.19
397.808	377.62
398.186	383.72
398.565	377.17
398.944	387.11
399.323	367.22
399.701	381.46
400.08	395.24
400.458	388.46
400.837	390.72
401.215	391.85
401.594	402.25
401.972	416.26
402.351	388.92
402.729	398.86
403.107	410.38
403.486	411.97
403.864	414.23
404.242	421.23
404.62	383.94
404.999	404.51
405.377	409.48
405.755	423.27
406.133	425.98
406.511	409.71
406.889	408.35
407.267	414.9
407.645	435.02
408.023	427.33
408.401	436.15
408.779	414.45
409.156	429.14
409.534	434.11
409.912	445.41
410.29	435.02
410.667	443.6
411.045	445.41
411.422	446.99
411.8	417.62
412.178	456.94
412.555	446.99
412.933	472.76
413.31	468.01
413.687	477.28
414.065	470.5
414.442	460.78
414.819	449.03
415.197	477.28
415.574	493.77
415.951	461.91
416.328	483.15
416.705	484.06
417.082	474.79
417.46	489.93
417.837	494.22
418.214	509.59
418.591	493.55
418.967	505.3
419.344	498.52
419.721	475.24
420.098	511.85
420.475	499.2
420.852	501.23
421.228	515.69
421.605	508.69
421.982	501.68
422.358	511.17
422.735	513.43
423.111	512.75
423.488	536.94
423.864	517.95
424.241	541.68
424.617	544.17
424.994	542.58
425.37	545.3
425.746	557.73
426.123	555.24
426.499	545.07
426.875	541.91
427.251	558.4
427.627	565.18
428.003	557.5
428.379	589.14
428.756	579.65
429.132	585.07
429.507	585.97
429.883	599.31
430.259	589.82
430.635	597.5
431.011	601.79
431.387	611.74
431.763	618.74
432.138	624.62
432.514	627.33
432.89	618.29
433.265	656.93
433.641	636.82
434.016	645.41
434.392	656.25
434.767	653.32
435.143	653.54
435.518	646.76
435.894	681.79
436.269	679.08
436.644	703.26
437.02	691.06
437.395	691.51
437.77	693.77
438.145	711.17
438.52	675.46
438.895	708.46
439.271	710.26
439.646	709.81
440.021	742.58
440.395	740.09
440.77	734.67
441.145	705.52
441.52	746.87
441.895	745.29
442.27	725.86
442.645	755.46
443.019	764.5
443.394	753.43
443.769	751.62
444.143	749.81
444.518	777.61
444.892	782.35
445.267	783.03
445.641	789.81
446.016	767.89
446.39	809.7
446.764	802.46
447.139	788.91
447.513	818.96
447.887	791.39
448.262	816.48
448.636	834.78
449.01	818.06
449.384	828.45
449.758	819.87
450.132	839.98
450.506	872.29
450.88	855.12
451.254	839.98
451.628	828.9
452.002	875.23
452.376	897.83
452.75	864.38
453.123	899.86
453.497	897.83
453.871	898.51
454.244	908.45
454.618	916.13
454.992	929.69
455.365	930.37
455.739	933.53
456.112	938.05
456.486	943.7
456.859	958.62
457.232	977.6
457.606	991.39
457.979	1009.24
458.352	987.77
458.725	1002.46
459.099	1023.7
459.472	1064.38
459.845	1026.87
460.218	1067.32
460.591	1096.92
460.964	1084.94
461.337	1078.16
461.71	1100.08
462.083	1114.32
462.456	1127.2
462.829	1126.52
463.201	1147.99
463.574	1143.25
463.947	1162.23
464.32	1210.59
464.692	1189.8
465.065	1197.03
465.438	1239.97
465.81	1216.92
466.183	1245.62
466.555	1287.88
466.928	1272.96
467.3	1286.75
467.672	1305.05
468.045	1334.65
468.417	1340.3
468.789	1324.26
469.161	1347.08
469.534	1378.04
469.906	1434.09
470.278	1413.75
470.65	1440.19
471.022	1456.01
471.394	1508.43
471.766	1496.68
472.138	1510.02
472.51	1539.62
472.882	1573.29
473.253	1591.37
473.625	1628.43
473.997	1652.39
474.369	1669.33
474.74	1706.62
475.112	1714.31
475.484	1759.5
475.855	1828.65
476.227	1810.8
476.598	1880.4
476.97	1864.13
477.341	1910.23
477.713	1983.45
478.084	2017.57
478.455	2052.15
478.827	2050.34
479.198	2141.64
479.569	2128.08
479.94	2205.14
480.311	2244.69
480.682	2288.3
481.053	2344.12
481.424	2411.24
481.795	2440.39
482.166	2472.7
482.537	2528.52
482.908	2582.53
483.279	2599.71
483.65	2662.3
484.021	2747.05
484.391	2773.49
484.762	2814.62
485.133	2834.5
485.503	2877.21
485.874	2977.55
486.244	3048.73
486.615	3108.17
486.985	3145.68
487.356	3198.79
487.726	3255.06
488.097	3295.05
488.467	3351.78
488.837	3448.72
489.207	3519.23
489.578	3581.15
489.948	3649.85
490.318	3693.24
490.688	3722.61
491.058	3741.14
491.428	3830.41
491.798	3902.72
492.168	4003.51
492.538	4010.52
492.908	4079.89
493.278	4133.45
493.648	4150.63
494.017	4221.58
494.387	4275.59
494.757	4314.46
495.126	4370.96
495.496	4383.16
495.866	4441.01
496.235	4524.4
496.605	4551.07
496.974	4614.34
497.344	4678.75
497.713	4713.32
498.082	4770.5
498.452	4779.54
498.821	4810.27
499.19	4877.61
499.559	4878.74
499.928	4993.09
500.298	4983.6
500.667	5049.13
501.036	5071.96
501.405	5119.64
501.774	5086.42
502.143	5188.79
502.512	5211.84
502.88	5293.19
503.249	5283.7
503.618	5334.55
503.987	5370.25
504.356	5451.83
504.724	5452.29
505.093	5433.3
505.462	5479.86
505.83	5523.47
506.199	5566.18
506.567	5604.82
506.936	5647.54
507.304	5678.95
507.672	5745.61
508.041	5722.11
508.409	5779.96
508.777	5866.96
509.145	5927.75
509.514	5890.01
509.882	5958.49
510.25	5976.11
510.618	5996.68
510.986	5991.03
511.354	6074.87
511.722	6099.05
512.09	6125.71
512.458	6156.22
512.826	6201.19
513.193	6203.9
513.561	6221.76
513.929	6264.92
514.297	6340.17
514.664	6368.42
515.032	6344.92
515.4	6402.77
515.767	6446.61
516.135	6469.43
516.502	6469.21
516.869	6495.87
517.237	6528.19
517.604	6540.17
517.972	6650.45
518.339	6620.39
518.706	6698.58
519.073	6682.31
519.44	6764.34
519.808	6781.06
520.175	6761.4
520.542	6807.96
520.909	6855.86
521.276	6904.23
521.643	6960.72
522.009	7019.48
522.376	6984
522.743	7085.24
523.11	7044.33
523.477	7097.44
523.843	7183.54
524.21	7195.97
524.577	7299.24
524.943	7320.49
525.31	7339.47
525.676	7386.47
526.043	7425.79
526.409	7473.7
526.776	7568.84
527.142	7562.96
527.508	7611.78
527.874	7669.18
528.241	7630.99
528.607	7700.36
528.973	7786.24
529.339	7785.56
529.705	7791.43
530.071	7907.59
530.437	7963.41
530.803	7925.44
531.169	7986.68
531.535	7982.61
531.901	8091.76
532.267	8112.1
532.632	8045.21
532.998	8143.06
533.364	8242.72
533.73	8209.95
534.095	8364.98
534.461	8356.84
534.826	8397.29
535.192	8402.26
535.557	8443.85
535.923	8476.16
536.288	8486.33
536.653	8531.75
537.019	8556.61
537.384	8576.95
537.749	8582.15
538.114	8682.03
538.479	8663.5
538.845	8715.48
539.21	8645.2
539.575	8724.52
539.94	8771.29
540.305	8792.31
540.67	8858.3
541.034	8885.87
541.399	8924.96
541.764	8927
542.129	9001.8
542.494	9033.66
542.858	9124.05
543.223	9053.1
543.587	9161.12
543.952	9119.53
544.316	9218.29
544.681	9207.22
545.045	9272.52
545.41	9362.69
545.774	9387.1
546.138	9400.66
546.503	9421.9
546.867	9446.98
547.231	9477.94
547.595	9540.54
547.959	9556.58
548.324	9583.25
548.688	9626.41
549.052	9634.77
549.416	9670.03
549.779	9662.57
550.143	9769.46
550.507	9828.67
550.871	9865.5
551.235	9812.85
551.599	9951.38
551.962	9916.12
552.326	9968.33
552.689	9991.15
553.053	9983.69
553.417	10027.98
553.78	10090.58
554.143	10084.93
554.507	10105.5
554.87	10068.21
555.234	10269.56
555.597	10127.87
555.96	10236.79
556.323	10287.19
556.686	10336.9
557.05	10393.85
557.413	10376.22
557.776	10515.88
558.139	10441.31
558.502	10470.23
558.865	10546.62
559.228	10615.31
559.59	10620.51
559.953	10632.49
560.316	10696.22
560.679	10645.6
561.041	10735.76
561.404	10874.29
561.767	10899.15
562.129	10793.39
562.492	10951.35
562.854	10959.94
563.217	10938.24
563.579	11025.47
563.941	11013.5
564.304	11119.71
564.666	11174.62
565.028	11166.03
565.39	11140.95
565.753	11243.55
566.115	11321.74
566.477	11370.1
566.839	11365.12
567.201	11405.8
567.563	11477.89
567.925	11446.93
568.287	11519.7
568.648	11453.48
569.01	11617.1
569.372	11694.61
569.734	11602.41
570.095	11709.75
570.457	11743.19
570.819	11795.62
571.18	11848.05
571.542	11955.39
571.903	11929.4
572.265	12002.17
572.626	12045.33
572.987	12144.99
573.349	12210.3
573.71	12290.07
574.071	12341.6
574.432	12455.72
574.794	12516.28
575.155	12588.14
575.516	12619.56
575.877	12653.23
576.238	12795.6
576.599	12861.13
576.96	12948.13
577.32	12993.56
577.681	13125.3
578.042	13134.12
578.403	13226.54
578.763	13387.44
579.124	13421.57
579.485	13551.51
579.845	13657.95
580.206	13730.26
580.566	13898.84
580.927	13996.92
581.287	14232.17
581.648	14232.62
582.008	14457.47
582.368	14611.59
582.728	14765.49
583.089	14831.93
583.449	15111.69
583.809	15247.06
584.169	15428.29
584.529	15561.4
584.889	15880.03
585.249	15996.42
585.609	16115.06
585.969	16369.97
586.329	16614.03
586.688	16724.53
587.048	16931.53
587.408	17138.08
587.768	17303.27
588.127	17577.84
588.487	17750.27
588.846	18094.89
589.206	18224.83
589.565	18370.36
589.925	18747.08
590.284	18951.14
590.643	19085.6
591.003	19395.42
591.362	19675.19
591.721	19912.02
592.08	20144.78
592.44	20422.97
592.799	20744.09
593.158	20908.38
593.517	21122.61
593.876	21368.48
594.235	21714.01
594.593	21874.91
594.952	22168.68
595.311	22284.84
595.67	22763.47
596.029	23074.2
596.387	23312.61
596.746	23515.54
597.104	23631.24
597.463	23993.49
597.822	24371.34
598.18	24420.6
598.538	24725.9
598.897	25055.39
599.255	24996.4
599.613	25605.43
599.972	25683.39
600.33	25976.49
600.688	26119.99
601.046	26422.13
601.404	26736.92
601.762	26810.37
602.12	27192.28
602.478	27464.81
602.836	27541.65
603.194	27610.12
603.552	27893.5
603.91	28018.02
604.268	28411.46
604.625	28481.96
604.983	28775.06
605.341	29005.57
605.698	29404.2
606.056	29577.3
606.413	29614.81
606.771	29847.12
607.128	30104.97
607.485	30194.46
607.843	30424.74
608.2	30712.19
608.557	30983.37
608.914	31143.36
609.272	31243.7
609.629	31426.74
609.986	31737.92
610.343	31761.65
610.7	32085.48
611.057	32238.47
611.414	32398.47
611.771	32460.62
612.127	32706.48
612.484	32848.4
612.841	33027.83
613.198	33041.62
613.554	33180.82
613.911	33529.97
614.267	33623.97
614.624	33860.8
614.98	33974.02
615.337	34158.42
615.693	34117.52
616.05	34330.17
616.406	34553.44
616.762	34492.2
617.118	34682.48
617.475	34695.58
617.831	34851.74
618.187	35068.46
618.543	35107.1
618.899	35493.53
619.255	35505.96
619.611	35530.37
619.967	35739.85
620.323	35796.35
620.678	35737.82
621.034	35879.51
621.39	35780.08
621.746	35906.4
622.101	36330.57
622.457	36188.65
622.812	36292.61
623.168	36374.86
623.523	36516.1
623.879	36597.91
624.234	36560.85
624.589	36567.17
624.945	36752.25
625.3	36874.74
625.655	36938.46
626.01	36936.88
626.365	37024.34
626.72	37080.61
627.075	37108.18
627.43	37249.42
627.785	37010.1
628.14	37286.48
628.495	37351.33
628.85	37271.34
629.205	37182.3
629.559	37450.31
629.914	37379.81
630.269	37402.86
630.623	37483.08
630.978	37260.94
631.332	37439.24
631.687	37502.06
632.041	37584.77
632.396	37609.41
632.75	37422.97
633.104	37602.85
633.459	37453.25
633.813	37438.79
634.167	37425.91
634.521	37402.18
634.875	37518.11
635.229	37646.92
635.583	37424.1
635.937	37499.8
636.291	37463.2
636.645	37498.68
636.999	37417.55
637.352	37541.61
637.706	37341.39
638.06	37516.75
638.413	37320.83
638.767	37336.42
639.121	37390.43
639.474	37174.16
639.828	37290.09
640.181	37286.03
640.534	37457.09
640.888	37370.32
641.241	37125.58
641.594	37381.16
641.947	37442.41
642.301	37239.25
642.654	37199.7
643.007	37241.51
643.36	37214.16
643.713	37345.23
644.066	37269.75
644.419	37212.13
644.771	36865.47
645.124	36671.35
645.477	36517.01
645.83	36311.59
646.182	36075.66
646.535	36055.1
646.888	36085.6
647.24	35870.47
647.593	36154.76
647.945	36012.61
648.298	35922.22
648.65	35887.19
649.002	35941.2
649.355	36200.18
649.707	36110.46
650.059	36089.22
650.411	36556.55
650.763	36703.89
651.115	37111.11
651.467	36894.4
651.819	36904.11
652.171	36767.17
652.523	36881.97
652.875	36686.49
653.227	36531.02
653.578	36787.06
653.93	36658.47
654.282	36499.83
654.633	36557.68
654.985	36618.7
655.337	36679.94
655.688	36623.44
656.039	36811.46
656.391	36432.04
656.742	36493.96
657.094	36504.8
657.445	36625.03
657.796	36517.23
658.147	36398.36
658.498	36501.64
658.849	36520.62
659.2	36392.94
659.551	36375.54
659.902	36445.14
660.253	36488.31
660.604	36465.71
660.955	36233.4
661.306	36498.02
661.656	36383.22
662.007	36447.4
662.358	36330.12
662.708	36446.5
663.059	36331.02
663.409	36212.16
663.76	36530.79
664.11	36375.31
664.461	36406.5
664.811	36433.62
665.161	36264.36
665.511	36277.24
665.862	36373.96
666.212	36380.51
666.562	36355.88
666.912	36335.32
667.262	36299.61
667.612	36265.71
667.962	36251.25
668.312	36213.96
668.662	36333.73
669.011	36346.84
669.361	36130.8
669.711	36184.13
670.06	36043.12
670.41	36071.37
670.76	36224.36
671.109	36322.66
671.459	36115.89
671.808	36099.84
672.157	36289.22
672.507	35965.16
672.856	35996.12
673.205	36078.6
673.554	36161.31
673.904	36136.9
674.253	36257.13
674.602	36007.41
674.951	35668.21
675.3	35394.1
675.649	35907.76
675.998	35862.79
676.346	35949.11
676.695	36066.17
677.044	35845.39
677.393	35927.64
677.741	35913.18
678.09	35834.31
678.438	35730.59
678.787	35694.65
679.135	35738.95
679.484	35625.96
679.832	35670.02
680.181	35540.08
680.529	35653.07
680.877	35498.28
681.225	35486.52
681.573	35650.36
681.922	35299.86
682.27	35272.52
682.618	35377.6
682.966	35298.28
683.314	35336.7
683.661	35218.73
684.009	34927.44
684.357	35038.85
684.705	34920.89
685.053	35012.64
685.4	34844.96
685.748	34730.16
686.095	34708.24
686.443	34653.78
686.79	34564.06
687.138	34704.85
687.485	34592.31
687.832	34508.47
688.18	34513.44
688.527	34264.41
688.874	34317.97
689.221	34257.18
689.568	34119.78
689.915	34015.6
690.262	34103.74
690.609	34044.98
690.956	33856.74
691.303	33909.84
691.65	33840.24
691.997	33807.92
692.344	33571.09
692.69	33519.8
693.037	33568.38
693.383	33311.67
693.73	33346.69
694.077	33187.38
694.423	33251.78
694.769	33019.02
695.116	33014.73
695.462	33054.5
695.808	32896.54
696.155	33023.54
696.501	32665.58
696.847	32672.59
697.193	32393.72
697.539	32578.58
697.885	32254.75
698.231	32250.68
698.577	32222.2
698.923	32173.62
699.269	32082.77
699.614	31944.92
699.96	31823.12
700.306	31867.64
700.651	31731.14
700.997	31620.86
701.342	31654.31
701.688	31526.4
702.033	31420.87
702.379	31439.17
702.724	31257.03
703.069	31402.79
703.415	31140.88
703.76	30986.08
704.105	31101.78
704.45	30893.42
704.795	30681.91
705.14	30672.41
705.485	30548.58
705.83	30516.94
706.175	30581.57
706.52	30496.6
706.865	30430.61
707.209	30366.43
707.554	30368.69
707.899	30331.86
708.243	30205.31
708.588	30139.09
708.932	29985.2
709.277	29920.57
709.621	30025.2
709.966	29668.37
710.31	29878.08
710.654	29486.23
710.998	29729.39
711.342	29635.6
711.687	29532.78
712.031	29441.26
712.375	29262.96
712.719	29353.35
713.063	29168.05
713.407	29251.21
713.75	29130.08
714.094	29140.02
714.438	28945.23
714.782	28988.62
715.125	28915.4
715.469	29009.63
715.812	28888.05
716.156	28734.16
716.499	28707.95
716.843	28676.31
717.186	28522.64
717.53	28662.75
717.873	28641.05
718.216	28623.65
718.559	28387.05
718.902	28142.31
719.246	28310.22
719.589	28221.4
719.932	28152.71
720.275	28166.49
720.617	28116.1
720.96	27978.47
721.303	28054.4
721.646	28089.2
721.989	27864.13
722.331	27855.54
722.674	27850.57
723.016	27790.23
723.359	27724.69
723.701	27677.92
724.044	27566.96
724.386	27531.25
724.729	27643.57
725.071	27441.99
725.413	27465.94
725.755	27376.23
726.097	27252.16
726.439	27116.8
726.782	27214.43
727.124	27312.95
727.465	27155.9
727.807	27198.38
728.149	27018.05
728.491	27031.38
728.833	27016.24
729.175	26953.19
729.516	26910.93
729.858	26814.66
730.199	26891.95
730.541	26857.37
730.882	26820.31
731.224	26912.74
731.565	26752.74
731.906	26670.03
732.248	26759.97
732.589	26557.72
732.93	26477.72
733.271	26470.49
733.612	26505.52
733.953	26539.64
734.294	26444.95
734.635	26399.53
734.976	26349.82
735.317	26231.85
735.658	26385.97
735.999	26273.43
736.339	26215.81
736.68	26268.91
737.021	26117.05
737.361	26071.63
737.702	26117.51
738.042	26045.64
738.383	25897.4
738.723	26017.85
739.063	25902.37
739.404	25921.8
739.744	25768.81
740.084	25737.4
740.424	25765.42
740.764	25702.15
741.104	25747.35
741.444	25641.81
741.784	25574.24
742.124	25643.85
742.464	25622.38
742.804	25455.38
743.143	25454.7
743.483	25459.22
743.823	25395.72
744.162	25400.01
744.502	25433.46
744.841	25167.7
745.181	25433.46
745.52	25269.39
745.86	25331.09
746.199	25226.23
746.538	25177.19
746.877	25260.8
747.216	25169.96
747.556	25004.54
747.895	25170.41
748.234	24955.5
748.573	24981.49
748.911	24990.76
749.25	24911.89
749.589	24841.38
749.928	24704.44
750.267	24777.65
750.605	24657.66
750.944	24691.33
751.283	24512.35
751.621	24630.31
751.96	24538.56
752.298	24548.73
752.636	24485.68
752.975	24367.72
753.313	24241.85
753.651	24455.18
753.989	24353.71
754.327	24254.05
754.666	24137.9
755.004	24122.76
755.342	24160.72
755.679	24182.19
756.017	24012.48
756.355	24037.56
756.693	23914.63
757.031	23919.82
757.368	23786.72
757.706	23825.81
758.044	23743.78
758.381	23792.37
758.719	23667.17
759.056	23699.04
759.394	23604.35
759.731	23482.55
760.068	23464.24
760.405	23417.69
760.743	23203.91
761.08	23316.22
761.417	23195.32
761.754	23113.97
762.091	23043.01
762.428	23053.86
762.765	22879.17
763.102	22942.67
763.438	22792.17
763.775	22728.67
764.112	22785.39
764.449	22738.84
764.785	22563.47
765.122	22505.4
765.458	22316.48
765.795	22245.52
766.131	22292.3
766.467	22238.06
766.804	22151.28
767.14	21986.09
767.476	22003.72
767.812	21875.58
768.148	21917.84
768.485	21784.51
768.821	21709.26
769.157	21537.06
769.492	21648.02
769.828	21572.77
770.164	21409.83
770.5	21307.01
770.836	21360.79
771.171	21104.08
771.507	21069.73
771.842	20983.86
772.178	20930.75
772.513	20975.04
772.849	20801.94
773.184	20720.13
773.519	20792
773.855	20570.53
774.19	20546.58
774.525	20485.11
774.86	20467.03
775.195	20435.62
775.53	20275.63
775.865	20342.52
776.2	20135.97
776.535	20036.31
776.87	19984.56
777.205	19808.74
777.539	19799.93
777.874	19907.05
778.209	19712.93
778.543	19640.39
778.878	19598.58
779.212	19542.54
779.547	19478.13
779.881	19536.89
780.215	19349.32
780.55	19334.63
780.884	19176.44
781.218	19199.95
781.552	19078.82
781.886	18971.25
782.22	18879.05
782.554	18843.57
782.888	18689.45
783.222	18665.05
783.556	18529.23
783.889	18612.62
784.223	18417.59
784.557	18407.65
784.89	18412.62
785.224	18248.79
785.557	18230.93
785.891	18190.26
786.224	18092.41
786.558	18131.05
786.891	17965.63
787.224	17764.73
787.557	17843.37
787.891	17815.35
788.224	17720.89
788.557	17576.26
788.89	17602.7
789.223	17640.21
789.556	17431.41
789.888	17482.25
790.221	17404.06
790.554	17122.49
790.887	17170.85
791.219	17178.76
791.552	17139.21
791.884	16973.56
792.217	16888.37
792.549	16938.54
792.882	16804.98
793.214	16701.03
793.546	16708.26
793.879	16634.59
794.211	16493.58
794.543	16574.48
794.875	16607.25
795.207	16539.9
795.539	16409.51
795.871	16508.04
796.203	16285.45
796.535	16181.95
796.867	16230.76
797.198	16074.83
797.53	16139.91
797.862	16003.42
798.193	16088.62
798.525	16012.46
798.856	16005
799.188	15768.4
799.519	15773.37
799.85	15780.38
800.182	15684.11
800.513	15609.31
800.844	15544.22
801.175	15632.58
801.506	15630.78
801.837	15445.92
802.168	15451.12
802.499	15360.73
802.83	15301.74
803.161	15234.63
803.491	15282.31
803.822	15239.15
804.153	15098.13
804.483	14992.15
804.814	14962.77
805.145	14962.32
805.475	14942.66
805.805	14979.04
806.136	14878.48
806.466	14870.34
806.796	14828.08
807.126	14774.75
807.457	14628.99
807.787	14751.25
808.117	14516.45
808.447	14521.2
808.777	14529.11
809.107	14500.18
809.436	14484.36
809.766	14469
810.096	14445.27
810.426	14348.55
810.755	14309
811.085	14232.62
811.414	14225.16
811.744	14197.14
812.073	14089.35
812.403	14118.72
812.732	14004.38
813.061	14006.41
813.39	13981.33
813.719	13891.61
814.049	13979.75
814.378	13891.84
814.707	13769.13
815.036	13836.47
815.365	13758.06
815.693	13666.31
816.022	13630.15
816.351	13707.66
816.68	13594.9
817.008	13571.62
817.337	13452.53
817.665	13405.98
817.994	13441.91
818.322	13402.81
818.651	13389.48
818.979	13373.89
819.307	13394
819.636	13187.68
819.964	13242.82
820.292	13315.13
820.62	13313.1
820.948	13250.5
821.276	13246.21
821.604	13189.71
821.932	13307.67
822.259	13255.7
822.587	13234.45
822.915	13126.21
823.243	13183.16
823.57	13154.23
823.898	13121.01
824.225	13198.07
824.553	13255.92
824.88	13163.95
825.207	13166.21
825.535	13198.75
825.862	13172.31
826.189	13117.17
826.516	13158.3
826.843	13194
827.17	13137.73
827.497	13199.88
827.824	13143.84
828.151	13178.41
828.478	13107.68
828.805	13201.46
829.131	13106.77
829.458	13119.66
829.785	12966.89
830.111	13039.88
830.438	13163.72
830.764	13117.62
831.09	13149.71
831.417	12956.95
831.743	13125.98
832.069	13075.36
832.395	13067
832.722	12992.88
833.048	13017.74
833.374	13016.83
833.7	12948.59
834.026	13026.55
834.351	12949.49
834.677	12893.22
835.003	12947.91
835.329	12976.83
835.654	12972.31
835.98	12896.61
836.306	12816.61
836.631	12862.26
836.956	12847.57
837.282	12918.53
837.607	12802.15
837.932	12800.34
838.258	12739.55
838.583	12711.3
838.908	12694.58
839.233	12742.94
839.558	12695.03
839.883	12644.87
840.208	12630.85
840.533	12704.3
840.858	12640.12
841.182	12662.04
841.507	12548.37
841.832	12475.38
842.156	12529.39
842.481	12466.34
842.805	12430.86
843.13	12318.55
843.454	12356.06
843.778	12322.61
844.103	12305.89
844.427	12283.74
844.751	12285.33
845.075	12284.65
845.399	12248.72
845.723	12093.24
846.047	12061.6
846.371	12032
846.695	11965.79
847.019	12000.59
847.343	11929.63
847.666	11750.88
847.99	11782.97
848.313	11737.09
848.637	11696.87
848.96	11764.44
849.284	11618.9
849.607	11560.15
849.931	11541.17
850.254	11453.48
850.577	11356.99
850.9	11305.69
851.223	11279.25
851.546	11215.52
851.869	11185.47
852.192	11332.58
852.515	11178.69
852.838	11036.09
853.161	11123.55
853.483	11026.38
853.806	11004.91
854.129	11062.31
854.451	10942.76
854.774	10954.06
855.096	10914.74
855.419	10826.38
855.741	10789.09
856.063	10762.2
856.385	10736.67
856.708	10679.27
857.03	10661.87
857.352	10699.38
857.674	10652.6
857.996	10547.97
858.318	10505.71
858.64	10520.85
858.961	10435.88
859.283	10411.93
859.605	10428.43
859.926	10455.09
860.248	10374.64
860.57	10385.26
860.891	10329.22
861.212	10300.52
861.534	10267.75
861.855	10176.23
862.176	10187.08
862.498	10187.08
862.819	10203.57
863.14	10164.03
863.461	10091.26
863.782	10091.94
864.103	10122.22
864.424	10065.5
864.745	10076.57
865.065	10041.32
865.386	9930.81
865.707	9979.62
866.027	9980.75
866.348	9964.26
866.668	9962.9
866.989	9934.43
867.309	9838.61
867.63	9933.52
867.95	9859.4
868.27	9811.72
868.59	9808.56
868.91	9784.83
869.23	9797.71
869.55	9799.74
869.87	9846.75
870.19	9777.82
870.51	9827.54
870.83	9761.1
871.15	9744.6
871.469	9697.37
871.789	9659.86
872.109	9647.2
872.428	9604.72
872.748	9707.99
873.067	9604.27
873.386	9625.51
873.706	9580.77
874.025	9555.23
874.344	9510.71
874.663	9608.79
874.982	9553.2
875.301	9507.77
875.62	9479.3
875.939	9444.27
876.258	9475.91
876.577	9387.1
876.896	9402.69
877.214	9398.62
877.533	9401.56
877.852	9372.63
878.17	9341
878.489	9384.16
878.807	9316.37
879.125	9269.59
879.444	9338.06
879.762	9252.86
880.08	9260.77
880.398	9165.86
880.716	9233.43
881.034	9171.51
881.352	9186.65
881.67	9140.55
881.988	9224.39
882.306	9183.26
882.624	9180.55
882.941	9082.25
883.259	9071.17
883.577	9007.67
883.894	9022.14
884.212	9003.15
884.529	8983.72
884.846	8951.86
885.164	8899.43
885.481	8939.2
885.798	8867.79
886.115	8841.8
886.432	8863.5
886.75	8841.12
887.067	8839.32
887.383	8792.99
887.7	8792.99
888.017	8705.99
888.334	8742.37
888.651	8699.21
888.967	8684.52
889.284	8718.19
889.6	8582.15
889.917	8591.19
890.233	8614.01
890.55	8540.57
890.866	8622.15
891.182	8541.02
891.498	8498.31
891.815	8466.44
892.131	8388.25
892.447	8461.47
892.763	8396.16
893.079	8368.82
893.395	8416.28
893.71	8334.7
894.026	8328.59
894.342	8250.63
894.657	8227.81
894.973	8214.93
895.289	8193.23
895.604	8289.73
895.92	8126.57
896.235	8146.9
896.55	8145.32
896.865	8075.49
897.181	8041.6
897.496	8044.08
897.811	7961.15
898.126	7925.44
898.441	7898.32
898.756	7958.43
899.071	7901.71
899.386	7865.78
899.7	7810.64
900.015	7799.57
900.33	7766.58
900.644	7751.21
900.959	7736.75
901.273	7640.25
901.588	7669.18
901.902	7636.64
902.216	7536.07
902.531	7612
902.845	7526.81
903.159	7500.14
903.473	7482.06
903.787	7422.18
904.101	7408.62
904.415	7405.91
904.729	7350.32
905.042	7320.94
905.356	7327.04
905.67	7278.45
905.984	7285.46
906.297	7232.8
906.611	7257.66
906.924	7223.31
907.237	7134.5
907.551	7131.79
907.864	7097.21
908.177	7080.72
908.491	7066.71
908.804	7031.91
909.117	6998.01
909.43	6955.98
909.743	6906.03
910.056	6897.67
910.368	6868.75
910.681	6866.49
910.994	6800.5
911.307	6786.49
911.619	6771.8
911.932	6777.22
912.244	6713.72
912.557	6694.97
912.869	6692.48
913.181	6695.19
913.494	6593.72
913.806	6560.05
914.118	6546.04
914.43	6516.21
914.742	6490.22
915.054	6425.59
915.366	6466.27
915.678	6422.2
915.99	6343.79
916.302	6412.49
916.613	6301.98
916.925	6325.71
917.236	6286.84
917.548	6214.3
917.859	6226.73
918.171	6211.36
918.482	6144.7
918.794	6207.52
919.105	6098.37
919.416	6107.41
919.727	6108.09
920.038	6040.97
920.349	6000.75
920.66	5987.64
920.971	5933.4
921.282	5990.12
921.593	5953.52
921.903	5931.37
922.214	5875.78
922.525	5837.36
922.835	5839.85
923.146	5776.57
923.456	5731.37
923.767	5754.88
924.077	5753.52
924.387	5725.95
924.697	5670.81
925.008	5632.85
925.318	5604.37
925.628	5637.59
925.938	5643.24
926.248	5559.85
926.558	5559.63
926.867	5504.49
927.177	5556.92
927.487	5485.28
927.796	5417.71
928.106	5440.99
928.416	5416.58
928.725	5397.6
929.034	5391.5
929.344	5313.76
929.653	5299.07
929.962	5260.2
930.271	5274.21
930.581	5244.61
930.89	5201.67
931.199	5201.67
931.508	5147.44
931.817	5146.53
932.125	5174.1
932.434	5151.28
932.743	5076.93
933.051	5118.28
933.36	5048.68
933.669	5029.02
933.977	5003.48
934.286	5036.48
934.594	5013.65
934.902	4914
935.21	4920.1
935.519	4951.96
935.827	4909.48
936.135	4829.93
936.443	4830.61
936.751	4851.62
937.059	4805.98
937.367	4765.3
937.674	4810.49
937.982	4719.65
938.29	4737.5
938.597	4717.62
938.905	4639.43
939.213	4631.06
939.52	4593.33
939.827	4648.24
940.135	4591.97
940.442	4570.28
940.749	4565.3
941.056	4552.65
941.363	4511.97
941.67	4473.1
941.977	4433.1
942.284	4457.96
942.591	4477.17
942.898	4435.36
943.205	4408.7
943.511	4416.61
943.818	4379.09
944.125	4298.87
944.431	4357.85
944.738	4337.97
945.044	4274.01
945.35	4272.2
945.657	4294.8
945.963	4255.48
946.269	4270.17
946.575	4201.7
946.881	4199.44
947.187	4217.29
947.493	4185.88
947.799	4152.66
948.105	4093.45
948.41	4081.7
948.716	4109.5
949.022	4081.02
949.327	4094.81
949.633	4033.34
949.938	4004.87
950.244	4022.49
950.549	3969.84
950.854	3963.29
951.16	3953.79
951.465	3967.81
951.77	3890.52
952.075	3941.82
952.38	3888.49
952.685	3873.34
952.99	3845.1
953.294	3850.29
953.599	3816.85
953.904	3839
954.209	3776.62
954.513	3777.3
954.818	3779.79
955.122	3785.89
955.426	3719
955.731	3703.63
956.035	3684.42
956.339	3636.29
956.643	3651.66
956.948	3646.46
957.252	3646.23
957.556	3606.23
957.86	3613.01
958.163	3641.26
958.467	3577.31
958.771	3522.39
959.075	3566.23
959.378	3506.35
959.682	3532.56
959.985	3514.26
960.289	3496.41
960.592	3477.65
960.896	3483.75
961.199	3446.01
961.502	3387.93
961.805	3420.25
962.108	3320.59
962.411	3356.52
962.714	3349.29
963.017	3327.37
963.32	3323.75
963.623	3289.86
963.926	3322.4
964.228	3285.56
964.531	3267.26
964.833	3274.49
965.136	3245.11
965.438	3221.38
965.741	3203.53
966.043	3182.29
966.345	3203.31
966.648	3191.33
966.95	3165.11
967.252	3116.98
967.554	3132.35
967.856	3111.56
968.158	3079.02
968.46	3072.24
968.761	3060.94
969.063	3027.04
969.365	3039.47
969.666	3045.34
969.968	3030.2
970.269	3024.33
970.571	3000.6
970.872	2977.32
971.174	2973.03
971.475	2970.32
971.776	2956.53
972.077	2948.85
972.378	2931.45
972.679	2906.14
972.98	2919.25
973.281	2860.94
973.582	2884.9
973.883	2819.81
974.183	2862.98
974.484	2825.01
974.785	2847.38
975.085	2816.65
975.386	2805.8
975.686	2775.52
975.986	2786.14
976.287	2789.76
976.587	2772.81
976.887	2753.15
977.187	2725.8
977.487	2713.6
977.787	2706.6
978.087	2699.59
978.387	2709.53
978.687	2671.79
978.987	2648.97
979.286	2664.11
979.586	2642.87
979.885	2624.56
980.185	2625.02
980.484	2572.14
980.784	2579.59
981.083	2556.09
981.382	2592.47
981.682	2568.75
981.981	2537.11
982.28	2531.46
982.579	2505.92
982.878	2518.58
983.177	2486.71
983.475	2507.96
983.774	2470.22
984.073	2455.98
984.372	2443.33
984.67	2469.99
984.969	2413.95
985.267	2436.55
985.566	2408.07
985.864	2373.04
986.162	2397.23
986.461	2382.31
986.759	2374.85
987.057	2327.4
987.355	2344.12
987.653	2374.85
987.951	2327.62
988.249	2300.96
988.547	2341.18
988.844	2281.52
989.142	2301.86
989.44	2281.07
989.737	2272.03
990.035	2282.65
990.332	2276.1
990.63	2228.19
990.927	2232.71
991.224	2225.25
991.521	2198.81
991.819	2178.02
992.116	2192.48
992.413	2196.33
992.71	2196.55
993.006	2123.79
993.303	2139.15
993.6	2135.76
993.897	2147.51
994.193	2155.42
994.49	2110
994.787	2097.8
995.083	2099.15
995.379	2082.21
995.676	2060.96
995.972	2061.41
996.268	2035.2
996.565	2040.85
996.861	2018.93
997.157	1999.95
997.453	2010.12
997.749	2011.92
998.044	2015.77
998.34	1985.94
998.636	1962.66
998.932	2002.89
999.227	1931.25
999.523	1966.5
999.818	1951.36
1000.114	1942.77
1000.409	1907.97
1000.704	1887.86
1001	1901.42
1001.295	1864.36
1001.59	1882.21
1001.885	1860.06
1002.18	1822.1
1002.475	1850.12
1002.77	1848.54
1003.065	1823.45
1003.359	1816
1003.654	1816
1003.949	1797.01
1004.243	1810.35
1004.538	1773.96
1004.832	1782.78
1005.127	1757.24
1005.421	1737.58
1005.715	1758.15
1006.009	1742.55
1006.304	1717.02
1006.598	1722.67
1006.892	1692.38
1007.186	1702.33
1007.48	1683.8
1007.773	1655.32
1008.067	1672.95
1008.361	1631.37
1008.655	1635.44
1008.948	1607.64
1009.242	1642.22
1009.535	1627.08
1009.829	1643.12
1010.122	1581.88
1010.415	1588.88
1010.708	1603.35
1011.001	1590.92
1011.295	1577.13
1011.588	1559.96
1011.881	1548.21
1012.173	1539.17
1012.466	1539.17
1012.759	1541.43
1013.052	1497.59
1013.344	1502.79
1013.637	1515.21
1013.93	1500.07
1014.222	1481.09
1014.514	1477.93
1014.807	1460.75
1015.099	1437.7
1015.391	1464.14
1015.683	1437.7
1015.976	1450.58
1016.268	1423.01
1016.56	1396.35
1016.851	1395.9
1017.143	1378.49
1017.435	1393.86
1017.727	1367.65
1018.018	1349.12
1018.31	1351.15
1018.602	1367.2
1018.893	1347.76
1019.185	1322.9
1019.476	1326.97
1019.767	1323.13
1020.058	1299.85
1020.35	1305.05
1020.641	1281.32
1020.932	1275.67
1021.223	1288.55
1021.514	1272.73
1021.804	1246.75
1022.095	1276.8
1022.386	1242.23
1022.677	1239.74
1022.967	1226.41
1023.258	1220.76
1023.548	1219.63
1023.839	1218.27
1024.129	1197.48
1024.419	1178.27
1024.709	1203.36
1025	1155.22
1025.29	1166.52
1025.58	1156.81
1025.87	1180.99
1026.16	1144.6
1026.449	1145.73
1026.739	1144.15
1027.029	1148.67
1027.319	1115.22
1027.608	1117.03
1027.898	1105.96
1028.187	1103.25
1028.477	1100.54
1028.766	1085.4
1029.055	1054.66
1029.344	1093.98
1029.634	1106.64
1029.923	1072.29
1030.212	1053.98
1030.501	1050.14
1030.79	1028.45
1031.078	1037.26
1031.367	1050.14
1031.656	1039.52
1031.945	1024.61
1032.233	1006.08
1032.522	1031.61
1032.81	1009.92
1033.099	989.13
1033.387	1008.34
1033.675	980.09
1033.963	980.31
1034.251	964.27
1034.54	957.49
1034.828	949.35
1035.116	965.17
1035.403	939.86
1035.691	958.39
1035.979	934.21
1036.267	932.4
1036.554	919.52
1036.842	929.69
1037.129	910.26
1037.417	919.3
1037.704	906.64
1037.992	905.06
1038.279	874.1
1038.566	893.31
1038.853	893.31
1039.14	893.31
