Data from hue_340_FLMS001491_95.txt Node
Date: Mon Feb 06 15:43:53 GMT 2017
User: dcchb
Spectrometer: FLMS00149
Trigger mode: 0
Integration Time (sec): 2.000000E-2
Scans to average: 10
Electric dark correction enabled: true
Nonlinearity correction enabled: false
Boxcar width: 0
XAxis mode: Wavelengths
Number of Pixels in Spectrum: 2048
>>>>>Begin Spectral Data<<<<<
341.393	13.32
341.776	13.32
342.16	13.32
342.543	-47.47
342.927	-83.18
343.31	-65.78
343.693	-65.78
344.077	-63.29
344.46	-68.03
344.843	-39.79
345.226	-35.72
345.61	-35.95
345.993	-12.22
346.376	15.8
346.759	19.65
347.142	-0.69
347.525	16.93
347.908	53.77
348.291	72.07
348.674	105.52
349.057	103.49
349.44	121.79
349.823	155.91
350.206	181.45
350.588	188.91
350.971	180.55
351.354	236.36
351.737	229.58
352.119	243.82
352.502	269.36
352.884	285.18
353.267	278.17
353.65	288.79
354.032	299.19
354.414	313.2
354.797	300.54
355.179	311.84
355.562	313.42
355.944	325.63
356.326	325.18
356.709	335.34
357.091	302.8
357.473	346.19
357.855	349.81
358.238	331.5
358.62	328.79
359.002	325.18
359.384	349.58
359.766	352.29
360.148	349.36
360.53	326.3
360.912	344.38
361.294	329.02
361.676	340.32
362.057	330.37
362.439	310.94
362.821	329.69
363.203	324.5
363.584	329.47
363.966	325.18
364.348	324.72
364.729	307.55
365.111	331.05
365.493	309.81
365.874	307.1
366.256	309.13
366.637	298.51
367.019	322.92
367.4	324.27
367.781	308.23
368.163	311.84
368.544	332.41
368.925	324.72
369.306	330.6
369.688	330.82
370.069	319.98
370.45	311.39
370.831	310.49
371.212	308.9
371.593	292.86
371.974	307.77
372.355	314.55
372.736	303.93
373.117	325.63
373.498	324.95
373.879	320.88
374.26	313.2
374.641	304.84
375.021	300.99
375.402	322.24
375.783	311.16
376.163	313.42
376.544	320.66
376.925	318.62
377.305	313.42
377.686	301.67
378.066	317.04
378.447	324.27
378.827	327.43
379.208	320.88
379.588	319.75
379.968	342.58
380.349	316.81
380.729	334.67
381.109	318.4
381.489	344.61
381.87	339.41
382.25	321.11
382.63	350.49
383.01	362.69
383.39	340.32
383.77	318.62
384.15	342.12
384.53	356.81
384.91	331.95
385.29	336.47
385.67	353.42
386.049	346.19
386.429	349.58
386.809	343.48
387.189	342.12
387.568	351.84
387.948	359.75
388.328	355
388.707	320.43
389.087	342.12
389.466	339.64
389.846	346.42
390.225	350.03
390.605	348
390.984	324.95
391.363	374.44
391.743	374.89
392.122	370.37
392.501	353.65
392.881	362.69
393.26	344.16
393.639	370.82
394.018	370.37
394.397	351.84
394.776	350.71
395.155	351.16
395.534	372.41
395.913	369.69
396.292	382.35
396.671	355
397.05	370.82
397.429	363.37
397.808	366.98
398.186	375.8
398.565	382.12
398.944	378.51
399.323	362.69
399.701	391.84
400.08	398.85
400.458	389.35
400.837	384.16
401.215	419.41
401.594	364.27
401.972	386.87
402.351	382.8
402.729	383.7
403.107	395.23
403.486	385.29
403.864	402.46
404.242	418.51
404.62	391.39
404.999	402.01
405.377	406.98
405.755	403.14
406.133	411.5
406.511	424.83
406.889	414.66
407.267	413.76
407.645	420.31
408.023	403.37
408.401	419.41
408.779	426.19
409.156	442.91
409.534	440.88
409.912	436.36
410.29	455.12
410.667	420.77
411.045	446.98
411.422	453.99
411.8	450.37
412.178	474.78
412.555	442.23
412.933	466.64
413.31	445.62
413.687	487.88
414.065	471.84
414.442	494.89
414.819	467.54
415.197	496.47
415.574	497.15
415.951	489.01
416.328	480.88
416.705	502.8
417.082	520.2
417.46	490.14
417.837	522.23
418.214	510.03
418.591	517.94
418.967	510.03
419.344	520.42
419.721	525.85
420.098	532.18
420.475	523.14
420.852	536.92
421.228	520.65
421.605	551.61
421.982	539.18
422.358	553.42
422.735	555.45
423.111	566.3
423.488	570.59
423.864	568.11
424.241	560.2
424.617	571.5
424.994	566.52
425.37	567.65
425.746	586.86
426.123	594.32
426.499	602.23
426.875	594.55
427.251	580.31
427.627	606.07
428.003	603.13
428.379	600.2
428.756	616.92
429.132	636.58
429.507	644.26
429.883	628.67
430.259	622.79
430.635	659.18
431.011	676.8
431.387	664.38
431.763	665.28
432.138	678.39
432.514	685.39
432.89	677.03
433.265	694.88
433.641	694.88
434.016	679.74
434.392	715.67
434.767	709.35
435.143	720.42
435.518	700.08
435.894	759.06
436.269	764.26
436.644	768.78
437.02	742.57
437.395	743.02
437.77	759.06
438.145	765.16
438.52	768.55
438.895	783.24
439.271	776.24
439.646	811.72
440.021	786.18
440.395	778.5
440.77	811.49
441.145	805.84
441.52	802.45
441.895	809.91
442.27	805.39
442.645	824.37
443.019	846.97
443.394	838.38
443.769	835.44
444.143	867.76
444.518	819.4
444.892	846.97
445.267	839.51
445.641	867.76
446.016	851.26
446.39	862.79
446.764	853.97
447.139	859.85
447.513	857.59
447.887	870.7
448.262	871.15
448.636	882.67
449.01	885.61
449.384	895.56
449.758	881.32
450.132	898.27
450.506	905.27
450.88	900.98
451.254	893.07
451.628	939.17
452.002	925.84
452.376	911.6
452.75	923.35
453.123	956.57
453.497	928.1
453.871	927.42
454.244	964.71
454.618	999.96
454.992	979.17
455.365	966.74
455.739	982.33
456.112	950.02
456.486	969.9
456.859	1018.94
457.232	1009.68
457.606	1009.22
457.979	1004.71
458.352	1010.13
458.725	1049.22
459.099	1026.17
459.472	1079.05
459.845	1067.08
460.218	1085.61
460.591	1086.96
460.964	1083.35
461.337	1062.1
461.71	1082.22
462.083	1093.29
462.456	1117.7
462.829	1145.27
463.201	1122.89
463.574	1123.8
463.947	1146.17
464.32	1160.86
464.692	1176.9
465.065	1180.97
465.438	1169.22
465.81	1199.5
466.183	1211.03
466.555	1215.77
466.928	1214.19
467.3	1226.39
467.672	1248.99
468.045	1257.58
468.417	1281.53
468.789	1259.84
469.161	1303.45
469.534	1323.34
469.906	1350.68
470.278	1336.9
470.65	1358.59
471.022	1360.18
471.394	1338.93
471.766	1389.1
472.138	1416.45
472.51	1413.73
472.882	1441.53
473.253	1438.14
473.625	1488.08
473.997	1487.4
474.369	1525.6
474.74	1533.05
475.112	1540.51
475.484	1563.79
475.855	1597.91
476.227	1608.98
476.598	1638.36
476.97	1671.35
477.341	1689.66
477.713	1700.96
478.084	1701.18
478.455	1718.36
478.827	1799.71
479.198	1799.26
479.569	1813.5
479.94	1822.08
480.311	1833.38
480.682	1891.24
481.053	1934.4
481.424	1979.14
481.795	1966.26
482.166	1993.83
482.537	2014.62
482.908	2047.16
483.279	2085.58
483.65	2133.94
484.021	2142.98
484.391	2151.57
484.762	2199.7
485.133	2201.74
485.503	2239.7
485.874	2264.56
486.244	2278.8
486.615	2328.74
486.985	2339.59
487.356	2378.23
487.726	2402.41
488.097	2413.71
488.467	2438.57
488.837	2467.27
489.207	2514.5
489.578	2532.57
489.948	2550.43
490.318	2588.62
490.688	2628.39
491.058	2639.92
491.428	2680.59
491.798	2692.34
492.168	2767.37
492.538	2767.82
492.908	2791.55
493.278	2825.22
493.648	2819.35
494.017	2842.17
494.387	2870.64
494.757	2905.67
495.126	2954.48
495.496	2935.05
495.866	3017.31
496.235	2976.18
496.605	3027.02
496.974	2997.65
497.344	3060.24
497.713	3067.93
498.082	3082.84
498.452	3116.29
498.821	3133.91
499.19	3137.53
499.559	3131.88
499.928	3178.89
500.298	3194.93
500.667	3231.54
501.036	3202.39
501.405	3238.77
501.774	3278.09
502.143	3277.64
502.512	3293.23
502.88	3316.51
503.249	3307.24
503.618	3319.9
503.987	3330.97
504.356	3383.85
504.724	3354.25
505.093	3396.73
505.462	3396.51
505.83	3408.48
506.199	3418.88
506.567	3516.28
506.936	3472.89
507.304	3518.99
507.672	3489.84
508.041	3533.23
508.409	3495.04
508.777	3580.23
509.145	3579.1
509.514	3548.37
509.882	3588.59
510.25	3561.25
510.618	3586.56
510.986	3615.26
511.354	3632.66
511.722	3683.5
512.09	3674.92
512.458	3680.12
512.826	3705.65
513.193	3728.02
513.561	3679.44
513.929	3709.27
514.297	3758.08
514.664	3749.04
515.032	3750.62
515.4	3784.07
515.767	3787.23
516.135	3827.46
516.502	3759.89
516.869	3830.85
517.237	3820.22
517.604	3796.5
517.972	3847.79
518.339	3913.33
518.706	3853.22
519.073	3864.29
519.44	3894.57
519.808	3888.02
520.175	3865.19
520.542	3958.3
520.909	3958.75
521.276	3982.93
521.643	3996.49
522.009	3997.17
522.376	4002.37
522.743	4019.77
523.11	4081.01
523.477	4045.76
523.843	4102.25
524.21	4075.36
524.577	4120.33
524.943	4160.1
525.31	4154.45
525.676	4233.55
526.043	4202.59
526.409	4172.08
526.776	4256.37
527.142	4239.65
527.508	4250.04
527.874	4295.92
528.241	4320.32
528.607	4309.93
528.973	4347.22
529.339	4402.81
529.705	4440.32
530.071	4422.02
530.437	4441
530.803	4453.43
531.169	4472.41
531.535	4467.67
531.901	4503.6
532.267	4511.73
532.632	4526.42
532.998	4516.03
533.364	4591.96
533.73	4533.43
534.095	4600.09
534.461	4635.34
534.826	4638.73
535.192	4688.68
535.557	4713.31
535.923	4729.58
536.288	4685.29
536.653	4728.68
537.019	4740.88
537.384	4751.27
537.749	4772.97
538.114	4790.14
538.479	4758.5
538.845	4865.39
539.21	4828.11
539.575	4827.43
539.94	4882.57
540.305	4860.42
540.67	4901.55
541.034	4898.16
541.399	4974.09
541.764	5014.77
542.129	5040.76
542.494	5041.21
542.858	5047.08
543.223	5062.9
543.587	5040.53
543.952	5130.25
544.316	5194.2
544.681	5155.56
545.045	5136.12
545.41	5224.26
545.774	5193.97
546.138	5199.85
546.503	5212.05
546.867	5239.85
547.231	5316.91
547.595	5287.76
547.959	5318.72
548.324	5299.96
548.688	5300.19
549.052	5313.97
549.416	5377.25
549.779	5417.02
550.143	5407.98
550.507	5430.58
550.871	5442.33
551.235	5460.18
551.599	5547.18
551.962	5508.09
552.326	5560.29
552.689	5578.82
553.053	5537.02
553.417	5580.63
553.78	5604.81
554.143	5601.19
554.507	5650.01
554.87	5655.2
555.234	5673.06
555.597	5642.1
555.96	5654.75
556.323	5652.04
556.686	5743.34
557.05	5782.66
557.413	5764.35
557.776	5800.74
558.139	5784.69
558.502	5822.66
558.865	5844.8
559.228	5849.55
559.59	5902.2
559.953	5873.5
560.316	5915.54
560.679	5932.03
561.041	5933.84
561.404	6032.82
561.767	6004.12
562.129	5970.45
562.492	6061.97
562.854	6000.96
563.217	6027.85
563.579	6042.09
563.941	6115.08
564.304	6170.45
564.666	6139.03
565.028	6191.91
565.39	6189.43
565.753	6219.03
566.115	6275.3
566.477	6242.08
566.839	6268.97
567.201	6245.02
567.563	6290.89
567.925	6352.59
568.287	6335.19
568.648	6347.84
569.01	6383.77
569.372	6457.44
569.734	6404.11
570.095	6497.44
570.457	6509.42
570.819	6533.15
571.18	6572.02
571.542	6600.04
571.903	6640.04
572.265	6710.54
572.626	6691.11
572.987	6676.42
573.349	6788.96
573.71	6804.78
574.071	6853.82
574.432	6900.82
574.794	6941.5
575.155	6973.81
575.516	7005
575.877	7065.56
576.238	7095.62
576.599	7160.48
576.96	7203.86
577.32	7307.59
577.681	7356.4
578.042	7491.99
578.403	7489.51
578.763	7636.17
579.124	7662.16
579.485	7782.61
579.845	7857.18
580.206	7937.63
580.566	7990.96
580.927	8130.17
581.287	8218.3
581.648	8350.73
582.008	8522.02
582.368	8595.69
582.728	8715.01
583.089	8827.1
583.449	8932.86
583.809	9151.16
584.169	9255.56
584.529	9462.34
584.889	9625.5
585.249	9706.4
585.609	9857.58
585.969	10139.15
586.329	10246.27
586.688	10469.77
587.048	10624.11
587.408	10857.78
587.768	11078.56
588.127	11189.07
588.487	11419.8
588.846	11686.01
589.206	11837.87
589.565	12106.33
589.925	12357.63
590.284	12566.44
590.643	12821.34
591.003	13136.36
591.362	13349.24
591.721	13479.86
592.08	13816.57
592.44	14048.2
592.799	14333.39
593.158	14609.55
593.517	14864.45
593.876	15126.14
594.235	15395.06
594.593	15701.04
594.952	15953.01
595.311	16167.24
595.67	16488.59
596.029	16852.88
596.387	17179.42
596.746	17477.94
597.104	17637.26
597.463	17849.91
597.822	18250.81
598.18	18388.65
598.538	18554.98
598.897	19099.14
599.255	19208.07
599.613	19686.7
599.972	19825.91
600.33	20091.89
600.688	20288.49
601.046	20659.56
601.404	21061.58
601.762	21181.8
602.12	21626.99
602.478	21811.39
602.836	21980.2
603.194	22149.23
603.552	22484.59
603.91	22646.17
604.268	22898.14
604.625	23154.18
604.983	23536.32
605.341	23571.12
605.698	23988.51
606.056	24262.17
606.413	24444.09
606.771	24750.97
607.128	24975.15
607.485	24997.75
607.843	25227.8
608.2	25697.16
608.557	25812.41
608.914	25915.91
609.272	26253.53
609.629	26521.55
609.986	26882.67
610.343	26810.13
610.7	27167.86
611.057	27278.59
611.414	27556.1
611.771	27777.56
612.127	27947.73
612.484	28083.99
612.841	28322.18
613.198	28352.23
613.554	28587.71
613.911	28818.66
614.267	28898.89
614.624	29136.85
614.98	29392.43
615.337	29704.97
615.693	29719.88
616.05	29697.06
616.406	30087.56
616.762	30116.93
617.118	30254.56
617.475	30397.83
617.831	30467.89
618.187	30730.25
618.543	30888.21
618.899	31093.41
619.255	31130.24
619.611	31246.17
619.967	31503.11
620.323	31687.74
620.678	31516.9
621.034	31622.66
621.39	31824.46
621.746	31791.92
622.101	32191
622.457	32080.95
622.812	32233.94
623.168	32473.93
623.523	32506.25
623.879	32647.26
624.234	32541.28
624.589	32686.36
624.945	32815.62
625.3	32865.79
625.655	33025.78
626.01	33059.23
626.365	33080.25
626.72	33216.74
627.075	33098.32
627.43	33213.58
627.785	33187.59
628.14	33422.16
628.495	33342.39
628.85	33432.1
629.205	33443.85
629.559	33720
629.914	33545.54
630.269	33685.2
630.623	33601.81
630.978	33602.72
631.332	33908.25
631.687	33858.76
632.041	33845.88
632.396	33870.51
632.75	33764.75
633.104	33832.32
633.459	33691.76
633.813	33674.58
634.167	33854.69
634.521	33832.09
634.875	33926.55
635.229	33898.3
635.583	33879.55
635.937	33914.8
636.291	33723.39
636.645	33965.19
636.999	33865.76
637.352	33959.09
637.706	33790.74
638.06	33997.28
638.413	33897.63
638.767	33820.34
639.121	34010.17
639.474	33724.97
639.828	33789.83
640.181	33906.21
640.534	33889.26
640.888	33941.69
641.241	33709.16
641.594	33843.84
641.947	33918.87
642.301	33870.06
642.654	33942.82
643.007	33860.56
643.36	33894.24
643.713	33838.64
644.066	33855.37
644.419	33801.36
644.771	33548.71
645.124	33226
645.477	33346
645.83	32954.6
646.182	32915.73
646.535	32920.93
646.888	32994.15
647.24	32684.78
647.593	32944.88
647.945	32866.01
648.298	32768.16
648.65	32599.35
649.002	32564.1
649.355	32719.8
649.707	32726.58
650.059	32837.54
650.411	33251.54
650.763	33351.88
651.115	33710.51
651.467	33550.52
651.819	33520.69
652.171	33386
652.523	33494.47
652.875	33469.61
653.227	33210.64
653.578	33547.8
653.93	33516.17
654.282	33349.39
654.633	33287.47
654.985	33165.67
655.337	33378.54
655.688	33381.03
656.039	33534.7
656.391	33037.08
656.742	33336.96
657.094	33273.69
657.445	33216.06
657.796	33290.41
658.147	33153.24
658.498	33070.98
658.849	33183.97
659.2	33291.54
659.551	33157.76
659.902	33411.99
660.253	33165.67
660.604	33231.65
660.955	33168.38
661.306	33260.13
661.656	33096.06
662.007	33101.04
662.358	33135.84
662.708	33278.43
663.059	33175.84
663.409	32950.98
663.76	33066.91
664.11	33179.9
664.461	33113.01
664.811	33339.9
665.161	33167.48
665.511	33214.93
665.862	33179.45
666.212	33273.69
666.562	33108.95
666.912	33246.57
667.262	33134.48
667.612	33094.93
667.962	33157.31
668.312	33050.64
668.662	33216.29
669.011	33117.31
669.361	33135.84
669.711	32970.42
670.06	32921.15
670.41	33014.03
670.76	32983.75
671.109	32997.08
671.459	32975.84
671.808	32895.84
672.157	32978.78
672.507	32808.16
672.856	32801.61
673.205	32878.44
673.554	33003.41
673.904	32826.24
674.253	33051.55
674.602	32967.93
674.951	32455.18
675.3	32292.47
675.649	32757.77
675.998	32710.31
676.346	32809.29
676.695	32954.83
677.044	32561.62
677.393	32671.22
677.741	32765.68
678.09	32710.31
678.438	32574.27
678.787	32604.33
679.135	32673.7
679.484	32495.18
679.832	32649.3
680.181	32348.97
680.529	32544.89
680.877	32399.59
681.225	32345.8
681.573	32571.11
681.922	32285.24
682.27	32200.95
682.618	32386.93
682.966	32258.35
683.314	32387.38
683.661	32050.89
684.009	32014.29
684.357	31975.19
684.705	31886.15
685.053	31879.6
685.4	31951.01
685.748	31777.68
686.095	31814.97
686.443	31538.59
686.79	31652.94
687.138	31612.26
687.485	31595.31
687.832	31642.32
688.18	31588.76
688.527	31391.93
688.874	31372.27
689.221	31192.84
689.568	31354.64
689.915	31108.09
690.262	31183.57
690.609	31070.58
690.956	30996.01
691.303	30887.08
691.65	30733.19
691.997	30856.58
692.344	30645.28
692.69	30546.08
693.037	30584.27
693.383	30433.99
693.73	30482.35
694.077	30213.65
694.423	30380.66
694.769	30227.67
695.116	30194.67
695.462	30152.19
695.808	29974.79
696.155	30001.46
696.501	29758.98
696.847	29878.07
697.193	29611.18
697.539	29660.45
697.885	29522.6
698.231	29437.63
698.577	29452.32
698.923	29402.15
699.269	29234.7
699.614	29123.51
699.96	28997.19
700.306	29134.59
700.651	28935.04
700.997	28946.34
701.342	28849.85
701.688	28828.15
702.033	28608.05
702.379	28604.66
702.724	28597.2
703.069	28604.66
703.415	28343.87
703.76	28343.87
704.105	28357.21
704.45	28311.56
704.795	28093.03
705.14	28108.63
705.485	28017.55
705.83	27951.34
706.175	27970.1
706.52	27982.3
706.865	27806.71
707.209	27930.78
707.554	27726.71
707.899	27779.82
708.243	27557.68
708.588	27521.75
708.932	27421.19
709.277	27417.34
709.621	27308.87
709.966	27166.96
710.31	27215.99
710.654	27059.39
710.998	27014.42
711.342	27077.01
711.687	26938.26
712.031	26821.65
712.375	26721.09
712.719	26724.71
713.063	26705.5
713.407	26857.36
713.75	26660.3
714.094	26657.82
714.438	26430.03
714.782	26530.36
715.125	26518.84
715.469	26398.16
715.812	26224.16
716.156	26077.72
716.499	26173.99
716.843	26216.02
717.186	25977.16
717.53	26032.07
717.873	26105.29
718.216	26109.13
718.559	25894.67
718.902	25672.76
719.246	25899.87
719.589	25732.42
719.932	25680.44
720.275	25658.75
720.617	25692.42
720.96	25593.21
721.303	25547.11
721.646	25552.53
721.989	25413.78
722.331	25532.65
722.674	25422.82
723.016	25345.99
723.359	25305.76
723.701	25330.39
724.044	25262.15
724.386	25070.51
724.729	25163.84
725.071	25151.41
725.413	25183.96
725.755	25161.36
726.097	24986.45
726.439	24907.35
726.782	24847.69
727.124	25024.86
727.465	24829.16
727.807	24815.38
728.149	24847.47
728.491	24810.18
728.833	24884.3
729.175	24643.18
729.516	24622.62
729.858	24580.58
730.199	24585.55
730.541	24553.01
730.882	24674.59
731.224	24531.09
731.565	24444.31
731.906	24348.5
732.248	24422.17
732.589	24362.74
732.93	24165.68
733.271	24201.16
733.612	24271.89
733.953	24276.41
734.294	24221.72
734.635	24125
734.976	24204.55
735.317	24027.6
735.658	23934.05
735.999	24026.47
736.339	23892.46
736.68	23968.62
737.021	23879.58
737.361	23704.22
737.702	23802.52
738.042	23776.54
738.383	23668.52
738.723	23832.35
739.063	23632.13
739.404	23710.77
739.744	23752.13
740.084	23515.07
740.424	23678.23
740.764	23503.55
741.104	23592.59
741.444	23412.25
741.784	23351.91
742.124	23394.62
742.464	23428.97
742.804	23318.47
743.143	23270.11
743.483	23356.66
743.823	23125.71
744.162	23211.8
744.502	23170.9
744.841	23001.19
745.181	23200.51
745.52	23098.59
745.86	23008.65
746.199	23035.76
746.538	22980.85
746.877	23044.13
747.216	22907.63
747.556	22909.67
747.895	22923.68
748.234	22788.99
748.573	22748.09
748.911	22815.88
749.25	22756.22
749.589	22597.81
749.928	22716.68
750.267	22656.57
750.605	22554.2
750.944	22643.91
751.283	22478.26
751.621	22567.98
751.96	22361.88
752.298	22401.88
752.636	22475.78
752.975	22262.45
753.313	22210.7
753.651	22326.86
753.989	22205.28
754.327	22082.8
754.666	22054.77
755.004	22123.47
755.342	22031.72
755.679	21991.5
756.017	21992.4
756.355	21950.82
756.693	21949.92
757.031	21850.48
757.368	21749.24
757.706	21726.19
758.044	21661.56
758.381	21648.23
758.719	21499.31
759.056	21480.33
759.394	21441.23
759.731	21325.07
760.068	21296.6
760.405	21194
760.743	21132.09
761.08	21159.43
761.417	21106.55
761.754	21118.07
762.091	21015.93
762.428	20885.76
762.765	20833.79
763.102	20763.73
763.438	20763.28
763.775	20562.61
764.112	20675.15
764.449	20693.23
764.785	20553.57
765.122	20475.83
765.458	20314.93
765.795	20343.18
766.131	20316.29
766.467	20166.24
766.804	20160.81
767.14	20114.49
767.476	20102.28
767.812	20016.63
768.148	19990.87
768.485	19841.5
768.821	19776.87
769.157	19788.84
769.492	19646.7
769.828	19608.28
770.164	19459.36
770.5	19427.72
770.836	19425.01
771.171	19318.35
771.507	19272.25
771.842	19210.33
772.178	19062.08
772.513	19107.28
772.849	18940.05
773.184	18991.35
773.519	18936.89
773.855	18818.93
774.19	18751.36
774.525	18742.32
774.86	18726.5
775.195	18665.26
775.53	18533.96
775.865	18554.98
776.2	18319.73
776.535	18219.17
776.87	18243.12
777.205	18162.22
777.539	17957.03
777.874	18058.49
778.209	17852.85
778.543	17875.22
778.878	17852.17
779.212	17763.59
779.547	17675.91
779.881	17737.82
780.215	17590.03
780.55	17652.63
780.884	17486.08
781.218	17421.9
781.552	17599.98
781.886	17331.73
782.22	17172.19
782.554	17213.32
782.888	16973.55
783.222	17061.91
783.556	16951.63
783.889	16958.41
784.223	16810.84
784.557	16700.79
784.89	16759.77
785.224	16663.28
785.557	16581.92
785.891	16480.91
786.224	16458.99
786.558	16537.18
786.891	16269.39
787.224	16265.77
787.557	16141.48
787.891	16139
788.224	16117.08
788.557	16076.85
788.89	16136.74
789.223	16114.14
789.556	15883.18
789.888	15815.84
790.221	15889.06
790.554	15681.83
790.887	15704.88
791.219	15656.3
791.552	15596.64
791.884	15451.33
792.217	15532.91
792.549	15423.54
792.882	15331.56
793.214	15294.05
793.546	15243.88
793.879	15183.77
794.211	15099.25
794.543	15170.43
794.875	15088.18
795.207	15132.02
795.539	14987.16
795.871	14984
796.203	14792.37
796.535	14755.98
796.867	14805.25
797.198	14657.23
797.53	14718.69
797.862	14592.37
798.193	14554.86
798.525	14501.75
798.856	14580.62
799.188	14375.65
799.519	14331.81
799.85	14284.36
800.182	14356.22
800.513	14230.8
800.844	14050.92
801.175	14207.97
801.506	14226.05
801.837	14065.83
802.168	14100.63
802.499	14061.31
802.83	13938.38
803.161	13923.01
803.491	13925.72
803.822	13856.57
804.153	13791.04
804.483	13757.36
804.814	13661.77
805.145	13671.04
805.475	13684.82
805.805	13556.24
806.136	13539.06
806.466	13563.25
806.796	13558.5
807.126	13381.55
807.457	13440.54
807.787	13345.85
808.117	13337.71
808.447	13262.46
808.777	13292.07
809.107	13235.34
809.436	13234.21
809.766	13242.35
810.096	13074.44
810.426	13077.61
810.755	13177.04
811.085	12993.99
811.414	13049.59
811.744	12848.69
812.073	12859.76
812.403	12900.66
812.732	12757.39
813.061	12822.02
813.39	12692.08
813.719	12714.23
814.049	12783.83
814.378	12718.97
814.707	12650.27
815.036	12597.39
815.365	12554.23
815.693	12463.84
816.022	12480.56
816.351	12469.04
816.68	12318.08
817.008	12442.6
817.337	12217.07
817.665	12270.62
817.994	12328.48
818.322	12256.39
818.651	12159.21
818.979	12106.56
819.307	12130.74
819.636	12157.18
819.964	12061.59
820.292	12096.62
820.62	12149.5
820.948	12047.8
821.276	12054.58
821.604	12046.9
821.932	12073.11
822.259	12079.44
822.587	11916.28
822.915	12002.61
823.243	12075.83
823.57	11942.5
823.898	11979.56
824.225	11958.99
824.553	11991.31
824.88	11921.03
825.207	12038.31
825.535	12010.07
825.862	12048.71
826.189	11893.91
826.516	12025.43
826.843	11998.99
827.17	12006.68
827.497	12056.84
827.824	11967.58
828.151	11988.15
828.478	11974.81
828.805	12134.81
829.131	11976.62
829.458	11977.07
829.785	11940.46
830.111	11972.1
830.438	12004.19
830.764	11960.35
831.09	11953.12
831.417	11878.32
831.743	11930.52
832.069	11914.93
832.395	11836.74
832.722	11877.41
833.048	11940.24
833.374	11871.09
833.7	11889.39
834.026	11866.34
834.351	11863.85
834.677	11766.23
835.003	11851.2
835.329	11815.72
835.654	11841.71
835.98	11744.76
836.306	11763.97
836.631	11686.91
836.956	11824.76
837.282	11750.19
837.607	11666.57
837.932	11643.07
838.258	11582.05
838.583	11643.3
838.908	11597.87
839.233	11609.4
839.558	11509.74
839.883	11514.49
840.208	11450.08
840.533	11545.45
840.858	11488.72
841.182	11476.52
841.507	11451.44
841.832	11383.87
842.156	11398.78
842.481	11416.41
842.805	11342.51
843.13	11295.73
843.454	11307.03
843.778	11232.91
844.103	11276.98
844.427	11254.61
844.751	11228.62
845.075	11181.61
845.399	11135.51
845.723	11081.05
846.047	11098.45
846.371	11006.48
846.695	10993.82
847.019	10917.44
847.343	10928.29
847.666	10815.52
847.99	10682.64
848.313	10833.37
848.637	10738.23
848.96	10665.92
849.284	10620.72
849.607	10562.19
849.931	10554.06
850.254	10477.45
850.577	10415.98
850.9	10356.55
851.223	10290.11
851.546	10286.27
851.869	10202.43
852.192	10166.05
852.515	10118.36
852.838	10158.14
853.161	10196.33
853.483	10082.21
853.806	10053.05
854.129	9986.39
854.451	9976.67
854.774	9910.91
855.096	9917.69
855.419	9943.68
855.741	9795.89
856.063	9779.62
856.385	9765.38
856.708	9773.51
857.03	9745.04
857.352	9718.15
857.674	9648.32
857.996	9676.12
858.318	9604.48
858.64	9629.56
858.961	9534.65
859.283	9521.77
859.605	9500.98
859.926	9528.77
860.248	9514.76
860.57	9412.62
860.891	9457.59
861.212	9359.06
861.534	9352.28
861.855	9318.84
862.176	9308.67
862.498	9342.57
862.819	9345.95
863.14	9298.5
863.461	9258.73
863.782	9172.85
864.103	9265.5
864.424	9237.94
864.745	9232.29
865.065	9173.76
865.386	9142.12
865.707	9179.63
866.027	9096.7
866.348	9075
866.668	9080.65
866.989	9072.74
867.309	9017.83
867.63	9031.39
867.95	9029.13
868.27	8951.84
868.59	8977.15
868.91	8870.26
869.23	8915.23
869.55	8913.42
869.87	9001.78
870.19	8904.38
870.51	8897.15
870.83	8888.34
871.15	8888.79
871.469	8849.02
871.789	8863.26
872.109	8879.75
872.428	8667.33
872.748	8821.67
873.067	8822.13
873.386	8888.57
873.706	8815.57
874.025	8711.62
874.344	8751.62
874.663	8635.69
874.982	8701.9
875.301	8754.11
875.62	8676.37
875.939	8603.38
876.258	8666.42
876.577	8592.75
876.896	8632.08
877.214	8560.21
877.533	8569.25
877.852	8534.9
878.17	8525.64
878.489	8597.05
878.807	8567.22
879.125	8477.96
879.444	8538.07
879.762	8479.76
880.08	8536.03
880.398	8439.76
880.716	8444.28
881.034	8408.13
881.352	8372.65
881.67	8359.54
881.988	8351.18
882.306	8424.4
882.624	8343.27
882.941	8326.55
883.259	8260.56
883.577	8303.95
883.894	8278.41
884.212	8300.33
884.529	8242.93
884.846	8223.5
885.164	8151.86
885.481	8162.26
885.798	8191.63
886.115	8210.17
886.432	8087.23
886.75	8047.91
887.067	8067.8
887.383	8013.56
887.7	8037.06
888.017	8013.33
888.334	7996.39
888.651	7983.28
888.967	7946.44
889.284	7899.21
889.6	7955.03
889.917	7877.97
890.233	7908.7
890.55	7853.79
890.866	7821.48
891.182	7757.52
891.498	7755.26
891.815	7735.15
892.131	7739.67
892.447	7670.07
892.763	7694.47
893.079	7632.33
893.395	7538.77
893.71	7633.68
894.026	7598.88
894.342	7567.24
894.657	7579.9
894.973	7484.31
895.289	7512.1
895.604	7474.14
895.92	7482.73
896.235	7379.23
896.55	7393.46
896.865	7376.74
897.181	7343.07
897.496	7373.35
897.811	7272.11
898.126	7252.9
898.441	7267.59
898.756	7193.02
899.071	7145.33
899.386	7193.7
899.7	7119.35
900.015	7043.64
900.33	7018.33
900.644	7024.66
900.959	7028.95
901.273	6998.22
901.588	6965.68
901.902	6946.47
902.216	6939.92
902.531	6925
902.845	6890.88
903.159	6846.36
903.473	6816.76
903.787	6813.14
904.101	6736.53
904.415	6794.61
904.729	6748.06
905.042	6653.6
905.356	6705.8
905.67	6675.52
905.984	6700.83
906.297	6658.57
906.611	6643.88
906.924	6603.2
907.237	6538.57
907.551	6523.88
907.864	6505.8
908.177	6505.8
908.491	6481.85
908.804	6432.59
909.117	6365.02
909.43	6355.07
909.743	6383.55
910.056	6328.41
910.368	6354.85
910.681	6276.43
910.994	6276.43
911.307	6238.47
911.619	6197.34
911.932	6188.07
912.244	6131.58
912.557	6157.34
912.869	6119.82
913.181	6064.69
913.494	6083.89
913.806	6034.18
914.118	6026.27
914.43	5950.79
914.742	5936.33
915.054	5941.75
915.366	5920.28
915.678	5898.14
915.99	5852.71
916.302	5830.57
916.613	5793.96
916.925	5777.46
917.236	5794.41
917.548	5741.3
917.859	5720.06
918.171	5708.99
918.482	5660.85
918.794	5659.72
919.105	5628.99
919.416	5601.42
919.727	5502.67
920.038	5567.75
920.349	5532.72
920.66	5505.6
920.971	5462.89
921.282	5521.87
921.593	5403.01
921.903	5425.38
922.214	5370.01
922.525	5390.8
922.835	5367.53
923.146	5294.08
923.456	5316.23
923.767	5323.91
924.077	5283.01
924.387	5204.59
924.697	5207.98
925.008	5258.6
925.318	5160.53
925.628	5173.86
925.938	5171.83
926.248	5115.11
926.558	5110.59
926.867	5073.07
927.177	5087.76
927.487	5034.66
927.796	4951.27
928.106	4976.13
928.416	4952.62
928.725	4966.18
929.034	4944.04
929.344	4932.74
929.653	4907.88
929.962	4892.51
930.271	4879.86
930.581	4785.17
930.89	4809.58
931.199	4786.75
931.508	4783.81
931.817	4736.13
932.125	4723.25
932.434	4697.94
932.743	4695
933.051	4638.73
933.36	4648.9
933.669	4600.32
933.977	4591.28
934.286	4553.09
934.594	4565.06
934.902	4541.79
935.21	4512.64
935.519	4545.4
935.827	4496.14
936.135	4465.86
936.443	4461.79
936.751	4431.06
937.059	4414.33
937.367	4448.46
937.674	4395.58
937.982	4368.68
938.29	4372.75
938.597	4371.62
938.905	4297.5
939.213	4287.33
939.52	4258.86
939.827	4257.5
940.135	4222.02
940.442	4205.75
940.749	4203.27
941.056	4196.94
941.363	4176.6
941.67	4165.07
941.977	4128.01
942.284	4136.15
942.591	4049.6
942.898	4085.08
943.205	4052.76
943.511	4099.77
943.818	4053.21
944.125	3987.45
944.431	3973.89
944.738	3986.32
945.044	3982.93
945.35	3965.98
945.657	3954.91
945.963	3910.84
946.269	3874.01
946.575	3886.66
946.881	3859.55
947.187	3889.38
947.493	3810.06
947.799	3850.05
948.105	3840.11
948.41	3805.31
948.716	3754.24
949.022	3730.28
949.327	3721.24
949.633	3716.05
949.938	3712.2
950.244	3673.11
950.549	3681.02
950.854	3623.17
951.16	3625.43
951.465	3651.87
951.77	3597.63
952.075	3589.27
952.38	3559.44
952.685	3563.51
952.99	3540.01
953.294	3562.38
953.599	3527.35
953.904	3530.29
954.209	3478.99
954.513	3488.71
954.818	3471.53
955.122	3442.38
955.426	3416.39
955.731	3410.07
956.035	3402.83
956.339	3364.19
956.643	3375.26
956.948	3324.87
957.252	3364.19
957.556	3345.43
957.86	3310.86
958.163	3278.32
958.467	3261.6
958.771	3304.76
959.075	3254.36
959.378	3203.29
959.682	3224.76
959.985	3238.54
960.289	3208.94
960.592	3212.33
960.896	3188.83
961.199	3140.47
961.502	3099.57
961.805	3124.42
962.108	3124.42
962.411	3108.6
962.714	3095.72
963.017	3097.08
963.32	3085.55
963.623	3048.27
963.926	3025.44
964.228	3034.48
964.531	2988.83
964.833	3045.78
965.136	2994.48
965.438	2955.61
965.741	2948.61
966.043	2914.71
966.345	2899.8
966.648	2893.47
966.95	2890.53
967.252	2911.32
967.554	2869.51
967.856	2886.01
968.158	2843.07
968.46	2841.27
968.761	2849.4
969.063	2830.19
969.365	2841.72
969.666	2795.62
969.968	2809.86
970.269	2776.86
970.571	2751.78
970.872	2727.6
971.174	2753.59
971.475	2699.58
971.776	2740.03
972.077	2685.79
972.378	2691.44
972.679	2690.31
972.98	2675.85
973.281	2668.84
973.582	2651.44
973.883	2648.73
974.183	2648.96
974.484	2621.39
974.785	2628.62
975.085	2574.16
975.386	2618.67
975.686	2601.27
975.986	2548.62
976.287	2549.52
976.587	2564.44
976.887	2520.37
977.187	2532.35
977.487	2511.11
977.787	2511.78
978.087	2453.03
978.387	2460.71
978.687	2460.49
978.987	2487.15
979.286	2425.23
979.586	2462.75
979.885	2437.89
980.185	2401.28
980.484	2398.11
980.784	2411.22
981.083	2357.21
981.382	2377.1
981.682	2373.48
981.981	2361.96
982.28	2323.31
982.579	2325.57
982.878	2337.55
983.177	2284.45
983.475	2296.2
983.774	2297.78
984.073	2294.16
984.372	2286.48
984.67	2251
984.969	2245.58
985.267	2250.1
985.566	2227.05
985.864	2201.28
986.162	2221.85
986.461	2213.26
986.759	2215.52
987.057	2184.79
987.355	2166.26
987.653	2156.54
987.951	2128.07
988.249	2158.35
988.547	2164.22
988.844	2140.49
989.142	2144.56
989.44	2129.65
989.737	2078.58
990.035	2058.69
990.332	2103.89
990.63	2088.74
990.927	2045.81
991.224	2068.86
991.521	2024.11
991.819	2029.54
992.116	2046.49
992.413	2002.65
992.71	2026.83
993.006	2000.61
993.303	1999.26
993.6	1990.44
993.897	1977.79
994.193	2002.42
994.49	1940.95
994.787	1939.6
995.083	1955.19
995.379	1932.36
995.676	1930.56
995.972	1914.74
996.268	1895.98
996.565	1910.44
996.861	1891.91
997.157	1851.91
997.453	1860.95
997.749	1837.9
998.044	1833.61
998.34	1830.45
998.636	1815.31
998.932	1824.34
999.227	1806.04
999.523	1824.34
999.818	1816.21
1000.114	1794.51
1000.409	1776.89
1000.704	1773.5
1001	1788.64
1001.295	1734.86
1001.59	1758.81
1001.885	1705.25
1002.18	1704.35
1002.475	1719.94
1002.77	1679.72
1003.065	1691.47
1003.359	1676.1
1003.654	1671.13
1003.949	1677
1004.243	1665.25
1004.538	1668.87
1004.832	1681.52
1005.127	1637.46
1005.421	1628.64
1005.715	1634.75
1006.009	1625.25
1006.304	1595.88
1006.598	1623.67
1006.892	1587.29
1007.186	1572.15
1007.48	1587.29
1007.773	1559.72
1008.067	1552.71
1008.361	1557.23
1008.655	1500.74
1008.948	1542.54
1009.242	1538.7
1009.535	1523.34
1009.829	1500.96
1010.122	1511.36
1010.415	1496.44
1010.708	1473.85
1011.001	1463.45
1011.295	1458.48
1011.588	1453.28
1011.881	1432.72
1012.173	1431.13
1012.466	1442.21
1012.759	1420.74
1013.052	1413.06
1013.344	1404.24
1013.637	1392.72
1013.93	1389.1
1014.222	1396.56
1014.514	1368.09
1014.807	1387.75
1015.099	1375.09
1015.391	1392.27
1015.683	1332.83
1015.976	1336.45
1016.268	1324.7
1016.56	1324.47
1016.851	1314.08
1017.143	1300.74
1017.435	1321.99
1017.727	1297.13
1018.018	1281.99
1018.31	1286.28
1018.602	1278.37
1018.893	1262.55
1019.185	1271.59
1019.476	1257.35
1019.767	1222.55
1020.058	1243.79
1020.35	1263.68
1020.641	1196.79
1020.932	1212.84
1021.223	1175.55
1021.514	1219.61
1021.804	1190.69
1022.095	1166.73
1022.386	1166.28
1022.677	1180.29
1022.967	1192.5
1023.258	1169.45
1023.548	1145.72
1023.839	1134.19
1024.129	1137.36
1024.419	1134.19
1024.709	1098.71
1025	1104.82
1025.29	1085.16
1025.58	1109.34
1025.87	1082.22
1026.16	1083.57
1026.449	1103.01
1026.739	1072.95
1027.029	1089.22
1027.319	1053.74
1027.608	1047.19
1027.898	1050.58
1028.187	1064.36
1028.477	1031.6
1028.766	1043.57
1029.055	1048.55
1029.344	1029.11
1029.634	1015.1
1029.923	997.7
1030.212	1006.97
1030.501	1015.1
1030.79	984.14
1031.078	968.32
1031.367	970.81
1031.656	952.5
1031.945	953.41
1032.233	957.25
1032.522	946.18
1032.81	948.21
1033.099	972.84
1033.387	938.94
1033.675	912.05
1033.963	917.93
1034.251	933.52
1034.54	920.41
1034.828	917.7
1035.116	891.04
1035.403	899.85
1035.691	886.97
1035.979	887.65
1036.267	879.28
1036.554	858.27
1036.842	868.21
1037.129	884.93
1037.417	878.38
1037.704	870.02
1037.992	848.33
1038.279	837.03
1038.566	828.44
1038.853	828.44
1039.14	828.44
