Data from hue_40_FLMS001491_97.txt Node
Date: Mon Feb 06 15:08:51 GMT 2017
User: dcchb
Spectrometer: FLMS00149
Trigger mode: 0
Integration Time (sec): 2.000000E-2
Scans to average: 10
Electric dark correction enabled: true
Nonlinearity correction enabled: false
Boxcar width: 0
XAxis mode: Wavelengths
Number of Pixels in Spectrum: 2048
>>>>>Begin Spectral Data<<<<<
341.393	-6.55
341.776	-6.55
342.16	-6.55
342.543	-67.12
342.927	-89.94
343.31	-70.05
343.693	-59.66
344.077	-69.6
344.46	-58.76
344.843	-75.03
345.226	-31.86
345.61	-26.67
345.993	-15.82
346.376	-3.62
346.759	-2.03
347.142	18.53
347.525	50.39
347.908	61.92
348.291	83.16
348.674	100.56
349.057	98.53
349.44	137.85
349.823	137.85
350.206	166.32
350.588	184.18
350.971	197.96
351.354	223.5
351.737	230.05
352.119	268.69
352.502	245.42
352.884	287.45
353.267	272.08
353.65	290.39
354.032	302.36
354.414	294.68
354.797	324.74
355.179	322.03
355.562	328.13
355.944	338.3
356.326	332.87
356.709	339.43
357.091	345.3
357.473	349.82
357.855	343.49
358.238	335.58
358.62	320.9
359.002	342.36
359.384	357.96
359.766	337.84
360.148	348.69
360.53	359.54
360.912	349.14
361.294	327.68
361.676	344.62
362.057	338.75
362.439	348.47
362.821	317.73
363.203	329.03
363.584	321.12
363.966	344.85
364.348	340.33
364.729	307.34
365.111	318.18
365.493	311.18
365.874	307.56
366.256	346.21
366.637	334.23
367.019	305.08
367.4	319.31
367.781	311.18
368.163	303.95
368.544	329.03
368.925	298.07
369.306	336.26
369.688	332.87
370.069	311.86
370.45	297.85
370.831	330.39
371.212	325.19
371.593	307.11
371.974	326.09
372.355	318.18
372.736	346.21
373.117	332.42
373.498	316.83
373.879	321.12
374.26	319.31
374.641	312.31
375.021	328.13
375.402	318.41
375.783	336.94
376.163	316.38
376.544	328.35
376.925	329.26
377.305	336.71
377.686	330.61
378.066	318.41
378.447	317.51
378.827	334.45
379.208	328.8
379.588	339.2
379.968	352.31
380.349	327.45
380.729	329.71
381.109	364.06
381.489	358.41
381.87	348.47
382.25	332.42
382.63	363.38
383.01	341.23
383.39	345.53
383.77	335.81
384.15	349.6
384.53	341.69
384.91	337.17
385.29	333.55
385.67	359.76
386.049	348.01
386.429	370.61
386.809	358.63
387.189	361.35
387.568	352.99
387.948	354.79
388.328	367.67
388.707	348.92
389.087	371.97
389.466	370.16
389.846	365.41
390.225	365.41
390.605	370.61
390.984	384.62
391.363	372.87
391.743	380.1
392.122	384.17
392.501	367.67
392.881	383.49
393.26	381.91
393.639	384.85
394.018	379.65
394.397	399.99
394.776	377.39
395.155	381.23
395.534	380.33
395.913	395.47
396.292	420.55
396.671	410.38
397.05	412.64
397.429	402.25
397.808	403.38
398.186	392.53
398.565	416.94
398.944	409.93
399.323	413.77
399.701	402.02
400.08	394.57
400.458	418.52
400.837	410.16
401.215	424.17
401.594	409.48
401.972	415.81
402.351	420.1
402.729	421.23
403.107	424.17
403.486	425.98
403.864	416.49
404.242	436.6
404.62	418.07
404.999	451.29
405.377	432.08
405.755	420.55
406.133	433.21
406.511	418.29
406.889	447.67
407.267	433.21
407.645	433.89
408.023	451.97
408.401	438.86
408.779	445.86
409.156	461
409.534	444.96
409.912	462.81
410.29	456.71
410.667	474.56
411.045	479.54
411.422	497.39
411.8	456.03
412.178	468.91
412.555	494.68
412.933	488.8
413.31	503.04
413.687	481.34
414.065	503.72
414.442	512.08
414.819	519.08
415.197	528.8
415.574	502.13
415.951	522.25
416.328	529.03
416.705	534.9
417.082	516.37
417.46	555.01
417.837	523.15
418.214	507.78
418.591	518.18
418.967	535.35
419.344	550.04
419.721	554.56
420.098	543.26
420.475	548.91
420.852	539.65
421.228	554.34
421.605	562.92
421.982	567.44
422.358	561.79
422.735	571.28
423.111	581.91
423.488	604.05
423.864	592.07
424.241	570.38
424.617	570.61
424.994	583.71
425.37	593.43
425.746	599.08
426.123	593.43
426.499	614.22
426.875	602.7
427.251	623.71
427.627	608.57
428.003	623.03
428.379	632.98
428.756	636.59
429.132	652.19
429.507	640.66
429.883	627.78
430.259	669.59
430.635	632.07
431.011	659.64
431.387	684.73
431.763	682.69
432.138	682.92
432.514	683.6
432.89	686.54
433.265	733.31
433.641	698.74
434.016	738.51
434.392	715.24
434.767	736.25
435.143	753.88
435.518	739.42
435.894	757.72
436.269	765.18
436.644	766.31
437.02	765.63
437.395	754.1
437.77	800.88
438.145	759.08
438.52	792.07
438.895	796.36
439.271	801.11
439.646	804.27
440.021	820.77
440.395	812.41
440.77	802.46
441.145	806.98
441.52	833.65
441.895	816.93
442.27	825.74
442.645	849.24
443.019	863.25
443.394	854.67
443.769	837.27
444.143	854.89
444.518	860.99
444.892	876.59
445.267	860.77
445.641	871.16
446.016	860.77
446.39	853.99
446.764	886.3
447.139	881.33
447.513	899.41
447.887	897.15
448.262	922.91
448.636	912.52
449.01	895.8
449.384	926.76
449.758	908.9
450.132	970.37
450.506	962.46
450.88	963.82
451.254	949.81
451.628	983.93
452.002	983.25
452.376	983.25
452.75	1016.92
453.123	981.22
453.497	1032.74
453.871	1039.75
454.244	1024.61
454.618	1016.47
454.992	1056.47
455.365	1039.75
455.739	1087.66
456.112	1084.27
456.486	1092.4
456.859	1093.3
457.232	1129.46
457.606	1106.64
457.979	1119.52
458.352	1150.7
458.725	1141.66
459.099	1164.94
459.472	1181.66
459.845	1173.53
460.218	1212.17
460.591	1216.24
460.964	1237.48
461.337	1249.91
461.71	1259.85
462.083	1287.88
462.456	1275.9
462.829	1284.49
463.201	1331.49
463.574	1310.02
463.947	1332.17
464.32	1377.36
464.692	1391.38
465.065	1394.54
465.438	1392.05
465.81	1405.84
466.183	1437.25
466.555	1440.41
466.928	1495.78
467.3	1491.71
467.672	1534.2
468.045	1531.94
468.417	1553.63
468.789	1560.86
469.161	1599.28
469.534	1626.4
469.906	1628.21
470.278	1667.07
470.65	1708.66
471.022	1750.69
471.394	1767.86
471.766	1762.89
472.138	1804.47
472.51	1860.06
472.882	1886.96
473.253	1937.12
473.625	1949.1
473.997	1995.43
474.369	2004.69
474.74	2027.52
475.112	2090.79
475.484	2138.47
475.855	2175.08
476.227	2220.05
476.598	2253.05
476.97	2301.41
477.341	2371.92
477.713	2417.56
478.084	2428.86
478.455	2531.01
478.827	2627.28
479.198	2676.99
479.569	2677.9
479.94	2754.73
480.311	2846.48
480.682	2945.91
481.053	2986.81
481.424	3095.74
481.795	3163.31
482.166	3216.19
482.537	3269.74
482.908	3368.27
483.279	3457.08
483.65	3484.65
484.021	3634.48
484.391	3709.28
484.762	3781.82
485.133	3900.24
485.503	3956.05
485.874	4046
486.244	4135.48
486.615	4226.33
486.985	4327.12
487.356	4469.94
487.726	4537.28
488.097	4662.48
488.467	4736.6
488.837	4830.61
489.207	4937.95
489.578	5045.97
489.948	5189.02
490.318	5270.14
490.688	5326.41
491.058	5481.21
491.428	5602.11
491.798	5724.37
492.168	5863.8
492.538	5937.92
492.908	6052.95
493.278	6138.14
493.648	6202.77
494.017	6358.02
494.387	6415.42
494.757	6548.98
495.126	6710.33
495.496	6770.9
495.866	6813.83
496.235	6933.6
496.605	7093.15
496.974	7117.55
497.344	7313.93
497.713	7338.79
498.082	7456.08
498.452	7583.08
498.821	7630.76
499.19	7741.04
499.559	7843.64
499.928	7911.43
500.298	8026.68
500.667	8146.68
501.036	8151.2
501.405	8320.69
501.774	8306.67
502.143	8491.53
502.512	8565.88
502.88	8692.65
503.249	8664.86
503.618	8847.45
503.987	8862.14
504.356	8937.62
504.724	9034.79
505.093	9062.81
505.462	9196.82
505.83	9207.67
506.199	9348.91
506.567	9447.21
506.936	9517.94
507.304	9613.53
507.672	9677.26
508.041	9719.97
508.409	9866.86
508.777	9948.44
509.145	10051.94
509.514	10008.55
509.882	10192.73
510.25	10110.92
510.618	10281.09
510.986	10335.55
511.354	10534.64
511.722	10563.34
512.09	10640.62
512.458	10595.2
512.826	10794.97
513.193	10815.08
513.561	10818.47
513.929	10973.04
514.297	11061.86
514.664	11105.7
515.032	11102.76
515.4	11271.34
515.767	11312.7
516.135	11446.48
516.502	11318.8
516.869	11575.29
517.237	11618.9
517.604	11561.5
517.972	11842.17
518.339	11805.57
518.706	11826.13
519.073	11850.08
519.44	11966.01
519.808	12168.95
520.175	12042.62
520.542	12274.93
520.909	12309.96
521.276	12241.49
521.643	12457.53
522.009	12555.6
522.376	12593.12
522.743	12699.55
523.11	12846.22
523.477	12865.42
523.843	12970.05
524.21	13011.86
524.577	13177.51
524.943	13271.06
525.31	13266.32
525.676	13434.68
526.043	13536.14
526.409	13539.08
526.776	13706.53
527.142	13732.29
527.508	13916.92
527.874	13967.32
528.241	13972.97
528.607	14057.26
528.973	14201.21
529.339	14233.75
529.705	14248.66
530.071	14449.11
530.437	14430.81
530.803	14619.95
531.169	14634.19
531.535	14652.5
531.901	14739.73
532.267	14798.48
532.632	14958.93
532.998	14953.73
533.364	14963.22
533.73	15041.41
534.095	15153.73
534.461	15295.64
534.826	15377.9
535.192	15381.29
535.557	15532.25
535.923	15488.86
536.288	15608.86
536.653	15588.06
537.019	15659.02
537.384	15788.51
537.749	15806.82
538.114	15740.38
538.479	15872.58
538.845	15930.65
539.21	15915.29
539.575	16048.62
539.94	16099.92
540.305	16277.76
540.67	16216.07
541.034	16248.84
541.399	16361.83
541.764	16441.38
542.129	16527.25
542.494	16614.48
542.858	16661.03
543.223	16597.76
543.587	16694.48
543.952	16845.88
544.316	16935.37
544.681	16917.75
545.045	17014.92
545.41	17100.34
545.774	17167.46
546.138	17190.96
546.503	17239.32
546.867	17228.93
547.231	17343.72
547.595	17462.82
547.959	17409.49
548.324	17440.45
548.688	17618.29
549.052	17612.87
549.416	17697.61
549.779	17732.64
550.143	17714.79
550.507	17940.32
550.871	17957.95
551.235	17946.19
551.599	18073.2
551.962	18106.19
552.326	18243.14
552.689	18336.24
553.053	18281.55
553.417	18381.89
553.78	18630.24
554.143	18487.42
554.507	18685.84
554.87	18576.23
555.234	18783.69
555.597	18640.64
555.96	18724.25
556.323	18845.15
556.686	18855.1
557.05	19012.38
557.413	19054.87
557.776	19067.07
558.139	19241.3
558.502	19326.5
558.865	19345.25
559.228	19472.48
559.59	19561.97
559.953	19442.65
560.316	19714.74
560.679	19743.21
561.041	19782.98
561.404	19956.99
561.767	20061.17
562.129	19973.94
562.492	20212.58
562.854	20154.27
563.217	20231.56
563.579	20267.94
563.941	20335.06
564.304	20496.64
564.666	20546.58
565.028	20707.03
565.39	20729.85
565.753	20833.35
566.115	20888.72
566.477	20963.52
566.839	20980.01
567.201	21082.16
567.563	21176.39
567.925	21282.83
568.287	21261.81
568.648	21418.65
569.01	21513.11
569.372	21657.74
569.734	21561.69
570.095	21852.31
570.457	21816.6
570.819	21935.69
571.18	21943.83
571.542	22180.89
571.903	22234.9
572.265	22286.65
572.626	22328.68
572.987	22433.76
573.349	22451.39
573.71	22651.83
574.071	22795.78
574.432	22749.68
574.794	22965.5
575.155	22990.58
575.516	22999.62
575.877	23176.34
576.238	23333.4
576.599	23474.64
576.96	23468.99
577.32	23636.44
577.681	23775.42
578.042	23946.26
578.403	24057.9
578.763	24137.9
579.124	24234.17
579.485	24473.93
579.845	24690.42
580.206	24775.62
580.566	24814.71
580.927	25010.87
581.287	25246.12
581.648	25272.1
582.008	25502.61
582.368	25616.95
582.728	25728.59
583.089	25879.55
583.449	26049.94
583.809	26463.71
584.169	26542.8
584.529	26693.99
584.889	27041.77
585.249	26982.12
585.609	27081.55
585.969	27490.8
586.329	27604.47
586.688	27797.69
587.048	27993.39
587.408	28120.16
587.768	28377.78
588.127	28426.82
588.487	28641.51
588.846	29128.73
589.206	29060.48
589.565	29360.58
589.925	29615.94
590.284	29687.13
590.643	29958.53
591.003	30252.31
591.362	30467
591.721	30642.13
592.08	30949.02
592.44	31103.81
592.799	31357.82
593.158	31466.29
593.517	31723.23
593.876	31995.77
594.235	32050.68
594.593	32371.8
594.952	32528.86
595.311	32630.55
595.67	32863.99
596.029	33289.07
596.387	33489.06
596.746	33635.95
597.104	33597.76
597.463	33883.4
597.822	34206.56
598.18	34161.14
598.538	34364.29
598.897	34686.09
599.255	34564.29
599.613	35156.82
599.972	35251.28
600.33	35392.52
600.688	35420.76
601.046	35771.49
601.404	35968.09
601.762	35952.73
602.12	36409.44
602.478	36390.91
602.836	36580.06
603.194	36499.83
603.552	36891.69
603.91	36858.69
604.268	37252.13
604.625	37171.9
604.983	37448.96
605.341	37437.89
605.698	37687.82
606.056	37904.77
606.413	38006.23
606.771	38175.72
607.128	38295.49
607.485	38238.77
607.843	38457.97
608.2	38735.03
608.557	38844.18
608.914	38918.3
609.272	39188.35
609.629	39503.59
609.986	39596.47
610.343	39325.29
610.7	39755.79
611.057	39845.28
611.414	39890.48
611.771	39927.31
612.127	40252.73
612.484	40167.53
612.841	40399.84
613.198	40439.61
613.554	40309.67
613.911	40715.09
614.267	40810
614.624	40719.16
614.98	40931.13
615.337	41249.76
615.693	41165.25
616.05	41264.23
616.406	41498.34
616.762	41418.8
617.118	41469.64
617.475	41661.28
617.831	41802.52
618.187	41876.41
618.543	41771.56
618.899	42237.31
619.255	42197.53
619.611	42182.62
619.967	42191.66
620.323	42341.94
620.678	42399.56
621.034	42226.01
621.39	42316.85
621.746	42401.37
622.101	42804.52
622.457	42650.18
622.812	42740.12
623.168	42988.7
623.523	42862.6
623.879	43046.1
624.234	42774.02
624.589	42987.8
624.945	43105.53
625.3	43024.63
625.655	43068.25
626.01	43067.79
626.365	43377.84
626.72	43232.76
627.075	43181.46
627.43	43184.63
627.785	43184.4
628.14	43386.2
628.495	43362.48
628.85	43390.95
629.205	43197.28
629.559	43429.37
629.914	43389.59
630.269	43395.7
630.623	43322.48
630.978	43215.81
631.332	43389.14
631.687	43626.42
632.041	43371.51
632.396	43499.42
632.75	43325.64
633.104	43546.65
633.459	43235.47
633.813	43331.06
634.167	43327.9
634.521	43301.01
634.875	43397.5
635.229	43397.95
635.583	43163.61
635.937	43283.83
636.291	43143.5
636.645	43280.67
636.999	43116.15
637.352	43325.87
637.706	43040.22
638.06	43169.49
638.413	43082.48
638.767	42953.22
639.121	43091.97
639.474	42817.18
639.828	42893.11
640.181	42890.17
640.534	42967.23
640.888	42931.53
641.241	42792.1
641.594	42850.85
641.947	42935.82
642.301	42852.66
642.654	42857.18
643.007	42667.8
643.36	42809.72
643.713	42701.48
644.066	42815.15
644.419	42571.99
644.771	42505.1
645.124	42066.01
645.477	41971.78
645.83	41619.24
646.182	41491.56
646.535	41470.77
646.888	41677.77
647.24	41266.71
647.593	41574.5
647.945	41340.61
648.298	41297.45
648.65	41203.44
649.002	41128.41
649.355	41346.03
649.707	41277.78
650.059	41479.59
650.411	41829.41
650.763	41923.42
651.115	42346.46
651.467	42198.44
651.819	42157.08
652.171	42054.49
652.523	42046.58
652.875	42042.51
653.227	41841.61
653.578	42082.06
653.93	42020.14
654.282	41907.37
654.633	41707.6
654.985	41811.56
655.337	41749.64
655.688	41880.48
656.039	42001.61
656.391	41584.9
656.742	41732.91
657.094	41728.39
657.445	41939.91
657.796	41744.44
658.147	41843.65
658.498	41752.8
658.849	41863.31
659.2	41795.29
659.551	41687.94
659.902	41651.79
660.253	41628.74
660.604	41666.02
660.955	41535.18
661.306	41634.39
661.656	41456.31
662.007	41578.34
662.358	41543.09
662.708	41537.66
663.059	41617.89
663.409	41234.85
663.76	41723.87
664.11	41579.7
664.461	41440.04
664.811	41678.68
665.161	41567.95
665.511	41362.3
665.862	41433.49
666.212	41660.83
666.562	41546.93
666.912	41577.21
667.262	41464.9
667.612	41423.09
667.962	41480.72
668.312	41447.72
668.662	41594.39
669.011	41459.93
669.361	41451.57
669.711	41240.72
670.06	41264.45
670.41	41256.32
670.76	41093.83
671.109	41299.71
671.459	41275.3
671.808	41215.41
672.157	41266.71
672.507	41030.33
672.856	41089.54
673.205	41130.22
673.554	41228.97
673.904	40988.07
674.253	41330.21
674.602	41249.54
674.951	40560.06
675.3	40407.07
675.649	41015.64
675.998	41009.54
676.346	41066.49
676.695	41079.6
677.044	40921.64
677.393	40898.59
677.741	40918.02
678.09	40700.4
678.438	40746.95
678.787	40863.11
679.135	40797.12
679.484	40497.01
679.832	40709.89
680.181	40391.25
680.529	40610.68
680.877	40469.44
681.225	40464.7
681.573	40584.02
681.922	40335.44
682.27	40211.15
682.618	40277.36
682.966	40095.89
683.314	40287.08
683.661	40181.77
684.009	39967.31
684.357	39845.96
684.705	39868.1
685.053	39930.02
685.4	39948.55
685.748	39712.63
686.095	39633.53
686.443	39471.73
686.79	39553.76
687.138	39556.02
687.485	39622.91
687.832	39312.86
688.18	39521.45
688.527	39208.01
688.874	39184.73
689.221	39175.02
689.568	39002.59
689.915	38868.13
690.262	38942.93
690.609	38810.28
690.956	38668.81
691.303	38613
691.65	38495.94
691.997	38483.51
692.344	38257.53
692.69	38303.4
693.037	38307.24
693.383	37886.01
693.73	38079.9
694.077	37887.82
694.423	37969.4
694.769	37733.47
695.116	37696.41
695.462	37635.17
695.808	37463.2
696.155	37669.52
696.501	37248.96
696.847	37374.61
697.193	36908.18
697.539	37133.71
697.885	36791.57
698.231	36738.7
698.577	36701.41
698.923	36769.65
699.269	36602.65
699.614	36262.55
699.96	36260.97
700.306	36294.19
700.651	36121.99
700.997	36103.01
701.342	36016
701.688	35950.69
702.033	35843.35
702.379	35839.28
702.724	35691.04
703.069	35821.21
703.415	35313.87
703.76	35327.21
704.105	35377.83
704.45	35310.26
704.795	35122.47
705.14	34892.19
705.485	35016.93
705.83	34799.08
706.175	34762.25
706.52	34773.55
706.865	34560.45
707.209	34713.66
707.554	34449.04
707.899	34632.08
708.243	34344.86
708.588	34294.01
708.932	34049.05
709.277	34157.29
709.621	34081.59
709.966	33851.31
710.31	33970.86
710.654	33721.6
710.998	33775.61
711.342	33840.47
711.687	33727.47
712.031	33454.04
712.375	33459.01
712.719	33606.12
713.063	33412
713.407	33445.22
713.75	33260.82
714.094	33278.45
714.438	33202.29
714.782	33051.11
715.125	32895.41
715.469	33093.59
715.812	32792.81
716.156	32606.6
716.499	32833.49
716.843	32661.74
717.186	32298.81
717.53	32589.65
717.873	32589.65
718.216	32541.29
718.559	32496.09
718.902	32233.5
719.246	32253.16
719.589	32132.26
719.932	32038.03
720.275	32000.29
720.617	32087.74
720.96	31915.32
721.303	31979.27
721.646	31958.71
721.989	31761.2
722.331	31707.19
722.674	31741.31
723.016	31712.84
723.359	31593.52
723.701	31620.86
724.044	31528.44
724.386	31384.03
724.729	31495.67
725.071	31365.73
725.413	31420.42
725.755	31338.16
726.097	31129.58
726.439	31093.42
726.782	30939.98
727.124	31099.3
727.465	30986.08
727.807	30971.16
728.149	30883.03
728.491	30804.84
728.833	30736.59
729.175	30738.85
729.516	30575.92
729.858	30636.93
730.199	30733.66
730.541	30651.85
730.882	30641.68
731.224	30630.38
731.565	30378.86
731.906	30377.73
732.248	30432.19
732.589	30245.53
732.93	30187
733.271	30323.04
733.612	30252.99
733.953	30187
734.294	30023.62
734.635	29958.08
734.976	30110.62
735.317	29968.93
735.658	30013.45
735.999	29875.82
736.339	29808.48
736.68	29868.14
737.021	29857.07
737.361	29627.02
737.702	29865.66
738.042	29641.71
738.383	29556.51
738.723	29631.54
739.063	29498.43
739.404	29635.83
739.744	29421.83
740.084	29370.08
740.424	29290.98
740.764	29324.2
741.104	29339.57
741.444	29179.35
741.784	29114.49
742.124	29099.57
742.464	29082.17
742.804	29085.79
743.143	28911.1
743.483	29112.68
743.823	28868.85
744.162	28834.27
744.502	28917.43
744.841	28914.72
745.181	28904.32
745.52	28639.47
745.86	28699.36
746.199	28764.44
746.538	28594.05
746.877	28632.24
747.216	28649.19
747.556	28545.69
747.895	28471.57
748.234	28426.37
748.573	28455.07
748.911	28417.78
749.25	28369.42
749.589	28200.39
749.928	28231.12
750.267	28234.96
750.605	28210.78
750.944	28006.72
751.283	27950
751.621	27954.97
751.96	27831.13
752.298	27886.05
752.636	27818.93
752.975	27679.27
753.313	27555.66
753.651	27686.73
753.989	27584.13
754.327	27526.28
754.666	27445.61
755.004	27486.73
755.342	27459.84
755.679	27328.55
756.017	27266.85
756.355	27271.6
756.693	27226.4
757.031	27205.84
757.368	26946.18
757.706	27054.43
758.044	26889.69
758.381	26874.1
758.719	26803.14
759.056	26833.19
759.394	26639.07
759.731	26510.72
760.068	26495.12
760.405	26363.15
760.743	26377.16
761.08	26437.95
761.417	26293.77
761.754	26227.56
762.091	26102.59
762.428	25969.26
762.765	25940.56
763.102	25898.98
763.438	25717.52
763.775	25572.43
764.112	25695.14
764.449	25687.46
764.785	25549.16
765.122	25394.36
765.458	25312.1
765.795	25282.27
766.131	25155.95
766.467	25071.88
766.804	25024.43
767.14	24971.09
767.476	24869.4
767.812	24795.96
768.148	24765.22
768.485	24677.09
768.821	24470.54
769.157	24504.21
769.492	24489.3
769.828	24358.23
770.164	24290.89
770.5	24186.71
770.836	24130.89
771.171	24092.7
771.507	23919.82
771.842	23740.17
772.178	23746.04
772.513	23732.94
772.849	23671.47
773.184	23553.05
773.519	23480.74
773.855	23473.96
774.19	23346.05
774.525	23316.9
774.86	23184.93
775.195	23105.61
775.53	23072.16
775.865	22866.97
776.2	22757.82
776.535	22584.94
776.87	22577.71
777.205	22558.73
777.539	22550.37
777.874	22513.53
778.209	22293.65
778.543	22235.12
778.878	22164.61
779.212	22164.61
779.547	21916.26
779.881	21990.16
780.215	21798.3
780.55	21773.44
780.884	21638.75
781.218	21578.64
781.552	21626.55
781.886	21473.56
782.22	21408.02
782.554	21348.14
782.888	21125.55
783.222	21075.38
783.556	20916.29
783.889	20895.72
784.223	20723.52
784.557	20805.55
784.89	20787.48
785.224	20680.13
785.557	20599.46
785.891	20566.92
786.224	20435.62
786.558	20452.57
786.891	20252.35
787.224	20133.71
787.557	20027.27
787.891	20038.8
788.224	20061.62
788.557	20078.12
788.89	19942.98
789.223	19900.27
789.556	19719.03
789.888	19714.28
790.221	19635.19
790.554	19458.92
790.887	19572.59
791.219	19398.13
791.552	19296.89
791.884	19267.74
792.217	19143.23
792.549	19058.93
792.882	19047.18
793.214	18941.87
793.546	18951.82
793.879	18827.53
794.211	18667.53
794.543	18741.65
794.875	18738.94
795.207	18707.08
795.539	18535.78
795.871	18555.67
796.203	18386.41
796.535	18359.74
796.867	18265.96
797.198	18243.59
797.53	18234.32
797.862	18173.76
798.193	18192.29
798.525	18084.27
798.856	18038.62
799.188	17828.91
799.519	17830.04
799.85	17658.97
800.182	17805.18
800.513	17722.25
800.844	17560.67
801.175	17571.52
801.506	17600.89
801.837	17510.5
802.168	17411.97
802.499	17396.38
802.83	17367.9
803.161	17257.63
803.491	17170.85
803.822	17200.23
804.153	17126.33
804.483	16997.07
804.814	16942.61
805.145	16904.87
805.475	16985.54
805.805	16924.3
806.136	16866.45
806.466	16761.59
806.796	16823.74
807.126	16656.74
807.457	16548.94
807.787	16587.36
808.117	16487.02
808.447	16461.49
808.777	16428.27
809.107	16424.43
809.436	16348.95
809.766	16341.04
810.096	16321.15
810.426	16132.23
810.755	16214.26
811.085	16144.21
811.414	16103.76
811.744	16014.72
812.073	15906.93
812.403	15917.77
812.732	15785.12
813.061	15870.09
813.39	15683.66
813.719	15707.38
814.049	15744.9
814.378	15750.09
814.707	15682.53
815.036	15644.33
815.365	15560.95
815.693	15438.01
816.022	15451.35
816.351	15431.68
816.68	15245.7
817.008	15369.99
817.337	15182.65
817.665	15141.97
817.994	15221.97
818.322	15179.04
818.651	15131.81
818.979	15158.25
819.307	15061.75
819.636	15024.92
819.964	14907.63
820.292	15021.3
820.62	14959.15
820.948	14892.72
821.276	14970.91
821.604	14917.57
821.932	14947.86
822.259	14867.63
822.587	14915.99
822.915	14768.43
823.243	14828.99
823.57	14950.12
823.898	14796.67
824.225	14818.14
824.553	14729.56
824.88	14908.31
825.207	14832.83
825.535	14798.71
825.862	14924.13
826.189	14770.69
826.516	14873.96
826.843	14849.55
827.17	14857.69
827.497	14872.15
827.824	14829.21
828.151	14803.23
828.478	14831.02
828.805	14876.9
829.131	14821.76
829.458	14831.02
829.785	14778.14
830.111	14770.69
830.438	14938.14
830.764	14819.27
831.09	14873.96
831.417	14769.33
831.743	14777.92
832.069	14752.61
832.395	14705.38
832.722	14770.69
833.048	14683
833.374	14721.19
833.7	14628.54
834.026	14654.98
834.351	14642.1
834.677	14665.38
835.003	14610.69
835.329	14674.64
835.654	14539.73
835.98	14564.81
836.306	14601.2
836.631	14432.16
836.956	14563.46
837.282	14561.88
837.607	14487.75
837.932	14447.08
838.258	14374.99
838.583	14419.73
838.908	14338.83
839.233	14370.02
839.558	14277.36
839.883	14227.42
840.208	14175.9
840.533	14241.43
840.858	14249.34
841.182	14266.29
841.507	14223.35
841.832	14050.93
842.156	14087.77
842.481	14104.94
842.805	14043.47
843.13	13984.49
843.454	13997.6
843.778	13860.88
844.103	13851.39
844.427	13800.77
844.751	13917.83
845.075	13775.23
845.399	13748.57
845.723	13707.89
846.047	13721.45
846.371	13619.08
846.695	13591.51
847.019	13575.01
847.343	13490.94
847.666	13367.11
847.99	13372.98
848.313	13305.41
848.637	13149.48
848.96	13275.58
849.284	13232.19
849.607	13056.38
849.931	13009.15
850.254	12985.65
850.577	12833.33
850.9	12833.11
851.223	12808.48
851.546	12786.33
851.869	12694.81
852.192	12756.95
852.515	12618.2
852.838	12584.75
853.161	12558.77
853.483	12542.72
853.806	12495.72
854.129	12353.12
854.451	12384.99
854.774	12219.11
855.096	12325.55
855.419	12239.45
855.741	12203.29
856.063	12031.1
856.385	12109.96
856.708	12073.81
857.03	11990.87
857.352	11994.94
857.674	12003.07
857.996	11909.52
858.318	11876.3
858.64	11874.04
858.961	11773.25
859.283	11756.53
859.605	11615.97
859.926	11681.27
860.248	11767.6
860.57	11658.9
860.891	11620.94
861.212	11587.94
861.534	11501.17
861.855	11631.33
862.176	11506.14
862.498	11540.94
862.819	11549.53
863.14	11389.31
863.461	11399.25
863.782	11411.45
864.103	11387.72
864.424	11345.01
864.745	11291.68
865.065	11314.5
865.386	11289.87
865.707	11263.66
866.027	11295.75
866.348	11181.17
866.668	11191.57
866.989	11199.93
867.309	11109.99
867.63	11096.21
867.95	11168.75
868.27	11031.35
868.59	11143.66
868.91	11110.67
869.23	11102.53
869.55	11076.77
869.87	11105.24
870.19	10942.31
870.51	10967.62
870.83	11028.64
871.15	10905.25
871.469	10936.66
871.789	10970.11
872.109	10930.79
872.428	10840.84
872.748	10927.62
873.067	10832.48
873.386	10870
873.706	10806.72
874.025	10777.57
874.344	10754.29
874.663	10746.38
874.982	10701.19
875.301	10726.5
875.62	10726.05
875.939	10627.74
876.258	10696.44
876.577	10639.72
876.896	10566.5
877.214	10602.89
877.533	10575.32
877.852	10594.3
878.17	10589.1
878.489	10578.93
878.807	10539.61
879.125	10493.51
879.444	10498.71
879.762	10490.12
880.08	10404.47
880.398	10429.33
880.716	10395.43
881.034	10342.1
881.352	10386.17
881.67	10315.89
881.988	10363.12
882.306	10317.24
882.624	10292.16
882.941	10251.71
883.259	10275.66
883.577	10263.23
883.894	10161.31
884.212	10145.72
884.529	10141.88
884.846	10051.49
885.164	10083.12
885.481	10032.73
885.798	10089.68
886.115	9941.66
886.432	10014.43
886.75	9999.51
887.067	9921.55
887.383	9893.3
887.7	9992.73
888.017	9864.6
888.334	9869.8
888.651	9879.06
888.967	9800.65
889.284	9738.28
889.6	9689.46
889.917	9703.93
890.233	9663.93
890.55	9586.19
890.866	9602.01
891.182	9593.19
891.498	9670.03
891.815	9492.18
892.131	9482.46
892.447	9512.74
892.763	9531.27
893.079	9432.97
893.395	9367.21
893.71	9403.37
894.026	9380.77
894.342	9323.14
894.657	9233.66
894.973	9269.81
895.289	9296.48
895.604	9251.06
895.92	9143.04
896.235	9140.1
896.55	9156.14
896.865	9040.21
897.181	9103.26
897.496	9028.24
897.811	9031.85
898.126	8929.26
898.441	8888.13
898.756	8897.39
899.071	8844.97
899.386	8940.78
899.7	8785.53
900.015	8744.85
900.33	8681.35
900.644	8733.33
900.959	8732.2
901.273	8685.65
901.588	8624.63
901.902	8578.08
902.216	8508.25
902.531	8560.9
902.845	8551.87
903.159	8416.05
903.473	8445.43
903.787	8398.2
904.101	8384.19
904.415	8343.28
904.729	8327.24
905.042	8251.53
905.356	8224.87
905.67	8238.2
905.984	8232.78
906.297	8147.36
906.611	8146
906.924	8108.94
907.237	8124.08
907.551	8027.13
907.864	7994.82
908.177	7964.31
908.491	8025.33
908.804	7897.19
909.117	7851.32
909.43	7885.89
909.743	7820.81
910.056	7849.29
910.368	7749.17
910.681	7788.27
910.994	7693.58
911.307	7720.93
911.619	7640.03
911.932	7598.67
912.244	7596.64
912.557	7557.77
912.869	7448.62
913.181	7528.16
913.494	7440.71
913.806	7385.57
914.118	7393.03
914.43	7340.37
914.742	7293.14
915.054	7306.25
915.366	7261.28
915.678	7257.66
915.99	7191.68
916.302	7129.53
916.613	7120.72
916.925	7069.42
917.236	7081.62
917.548	6998.69
917.859	7078.46
918.171	7021.51
918.482	6981.96
918.794	6908.74
919.105	6887.5
919.416	6886.15
919.727	6837.33
920.038	6856.09
920.349	6798.01
920.66	6737.68
920.971	6729.77
921.282	6706.72
921.593	6637.79
921.903	6708.52
922.214	6593.72
922.525	6631.92
922.835	6535.2
923.146	6513.05
923.456	6492.03
923.767	6450.23
924.077	6448.64
924.387	6398.02
924.697	6374.97
925.008	6379.49
925.318	6313.96
925.628	6329.1
925.938	6282.55
926.248	6227.63
926.558	6173.4
926.867	6188.09
927.177	6168.43
927.487	6192.15
927.796	6117.58
928.106	6094.3
928.416	6017.92
928.725	6043.23
929.034	5985.83
929.344	6058.15
929.653	5981.99
929.962	5896.12
930.271	5862.22
930.581	5885.04
930.89	5871.26
931.199	5857.02
931.508	5793.52
931.817	5792.39
932.125	5756.68
932.434	5743.8
932.743	5746.52
933.051	5650.92
933.36	5665.61
933.669	5624.71
933.977	5601.21
934.286	5567.99
934.594	5556.46
934.902	5515.34
935.21	5500.65
935.519	5462.23
935.827	5514.88
936.135	5450.25
936.443	5405.28
936.751	5393.53
937.059	5407.54
937.367	5315.34
937.674	5358.96
937.982	5349.69
938.29	5327.09
938.597	5262.91
938.905	5292.97
939.213	5249.58
939.52	5205.51
939.827	5160.54
940.135	5185.4
940.442	5128.68
940.749	5124.39
941.056	5130.71
941.363	5063.82
941.67	5059.3
941.977	5064.27
942.284	5001.22
942.591	5036.7
942.898	4989.02
943.205	4979.76
943.511	4938.85
943.818	4937.5
944.125	4865.86
944.431	4871.51
944.738	4846.88
945.044	4843.26
945.35	4790.16
945.657	4777.05
945.963	4736.82
946.269	4761
946.575	4753.32
946.881	4680.1
947.187	4639.43
947.493	4659.31
947.799	4623.16
948.105	4584.51
948.41	4607.79
948.716	4571.63
949.022	4532.54
949.327	4511.97
949.633	4495.93
949.938	4500.45
950.244	4491.86
950.549	4417.96
950.854	4410.28
951.16	4429.26
951.465	4374.35
951.77	4370.96
952.075	4353.33
952.38	4323.73
952.685	4383.84
952.99	4251.87
953.294	4307.01
953.599	4314.69
953.904	4242.6
954.209	4231.3
954.513	4220.45
954.818	4206.22
955.122	4206.9
955.426	4153.11
955.731	4144.98
956.035	4108.82
956.339	4100.01
956.643	4094.81
956.948	4057.97
957.252	4077.86
957.556	4073.34
957.86	4006
958.163	3996.96
958.467	4005.32
958.771	3964.19
959.075	3958.31
959.378	3939.11
959.682	3884.87
959.985	3889.16
960.289	3869.28
960.592	3868.6
960.896	3850.97
961.199	3846.45
961.502	3804.87
961.805	3798.77
962.108	3755.83
962.411	3782.27
962.714	3701.6
963.017	3779.11
963.32	3725.1
963.623	3677.87
963.926	3688.04
964.228	3653.92
964.531	3658.66
964.833	3649.62
965.136	3580.24
965.438	3603.3
965.741	3577.99
966.043	3601.94
966.345	3568.95
966.648	3560.58
966.95	3485.78
967.252	3516.29
967.554	3476.29
967.856	3469.06
968.158	3458.89
968.46	3454.6
968.761	3417.09
969.063	3454.82
969.365	3416.86
969.666	3436.97
969.968	3370.53
970.269	3397.2
970.571	3366.92
970.872	3362.85
971.174	3298.22
971.475	3286.24
971.776	3308.84
972.077	3302.29
972.378	3289.18
972.679	3254.15
972.98	3243.3
973.281	3214.6
973.582	3185
973.883	3168.96
974.183	3148.17
974.484	3139.35
974.785	3116.3
975.085	3131.67
975.386	3138
975.686	3123.53
975.986	3094.83
976.287	3080.14
976.587	3065.46
976.887	3094.83
977.187	3055.74
977.487	3054.38
977.787	2992.01
978.087	2976.87
978.387	2994.5
978.687	2987.49
978.987	2965.57
979.286	2928.28
979.586	2982.75
979.885	2883.09
980.185	2890.77
980.484	2899.13
980.784	2875.4
981.083	2877.21
981.382	2881.51
981.682	2858.46
981.981	2842.86
982.28	2841.51
982.579	2780.72
982.878	2803.99
983.177	2774.39
983.475	2783.2
983.774	2743.43
984.073	2735.97
984.372	2700.72
984.67	2712.02
984.969	2742.75
985.267	2672.92
985.566	2688.29
985.864	2668.63
986.162	2664.11
986.461	2652.36
986.759	2646.71
987.057	2635.41
987.355	2587.5
987.653	2624.11
987.951	2571.23
988.249	2623.89
988.547	2599.71
988.844	2566.03
989.142	2543.66
989.44	2512.48
989.737	2535.75
990.035	2498.24
990.332	2497.56
990.63	2489.43
990.927	2461.18
991.224	2473.83
991.521	2433.38
991.819	2433.61
992.116	2458.01
992.413	2416.66
992.71	2393.84
993.006	2393.84
993.303	2358.58
993.6	2369.88
993.897	2377.11
994.193	2370.56
994.49	2356.55
994.787	2335.98
995.083	2310
995.379	2321.97
995.676	2305.25
995.972	2273.84
996.268	2266.16
996.565	2227.51
996.861	2251.24
997.157	2241.52
997.453	2225.03
997.749	2221.18
998.044	2191.13
998.34	2218.7
998.636	2164.01
998.932	2151.36
999.227	2144.58
999.523	2140.06
999.818	2141.19
1000.114	2126.5
1000.409	2119.72
1000.704	2096.89
1001	2100.96
1001.295	2102.54
1001.59	2083.11
1001.885	2076.1
1002.18	2033.84
1002.475	2051.92
1002.77	2041.3
1003.065	2013.96
1003.359	2023
1003.654	2020.96
1003.949	1977.12
1004.243	1965.82
1004.538	1979.38
1004.832	1938.03
1005.127	1949.55
1005.421	1914.98
1005.715	1930.8
1006.009	1895.54
1006.304	1898.48
1006.598	1893.28
1006.892	1872.04
1007.186	1890.12
1007.48	1863.23
1007.773	1844.47
1008.067	1855.09
1008.361	1856.67
1008.655	1806.05
1008.948	1797.01
1009.242	1789.33
1009.535	1778.03
1009.829	1781.2
1010.122	1754.98
1010.415	1750.69
1010.708	1736.23
1011.001	1745.94
1011.295	1744.81
1011.588	1741.42
1011.881	1710.01
1012.173	1701.65
1012.466	1661.65
1012.759	1674.31
1013.052	1673.63
1013.344	1654.19
1013.637	1673.85
1013.93	1639.5
1014.222	1606.74
1014.514	1603.35
1014.807	1612.84
1015.099	1620.3
1015.391	1611.94
1015.683	1604.93
1015.976	1608.55
1016.268	1547.08
1016.56	1565.61
1016.851	1505.72
1017.143	1555.44
1017.435	1542.56
1017.727	1517.25
1018.018	1505.27
1018.31	1473.18
1018.602	1484.93
1018.893	1487.64
1019.185	1500.98
1019.476	1467.08
1019.767	1462.33
1020.058	1444.03
1020.35	1429.34
1020.641	1427.31
1020.932	1424.14
1021.223	1423.24
1021.514	1411.49
1021.804	1371.26
1022.095	1408.55
1022.386	1399.74
1022.677	1365.16
1022.967	1357.25
1023.258	1326.74
1023.548	1340.3
1023.839	1331.04
1024.129	1317.71
1024.419	1303.02
1024.709	1309.57
1025	1283.36
1025.29	1314.77
1025.58	1268.89
1025.87	1244.49
1026.16	1262.79
1026.449	1238.84
1026.739	1267.09
1027.029	1232.28
1027.319	1222.11
1027.608	1215.56
1027.898	1190.48
1028.187	1202.68
1028.477	1187.54
1028.766	1187.31
1029.055	1181.66
1029.344	1207.43
1029.634	1176.24
1029.923	1180.08
1030.212	1158.84
1030.501	1151.16
1030.79	1126.07
1031.078	1125.17
1031.367	1137.15
1031.656	1108.67
1031.945	1113.19
1032.233	1101.44
1032.522	1105.06
1032.81	1086.3
1033.099	1084.27
1033.387	1072.74
1033.675	1029.13
1033.963	1053.53
1034.251	1029.35
1034.54	1043.59
1034.828	1035
1035.116	1016.02
1035.403	1047.88
1035.691	1027.32
1035.979	1027.09
1036.267	978.28
1036.554	975.12
1036.842	987.77
1037.129	990.48
1037.417	974.21
1037.704	957.71
1037.992	980.54
1038.279	961.56
1038.566	956.81
1038.853	956.81
1039.14	956.81
