Data from hue_150_FLMS001491_00020.txt Node
Date: Tue Feb 07 16:53:42 GMT 2017
User: dcchb
Spectrometer: FLMS00149
Trigger mode: 0
Integration Time (sec): 2.000000E-2
Scans to average: 10
Electric dark correction enabled: true
Nonlinearity correction enabled: false
Boxcar width: 0
XAxis mode: Wavelengths
Number of Pixels in Spectrum: 2048
>>>>>Begin Spectral Data<<<<<
341.393	-28.33
341.776	-28.33
342.16	-28.33
342.543	-67.88
342.927	-84.15
343.31	-46.64
343.693	-67.65
344.077	-58.61
344.46	-70.82
344.843	-49.57
345.226	-59.07
345.61	-41.44
345.993	-5.73
346.376	10.76
346.759	10.31
347.142	2.63
347.525	38.33
347.908	66.35
348.291	79.01
348.674	86.01
349.057	106.13
349.44	134.83
349.823	134.6
350.206	159.91
350.588	201.04
350.971	209.4
351.354	233.58
351.737	224.54
352.119	255.05
352.502	255.05
352.884	273.58
353.267	260.7
353.65	292.79
354.032	290.98
354.414	317.65
354.797	311.55
355.179	312.9
355.562	314.26
355.944	355.16
356.326	335.27
356.709	330.75
357.091	325.1
357.473	345.22
357.855	336.86
358.238	353.58
358.62	349.28
359.002	363.52
359.384	344.54
359.766	343.41
360.148	327.59
360.53	336.63
360.912	330.08
361.294	336.4
361.676	324.65
362.057	316.97
362.439	335.05
362.821	340.7
363.203	332.34
363.584	332.34
363.966	331.43
364.348	308.83
364.729	325.1
365.111	312.9
365.493	322.39
365.874	302.28
366.256	306.57
366.637	321.26
367.019	330.3
367.4	324.88
367.781	321.26
368.163	327.59
368.544	287.14
368.925	306.12
369.306	334.14
369.688	305.67
370.069	316.07
370.45	313.13
370.831	301.83
371.212	312
371.593	297.31
371.974	295.05
372.355	314.26
372.736	285.56
373.117	306.8
373.498	319.45
373.879	319.45
374.26	312.9
374.641	318.55
375.021	308.38
375.402	336.63
375.783	314.71
376.163	332.11
376.544	320.81
376.925	356.29
377.305	331.88
377.686	324.2
378.066	349.74
378.447	327.14
378.827	330.53
379.208	321.04
379.588	323.97
379.968	331.66
380.349	341.15
380.729	334.37
381.109	346.12
381.489	349.74
381.87	355.84
382.25	342.05
382.63	330.98
383.01	333.92
383.39	352.22
383.77	352.22
384.15	346.8
384.53	349.06
384.91	338.89
385.29	344.31
385.67	366.23
386.049	359.91
386.429	362.17
386.809	341.38
387.189	351.09
387.568	369.4
387.948	356.97
388.328	363.52
388.707	357.19
389.087	359.68
389.466	351.54
389.846	362.84
390.225	394.71
390.605	368.27
390.984	392
391.363	393.8
391.743	368.49
392.122	396.74
392.501	377.98
392.881	384.99
393.26	414.59
393.639	391.54
394.018	376.85
394.397	399.23
394.776	397.42
395.155	390.41
395.534	389.74
395.913	389.51
396.292	385.67
396.671	394.26
397.05	403.52
397.429	403.52
397.808	413.24
398.186	389.28
398.565	404.65
398.944	398.1
399.323	413.24
399.701	384.09
400.08	378.44
400.458	410.07
400.837	413.01
401.215	413.24
401.594	421.37
401.972	410.3
402.351	416.18
402.729	415.27
403.107	433.8
403.486	414.82
403.864	423.86
404.242	447.59
404.62	444.42
404.999	435.61
405.377	427.93
405.755	439.45
406.133	459.56
406.511	447.14
406.889	443.07
407.267	464.31
407.645	470.41
408.023	453.46
408.401	468.83
408.779	469.96
409.156	465.44
409.534	478.09
409.912	486.23
410.29	468.15
410.667	479.68
411.045	474.25
411.422	481.71
411.8	504.31
412.178	506.12
412.555	486
412.933	517.19
413.31	490.3
413.687	528.94
414.065	528.26
414.442	522.84
414.819	526.23
415.197	516.96
415.574	508.15
415.951	539.34
416.328	526.46
416.705	524.2
417.082	562.61
417.46	529.84
417.837	555.61
418.214	540.47
418.591	540.47
418.967	545.21
419.344	572.33
419.721	575.72
420.098	567.36
420.475	549.28
420.852	582.72
421.228	591.76
421.605	577.98
421.982	578.88
422.358	582.27
422.735	585.66
423.111	597.87
423.488	604.65
423.864	613.01
424.241	617.3
424.617	606.45
424.994	624.76
425.37	635.15
425.746	634.7
426.123	636.06
426.499	633.57
426.875	668.6
427.251	657.53
427.627	657.3
428.003	670.18
428.379	676.06
428.756	681.03
429.132	683.06
429.507	690.97
429.883	713.79
430.259	695.72
430.635	715.38
431.011	729.39
431.387	721.7
431.763	742.72
432.138	732.78
432.514	744.75
432.89	743.4
433.265	752.44
433.641	737.3
434.016	749.95
434.392	770.97
434.767	785.21
435.143	803.06
435.518	820.46
435.894	794.24
436.269	821.36
436.644	827.46
437.02	840.8
437.395	829.05
437.77	849.16
438.145	874.24
438.52	851.42
438.895	851.87
439.271	865.2
439.646	880.12
440.021	898.65
440.395	890.06
440.77	866.33
441.145	890.06
441.52	926.67
441.895	920.34
442.27	925.77
442.645	934.13
443.019	954.01
443.394	918.54
443.769	928.03
444.143	945.43
444.518	962.83
444.892	945.2
445.267	979.78
445.641	989.72
446.016	996.5
446.39	1001.02
446.764	993.56
447.139	996.5
447.513	1023.17
447.887	1003.5
448.262	1022.04
448.636	999.21
449.01	1042.37
449.384	1050.74
449.758	1054.8
450.132	1051.41
450.506	1071.98
450.88	1090.73
451.254	1088.47
451.628	1103.62
452.002	1111.98
452.376	1120.34
452.75	1140.22
453.123	1132.99
453.497	1160.56
453.871	1181.58
454.244	1172.54
454.618	1178.64
454.992	1206.44
455.365	1196.27
455.739	1222.93
456.112	1235.59
456.486	1222.26
456.859	1270.39
457.232	1258.19
457.606	1289.6
457.979	1288.47
458.352	1315.59
458.725	1332.31
459.099	1331.63
459.472	1377.96
459.845	1396.49
460.218	1390.61
460.591	1399.88
460.964	1405.53
461.337	1428.8
461.71	1497.28
462.083	1508.8
462.456	1506.54
462.829	1542.02
463.201	1523.04
463.574	1549.03
463.947	1597.61
464.32	1618.18
464.692	1621.79
465.065	1630.61
465.438	1683.03
465.81	1725.52
466.183	1714.22
466.555	1776.14
466.928	1786.76
467.3	1812.07
467.672	1831.28
468.045	1821.79
468.417	1869.02
468.789	1882.58
469.161	1939.3
469.534	1966.19
469.906	2027.66
470.278	2067.43
470.65	2076.7
471.022	2107.88
471.394	2172.29
471.766	2242.57
472.138	2202.34
472.51	2256.35
472.882	2356.46
473.253	2364.6
473.625	2406.86
473.997	2452.05
474.369	2523.24
474.74	2566.18
475.112	2587.19
475.484	2645.04
475.855	2709
476.227	2791.03
476.598	2899.27
476.97	2953.28
477.341	3035.77
477.713	3087.29
478.084	3105.82
478.455	3219.94
478.827	3274.63
479.198	3401.63
479.569	3425.36
479.94	3581.29
480.311	3606.15
480.682	3709.2
481.053	3851.11
481.424	3920.72
481.795	3956.42
482.166	4130.65
482.537	4243.87
482.908	4336.75
483.279	4433.25
483.65	4540.13
484.021	4688.15
484.391	4746.46
484.762	4913.01
485.133	4921.14
485.503	5072.55
485.874	5237.29
486.244	5344.18
486.615	5504.18
486.985	5623.95
487.356	5790.27
487.726	5911.4
488.097	6029.81
488.467	6089.92
488.837	6304.83
489.207	6435
489.578	6582.79
489.948	6669.57
490.318	6849.23
490.688	6961.54
491.058	7091.93
491.428	7288.09
491.798	7468.87
492.168	7618.47
492.538	7768.75
492.908	7826.6
493.278	8052.36
493.648	8140.49
494.017	8269.75
494.387	8348.17
494.757	8565.57
495.126	8671.1
495.496	8734.15
495.866	8883.75
496.235	9070.41
496.605	9190.63
496.974	9322.83
497.344	9433.57
497.713	9520.79
498.082	9585.65
498.452	9811.41
498.821	9894.8
499.19	10029.26
499.559	10086.88
499.928	10231.74
500.298	10274.45
500.667	10403.03
501.036	10489.81
501.405	10635.57
501.774	10692.74
502.143	10764.15
502.512	10852.74
502.88	11029
503.249	11122.33
503.618	11095.67
503.987	11177.93
504.356	11336.34
504.724	11417.92
505.093	11470.57
505.462	11511.7
505.83	11616.11
506.199	11738.59
506.567	11851.81
506.936	11877.8
507.304	12052.25
507.672	12000.73
508.041	12153.04
508.409	12249.31
508.777	12303.55
509.145	12472.36
509.514	12329.08
509.882	12516.2
510.25	12520.26
510.618	12640.71
510.986	12677.55
511.354	12740.6
511.722	12856.3
512.09	12962.51
512.458	12914.15
512.826	13036.41
513.193	13102.17
513.561	13089.29
513.929	13167.25
514.297	13273.24
514.664	13325.44
515.032	13385.78
515.4	13416.51
515.767	13481.37
516.135	13484.31
516.502	13401.14
516.869	13617.18
517.237	13618.31
517.604	13602.04
517.972	13660.35
518.339	13787.58
518.706	13699.22
519.073	13803.85
519.44	13828.93
519.808	13981.92
520.175	13908.93
520.542	14051.52
520.909	14087
521.276	14055.14
521.643	14089.26
522.009	14187.79
522.376	14225.76
522.743	14135.81
523.11	14415.58
523.477	14409.93
523.843	14390.5
524.21	14519.76
524.577	14630.49
524.943	14571.96
525.31	14642.92
525.676	14709.36
526.043	14768.11
526.409	14763.59
526.776	14881.33
527.142	14793.42
527.508	14860.32
527.874	14915.91
528.241	14853.08
528.607	14839.98
528.973	15042.91
529.339	14878.85
529.705	14956.58
530.071	14988.45
530.437	14979.18
530.803	14994.78
531.169	15039.52
531.535	15018.5
531.901	15033.42
532.267	15068.22
532.632	15102.79
532.998	15059.18
533.364	15077.71
533.73	15010.37
534.095	15035.45
534.461	14996.13
534.826	14983.25
535.192	15041.78
535.557	15083.36
535.923	14970.6
536.288	14997.04
536.653	15074.77
537.019	14870.03
537.384	14935.12
537.749	14890.82
538.114	14863.03
538.479	14889.02
538.845	14847.66
539.21	14824.84
539.575	14884.5
539.94	14817.83
540.305	14782.13
540.67	14750.94
541.034	14757.04
541.399	14761.11
541.764	14731.05
542.129	14695.8
542.494	14695.8
542.858	14672.52
543.223	14625.52
543.587	14625.07
543.952	14587.55
544.316	14487.67
544.681	14424.39
545.045	14521.34
545.41	14437.95
545.774	14460.55
546.138	14442.25
546.503	14406.32
546.867	14376.26
547.231	14357.73
547.595	14368.35
547.959	14315.47
548.324	14253.33
548.688	14194.57
549.052	14212.2
549.416	14280.9
549.779	14137.85
550.143	14066.21
550.507	14161.12
550.871	14147.11
551.235	14068.02
551.599	14124.06
551.962	14087.23
552.326	14046.55
552.689	14061.01
553.053	13936.95
553.417	14013.11
553.78	14016.27
554.143	13976.5
554.507	14059.66
554.87	13978.98
555.234	14075.03
555.597	13907.8
555.96	13905.31
556.323	13923.62
556.686	13879.1
557.05	13929.72
557.413	13839.55
557.776	13883.62
558.139	13905.09
558.502	13896.95
558.865	13924.29
559.228	13916.39
559.59	13873.45
559.953	13950.96
560.316	13977.63
560.679	13892.66
561.041	13993.45
561.404	13934.92
561.767	13992.32
562.129	13916.16
562.492	14083.61
562.854	14031.41
563.217	13992.32
563.579	14018.08
563.941	14104.4
564.304	14107.57
564.666	14069.83
565.028	14130.62
565.39	14108.02
565.753	14045.2
566.115	14187.34
566.477	14150.05
566.839	14160.9
567.201	14275.7
567.563	14129.26
567.925	14340.78
568.287	14312.08
568.648	14348.69
569.01	14293.78
569.372	14353.66
569.734	14254.23
570.095	14444.28
570.457	14305.98
570.819	14381.23
571.18	14454.45
571.542	14483.15
571.903	14395.69
572.265	14535.13
572.626	14519.08
572.987	14482.7
573.349	14417.16
573.71	14552.07
574.071	14548.01
574.432	14498.97
574.794	14557.72
575.155	14536.26
575.516	14508.01
575.877	14572.64
576.238	14593.66
576.599	14575.13
576.96	14572.19
577.32	14594.33
577.681	14636.82
578.042	14666.2
578.403	14560.66
578.763	14702.35
579.124	14600.44
579.485	14692.86
579.845	14698.29
580.206	14695.35
580.566	14656.03
580.927	14670.04
581.287	14683.82
581.648	14656.71
582.008	14745.06
582.368	14663.03
582.728	14698.96
583.089	14634.11
583.449	14647.67
583.809	14650.38
584.169	14688.34
584.529	14595.92
584.889	14799.98
585.249	14602.24
585.609	14521.34
585.969	14630.49
586.329	14540.32
586.688	14564.96
587.048	14552.53
587.408	14479.31
587.768	14590.72
588.127	14516.14
588.487	14587.33
588.846	14606.76
589.206	14454.9
589.565	14493.32
589.925	14495.35
590.284	14465.98
590.643	14469.37
591.003	14638.4
591.362	14537.39
591.721	14527.67
592.08	14509.36
592.44	14466.2
592.799	14461.91
593.158	14523.15
593.517	14530.61
593.876	14434.79
594.235	14427.56
594.593	14424.62
594.952	14438.18
595.311	14421.23
595.67	14348.46
596.029	14473.88
596.387	14518.86
596.746	14560.21
597.104	14384.85
597.463	14398.63
597.822	14468.46
598.18	14447.67
598.538	14463.26
598.897	14419.2
599.255	14391.85
599.613	14535.58
599.972	14430.95
600.33	14477.95
600.688	14400.67
601.046	14482.92
601.404	14499.2
601.762	14442.02
602.12	14494.68
602.478	14476.6
602.836	14466.2
603.194	14423.94
603.552	14430.5
603.91	14345.75
604.268	14533.77
604.625	14350.05
604.983	14472.3
605.341	14401.34
605.698	14450.16
606.056	14489.03
606.413	14412.64
606.771	14469.14
607.128	14533.09
607.485	14450.61
607.843	14451.06
608.2	14538.06
608.557	14468.01
608.914	14480.89
609.272	14554.11
609.629	14606.76
609.986	14586.65
610.343	14607.44
610.7	14700.32
611.057	14599.98
611.414	14659.42
611.771	14617.61
612.127	14645.41
612.484	14677.04
612.841	14650.83
613.198	14665.74
613.554	14621.23
613.911	14656.71
614.267	14680.21
614.624	14610.15
614.98	14659.64
615.337	14719.53
615.693	14758.4
616.05	14642.69
616.406	14743.71
616.762	14793.2
617.118	14793.42
617.475	14792.29
617.831	14863.25
618.187	14907.09
618.543	14880.43
618.899	14838.17
619.255	14854.67
619.611	14846.98
619.967	14880.2
620.323	14947.77
620.678	14868.45
621.034	14883.14
621.39	14900.99
621.746	14807.66
622.101	15002.46
622.457	14826.87
622.812	14944.38
623.168	14934.66
623.523	14945.96
623.879	14995.45
624.234	14846.3
624.589	14968.11
624.945	14935.79
625.3	14900.09
625.655	14936.92
626.01	14872.97
626.365	14931.05
626.72	14856.7
627.075	14937.83
627.43	14880.88
627.785	14818.06
628.14	14821.67
628.495	14840.88
628.85	14737.83
629.205	14868
629.559	14916.81
629.914	14809.47
630.269	14832.07
630.623	14786.65
630.978	14701.45
631.332	14800.2
631.687	14826.64
632.041	14722.01
632.396	14762.46
632.75	14714.1
633.104	14707.78
633.459	14665.74
633.813	14645.41
634.167	14625.29
634.521	14565.63
634.875	14559.31
635.229	14538.74
635.583	14495.58
635.937	14544.17
636.291	14430.95
636.645	14547.1
636.999	14514.56
637.352	14452.87
637.706	14474.34
638.06	14478.86
638.413	14498.07
638.767	14381.91
639.121	14397.5
639.474	14368.58
639.828	14311.18
640.181	14285.42
640.534	14336.71
640.888	14309.82
641.241	14243.16
641.594	14271.63
641.947	14344.62
642.301	14217.17
642.654	14302.59
643.007	14318.86
643.36	14225.98
643.713	14276.38
644.066	14199.09
644.419	14220.11
644.771	14107.34
645.124	13953.22
645.477	14023.5
645.83	13942.6
646.182	13794.35
646.535	13837.07
646.888	13750.97
647.24	13659.9
647.593	13789.16
647.945	13727.01
648.298	13679.78
648.65	13646.56
649.002	13635.04
649.355	13740.57
649.707	13665.54
650.059	13767.01
650.411	13969.49
650.763	13931.3
651.115	14163.84
651.467	14050.62
651.819	14043.39
652.171	14050.17
652.523	14061.92
652.875	14011.3
653.227	13936.72
653.578	14093.78
653.93	13998.42
654.282	13922.94
654.633	13868.03
654.985	13959.1
655.337	13956.61
655.688	13953.9
656.039	13979.21
656.391	13977.17
656.742	13920.68
657.094	13934.24
657.445	13974.69
657.796	13896.95
658.147	13951.86
658.498	13952.09
658.849	14016.72
659.2	14042.26
659.551	13984.18
659.902	13979.89
660.253	14033.44
660.604	13960.68
660.955	13972.88
661.306	13948.7
661.656	13908.02
662.007	14005.65
662.358	13987.57
662.708	14024.86
663.059	14009.72
663.409	13899.21
663.76	14031.86
664.11	14005.2
664.461	14013.33
664.811	14034.12
665.161	13968.59
665.511	13983.05
665.862	13966.1
666.212	14032.54
666.562	13983.28
666.912	13999.55
667.262	14012.65
667.612	13960
667.962	13953.67
668.312	13942.15
668.662	14017.85
669.011	13985.76
669.361	14014.24
669.711	13974.92
670.06	13988.7
670.41	13953.67
670.76	13938.53
671.109	13999.77
671.459	13883.62
671.808	13920.45
672.157	13912.54
672.507	13909.15
672.856	13899.21
673.205	13865.77
673.554	13880
673.904	13847.91
674.253	13940.57
674.602	13966.1
674.951	13652.89
675.3	13589.84
675.649	13835.71
675.998	13807.01
676.346	13813.34
676.695	13802.04
677.044	13681.14
677.393	13815.15
677.741	13689.72
678.09	13727.01
678.438	13687.46
678.787	13711.42
679.135	13746.45
679.484	13626.22
679.832	13697.63
680.181	13534.25
680.529	13560.24
680.877	13569.05
681.225	13530.63
681.573	13581.71
681.922	13440.24
682.27	13351.2
682.618	13505.32
682.966	13451.31
683.314	13464.19
683.661	13417.87
684.009	13305.1
684.357	13319.57
684.705	13286.12
685.053	13315.72
685.4	13243.18
685.748	13207.03
686.095	13168.61
686.443	13162.06
686.79	13137.65
687.138	13132.45
687.485	13157.31
687.832	13043.41
688.18	13066.69
688.527	12976.98
688.874	12997.99
689.221	12960.25
689.568	12960.48
689.915	12860.14
690.262	12869.18
690.609	12793.48
690.956	12805.45
691.303	12738.34
691.65	12676.42
691.997	12641.84
692.344	12601.84
692.69	12538.12
693.037	12498.12
693.383	12414.05
693.73	12453.6
694.077	12448.18
694.423	12380.38
694.769	12284.79
695.116	12253.83
695.462	12259.25
695.808	12187.39
696.155	12248.63
696.501	12160.27
696.847	12111.46
697.193	12027.85
697.539	12067.85
697.885	11899.04
698.231	11859.72
698.577	11873.05
698.923	11904.91
699.269	11822.88
699.614	11765.03
699.96	11718.93
700.306	11735.2
700.651	11657.01
700.997	11609.78
701.342	11636.22
701.688	11590.8
702.033	11530.23
702.379	11466.05
702.724	11468.54
703.069	11412.04
703.415	11316.91
703.76	11332.72
704.105	11286.85
704.45	11295.44
704.795	11195.78
705.14	11199.85
705.485	11212.73
705.83	11073.97
706.175	11095.22
706.52	11063.58
706.865	10963.92
707.209	10995.78
707.554	10905.62
707.899	10830.82
708.243	10834.88
708.588	10824.72
708.932	10727.32
709.277	10777.71
709.621	10736.36
709.966	10680.09
710.31	10732.06
710.654	10614.55
710.998	10671.27
711.342	10577.04
711.687	10562.35
712.031	10530.03
712.375	10518.96
712.719	10502.92
713.063	10509.92
713.407	10554.89
713.75	10407.1
714.094	10481
714.438	10375.01
714.782	10415.46
715.125	10398.96
715.469	10367.33
715.812	10281.23
716.156	10281.68
716.499	10238.29
716.843	10306.76
717.186	10213.21
717.53	10298.63
717.873	10241.91
718.216	10186.54
718.559	10215.47
718.902	10094.57
719.246	10182.47
719.589	10147.22
719.932	10083.04
720.275	10089.82
720.617	9982.25
720.96	9986.77
721.303	10004.62
721.646	9970.27
721.989	9952.65
722.331	9988.58
722.674	9981.35
723.016	9957.62
723.359	9999.65
723.701	9965.08
724.044	9876.04
724.386	9873.33
724.729	9903.16
725.071	9878.75
725.413	9883.27
725.755	9868.13
726.097	9885.76
726.439	9850.96
726.782	9786.32
727.124	9898.86
727.465	9842.14
727.807	9833.33
728.149	9868.58
728.491	9734.8
728.833	9778.42
729.175	9787
729.516	9757.62
729.858	9776.61
730.199	9743.61
730.541	9785.87
730.882	9739.09
731.224	9772.77
731.565	9633.33
731.906	9651.41
732.248	9772.31
732.589	9598.31
732.93	9615.03
733.271	9683.05
733.612	9709.72
733.953	9667.23
734.294	9656.61
734.635	9622.26
734.976	9667.68
735.317	9609.15
735.658	9636.72
735.999	9683.95
736.339	9676.27
736.68	9692.09
737.021	9730.96
737.361	9694.58
737.702	9725.31
738.042	9666.33
738.383	9605.54
738.723	9767.12
739.063	9660.45
739.404	9720.34
739.744	9734.8
740.084	9742.71
740.424	9713.78
740.764	9712.88
741.104	9805.53
741.444	9834.01
741.784	9823.61
742.124	9783.84
742.464	9834.23
742.804	9837.4
743.143	9827
743.483	9888.02
743.823	9870.62
744.162	9874.68
744.502	9922.82
744.841	9874.68
745.181	10052.76
745.52	9939.09
745.86	10055.24
746.199	10050.95
746.538	10106.77
746.877	10137.05
747.216	10238.52
747.556	10171.4
747.895	10260.21
748.234	10244.84
748.573	10308.8
748.911	10379.3
749.25	10464.27
749.589	10449.36
749.928	10570.71
750.267	10577.49
750.605	10645.29
750.944	10747.2
751.283	10679.63
751.621	10884.83
751.96	10901.32
752.298	11043.24
752.636	11114.2
752.975	11163.01
753.313	11239.17
753.651	11377.24
753.989	11451.37
754.327	11537.69
754.666	11629.44
755.004	11801.64
755.342	11949.21
755.679	12081.41
756.017	12113.5
756.355	12310.78
756.693	12361.85
757.031	12556.87
757.368	12673.25
757.706	12864.44
758.044	12908.73
758.381	13085.9
758.719	13266.91
759.056	13411.99
759.394	13517.75
759.731	13632.33
760.068	13797.29
760.405	13934.92
760.743	14076.61
761.08	14251.74
761.417	14410.84
761.754	14592.3
762.091	14771.05
762.428	14881.78
762.765	14938.96
763.102	15190.02
763.438	15319.29
763.775	15448.55
764.112	15541.88
764.449	15821.42
764.785	15915.43
765.122	15946.61
765.458	16113.16
765.795	16309.09
766.131	16526.26
766.467	16622.53
766.804	16674.05
767.14	16899.58
767.476	17116.53
767.812	17094.16
768.148	17380.25
768.485	17356.07
768.821	17461.6
769.157	17660.47
769.492	17772.1
769.828	17931.65
770.164	18030.18
770.5	18031.98
770.836	18120.57
771.171	18219.78
771.507	18342.26
771.842	18356.95
772.178	18549.94
772.513	18560.11
772.849	18683.04
773.184	18703.6
773.519	18815.01
773.855	18799.42
774.19	18978.63
774.525	18896.14
774.86	19064.27
775.195	19193.31
775.53	19037.83
775.865	19171.84
776.2	19123.48
776.535	19146.08
776.87	19196.92
777.205	19195.34
777.539	19166.42
777.874	19353.08
778.209	19296.58
778.543	19353.3
778.878	19321.22
779.212	19432.17
779.547	19394.43
779.881	19457.93
780.215	19440.53
780.55	19509.01
780.884	19419.97
781.218	19460.87
781.552	19445.96
781.886	19471.72
782.22	19382.91
782.554	19455.22
782.888	19306.75
783.222	19332.29
783.556	19347.88
783.889	19366.86
784.223	19277.83
784.557	19239.18
784.89	19318.73
785.224	19263.36
785.557	19227.88
785.891	19245.28
786.224	19205.51
786.558	19299.29
786.891	19076.48
787.224	19174.78
787.557	19087.55
787.891	19117.38
788.224	19166.87
788.557	19132.97
788.89	19116.47
789.223	19063.14
789.556	18923.03
789.888	18963.71
790.221	18918.29
790.554	18836.93
790.887	18790.61
791.219	18796.71
791.552	18730.5
791.884	18608.47
792.217	18654.11
792.549	18661.57
792.882	18601.91
793.214	18547.9
793.546	18659.76
793.879	18583.38
794.211	18461.12
794.543	18512.42
794.875	18410.96
795.207	18512.65
795.539	18428.13
795.871	18357.62
796.203	18270.62
796.535	18156.05
796.867	18247.35
797.198	18083.06
797.53	18104.52
797.862	18062.94
798.193	18093.45
798.525	17984.08
798.856	18029.5
799.188	17853.91
799.519	17764.19
799.85	17786.34
800.182	17711.31
800.513	17736.85
800.844	17627.47
801.175	17697.98
801.506	17721.48
801.837	17657.3
802.168	17538.66
802.499	17565.1
802.83	17497.08
803.161	17486.91
803.491	17384.09
803.822	17410.08
804.153	17297.54
804.483	17312
804.814	17085.12
805.145	17194.94
805.475	17098.22
805.805	17015.29
806.136	16979.81
806.466	17100.93
806.796	16928.96
807.126	16871.34
807.457	16887.38
807.787	16886.48
808.117	16754.95
808.447	16727.39
808.777	16732.58
809.107	16706.82
809.436	16668.18
809.766	16582.53
810.096	16642.42
810.426	16562.42
810.755	16513.61
811.085	16417.79
811.414	16487.62
811.744	16359.49
812.073	16350.22
812.403	16307.74
812.732	16247.17
813.061	16299.37
813.39	16162.65
813.719	16142.32
814.049	16206.49
814.378	16202.88
814.707	16081.53
815.036	16021.19
815.365	16005.14
815.693	15828.65
816.022	15928.31
816.351	15846.96
816.68	15834.08
817.008	15907.29
817.337	15669.79
817.665	15739.61
817.994	15649.45
818.322	15630.24
818.651	15649.45
818.979	15471.6
819.307	15680.18
819.636	15536.23
819.964	15566.74
820.292	15601.99
820.62	15576.91
820.948	15509.11
821.276	15514.31
821.604	15523.12
821.932	15552.73
822.259	15567.42
822.587	15542.78
822.915	15469.56
823.243	15559.51
823.57	15536.23
823.898	15458.49
824.225	15448.77
824.553	15477.47
824.88	15527.19
825.207	15570.81
825.535	15479.06
825.862	15526.06
826.189	15445.16
826.516	15599.73
826.843	15609.67
827.17	15550.92
827.497	15504.14
827.824	15567.87
828.151	15554.08
828.478	15533.07
828.805	15592.73
829.131	15554.08
829.458	15493.97
829.785	15413.97
830.111	15493.29
830.438	15620.52
830.764	15492.16
831.09	15628.2
831.417	15471.6
831.743	15520.86
832.069	15461.2
832.395	15477.47
832.722	15572.61
833.048	15387.76
833.374	15505.04
833.7	15336.01
834.026	15456.23
834.351	15370.36
834.677	15390.02
835.003	15411.26
835.329	15366.29
835.654	15281.77
835.98	15296.24
836.306	15276.35
836.631	15288.78
836.956	15366.06
837.282	15259.85
837.607	15223.47
837.932	15132.62
838.258	15164.49
838.583	15134.21
838.908	15108.9
839.233	15088.11
839.558	15039.97
839.883	15002.68
840.208	15032.97
840.533	15003.81
840.858	14998.62
841.182	14932.18
841.507	14910.71
841.832	14893.31
842.156	14886.08
842.481	14869.13
842.805	14841.33
843.13	14755.46
843.454	14746.65
843.778	14655.58
844.103	14638.4
844.427	14647.44
844.751	14568.8
845.075	14557.5
845.399	14488.12
845.723	14445.86
846.047	14417.84
846.371	14414.45
846.695	14343.72
847.019	14203.38
847.343	14259.43
847.666	14139.2
847.99	13981.47
848.313	14053.78
848.637	13984.63
848.96	13952.99
849.284	13958.42
849.607	13802.04
849.931	13803.85
850.254	13716.16
850.577	13659.22
850.9	13599.56
851.223	13613.57
851.546	13478.2
851.869	13440.01
852.192	13406.57
852.515	13361.15
852.838	13287.7
853.161	13290.41
853.483	13158.89
853.806	13133.58
854.129	13067.82
854.451	13063.53
854.774	13028.05
855.096	12930.65
855.419	12907.15
855.741	12884.1
856.063	12823.98
856.385	12872.8
856.708	12825.34
857.03	12719.13
857.352	12664.89
857.674	12685.68
857.996	12560.04
858.318	12515.29
858.64	12591.9
858.961	12570.43
859.283	12466.93
859.605	12466.93
859.926	12464.22
860.248	12378.35
860.57	12283.21
860.891	12333.6
861.212	12267.39
861.534	12226.03
861.855	12174.28
862.176	12186.04
862.498	12207.96
862.819	12209.54
863.14	12174.96
863.461	12140.61
863.782	12001.41
864.103	12009.09
864.424	12154.62
864.745	12037.56
865.065	11974.74
865.386	11912.82
865.707	11939.71
866.027	11949.88
866.348	11944.01
866.668	11917.12
866.989	11893.39
867.309	11791.7
867.63	11847.06
867.95	11865.82
868.27	11684.35
868.59	11710.57
868.91	11674.41
869.23	11745.14
869.55	11679.16
869.87	11717.57
870.19	11582.66
870.51	11662.89
870.83	11694.75
871.15	11575.66
871.469	11610.91
871.789	11557.13
872.109	11543.57
872.428	11493.4
872.748	11460.18
873.067	11443.68
873.386	11476.68
873.706	11410.69
874.025	11392.61
874.344	11383.57
874.663	11392.16
874.982	11390.8
875.301	11363.01
875.62	11287.3
875.939	11298.83
876.258	11380.18
876.577	11310.58
876.896	11242.78
877.214	11268.55
877.533	11263.8
877.852	11250.92
878.17	11225.61
878.489	11201.88
878.807	11181.77
879.125	11247.98
879.444	11150.36
879.762	11158.72
880.08	11128.21
880.398	11047.31
880.716	11086.4
881.034	11047.31
881.352	10967.31
881.67	10949.68
881.988	10959.63
882.306	10954.88
882.624	10925.73
882.941	10889.8
883.259	10842.57
883.577	10854.09
883.894	10836.24
884.212	10885.96
884.529	10767.32
884.846	10787.43
885.164	10729.12
885.481	10694.32
885.798	10647.77
886.115	10574.33
886.432	10626.08
886.75	10603.93
887.067	10560.54
887.383	10518.51
887.7	10487.32
888.017	10452.52
888.334	10461.56
888.651	10468.11
888.967	10410.04
889.284	10358.29
889.6	10410.04
889.917	10252.98
890.233	10269.7
890.55	10299.08
890.866	10312.19
891.182	10223.38
891.498	10176.37
891.815	10115.36
892.131	10121.68
892.447	10039.2
892.763	9996.94
893.079	9993.1
893.395	10054.79
893.71	9921.01
894.026	9920.33
894.342	9932.31
894.657	9821.13
894.973	9822.03
895.289	9807.57
895.604	9827.68
895.92	9703.61
896.235	9658.19
896.55	9679.43
896.865	9632.88
897.181	9577.97
897.496	9593.11
897.811	9525.99
898.126	9509.04
898.441	9479.21
898.756	9456.62
899.071	9409.84
899.386	9366.67
899.7	9284.64
900.015	9349.05
900.33	9163.74
900.644	9144.99
900.959	9207.36
901.273	9124.2
901.588	9094.82
901.902	9097.76
902.216	9002.16
902.531	9039.45
902.845	9017.08
903.159	8930.08
903.473	8877.87
903.787	8893.92
904.101	8810.31
904.415	8791.55
904.729	8775.96
905.042	8759.68
905.356	8705.22
905.67	8686.47
905.984	8701.83
906.297	8622.51
906.611	8558.11
906.924	8573.48
907.237	8552.91
907.551	8563.31
907.864	8466.81
908.177	8425.68
908.491	8381.16
908.804	8354.27
909.117	8285.35
909.43	8240.38
909.743	8218.23
910.056	8235.4
910.368	8199.25
910.681	8167.16
910.994	8142.53
911.307	8095.97
911.619	8010.55
911.932	8079.25
912.244	7964.45
912.557	7979.37
912.869	7913.83
913.181	7917
913.494	7891.69
913.806	7840.16
914.118	7801.29
914.43	7695.31
914.742	7712.71
915.054	7716.55
915.366	7627.29
915.678	7620.96
915.99	7582.31
916.302	7568.76
916.613	7498.48
916.925	7472.04
917.236	7429.78
917.548	7421.64
917.859	7401.08
918.171	7390.23
918.482	7310.23
918.794	7332.15
919.105	7298.71
919.416	7237.69
919.727	7262.1
920.038	7252.15
920.349	7165.83
920.66	7147.75
920.971	7108.43
921.282	7143.91
921.593	7052.39
921.903	7001.99
922.214	6986.62
922.525	7059.62
922.835	6952.05
923.146	6898.04
923.456	6900.52
923.767	6858.94
924.077	6821.2
924.387	6775.33
924.697	6756.35
925.008	6726.74
925.318	6714.54
925.628	6692.39
925.938	6705.05
926.248	6627.31
926.558	6609.46
926.867	6569.23
927.177	6550.25
927.487	6534.88
927.796	6439.52
928.106	6447.43
928.416	6418.28
928.725	6427.99
929.034	6372.63
929.344	6386.19
929.653	6343.48
929.962	6256.47
930.271	6256.93
930.581	6211.28
930.89	6164.72
931.199	6188.23
931.508	6171.96
931.817	6140.77
932.125	6180.77
932.434	6085.4
932.743	6080.21
933.051	6040.43
933.36	6003.6
933.669	6007.21
933.977	5898.29
934.286	5999.31
934.594	5918.4
934.902	5895.13
935.21	5877.27
935.519	5818.75
935.827	5805.19
936.135	5823.49
936.443	5747.11
936.751	5736.26
937.059	5745.75
937.367	5646.09
937.674	5673.44
937.982	5667.56
938.29	5642.25
938.597	5603.84
938.905	5592.31
939.213	5481.58
939.52	5561.8
939.827	5562.03
940.135	5475.48
940.442	5452.2
940.749	5435.03
941.056	5493.78
941.363	5391.19
941.67	5320.45
941.977	5367.91
942.284	5306.67
942.591	5312.77
942.898	5301.02
943.205	5313
943.511	5222.15
943.818	5240.46
944.125	5229.38
944.431	5188.03
944.738	5170.85
945.044	5167.91
945.35	5110.74
945.657	5111.42
945.963	5056.28
946.269	5050.63
946.575	5034.36
946.881	5002.5
947.187	5007.47
947.493	4967.02
947.799	4940.12
948.105	4896.51
948.41	4900.35
948.716	4882.27
949.022	4854.93
949.327	4833.69
949.633	4796.17
949.938	4790.75
950.244	4774.25
950.549	4717.98
950.854	4709.4
951.16	4748.94
951.465	4672.33
951.77	4620.81
952.075	4638.44
952.38	4647.25
952.685	4628.95
952.99	4539.91
953.294	4556.41
953.599	4524.99
953.904	4553.69
954.209	4482.96
954.513	4473.92
954.818	4468.27
955.122	4448.84
955.426	4453.58
955.731	4401.61
956.035	4398.22
956.339	4370.2
956.643	4340.59
956.948	4317.77
957.252	4303.98
957.556	4367.71
957.86	4201.39
958.163	4289.97
958.467	4267.37
958.771	4221.05
959.075	4218.79
959.378	4190.99
959.682	4162.97
959.985	4154.38
960.289	4153.48
960.592	4149.64
960.896	4106.7
961.199	4066.25
961.502	4073.03
961.805	4017.66
962.108	3994.39
962.411	3975.63
962.714	3988.51
963.017	3962.07
963.32	3977.66
963.623	3965.91
963.926	3934.5
964.228	3899.47
964.531	3893.82
964.833	3857.89
965.136	3795.97
965.438	3849.53
965.741	3818.35
966.043	3800.04
966.345	3797.1
966.648	3785.8
966.95	3793.71
967.252	3739.25
967.554	3730.21
967.856	3715.52
968.158	3658.35
968.46	3659.93
968.761	3628.75
969.063	3652.93
969.365	3632.59
969.666	3602.76
969.968	3605.02
970.269	3554.62
970.571	3583.1
970.872	3564.57
971.174	3478.92
971.475	3529.09
971.776	3519.82
972.077	3485.02
972.378	3473.5
972.679	3439.82
972.98	3442.99
973.281	3406.38
973.582	3435.76
973.883	3396.44
974.183	3357.12
974.484	3335.87
974.785	3356.21
975.085	3370.9
975.386	3340.84
975.686	3345.82
975.986	3309.43
976.287	3261.07
976.587	3259.49
976.887	3261.98
977.187	3254.74
977.487	3196.89
977.787	3188.31
978.087	3182.43
978.387	3178.14
978.687	3192.37
978.987	3152.83
979.286	3130.23
979.586	3135.2
979.885	3095.2
980.185	3091.36
980.484	3080.51
980.784	3066.95
981.083	3053.39
981.382	3045.26
981.682	3039.61
981.981	3014.53
982.28	3010.01
982.579	2959.39
982.878	2979.95
983.177	2965.26
983.475	2913.74
983.774	2920.52
984.073	2905.83
984.372	2906.05
984.67	2908.77
984.969	2862.44
985.267	2855.43
985.566	2871.48
985.864	2817.02
986.162	2800.07
986.461	2814.08
986.759	2793.51
987.057	2770.92
987.355	2752.61
987.653	2792.16
987.951	2750.58
988.249	2722.33
988.547	2739.28
988.844	2687.75
989.142	2707.87
989.44	2681.65
989.737	2679.17
990.035	2659.73
990.332	2635.1
990.63	2650.47
990.927	2615.89
991.224	2605.5
991.521	2591.49
991.819	2571.6
992.116	2605.72
992.413	2553.29
992.71	2558.72
993.006	2549.45
993.303	2546.29
993.6	2531.6
993.897	2540.41
994.193	2505.61
994.49	2471.26
994.787	2471.26
995.083	2470.36
995.379	2441.43
995.676	2410.25
995.972	2434.43
996.268	2359.63
996.565	2411.83
996.861	2375.45
997.157	2393.3
997.453	2360.53
997.749	2348.1
998.044	2329.57
998.34	2319.4
998.636	2311.04
998.932	2300.65
999.227	2278.05
999.523	2273.98
999.818	2304.26
1000.114	2281.44
1000.409	2230.37
1000.704	2214.55
1001	2210.7
1001.295	2180.65
1001.59	2210.48
1001.885	2216.35
1002.18	2177.94
1002.475	2152.4
1002.77	2138.16
1003.065	2117.15
1003.359	2138.84
1003.654	2124.83
1003.949	2097.26
1004.243	2098.17
1004.538	2070.37
1004.832	2106.53
1005.127	2042.8
1005.421	2039.64
1005.715	2041.67
1006.009	2043.7
1006.304	1987.66
1006.598	2014.1
1006.892	1966.64
1007.186	2009.13
1007.48	1978.85
1007.773	1937.94
1008.067	1950.6
1008.361	1911.96
1008.655	1909.47
1008.948	1891.16
1009.242	1915.8
1009.535	1922.35
1009.829	1862.92
1010.122	1870.37
1010.415	1843.48
1010.708	1843.93
1011.001	1803.03
1011.295	1815.23
1011.588	1792.18
1011.881	1807.78
1012.173	1789.92
1012.466	1786.99
1012.759	1785.63
1013.052	1762.13
1013.344	1740.66
1013.637	1719.87
1013.93	1717.84
1014.222	1727.1
1014.514	1701.79
1014.807	1690.72
1015.099	1665.41
1015.391	1697.27
1015.683	1649.82
1015.976	1656.59
1016.268	1647.56
1016.56	1626.31
1016.851	1630.83
1017.143	1621.12
1017.435	1605.3
1017.727	1580.21
1018.018	1570.27
1018.31	1561.68
1018.602	1543.83
1018.893	1569.82
1019.185	1517.62
1019.476	1545.86
1019.767	1535.47
1020.058	1524.17
1020.35	1509.03
1020.641	1495.47
1020.932	1450.27
1021.223	1494.11
1021.514	1455.92
1021.804	1448.46
1022.095	1448.69
1022.386	1407.56
1022.677	1430.84
1022.967	1389.26
1023.258	1395.13
1023.548	1391.29
1023.839	1419.76
1024.129	1388.81
1024.419	1360.11
1024.709	1352.87
1025	1369.6
1025.29	1335.47
1025.58	1336.6
1025.87	1343.83
1026.16	1298.86
1026.449	1322.59
1026.739	1297.73
1027.029	1306.32
1027.319	1273.33
1027.608	1273.1
1027.898	1295.93
1028.187	1271.75
1028.477	1261.13
1028.766	1264.97
1029.055	1217.06
1029.344	1229.94
1029.634	1211.41
1029.923	1215.02
1030.212	1211.41
1030.501	1201.24
1030.79	1204.86
1031.078	1167.79
1031.367	1177.06
1031.656	1172.99
1031.945	1166.89
1032.233	1145.65
1032.522	1115.37
1032.81	1159.66
1033.099	1127.57
1033.387	1132.77
1033.675	1109.49
1033.963	1130.96
1034.251	1090.06
1034.54	1104.74
1034.828	1091.19
1035.116	1106.1
1035.403	1065.2
1035.691	1064.75
1035.979	1064.97
1036.267	1048.7
1036.554	1040.34
1036.842	1035.59
1037.129	1027.01
1037.417	1039.21
1037.704	1017.52
1037.992	1008.02
1038.279	1001.47
1038.566	999.89
1038.853	999.89
1039.14	999.89
