Data from hue_260_FLMS001491_00074.txt Node
Date: Tue Feb 07 15:59:34 GMT 2017
User: dcchb
Spectrometer: FLMS00149
Trigger mode: 0
Integration Time (sec): 2.000000E-2
Scans to average: 10
Electric dark correction enabled: true
Nonlinearity correction enabled: false
Boxcar width: 0
XAxis mode: Wavelengths
Number of Pixels in Spectrum: 2048
>>>>>Begin Spectral Data<<<<<
341.393	-22.09
341.776	-22.09
342.16	-22.09
342.543	-59.38
342.927	-53.05
343.31	-75.65
343.693	-75.2
344.077	-70.22
344.46	-45.14
344.843	-45.59
345.226	-54.18
345.61	-10.79
345.993	-10.11
346.376	4.35
346.759	-8.08
347.142	28.3
347.525	51.35
347.908	51.58
348.291	87.96
348.674	76.89
349.057	94.52
349.44	118.25
349.823	124.57
350.206	168.19
350.588	186.27
350.971	208.19
351.354	212.48
351.737	219.26
352.119	259.48
352.502	256.77
352.884	251.12
353.267	261.07
353.65	294.51
354.032	292.93
354.414	302.65
354.797	306.72
355.179	319.14
355.562	318.24
355.944	318.69
356.326	333.61
356.709	317.34
357.091	319.37
357.473	302.87
357.855	327.73
358.238	325.7
358.62	324.57
359.002	316.21
359.384	334.06
359.766	324.12
360.148	335.41
360.53	342.42
360.912	321.86
361.294	328.86
361.676	337.45
362.057	341.06
362.439	292.7
362.821	311.01
363.203	304.68
363.584	322.76
363.966	308.52
364.348	316.66
364.729	298.35
365.111	324.57
365.493	315.3
365.874	306.49
366.256	314.62
366.637	292.48
367.019	321.86
367.4	294.51
367.781	290.9
368.163	307.85
368.544	311.69
368.925	304.91
369.306	318.24
369.688	315.75
370.069	341.74
370.45	326.6
370.831	309.65
371.212	314.4
371.593	328.41
371.974	311.23
372.355	312.59
372.736	320.27
373.117	315.98
373.498	312.59
373.879	302.87
374.26	300.61
374.641	297.45
375.021	308.52
375.402	330.9
375.783	305.36
376.163	316.66
376.544	316.88
376.925	304.68
377.305	333.61
377.686	336.77
378.066	329.99
378.447	330.22
378.827	316.21
379.208	337.45
379.588	344.68
379.968	339.03
380.349	314.4
380.729	320.5
381.109	324.57
381.489	343.78
381.87	324.12
382.25	344.68
382.63	350.33
383.01	341.06
383.39	341.52
383.77	329.09
384.15	341.06
384.53	332.7
384.91	328.18
385.29	338.8
385.67	332.48
386.049	331.35
386.429	340.39
386.809	355.53
387.189	336.09
387.568	355.08
387.948	352.14
388.328	322.08
388.707	359.37
389.087	374.51
389.466	337.22
389.846	364.79
390.225	376.54
390.605	328.41
390.984	345.13
391.363	350.56
391.743	358.92
392.122	367.05
392.501	390.1
392.881	386.26
393.26	360.27
393.639	382.87
394.018	383.55
394.397	394.17
394.776	396.2
395.155	392.36
395.534	380.39
395.913	379.48
396.292	367.73
396.671	384.23
397.05	380.39
397.429	385.36
397.808	389.88
398.186	405.02
398.565	401.18
398.944	398.01
399.323	395.75
399.701	384.91
400.08	419.25
400.458	421.51
400.837	396.66
401.215	404.79
401.594	413.6
401.972	414.96
402.351	416.32
402.729	405.02
403.107	444.56
403.486	431.01
403.864	447.28
404.242	403.21
404.62	446.37
404.999	455.86
405.377	461.06
405.755	464.23
406.133	434.17
406.511	421.97
406.889	451.12
407.267	459.71
407.645	468.07
408.023	465.13
408.401	481.85
408.779	495.41
409.156	488.63
409.534	484.11
409.912	511.91
410.29	511.91
410.667	511.91
411.045	548.29
411.422	528.18
411.8	529.99
412.178	526.37
412.555	533.6
412.933	555.07
413.31	545.13
413.687	555.97
414.065	570.21
414.442	579.02
414.819	601.4
415.197	585.8
415.574	605.46
415.951	595.75
416.328	589.87
416.705	618.8
417.082	635.29
417.46	615.18
417.837	635.07
418.214	645.69
418.591	658.34
418.967	647.05
419.344	655.18
419.721	664.45
420.098	669.42
420.475	693.15
420.852	693.82
421.228	682.75
421.605	719.81
421.982	732.01
422.358	705.8
422.735	769.75
423.111	760.04
423.488	769.98
423.864	780.37
424.241	777.66
424.617	798.23
424.994	810.66
425.37	822.86
425.746	839.81
426.123	839.36
426.499	844.78
426.875	858.11
427.251	873.93
427.627	872.8
428.003	880.71
428.379	875.29
428.756	914.38
429.132	940.6
429.507	933.59
429.883	942.86
430.259	929.07
430.635	945.57
431.011	949.41
431.387	959.58
431.763	973.59
432.138	994.61
432.514	1025.11
432.89	1018.56
433.265	1049.52
433.641	1069.41
434.016	1086.58
434.392	1113.02
434.767	1124.32
435.143	1124.77
435.518	1139.24
435.894	1163.87
436.269	1172
436.644	1206.35
437.02	1194.6
437.395	1244.54
437.77	1250.19
438.145	1287.71
438.52	1269.85
438.895	1290.64
439.271	1296.07
439.646	1345.33
440.021	1355.05
440.395	1373.13
440.77	1349.63
441.145	1403.64
441.52	1401.83
441.895	1402.05
442.27	1409.51
442.645	1429.85
443.019	1449.74
443.394	1442.05
443.769	1463.97
444.143	1466.46
444.518	1513.91
444.892	1509.4
445.267	1501.49
445.641	1543.29
446.016	1531.32
446.39	1543.97
446.764	1557.08
447.139	1567.25
447.513	1600.69
447.887	1596.85
448.262	1598.43
448.636	1618.32
449.01	1597.53
449.384	1649.05
449.758	1671.65
450.132	1680.92
450.506	1664.19
450.88	1689.05
451.254	1657.64
451.628	1708.03
452.002	1734.02
452.376	1743.29
452.75	1758.65
453.123	1778.31
453.497	1805.43
453.871	1794.81
454.244	1826.22
454.618	1885.66
454.992	1838.43
455.365	1879.56
455.739	1903.96
456.112	1938.99
456.486	1906.9
456.859	1982.83
457.232	1998.42
457.606	1998.65
457.979	1982.83
458.352	2031.42
458.725	2058.08
459.099	2078.87
459.472	2088.82
459.845	2103.96
460.218	2158.87
460.591	2150.28
460.964	2170.39
461.337	2232.77
461.71	2245.65
462.083	2274.8
462.456	2263.5
462.829	2265.08
463.201	2306.21
463.574	2327.23
463.947	2353.67
464.32	2377.17
464.692	2411.07
465.065	2444.96
465.438	2475.25
465.81	2495.81
466.183	2502.59
466.555	2544.62
466.928	2576.49
467.3	2603.6
467.672	2599.31
468.045	2646.99
468.417	2678.4
468.789	2687.44
469.161	2751.62
469.534	2768.12
469.906	2842.47
470.278	2865.07
470.65	2838.4
471.022	2902.13
471.394	2933.09
471.766	3006.53
472.138	3010.15
472.51	3020.54
472.882	3095.34
473.253	3113.65
473.625	3152.97
473.997	3233.64
474.369	3225.96
474.74	3280.2
475.112	3315.9
475.484	3371.95
475.855	3364.49
476.227	3421.44
476.598	3472.28
476.97	3541.66
477.341	3603.8
477.713	3594.31
478.084	3671.37
478.455	3721.54
478.827	3730.35
479.198	3883.34
479.569	3860.52
479.94	3943.46
480.311	3955.21
480.682	4048.99
481.053	4132.6
481.424	4231.36
481.795	4214.18
482.166	4268.87
482.537	4287.63
482.908	4391.13
483.279	4381.41
483.65	4449.21
484.021	4584.57
484.391	4582.76
484.762	4607.39
485.133	4664.34
485.503	4722.42
485.874	4800.38
486.244	4802.64
486.615	4884.67
486.985	4928.29
487.356	5031.79
487.726	5051.45
488.097	5142.29
488.467	5128.96
488.837	5278.11
489.207	5281.05
489.578	5338.22
489.948	5383.64
490.318	5436.98
490.688	5448.73
491.058	5523.3
491.428	5624.32
491.798	5659.34
492.168	5756.74
492.538	5773.69
492.908	5815.04
493.278	5875.38
493.648	5825.89
494.017	5917.19
494.387	5973.23
494.757	5991.31
495.126	6033.8
495.496	6094.36
495.866	6142.72
496.235	6200.8
496.605	6276.95
496.974	6222.04
497.344	6290.96
497.713	6258.87
498.082	6339.55
498.452	6380.45
498.821	6413.22
499.19	6390.4
499.559	6455.71
499.928	6508.36
500.298	6478.3
500.667	6524.86
501.036	6535.7
501.405	6635.59
501.774	6556.04
502.143	6600.56
502.512	6595.36
502.88	6618.64
503.249	6672.88
503.618	6723.04
503.987	6758.3
504.356	6771.63
504.724	6830.16
505.093	6803.72
505.462	6835.81
505.83	6832.42
506.199	6913.32
506.567	6954.9
506.936	6919.42
507.304	7011.62
507.672	6992.19
508.041	6973.66
508.409	7026.54
508.777	7106.31
509.145	7096.59
509.514	7098.17
509.882	7131.62
510.25	7162.13
510.618	7128.91
510.986	7177.95
511.354	7241.9
511.722	7242.13
512.09	7241
512.458	7238.96
512.826	7312.41
513.193	7344.72
513.561	7330.49
513.929	7348.11
514.297	7379.98
514.664	7425.62
515.032	7405.74
515.4	7445.96
515.767	7463.14
516.135	7446.64
516.502	7423.59
516.869	7524.6
517.237	7539.29
517.604	7473.98
517.972	7544.72
518.339	7589.91
518.706	7591.72
519.073	7565.28
519.44	7670.59
519.808	7703.13
520.175	7600.08
520.542	7681.44
520.909	7708.1
521.276	7622.68
521.643	7755.11
522.009	7738.16
522.376	7706.07
522.743	7797.14
523.11	7803.92
523.477	7856.12
523.843	7782
524.21	7883.01
524.577	7911.03
524.943	7974.54
525.31	7938.38
525.676	7967.08
526.043	7963.91
526.409	7999.85
526.776	8071.93
527.142	8040.3
527.508	8006.85
527.874	8058.83
528.241	8111.93
528.607	8070.8
528.973	8144.93
529.339	8086.62
529.705	8100.18
530.071	8134.31
530.437	8190.35
530.803	8235.32
531.169	8201.65
531.535	8164.81
531.901	8175.43
532.267	8155.77
532.632	8130.24
532.998	8250.69
533.364	8181.31
533.73	8188.32
534.095	8266.28
534.461	8259.27
534.826	8243.91
535.192	8256.56
535.557	8240.07
535.923	8252.49
536.288	8297.01
536.653	8208.43
537.019	8153.74
537.384	8223.57
537.749	8246.17
538.114	8216.56
538.479	8254.53
538.845	8191.03
539.21	8187.41
539.575	8194.42
539.94	8146.96
540.305	8196.23
540.67	8192.16
541.034	8212.04
541.399	8181.76
541.764	8190.8
542.129	8167.3
542.494	8174.98
542.858	8119.62
543.223	8184.02
543.587	8197.13
543.952	8140.86
544.316	8090.92
544.681	8147.19
545.045	8124.81
545.41	8132.5
545.774	8159.62
546.138	8109.67
546.503	8123.01
546.867	8111.03
547.231	8146.06
547.595	8067.19
547.959	8157.36
548.324	8110.8
548.688	8050.47
549.052	8030.58
549.416	8025.61
549.779	8057.7
550.143	8070.35
550.507	8075.32
550.871	8048.88
551.235	8061.77
551.599	8090.69
551.962	8158.49
552.326	8111.03
552.689	8083.69
553.053	8021.77
553.417	8013.86
553.78	8132.95
554.143	8069.22
554.507	8039.62
554.87	8083.23
555.234	8134.31
555.597	8033.52
555.96	8080.07
556.323	8125.94
556.686	8099.28
557.05	8100.86
557.413	8169.56
557.776	8106.51
558.139	8166.17
558.502	8125.04
558.865	8187.64
559.228	8117.36
559.59	8181.08
559.953	8122.55
560.316	8201.42
560.679	8201.2
561.041	8261.31
561.404	8285.94
561.767	8277.8
562.129	8208.65
562.492	8330.23
562.854	8300.4
563.217	8245.72
563.579	8340.85
563.941	8313.51
564.304	8421.76
564.666	8423.56
565.028	8396.67
565.39	8425.37
565.753	8438.7
566.115	8453.85
566.477	8464.69
566.839	8459.72
567.201	8527.29
567.563	8480.29
567.925	8605.48
568.287	8590.57
568.648	8557.35
569.01	8692.26
569.372	8681.86
569.734	8585.82
570.095	8715.99
570.457	8741.07
570.819	8709.43
571.18	8734.29
571.542	8710.56
571.903	8768.64
572.265	8828.07
572.626	8849.09
572.987	8842.76
573.349	8820.16
573.71	8899.03
574.071	8921.63
574.432	8954.85
574.794	9014.73
575.155	8993.49
575.516	8980.84
575.877	9056.32
576.238	9048.86
576.599	9111.46
576.96	9004.11
577.32	9084.11
577.681	9079.14
578.042	9100.61
578.403	9122.53
578.763	9204.56
579.124	9173.83
579.485	9212.24
579.845	9261.28
580.206	9167.5
580.566	9242.98
580.927	9244.56
581.287	9314.84
581.648	9270.1
582.008	9346.03
582.368	9378.34
582.728	9362.07
583.089	9372.01
583.449	9392.58
583.809	9400.04
584.169	9468.06
584.529	9468.73
584.889	9458.11
585.249	9474.16
585.609	9420.15
585.969	9498.34
586.329	9481.84
586.688	9529.52
587.048	9534.72
587.408	9523.65
587.768	9553.48
588.127	9570.88
588.487	9571.78
588.846	9567.71
589.206	9589.41
589.565	9568.62
589.925	9664.66
590.284	9620.82
590.643	9672.34
591.003	9628.5
591.362	9753.25
591.721	9640.48
592.08	9793.02
592.44	9774.04
592.799	9782.17
593.158	9730.65
593.517	9738.33
593.876	9775.17
594.235	9772.91
594.593	9795.05
594.952	9822.85
595.311	9785.34
595.67	9771.55
596.029	9881.38
596.387	9862.62
596.746	9956.63
597.104	9851.55
597.463	9901.72
597.822	9898.33
598.18	9935.84
598.538	9874.83
598.897	9972.22
599.255	9890.87
599.613	9997.76
599.972	9892.23
600.33	9963.18
600.688	9995.95
601.046	9974.03
601.404	9964.09
601.762	9999.12
602.12	10028.49
602.478	10037.98
602.836	9994.14
603.194	10041.6
603.552	10030.08
603.91	10011.32
604.268	9987.59
604.625	9951.66
604.983	9962.28
605.341	10000.47
605.698	10029.17
606.056	10032.11
606.413	10096.74
606.771	10062.39
607.128	10127.02
607.485	10059.45
607.843	10069.4
608.2	10088.38
608.557	10074.37
608.914	10139
609.272	10124.08
609.629	10143.52
609.986	10243.18
610.343	10220.13
610.7	10308.94
611.057	10235.27
611.414	10242.73
611.771	10213.12
612.127	10224.65
612.484	10258.09
612.841	10346.23
613.198	10248.15
613.554	10312.33
613.911	10269.39
614.267	10283.18
614.624	10254.93
614.98	10294.93
615.337	10396.39
615.693	10333.57
616.05	10321.37
616.406	10388.48
616.762	10352.33
617.118	10368.15
617.475	10399.33
617.831	10319.56
618.187	10340.35
618.543	10401.59
618.899	10503.51
619.255	10357.3
619.611	10409.27
619.967	10422.16
620.323	10484.3
620.678	10441.14
621.034	10417.86
621.39	10428.71
621.746	10397.98
622.101	10452.89
622.457	10365.43
622.812	10454.24
623.168	10490.4
623.523	10476.17
623.879	10528.37
624.234	10450.63
624.589	10396.85
624.945	10540.57
625.3	10498.76
625.655	10400.91
626.01	10429.84
626.365	10500.57
626.72	10506.9
627.075	10435.71
627.43	10474.81
627.785	10349.61
628.14	10399.78
628.495	10393.23
628.85	10462.38
629.205	10412.44
629.559	10367.02
629.914	10382.38
630.269	10359.56
630.623	10440.69
630.978	10347.81
631.332	10442.27
631.687	10464.87
632.041	10394.81
632.396	10359.33
632.75	10342.84
633.104	10364.76
633.459	10284.98
633.813	10247.47
634.167	10298.99
634.521	10236.4
634.875	10218.54
635.229	10299.45
635.583	10140.35
635.937	10218.32
636.291	10183.97
636.645	10181.26
636.999	10172.44
637.352	10224.42
637.706	10190.52
638.06	10167.92
638.413	10176.96
638.767	10137.42
639.121	10063.52
639.474	10138.32
639.828	10070.75
640.181	10068.72
640.534	10143.07
640.888	10036.63
641.241	9961.6
641.594	9972.68
641.947	10029.85
642.301	10020.81
642.654	10028.72
643.007	10010.19
643.36	10039.79
643.713	9972
644.066	10042.5
644.419	9934.48
644.771	9914.6
645.124	9872.11
645.477	9807.48
645.83	9696.07
646.182	9690.2
646.535	9664.21
646.888	9729.97
647.24	9587.83
647.593	9656.07
647.945	9619.01
648.298	9647.03
648.65	9577.88
649.002	9629.63
649.355	9703.76
649.707	9605.23
650.059	9633.25
650.411	9756.18
650.763	9731.1
651.115	9889.51
651.467	9866.69
651.819	9860.36
652.171	9852.9
652.523	9804.09
652.875	9857.42
653.227	9773.36
653.578	9834.6
653.93	9817.43
654.282	9769.74
654.633	9775.17
654.985	9863.53
655.337	9829.4
655.688	9812.91
656.039	9882.28
656.391	9837.99
656.742	9830.08
657.094	9831.89
657.445	9809.74
657.796	9771.55
658.147	9795.51
658.498	9738.33
658.849	9809.06
659.2	9784.43
659.551	9789.63
659.902	9827.59
660.253	9797.09
660.604	9807.48
660.955	9802.74
661.306	9826.46
661.656	9880.7
662.007	9791.44
662.358	9802.06
662.708	9803.19
663.059	9869.18
663.409	9733.36
663.76	9806.13
664.11	9825.33
664.461	9889.51
664.811	9830.08
665.161	9830.53
665.511	9740.59
665.862	9837.76
666.212	9842.06
666.562	9829.4
666.912	9821.04
667.262	9819.69
667.612	9806.8
667.962	9764.32
668.312	9769.52
668.662	9828.05
669.011	9842.96
669.361	9804.09
669.711	9740.82
670.06	9787.82
670.41	9764.55
670.76	9767.94
671.109	9822.62
671.459	9789.86
671.808	9795.05
672.157	9804.32
672.507	9696.07
672.856	9740.14
673.205	9721.61
673.554	9743.98
673.904	9669.63
674.253	9745.11
674.602	9621.05
674.951	9552.12
675.3	9506.7
675.649	9637.09
675.998	9653.59
676.346	9667.6
676.695	9722.29
677.044	9598.22
677.393	9657.2
677.741	9574.04
678.09	9648.39
678.438	9538.34
678.787	9539.69
679.135	9545.12
679.484	9513.48
679.832	9544.89
680.181	9576.08
680.529	9584.66
680.877	9522.97
681.225	9489.07
681.573	9488.17
681.922	9455.63
682.27	9441.16
682.618	9366.14
682.966	9376.31
683.314	9482.07
683.661	9408.4
684.009	9204.33
684.357	9297.67
684.705	9324.78
685.053	9290.21
685.4	9265.8
685.748	9288.85
686.095	9197.1
686.443	9199.36
686.79	9142.19
687.138	9168.18
687.485	9128.63
687.832	9186.93
688.18	9165.24
688.527	9117.78
688.874	9066.26
689.221	9088.41
689.568	9009.09
689.915	9011.34
690.262	9010.44
690.609	8911.23
690.956	8983.1
691.303	8913.04
691.65	8918.47
691.997	8873.5
692.344	8812.03
692.69	8808.86
693.037	8785.59
693.383	8687.51
693.73	8769.54
694.077	8649.32
694.423	8653.61
694.769	8617.68
695.116	8640.96
695.462	8580.17
695.808	8612.03
696.155	8561.64
696.501	8544.46
696.847	8536.33
697.193	8429.89
697.539	8418.59
697.885	8359.38
698.231	8340.85
698.577	8380.63
698.923	8380.18
699.269	8298.6
699.614	8231.48
699.96	8241.87
700.306	8211.59
700.651	8195.77
700.997	8105.83
701.342	8038.72
701.688	8058.83
702.033	8048.21
702.379	8023.8
702.724	8052.95
703.069	8031.26
703.415	7925.05
703.76	7952.16
704.105	7970.47
704.45	7887.08
704.795	7813.86
705.14	7829.23
705.485	7836.46
705.83	7767.54
706.175	7785.61
706.52	7711.94
706.865	7717.59
707.209	7687.54
707.554	7649.12
707.899	7658.84
708.243	7584.04
708.588	7627.43
708.932	7600.99
709.277	7575.45
709.621	7571.61
709.966	7476.02
710.31	7559.18
710.654	7503.81
710.998	7487.09
711.342	7426.75
711.687	7463.14
712.031	7452.52
712.375	7460.65
712.719	7405.29
713.063	7410.48
713.407	7400.77
713.75	7348.34
714.094	7365.96
714.438	7301.33
714.782	7329.13
715.125	7297.04
715.469	7325.06
715.812	7218.4
716.156	7265.4
716.499	7282.12
716.843	7302.01
717.186	7209.58
717.53	7243.03
717.873	7240.09
718.216	7178.62
718.559	7161.22
718.902	7056.14
719.246	7138.85
719.589	7148.57
719.932	7113.54
720.275	7094.11
720.617	7073.32
720.96	7120.55
721.303	7059.76
721.646	7064.5
721.989	7051.62
722.331	7088.46
722.674	7059.53
723.016	7076.25
723.359	7033.09
723.701	7038.06
724.044	6999.19
724.386	6970.72
724.729	6994.45
725.071	6986.31
725.413	7004.17
725.755	7014.34
726.097	6973.88
726.439	6940.89
726.782	6923.72
727.124	7006.43
727.465	6939.08
727.807	6887.56
728.149	6882.81
728.491	6937.05
728.833	6924.17
729.175	6901.34
729.516	6875.13
729.858	6863.83
730.199	6891.17
730.541	6872.87
730.882	6889.14
731.224	6926.65
731.565	6839.88
731.906	6874.45
732.248	6900.44
732.589	6856.6
732.93	6832.87
733.271	6812.98
733.612	6862.02
733.953	6864.51
734.294	6830.39
734.635	6812.08
734.976	6868.58
735.317	6869.48
735.658	6854.34
735.999	6914.9
736.339	6840.55
736.68	6921
737.021	6837.84
737.361	6808.69
737.702	6848.46
738.042	6876.71
738.383	6875.81
738.723	6871.06
739.063	6835.13
739.404	6852.08
739.744	6822.02
740.084	6869.93
740.424	6890.72
740.764	6894.56
741.104	6939.99
741.444	6884.4
741.784	6944.73
742.124	6931.63
742.464	6909.25
742.804	6962.36
743.143	6926.65
743.483	6989.93
743.823	7014.11
744.162	6979.08
744.502	7047.33
744.841	7052.75
745.181	7018.4
745.52	7028.57
745.86	7112.41
746.199	7089.59
746.538	7146.54
746.877	7152.18
747.216	7194.22
747.556	7205.74
747.895	7280.09
748.234	7295.01
748.573	7303.82
748.911	7325.06
749.25	7363.48
749.589	7464.94
749.928	7572.29
750.267	7551.5
750.605	7590.37
750.944	7652.51
751.283	7715.79
751.621	7759.85
751.96	7886.85
752.298	7880.3
752.636	7967.3
752.975	7965.72
753.313	8115.55
753.651	8225.6
753.989	8216.34
754.327	8316.22
754.666	8399.16
755.004	8492.04
755.342	8520.96
755.679	8620.39
756.017	8774.52
756.355	8901.74
756.693	9015.19
757.031	9059.48
757.368	9175.41
757.706	9248.17
758.044	9390.32
758.381	9563.42
758.719	9579.24
759.056	9809.52
759.394	9852.68
759.731	9980.81
760.068	10044.99
760.405	10159.56
760.743	10277.07
761.08	10438.43
761.417	10545.99
761.754	10700.34
762.091	10782.15
762.428	10886.55
762.765	11013.55
763.102	11189.14
763.438	11318.63
763.775	11356.82
764.112	11533.09
764.449	11744.15
764.785	11784.38
765.122	11814.21
765.458	11960.42
765.795	12177.14
766.131	12345.27
766.467	12382.78
766.804	12430.92
767.14	12579.39
767.476	12717.91
767.812	12770.79
768.148	12882.2
768.485	12898.47
768.821	13035.65
769.157	13142.08
769.492	13266.83
769.828	13243.78
770.164	13383.66
770.5	13492.36
770.836	13530.1
771.171	13551.56
771.507	13664.33
771.842	13691.22
772.178	13855.96
772.513	13791.78
772.849	13905
773.184	13950.42
773.519	14128.05
773.855	14021.61
774.19	14126.01
774.525	14253.24
774.86	14177.99
775.195	14257.31
775.53	14383.41
775.865	14340.7
776.2	14389.28
776.535	14282.62
776.87	14462.5
777.205	14376.85
777.539	14399
777.874	14446.23
778.209	14398.1
778.543	14506.12
778.878	14450.98
779.212	14523.29
779.547	14506.57
779.881	14612.1
780.215	14547.92
780.55	14584.53
780.884	14509.51
781.218	14518.09
781.552	14622.27
781.886	14512.67
782.22	14541.14
782.554	14551.76
782.888	14449.85
783.222	14474.7
783.556	14481.94
783.889	14477.42
784.223	14506.57
784.557	14344.31
784.89	14448.72
785.224	14411.43
785.557	14331.43
785.891	14429.51
786.224	14364.65
786.558	14462.95
786.891	14415.5
787.224	14367.81
787.557	14305.9
787.891	14315.39
788.224	14233.35
788.557	14387.93
788.89	14323.97
789.223	14351.32
789.556	14271.77
789.888	14229.74
790.221	14188.16
790.554	14156.52
790.887	14204.65
791.219	14078.78
791.552	14001.72
791.884	14064.09
792.217	14096.63
792.549	13933.93
792.882	13940.71
793.214	13829.07
793.546	13965.56
793.879	13871.33
794.211	13741.16
794.543	13808.51
794.875	13785.23
795.207	13769.86
795.539	13760.37
795.871	13743.65
796.203	13723.09
796.535	13574.84
796.867	13612.81
797.198	13552.02
797.53	13534.16
797.862	13476.31
798.193	13472.02
798.525	13448.74
798.856	13480.61
799.188	13355.19
799.519	13329.65
799.85	13312.7
800.182	13272.48
800.513	13277.45
800.844	13202.42
801.175	13238.8
801.506	13225.25
801.837	13114.06
802.168	13138.92
802.499	13091.46
802.83	13100.95
803.161	13039.71
803.491	13058.02
803.822	13005.14
804.153	13046.72
804.483	12847.85
804.814	12878.81
805.145	12886.95
805.475	12850.34
805.805	12869.32
806.136	12837.91
806.466	12785.03
806.796	12766.05
807.126	12677.01
807.457	12631.14
807.787	12676.56
808.117	12573.74
808.447	12588.43
808.777	12620.52
809.107	12602.44
809.436	12556.56
809.766	12467.07
810.096	12495.1
810.426	12399.05
810.755	12458.03
811.085	12434.08
811.414	12411.26
811.744	12358.15
812.073	12329.45
812.403	12312.28
812.732	12249.9
813.061	12265.95
813.39	12189.34
813.719	12192.96
814.049	12216.01
814.378	12120.42
814.707	12102.11
815.036	12066.18
815.365	12024.37
815.693	11872.06
816.022	11977.14
816.351	11980.98
816.68	11943.92
817.008	11888.33
817.337	11829.58
817.665	11774.44
817.994	11893.08
818.322	11757.04
818.651	11772.4
818.979	11660.31
819.307	11760.88
819.636	11748.45
819.964	11652.41
820.292	11708.9
820.62	11793.19
820.948	11606.98
821.276	11727.43
821.604	11653.76
821.932	11710.03
822.259	11709.35
822.587	11694.44
822.915	11599.3
823.243	11746.19
823.57	11667.09
823.898	11658.51
824.225	11589.13
824.553	11660.31
824.88	11639.52
825.207	11710.71
825.535	11698.96
825.862	11702.57
826.189	11612.86
826.516	11664.16
826.843	11727.21
827.17	11744.61
827.497	11722.69
827.824	11800.42
828.151	11715.23
828.478	11658.06
828.805	11755.45
829.131	11711.39
829.458	11690.6
829.785	11635.91
830.111	11684.27
830.438	11704.83
830.764	11729.24
831.09	11702.8
831.417	11618.96
831.743	11697.83
832.069	11640.43
832.395	11640.88
832.722	11645.17
833.048	11628.9
833.374	11700.77
833.7	11610.15
834.026	11698.51
834.351	11641.11
834.677	11562.92
835.003	11549.58
835.329	11610.6
835.654	11523.82
835.98	11425.07
836.306	11548
836.631	11501.22
836.956	11524.5
837.282	11488.12
837.607	11515.01
837.932	11386.2
838.258	11451.96
838.583	11430.26
838.908	11384.39
839.233	11437.04
839.558	11332.87
839.883	11311.62
840.208	11377.16
840.533	11365.41
840.858	11313.88
841.182	11301.91
841.507	11317.73
841.832	11226.65
842.156	11274.56
842.481	11184.62
842.805	11113.21
843.13	11196.82
843.454	11143.49
843.778	11063.27
844.103	11060.56
844.427	11052.2
844.751	11119.09
845.075	10937.62
845.399	10966.55
845.723	10919.77
846.047	10878.41
846.371	10798.42
846.695	10818.98
847.019	10705.31
847.343	10730.4
847.666	10607.69
847.99	10639.32
848.313	10578.99
848.637	10559.1
848.96	10482.04
849.284	10502.15
849.607	10399.11
849.931	10349.61
850.254	10279.11
850.577	10267.81
850.9	10198.88
851.223	10188.04
851.546	10122.28
851.869	10089.06
852.192	10123.63
852.515	10049.74
852.838	10009.74
853.161	10002.96
853.483	9909.85
853.806	9918.89
854.129	9847.48
854.451	9890.19
854.774	9823.75
855.096	9790.99
855.419	9802.74
855.741	9763.64
856.063	9711.89
856.385	9707.37
856.708	9671.67
857.03	9661.72
857.352	9637.09
857.674	9576.98
857.996	9552.57
858.318	9481.16
858.64	9532.46
858.961	9486.36
859.283	9430.99
859.605	9374.95
859.926	9429.64
860.248	9407.27
860.57	9328.85
860.891	9338.12
861.212	9331.34
861.534	9365.01
861.855	9263.77
862.176	9230.55
862.498	9279.59
862.819	9256.76
863.14	9232.81
863.461	9203.88
863.782	9182.87
864.103	9111.68
864.424	9146.26
864.745	9247.95
865.065	9052.25
865.386	9037.11
865.707	9074.85
866.027	9087.5
866.348	9008.63
866.668	9027.84
866.989	9067.61
867.309	8958.69
867.63	8942.65
867.95	8971.8
868.27	8879.37
868.59	8987.84
868.91	8899.48
869.23	8906.04
869.55	8859.03
869.87	8897.68
870.19	8881.63
870.51	8862.42
870.83	8900.39
871.15	8790.33
871.469	8801.41
871.789	8817.45
872.109	8774.74
872.428	8748.08
872.748	8728.87
873.067	8705.36
873.386	8766.38
873.706	8750.11
874.025	8666.5
874.344	8698.36
874.663	8702.43
874.982	8693.61
875.301	8623.78
875.62	8599.6
875.939	8614.52
876.258	8600.51
876.577	8536.33
876.896	8559.83
877.214	8550.79
877.533	8548.76
877.852	8498.82
878.17	8516.44
878.489	8557.57
878.807	8553.28
879.125	8549.66
879.444	8459.95
879.762	8454.07
880.08	8374.75
880.398	8366.62
880.716	8396.22
881.034	8409.78
881.352	8336.79
881.67	8342.21
881.988	8378.59
882.306	8322.1
882.624	8283
882.941	8237.13
883.259	8250.01
883.577	8139.05
883.894	8168.88
884.212	8217.24
884.529	8179.95
884.846	8184.25
885.164	8138.6
885.481	8127.07
885.798	8156.9
886.115	8076
886.432	8049.11
886.75	8038.04
887.067	8031.94
887.383	7977.47
887.7	8078.49
888.017	7984.71
888.334	7983.58
888.651	7929.11
888.967	7933.86
889.284	7857.25
889.6	7891.37
889.917	7822.22
890.233	7817.48
890.55	7711.72
890.866	7731.38
891.182	7751.94
891.498	7713.07
891.815	7737.25
892.131	7695.67
892.447	7654.09
892.763	7642.57
893.079	7627.65
893.395	7565.28
893.71	7608.44
894.026	7564.38
894.342	7530.03
894.657	7428.79
894.973	7452.29
895.289	7384.04
895.604	7444.15
895.92	7364.61
896.235	7327.1
896.55	7367.77
896.865	7323.71
897.181	7305.18
897.496	7292.75
897.811	7248.68
898.126	7214.33
898.441	7201.68
898.756	7177.72
899.071	7188.79
899.386	7119.19
899.7	7119.19
900.015	7059.08
900.33	6964.17
900.644	7026.99
900.959	7006.43
901.273	6976.6
901.588	6908.58
901.902	6942.7
902.216	6914.68
902.531	6876.71
902.845	6897.05
903.159	6789.03
903.473	6778.18
903.787	6767.11
904.101	6677.17
904.415	6689.6
904.729	6728.02
905.042	6639.43
905.356	6625.64
905.67	6622.26
905.984	6636.49
906.297	6576.83
906.611	6535.25
906.924	6566.66
907.237	6496.16
907.551	6425.2
907.864	6467.91
908.177	6482.82
908.491	6385.88
908.804	6385.88
909.117	6374.13
909.43	6241.47
909.743	6296.39
910.056	6286.9
910.368	6271.98
910.681	6198.09
910.994	6210.74
911.307	6166.67
911.619	6161.93
911.932	6152.89
912.244	6122.61
912.557	6074.02
912.869	6040.8
913.181	6014.81
913.494	5944.98
913.806	5997.41
914.118	5957.19
914.43	5882.61
914.742	5912.9
915.054	5865.44
915.366	5844.87
915.678	5832.9
915.99	5794.03
916.302	5789.51
916.613	5710.64
916.925	5725.56
917.236	5768.72
917.548	5717.19
917.859	5703.18
918.171	5622.06
918.482	5623.41
918.794	5607.14
919.105	5566.24
919.416	5546.35
919.727	5505.45
920.038	5538.22
920.349	5522.85
920.66	5504.54
920.971	5442.4
921.282	5423.19
921.593	5368.95
921.903	5335.51
922.214	5386.36
922.525	5350.88
922.835	5263.19
923.146	5277.88
923.456	5281.05
923.767	5268.39
924.077	5272.23
924.387	5232.24
924.697	5187.49
925.008	5194.72
925.318	5147.27
925.628	5172.12
925.938	5121.05
926.248	5081.28
926.558	5095.06
926.867	5017.33
927.177	5038.12
927.487	5024.11
927.796	4964.45
928.106	4987.27
928.416	4946.37
928.725	4977.33
929.034	4919.48
929.344	4882.64
929.653	4886.26
929.962	4854.17
930.271	4854.84
930.581	4844.9
930.89	4782.08
931.199	4763.32
931.508	4729.42
931.817	4745.02
932.125	4705.02
932.434	4738.46
932.743	4685.58
933.051	4669.31
933.36	4628.41
933.669	4624.34
933.977	4596.77
934.286	4567.62
934.594	4537.34
934.902	4567.39
935.21	4542.76
935.519	4498.24
935.827	4496.66
936.135	4511.58
936.443	4450.33
936.751	4420.96
937.059	4407.4
937.367	4377.12
937.674	4399.26
937.982	4385.25
938.29	4323.78
938.597	4360.62
938.905	4309.1
939.213	4283.79
939.52	4255.99
939.827	4283.33
940.135	4237.01
940.442	4239.27
940.749	4185.03
941.056	4161.08
941.363	4177.8
941.67	4154.07
941.977	4078.14
942.284	4131.7
942.591	4091.47
942.898	4074.53
943.205	4065.03
943.511	4076.56
943.818	4030.91
944.125	3971.93
944.431	3981.42
944.738	3959.27
945.044	3935.77
945.35	3929.67
945.657	3913.85
945.963	3872.72
946.269	3865.49
946.575	3905.94
946.881	3874.08
947.187	3835.89
947.493	3820.3
947.799	3832.27
948.105	3795.66
948.41	3759.73
948.716	3780.52
949.022	3766.74
949.327	3751.14
949.633	3722.9
949.938	3730.81
950.244	3701.65
950.549	3677.93
950.854	3677.7
951.16	3648.1
951.465	3643.58
951.77	3623.01
952.075	3641.77
952.38	3584.37
952.685	3575.33
952.99	3545.73
953.294	3520.64
953.599	3533.52
953.904	3508.44
954.209	3448.78
954.513	3465.05
954.818	3468.89
955.122	3458.04
955.426	3441.55
955.731	3373.53
956.035	3394.77
956.339	3418.95
956.643	3372.4
956.948	3321.33
957.252	3345.28
957.556	3333.53
957.86	3325.84
958.163	3300.31
958.467	3270.93
958.771	3286.75
959.075	3276.35
959.378	3253.53
959.682	3270.25
959.985	3239.75
960.289	3203.81
960.592	3233.19
960.896	3215.79
961.199	3185.74
961.502	3150.03
961.805	3151.39
962.108	3112.29
962.411	3119.07
962.714	3124.49
963.017	3098.28
963.32	3114.78
963.623	3071.39
963.926	3092.4
964.228	3050.82
964.531	3049.02
964.833	3005.4
965.136	3018.96
965.438	2979.19
965.741	2984.38
966.043	2905.97
966.345	2943.93
966.648	2947.78
966.95	2918.4
967.252	2898.96
967.554	2919.75
967.856	2922.01
968.158	2907.55
968.46	2853.54
968.761	2876.59
969.063	2860.32
969.365	2809.25
969.666	2851.05
969.968	2811.51
970.269	2772.64
970.571	2772.86
970.872	2817.38
971.174	2759.08
971.475	2746.42
971.776	2724.28
972.077	2688.57
972.378	2738.29
972.679	2717.27
972.98	2704.17
973.281	2631.4
973.582	2696.71
973.883	2687.67
974.183	2644.05
974.484	2641.79
974.785	2616.03
975.085	2644.73
975.386	2594.11
975.686	2600.44
975.986	2591.17
976.287	2540.78
976.587	2541.01
976.887	2543.72
977.187	2531.52
977.487	2548.69
977.787	2531.97
978.087	2474.79
978.387	2474.57
978.687	2470.95
978.987	2470.5
979.286	2452.65
979.586	2450.84
979.885	2420.56
980.185	2432.31
980.484	2394.34
980.784	2427.56
981.083	2407.45
981.382	2419.65
981.682	2397.06
981.981	2367.68
982.28	2348.24
982.579	2308.47
982.878	2363.38
983.177	2320.22
983.475	2328.58
983.774	2302.59
984.073	2302.82
984.372	2273.9
984.67	2264.18
984.969	2279.32
985.267	2282.93
985.566	2245.2
985.864	2206.33
986.162	2241.13
986.461	2211.75
986.759	2181.69
987.057	2168.14
987.355	2161.13
987.653	2208.36
987.951	2139.66
988.249	2161.13
988.547	2100.34
988.844	2105.31
989.142	2118.87
989.44	2121.36
989.737	2114.35
990.035	2100.57
990.332	2062.6
990.63	2075.71
990.927	2058.31
991.224	2074.13
991.521	2050.62
991.819	2058.31
992.116	2028.03
992.413	2014.24
992.71	2021.02
993.006	1980.57
993.303	1978.99
993.6	1983.96
993.897	1985.99
994.193	1993.22
994.49	1957.52
994.787	1979.67
995.083	1940.34
995.379	1924.53
995.676	1897.18
995.972	1927.46
996.268	1898.76
996.565	1911.19
996.861	1895.15
997.157	1886.79
997.453	1868.71
997.749	1862.83
998.044	1852.44
998.34	1832.32
998.636	1830.97
998.932	1817.64
999.227	1811.31
999.523	1807.92
999.818	1830.06
1000.114	1783.51
1000.409	1795.26
1000.704	1756.17
1001	1718.2
1001.295	1750.97
1001.59	1730.18
1001.885	1730.63
1002.18	1711.88
1002.475	1707.36
1002.77	1713.91
1003.065	1686.79
1003.359	1698.77
1003.654	1692.44
1003.949	1656.51
1004.243	1649.96
1004.538	1658.32
1004.832	1654.02
1005.127	1659
1005.421	1628.94
1005.715	1597.98
1006.009	1617.64
1006.304	1597.98
1006.598	1569.51
1006.892	1601.82
1007.186	1575.38
1007.48	1564.54
1007.773	1540.81
1008.067	1562.73
1008.361	1553.69
1008.655	1502.16
1008.948	1540.13
1009.242	1494.25
1009.535	1466.01
1009.829	1493.8
1010.122	1483.18
1010.415	1498.77
1010.708	1486.57
1011.001	1439.34
1011.295	1462.84
1011.588	1436.85
1011.881	1429.17
1012.173	1434.6
1012.466	1425.33
1012.759	1400.02
1013.052	1375.84
1013.344	1372.22
1013.637	1405.22
1013.93	1375.84
1014.222	1415.61
1014.514	1344.65
1014.807	1351.43
1015.099	1341.72
1015.391	1347.37
1015.683	1346.69
1015.976	1325.67
1016.268	1333.58
1016.56	1312.34
1016.851	1321.38
1017.143	1281.83
1017.435	1291.32
1017.727	1254.49
1018.018	1290.87
1018.31	1249.97
1018.602	1254.49
1018.893	1244.54
1019.185	1229.63
1019.476	1243.41
1019.767	1215.62
1020.058	1223.3
1020.35	1222.62
1020.641	1214.94
1020.932	1159.35
1021.223	1198.22
1021.514	1177.65
1021.804	1199.12
1022.095	1165
1022.386	1168.61
1022.677	1140.14
1022.967	1174.26
1023.258	1144.66
1023.548	1147.82
1023.839	1151.89
1024.129	1133.13
1024.419	1101.04
1024.709	1085
1025	1106.47
1025.29	1096.3
1025.58	1112.34
1025.87	1084.1
1026.16	1067.15
1026.449	1073.93
1026.739	1055.4
1027.029	1057.43
1027.319	1043.87
1027.608	1041.39
1027.898	1019.01
1028.187	1035.96
1028.477	999.58
1028.766	999.35
1029.055	1012.69
1029.344	995.96
1029.634	1007.49
1029.923	985.34
1030.212	974.72
1030.501	993.7
1030.79	974.72
1031.078	972.69
1031.367	972.69
1031.656	929.52
1031.945	950.31
1032.233	912.35
1032.522	955.74
1032.81	925.23
1033.099	905.57
1033.387	940.37
1033.675	889.75
1033.963	905.34
1034.251	891.33
1034.54	910.54
1034.828	888.39
1035.116	894.72
1035.403	893.82
1035.691	891.78
1035.979	865.12
1036.267	850.43
1036.554	859.24
1036.842	845.46
1037.129	857.21
1037.417	858.11
1037.704	835.06
1037.992	806.36
1038.279	831.45
1038.566	828.74
1038.853	828.74
1039.14	828.74
