Data from hue_170_FLMS001491_00008.txt Node
Date: Tue Feb 07 16:48:10 GMT 2017
User: dcchb
Spectrometer: FLMS00149
Trigger mode: 0
Integration Time (sec): 2.000000E-2
Scans to average: 10
Electric dark correction enabled: true
Nonlinearity correction enabled: false
Boxcar width: 0
XAxis mode: Wavelengths
Number of Pixels in Spectrum: 2048
>>>>>Begin Spectral Data<<<<<
341.393	-16.04
341.776	-16.04
342.16	-16.04
342.543	-74.8
342.927	-89.49
343.31	-61.47
343.693	-68.02
344.077	-73.67
344.46	-49.49
344.843	-43.16
345.226	-42.94
345.61	-60.11
345.993	-15.59
346.376	-6.1
346.759	20.56
347.142	8.14
347.525	50.17
347.908	65.76
348.291	81.58
348.674	96.49
349.057	97.85
349.44	110.96
349.823	149.15
350.206	166.55
350.588	194.57
350.971	196.38
351.354	215.36
351.737	239.32
352.119	247
352.502	257.39
352.884	280.22
353.267	283.16
353.65	277.73
354.032	295.59
354.414	318.41
354.797	321.8
355.179	326.77
355.562	303.72
355.944	331.29
356.326	341.01
356.709	346.66
357.091	335.81
357.473	358.63
357.855	327
358.238	352.99
358.62	349.14
359.002	338.75
359.384	344.4
359.766	334.23
360.148	336.94
360.53	328.8
360.912	332.42
361.294	325.87
361.676	352.31
362.057	311.18
362.439	349.14
362.821	324.74
363.203	308.24
363.584	328.35
363.966	316.83
364.348	339.2
364.729	324.96
365.111	324.74
365.493	318.86
365.874	305.75
366.256	324.06
366.637	311.18
367.019	317.05
367.4	317.96
367.781	319.77
368.163	337.84
368.544	306.21
368.925	286.09
369.306	328.35
369.688	308.69
370.069	325.19
370.45	305.3
370.831	329.48
371.212	301.24
371.593	308.69
371.974	309.37
372.355	330.39
372.736	298.3
373.117	305.08
373.498	304.17
373.879	324.29
374.26	312.76
374.641	302.82
375.021	328.8
375.402	296.26
375.783	313.21
376.163	324.74
376.544	319.77
376.925	324.74
377.305	344.4
377.686	314.34
378.066	326.77
378.447	317.73
378.827	334.23
379.208	320.22
379.588	336.04
379.968	339.43
380.349	320.44
380.729	332.19
381.109	342.82
381.489	336.71
381.87	325.64
382.25	324.06
382.63	338.75
383.01	359.09
383.39	341.01
383.77	343.04
384.15	342.82
384.53	338.3
384.91	355.92
385.29	347.56
385.67	356.15
386.049	349.6
386.429	340.33
386.809	344.62
387.189	368.13
387.568	341.23
387.948	355.7
388.328	367.45
388.707	340.33
389.087	361.12
389.466	351.63
389.846	349.14
390.225	352.99
390.605	349.37
390.984	343.95
391.363	345.53
391.743	368.8
392.122	390.05
392.501	379.43
392.881	370.84
393.26	369.26
393.639	385.98
394.018	375.13
394.397	375.36
394.776	375.81
395.155	370.16
395.534	376.26
395.913	395.24
396.292	376.94
396.671	397.28
397.05	385.75
397.429	374.91
397.808	393.89
398.186	413.55
398.565	407.9
398.944	407.9
399.323	390.5
399.701	394.11
400.08	397.5
400.458	388.92
400.837	427.33
401.215	410.84
401.594	398.86
401.972	398.63
402.351	408.12
402.729	419.88
403.107	418.07
403.486	417.84
403.864	416.03
404.242	430.95
404.62	412.42
404.999	426.66
405.377	436.37
405.755	452.87
406.133	437.5
406.511	433.43
406.889	451.74
407.267	452.64
407.645	437.73
408.023	467.78
408.401	460.78
408.779	472.76
409.156	469.59
409.534	484.51
409.912	477.95
410.29	474.11
410.667	495.58
411.045	499.87
411.422	505.98
411.8	517.05
412.178	503.49
412.555	506.65
412.933	514.11
413.31	520.66
413.687	516.37
414.065	522.47
414.442	544.84
414.819	547.78
415.197	545.52
415.574	551.85
415.951	552.3
416.328	561.79
416.705	559.76
417.082	569.48
417.46	594.11
417.837	569.02
418.214	584.39
418.591	586.88
418.967	603.37
419.344	615.13
419.721	595.69
420.098	601.57
420.475	601.34
420.852	623.71
421.228	641.34
421.605	613.09
421.982	649.02
422.358	649.93
422.735	640.89
423.111	655.8
423.488	662.81
423.864	667.55
424.241	682.69
424.617	679.08
424.994	699.19
425.37	689.02
425.746	709.13
426.123	723.6
426.499	719.3
426.875	722.92
427.251	737.38
427.627	754.1
428.003	760.21
428.379	769.02
428.756	759.3
429.132	777.61
429.507	788.91
429.883	794.78
430.259	811.05
430.635	795.69
431.011	794.56
431.387	854.44
431.763	835.23
432.138	818.28
432.514	869.13
432.89	868.45
433.265	882.01
433.641	891.5
434.016	910.26
434.392	901.9
434.767	928.11
435.143	932.4
435.518	940.99
435.894	973.31
436.269	958.17
436.644	972.86
437.02	967.66
437.395	1003.82
437.77	997.26
438.145	1028.67
438.52	1031.16
438.895	1064.6
439.271	1058.96
439.646	1074.1
440.021	1072.51
440.395	1087.88
440.77	1093.76
441.145	1088.33
441.52	1130.59
441.895	1126.75
442.27	1141.66
442.645	1112.51
443.019	1161.78
443.394	1146.86
443.769	1182.79
444.143	1187.54
444.518	1187.99
444.892	1181.44
445.267	1197.26
445.641	1223.24
446.016	1225.96
446.39	1218.27
446.764	1231.61
447.139	1235
447.513	1249.46
447.887	1257.14
448.262	1273.64
448.636	1294.2
449.01	1264.6
449.384	1315.45
449.758	1295.33
450.132	1333.07
450.506	1342.56
450.88	1349.34
451.254	1341.43
451.628	1361.77
452.002	1394.77
452.376	1380.53
452.75	1418.04
453.123	1411.26
453.497	1431.83
453.871	1464.59
454.244	1486.51
454.618	1495.55
454.992	1525.84
455.365	1524.25
455.739	1562.22
456.112	1553.41
456.486	1613.52
456.859	1616
457.232	1636.12
457.606	1649.67
457.979	1646.51
458.352	1666.85
458.725	1708.66
459.099	1694.87
459.472	1738.26
459.845	1755.43
460.218	1761.31
460.591	1802.44
460.964	1817.35
461.337	1874.3
461.71	1882.44
462.083	1947.29
462.456	1931.7
462.829	1951.36
463.201	1980.06
463.574	1986.39
463.947	2029.33
464.32	2061.19
464.692	2071.81
465.065	2126.72
465.438	2160.17
465.81	2170.56
466.183	2223.22
466.555	2251.01
466.928	2268.87
467.3	2282.65
467.672	2326.94
468.045	2374.17
468.417	2437.68
468.789	2388.86
469.161	2493.27
469.534	2530.33
469.906	2582.3
470.278	2615.07
470.65	2619.82
471.022	2694.17
471.394	2783.66
471.766	2798.34
472.138	2816.65
472.51	2922.86
472.882	2967.83
473.253	3000.6
473.625	3076.76
473.997	3162.4
474.369	3202.63
474.74	3229.52
475.112	3283.53
475.484	3373.92
475.855	3450.53
476.227	3489.4
476.598	3631.77
476.97	3683.74
477.341	3760.81
477.713	3880.8
478.084	3873.12
478.455	4046.45
478.827	4104.98
479.198	4250.74
479.569	4239.66
479.94	4403.27
480.311	4454.8
480.682	4631.97
481.053	4756.26
481.424	4848.91
481.795	4913.77
482.166	5005.07
482.537	5110.6
482.908	5284.61
483.279	5344.27
483.65	5492.96
484.021	5622.23
484.391	5743.13
484.762	5870.13
485.133	5916
485.503	6011.59
485.874	6250.01
486.244	6338.59
486.615	6487.74
486.985	6596.21
487.356	6696.32
487.726	6868.52
488.097	7044.56
488.467	7154.61
488.837	7243.43
489.207	7398.45
489.578	7538.56
489.948	7671.21
490.318	7823.07
490.688	7884.31
491.058	8000.24
491.428	8237.07
491.798	8357.07
492.168	8502.6
492.538	8620.34
492.908	8741.47
493.278	8899.43
493.648	8945.98
494.017	9164.5
494.387	9230.72
494.757	9404.05
495.126	9521.33
495.496	9578.05
495.866	9646.75
496.235	9803.36
496.605	9924.48
496.974	10017.82
497.344	10084.48
497.713	10209
498.082	10230.24
498.452	10407.41
498.821	10446.05
499.19	10542.32
499.559	10714.52
499.928	10787.74
500.298	10893.72
500.667	11001.07
501.036	11024.34
501.405	11133.49
501.774	11185.69
502.143	11232.02
502.512	11305.24
502.88	11429.76
503.249	11468.17
503.618	11565.35
503.987	11659.58
504.356	11631.56
504.724	11692.8
505.093	11796.07
505.462	11811.44
505.83	11976.63
506.199	11977.76
506.567	12139.79
506.936	12116.74
507.304	12126.69
507.672	12300.24
508.041	12351.09
508.409	12495.49
508.777	12530.07
509.145	12594.92
509.514	12433.12
509.882	12675.82
510.25	12641.02
510.618	12739.78
510.986	12831.08
511.354	12849.38
511.722	12915.82
512.09	13005.31
512.458	12966.44
512.826	12979.32
513.193	13112.65
513.561	13109.94
513.929	13138.86
514.297	13319.2
514.664	13337.5
515.032	13355.81
515.4	13375.47
515.767	13335.47
516.135	13458.18
516.502	13346.77
516.869	13548.57
517.237	13570.72
517.604	13493.66
517.972	13552.64
518.339	13636.93
518.706	13685.52
519.073	13621.34
519.44	13671.73
519.808	13738.4
520.175	13715.35
520.542	13818.17
520.909	13845.51
521.276	13837.83
521.643	14010.93
522.009	13899.97
522.376	13925.28
522.743	14024.49
523.11	14018.39
523.477	14187.2
523.843	14136.13
524.21	14264.94
524.577	14294.31
524.943	14324.14
525.31	14299.51
525.676	14414.76
526.043	14391.71
526.409	14407.76
526.776	14439.39
527.142	14487.08
527.508	14450.02
527.874	14480.75
528.241	14428.77
528.607	14475.33
528.973	14515.55
529.339	14414.76
529.705	14527.08
530.071	14650.91
530.437	14450.69
530.803	14492.05
531.169	14577.47
531.535	14466.96
531.901	14544.02
532.267	14460.64
532.632	14561.65
532.998	14507.87
533.364	14511.26
533.73	14526.17
534.095	14528.88
534.461	14537.47
534.826	14401.43
535.192	14492.5
535.557	14522.1
535.923	14378.38
536.288	14367.76
536.653	14355.55
537.019	14211.83
537.384	14325.27
537.749	14212.96
538.114	14203.92
538.479	14203.92
538.845	14222.45
539.21	14060.2
539.575	14058.16
539.94	14100.19
540.305	14096.8
540.67	14026.3
541.034	13960.54
541.399	13963.7
541.764	13906.08
542.129	13842.35
542.494	13768.45
542.858	13836.25
543.223	13831.05
543.587	13739.98
543.952	13660.88
544.316	13683.93
544.681	13606.42
545.045	13612.75
545.41	13664.05
545.774	13580.21
546.138	13520.1
546.503	13438.29
546.867	13436.26
547.231	13500.89
547.595	13374.56
547.959	13335.24
548.324	13306.09
548.688	13312.64
549.052	13229.26
549.416	13248.92
549.779	13192.2
550.143	13069.94
550.507	13156.04
550.871	13059.09
551.235	12975.7
551.599	13065.19
551.962	12932.32
552.326	12885.99
552.689	12931.64
553.053	12858.87
553.417	12831.53
553.78	12851.87
554.143	12781.81
554.507	12830.85
554.87	12813.22
555.234	12856.16
555.597	12716.73
555.96	12623.85
556.323	12730.74
556.686	12671.08
557.05	12732.77
557.413	12672.66
557.776	12605.32
558.139	12641.02
558.502	12606.22
558.865	12539.78
559.228	12655.03
559.59	12571.65
559.953	12599.44
560.316	12622.94
560.679	12614.81
561.041	12562.38
561.404	12661.81
561.767	12676.28
562.129	12551.08
562.492	12659.1
562.854	12584.53
563.217	12528.03
563.579	12529.39
563.941	12575.26
564.304	12592.66
564.666	12622.72
565.028	12638.09
565.39	12635.6
565.753	12553.79
566.115	12602.83
566.477	12546.79
566.839	12693.68
567.201	12666.56
567.563	12723.73
567.925	12725.77
568.287	12710.85
568.648	12710.17
569.01	12711.76
569.372	12805.31
569.734	12682.83
570.095	12762.38
570.457	12763.73
570.819	12796.73
571.18	12716.73
571.542	12807.57
571.903	12787.46
572.265	12757.86
572.626	12818.65
572.987	12754.24
573.349	12843.28
573.71	12841.7
574.071	12900.68
574.432	12970.96
574.794	12961.02
575.155	12933.22
575.516	12859.77
575.877	12937.29
576.238	12871.3
576.599	12942.26
576.96	12883.96
577.32	12846.89
577.681	12868.81
578.042	12939.09
578.403	12798.08
578.763	12946.78
579.124	12898.87
579.485	12956.27
579.845	12966.89
580.206	12894.8
580.566	12825.88
580.927	12849.38
581.287	12940.9
581.648	12851.87
582.008	12939.55
582.368	12820
582.728	12852.77
583.089	12809.38
583.449	12854.58
583.809	12876.95
584.169	12808.93
584.529	12774.81
584.889	12874.46
585.249	12709.95
585.609	12769.83
585.969	12776.84
586.329	12767.8
586.688	12691.19
587.048	12690.97
587.408	12759.66
587.768	12722.83
588.127	12703.17
588.487	12712.43
588.846	12702.26
589.206	12665.66
589.565	12768.93
589.925	12668.14
590.284	12630.63
590.643	12698.2
591.003	12692.77
591.362	12739.55
591.721	12726.9
592.08	12634.92
592.44	12628.82
592.799	12650.51
593.158	12587.01
593.517	12596.05
593.876	12609.61
594.235	12540.91
594.593	12591.08
594.952	12554.47
595.311	12506.11
595.67	12471.76
596.029	12565.77
596.387	12553.34
596.746	12581.36
597.104	12530.97
597.463	12482.61
597.822	12643.74
598.18	12566.45
598.538	12441.25
598.897	12500.91
599.255	12496.62
599.613	12592.66
599.972	12559.44
600.33	12572.55
600.688	12500.69
601.046	12499.78
601.404	12585.43
601.762	12576.84
602.12	12562.61
602.478	12521.93
602.836	12508.82
603.194	12539.56
603.552	12455.49
603.91	12432.89
604.268	12563.74
604.625	12509.5
604.983	12468.15
605.341	12539.33
605.698	12464.08
606.056	12544.75
606.413	12602.61
606.771	12546.34
607.128	12542.5
607.485	12536.85
607.843	12508.15
608.2	12599.22
608.557	12605.77
608.914	12544.08
609.272	12585.43
609.629	12571.87
609.986	12648.93
610.343	12591.31
610.7	12682.15
611.057	12655.26
611.414	12687.8
611.771	12579.33
612.127	12692.55
612.484	12602.61
612.841	12713.11
613.198	12635.37
613.554	12646
613.911	12720.57
614.267	12762.38
614.624	12634.92
614.98	12716.28
615.337	12799.21
615.693	12838.53
616.05	12782.94
616.406	12805.99
616.762	12711.08
617.118	12671.76
617.475	12732.55
617.831	12783.17
618.187	12758.31
618.543	12789.95
618.899	12822.49
619.255	12839.44
619.611	12818.19
619.967	12758.53
620.323	12909.49
620.678	12836.05
621.034	12780.23
621.39	12771.42
621.746	12835.82
622.101	12906.55
622.457	12851.19
622.812	12867.01
623.168	12828.59
623.523	12840.79
623.879	12904.97
624.234	12846.89
624.589	12816.16
624.945	12778.2
625.3	12898.64
625.655	12814.58
626.01	12865.65
626.365	12863.16
626.72	12876.27
627.075	12755.82
627.43	12831.75
627.785	12723.73
628.14	12793.11
628.495	12788.36
628.85	12891.19
629.205	12773.9
629.559	12838.53
629.914	12756.73
630.269	12825.88
630.623	12756.05
630.978	12719.21
631.332	12713.11
631.687	12786.33
632.041	12601.25
632.396	12754.92
632.75	12655.49
633.104	12714.24
633.459	12613
633.813	12528.03
634.167	12564.64
634.521	12580.01
634.875	12596.96
635.229	12542.95
635.583	12558.31
635.937	12538.88
636.291	12548.14
636.645	12583.17
636.999	12536.17
637.352	12483.51
637.706	12511.31
638.06	12467.69
638.413	12457.53
638.767	12444.64
639.121	12489.62
639.474	12387.24
639.828	12407.13
640.181	12385.21
640.534	12428.15
640.888	12352.44
641.241	12289.17
641.594	12257.98
641.947	12393.57
642.301	12386.79
642.654	12312.9
643.007	12301.37
643.36	12263.41
643.713	12211.66
644.066	12299.34
644.419	12215.5
644.771	12154.48
645.124	11983.19
645.477	12009.4
645.83	11930.99
646.182	11914.26
646.535	11932.79
646.888	11811.21
647.24	11882.17
647.593	11928.05
647.945	11880.14
648.298	11821.61
648.65	11834.94
649.002	11781.39
649.355	11848.28
649.707	11909.07
650.059	11955.17
650.411	12032.68
650.763	12115.16
651.115	12157.19
651.467	12102.51
651.819	12082.85
652.171	12098.89
652.523	12123.98
652.875	12076.07
653.227	12039.23
653.578	12201.26
653.93	12139.79
654.282	12050.3
654.633	12008.95
654.985	12050.53
655.337	12074.71
655.688	12071.1
656.039	12184.76
656.391	12055.05
656.742	12040.81
657.094	12111.09
657.445	12146.35
657.796	12099.12
658.147	12100.25
658.498	12102.96
658.849	12178.89
659.2	12104.99
659.551	12092.34
659.902	12146.8
660.253	12169.17
660.604	12140.47
660.955	12154.03
661.306	12107.03
661.656	12204.2
662.007	12152.9
662.358	12178.66
662.708	12134.82
663.059	12213.69
663.409	12089.17
663.76	12179.79
664.11	12138.89
664.461	12218.21
664.811	12172.56
665.161	12146.8
665.511	12159.91
665.862	12217.76
666.212	12151.32
666.562	12199.91
666.912	12180.02
667.262	12127.14
667.612	12116.97
667.962	12187.02
668.312	12105.9
668.662	12251.66
669.011	12275.38
669.361	12121.04
669.711	12182.73
670.06	12221.15
670.41	12157.87
670.76	12136.63
671.109	12171.66
671.459	12118.55
671.808	12159.23
672.157	12163.75
672.507	12049.17
672.856	12069.29
673.205	12077.2
673.554	12095.73
673.904	12085.33
674.253	12175.5
674.602	12011.44
674.951	11860.93
675.3	11883.98
675.649	12025.45
675.998	12044.2
676.346	11956.97
676.695	12025.9
677.044	11935.96
677.393	11927.82
677.741	11956.52
678.09	11954.04
678.438	11967.37
678.787	12001.04
679.135	11923.08
679.484	11818.67
679.832	11904.32
680.181	11810.31
680.529	11848.05
680.877	11739.8
681.225	11810.08
681.573	11875.39
681.922	11738
682.27	11750.2
682.618	11699.58
682.966	11655.06
683.314	11623.88
683.661	11594.27
684.009	11531
684.357	11547.49
684.705	11540.94
685.053	11545.46
685.4	11494.39
685.748	11444.9
686.095	11516.99
686.443	11365.58
686.79	11427.5
687.138	11365.35
687.485	11437.21
687.832	11275.18
688.18	11358.12
688.527	11289.42
688.874	11261.62
689.221	11212.81
689.568	11149.76
689.915	11142.31
690.262	11140.72
690.609	11093.04
690.956	11046.94
691.303	11062.08
691.65	10949.32
691.997	10971.24
692.344	10909.32
692.69	10872.71
693.037	10910.45
693.383	10724.24
693.73	10808.08
694.077	10663
694.423	10825.48
694.769	10714.75
695.116	10632.49
695.462	10660.28
695.808	10558.59
696.155	10591.59
696.501	10454.64
696.847	10464.81
697.193	10376.45
697.539	10482.21
697.885	10401.53
698.231	10346.85
698.577	10349.33
698.923	10284.7
699.269	10246.28
699.614	10164.25
699.96	10164.03
700.306	10166.06
700.651	10067.08
700.997	9951.83
701.342	9992.73
701.688	9967.65
702.033	9943.47
702.379	9978.49
702.724	9833.41
703.069	9933.75
703.415	9812.17
703.76	9741.66
704.105	9827.31
704.45	9708.22
704.795	9663.25
705.14	9618.05
705.485	9594.1
705.83	9623.7
706.175	9558.84
706.52	9526.98
706.865	9560.88
707.209	9464.61
707.554	9430.03
707.899	9452.41
708.243	9367.21
708.588	9338.51
708.932	9282.02
709.277	9275.01
709.621	9305.07
709.966	9209.25
710.31	9265.52
710.654	9183.94
710.998	9181.91
711.342	9148.46
711.687	9096.71
712.031	9100.55
712.375	9023.04
712.719	9044.06
713.063	9063.26
713.407	9039.31
713.75	8992.98
714.094	8952.98
714.438	8973.55
714.782	8922.7
715.125	8920.44
715.469	8904.85
715.812	8882.48
716.156	8858.52
716.499	8856.49
716.843	8824.85
717.186	8788.24
717.53	8861.01
717.873	8807.68
718.216	8808.13
718.559	8856.26
718.902	8737.62
719.246	8725.87
719.589	8716.38
719.932	8694.01
720.275	8673.67
720.617	8701.24
720.96	8675.25
721.303	8708.7
721.646	8640.45
721.989	8601.81
722.331	8700.79
722.674	8583.96
723.016	8662.15
723.359	8601.13
723.701	8567.68
724.044	8541.92
724.386	8573.79
724.729	8533.56
725.071	8552.77
725.413	8527.01
725.755	8543.28
726.097	8557.52
726.439	8463.28
726.782	8469.16
727.124	8541.24
727.465	8493.34
727.807	8477.97
728.149	8436.39
728.491	8467.12
728.833	8458.99
729.175	8439.1
729.516	8487.91
729.858	8416.95
730.199	8493.11
730.541	8484.75
730.882	8491.53
731.224	8504.41
731.565	8400.91
731.906	8452.66
732.248	8517.74
732.589	8441.59
732.93	8427.8
733.271	8470.74
733.612	8462.6
733.953	8440.68
734.294	8388.71
734.635	8420.34
734.976	8430.06
735.317	8391.19
735.658	8449.72
735.999	8420.34
736.339	8449.27
736.68	8449.27
737.021	8461.92
737.361	8436.61
737.702	8496.95
738.042	8483.17
738.383	8532.43
738.723	8527.46
739.063	8544.41
739.404	8521.58
739.744	8498.31
740.084	8496.27
740.424	8485.43
740.764	8557.74
741.104	8598.19
741.444	8553.9
741.784	8536.72
742.124	8600.45
742.464	8623.95
742.804	8605.88
743.143	8610.17
743.483	8702.6
743.823	8695.36
744.162	8762.48
744.502	8710.51
744.841	8800.9
745.181	8806.1
745.52	8833.44
745.86	8901.69
746.199	8900.1
746.538	8949.82
746.877	9068.46
747.216	9020.33
747.556	9134.68
747.895	9112.3
748.234	9150.04
748.573	9232.75
748.911	9282.92
749.25	9359.3
749.589	9415.12
749.928	9479.75
750.267	9546.19
750.605	9677.03
750.944	9707.09
751.283	9770.36
751.621	9932.62
751.96	9902.56
752.298	10066.18
752.636	10089.23
752.975	10293.74
753.313	10319.5
753.651	10451.48
753.989	10486.05
754.327	10660.74
754.666	10660.74
755.004	10842.43
755.342	11104.57
755.679	11182.3
756.017	11284.9
756.355	11517.44
756.693	11542.52
757.031	11748.84
757.368	11837.88
757.706	12015.5
758.044	12171.88
758.381	12322.16
758.719	12523.29
759.056	12680.34
759.394	12757.18
759.731	12946.55
760.068	13097.06
760.405	13254.34
760.743	13356.48
761.08	13571.17
761.417	13776.81
761.754	13937.49
762.091	14171.15
762.428	14276.69
762.765	14334.76
763.102	14705.38
763.438	14802.55
763.775	14899.04
764.112	15106.27
764.449	15346.04
764.785	15479.59
765.122	15619.02
765.458	15742.18
765.795	15819.7
766.131	16092.68
766.467	16259.23
766.804	16452.45
767.14	16389.17
767.476	16763.18
767.812	16729.73
768.148	17018.54
768.485	17072.77
768.821	17124.75
769.157	17268.7
769.492	17376.72
769.828	17531.06
770.164	17550.05
770.5	17671.17
770.836	17920.43
771.171	17930.38
771.507	18091.5
771.842	18112.07
772.178	18160.43
772.513	18253.98
772.849	18427.54
773.184	18397.26
773.519	18479.29
773.855	18624.37
774.19	18702.11
774.525	18756.34
774.86	18824.59
775.195	18828.88
775.53	18895.32
775.865	18863.01
776.2	18856.68
776.535	18858.26
776.87	18975.77
777.205	18976.9
777.539	19050.35
777.874	19158.82
778.209	19076.11
778.543	19140.74
778.878	19081.31
779.212	19266.16
779.547	19196.11
779.881	19348.19
780.215	19267.97
780.55	19354.29
780.884	19268.19
781.218	19328.31
781.552	19353.16
781.886	19308.64
782.22	19265.26
782.554	19304.8
782.888	19273.17
783.222	19235.88
783.556	19130.34
783.889	19268.87
784.223	19039.95
784.557	19040.18
784.89	19183.9
785.224	19182.09
785.557	19088.76
785.891	19026.17
786.224	19067.52
786.558	19170.12
786.891	19019.16
787.224	18961.31
787.557	18950.69
787.891	18923.57
788.224	18992.27
788.557	19010.57
788.89	18950.01
789.223	18973.96
789.556	18855.1
789.888	18876.11
790.221	18776.91
790.554	18634.76
790.887	18748.66
791.219	18688.32
791.552	18663.46
791.884	18579.85
792.217	18763.57
792.549	18526.97
792.882	18565.84
793.214	18472.96
793.546	18450.14
793.879	18265.96
794.211	18274.77
794.543	18392.06
794.875	18393.19
795.207	18478.16
795.539	18298.28
795.871	18292.85
796.203	18156.36
796.535	18123.82
796.867	18044.95
797.198	17972.41
797.53	18056.7
797.862	17962.47
798.193	18006.53
798.525	17916.14
798.856	17872.07
799.188	17699.42
799.519	17695.81
799.85	17546.88
800.182	17691.06
800.513	17686.99
800.844	17571.74
801.175	17608.12
801.506	17519.09
801.837	17441.35
802.168	17510.5
802.499	17440.67
802.83	17268.25
803.161	17279.77
803.491	17340.34
803.822	17315.02
804.153	17244.74
804.483	17125.65
804.814	17068.93
805.145	17078.87
805.475	17025.54
805.805	16980.12
806.136	17021.25
806.466	16978.99
806.796	16895.83
807.126	16767.47
807.457	16786
807.787	16699.67
808.117	16763.63
808.447	16584.42
808.777	16669.39
809.107	16708.26
809.436	16543.07
809.766	16523.86
810.096	16487.02
810.426	16473.69
810.755	16440.02
811.085	16486.8
811.414	16487.7
811.744	16318.44
812.073	16250.87
812.403	16316.63
812.732	16142.4
813.061	16231.89
813.39	16149.63
813.719	16102.85
814.049	16108.5
814.378	16021.27
814.707	16035.06
815.036	16003.87
815.365	15915.51
815.693	15840.71
816.022	15829.41
816.351	15880.26
816.68	15777.66
817.008	15903.99
817.337	15634.84
817.665	15688.63
817.994	15719.81
818.322	15625.35
818.651	15589.42
818.979	15659.93
819.307	15636.88
819.636	15578.35
819.964	15454.96
820.292	15539.25
820.62	15571.12
820.948	15487.05
821.276	15605.69
821.604	15429.88
821.932	15505.81
822.259	15546.71
822.587	15432.59
822.915	15426.26
823.243	15521.63
823.57	15429.42
823.898	15427.84
824.225	15376.54
824.553	15414.96
824.88	15434.4
825.207	15450.44
825.535	15444.79
825.862	15564.79
826.189	15424.68
826.516	15445.02
826.843	15504.68
827.17	15488.41
827.497	15516.65
827.824	15575.86
828.151	15565.01
828.478	15511.68
828.805	15629.87
829.131	15533.6
829.458	15520.04
829.785	15438.92
830.111	15468.29
830.438	15578.8
830.764	15530.67
831.09	15501.97
831.417	15389.65
831.743	15551.91
832.069	15478.46
832.395	15332.93
832.722	15428.07
833.048	15371.8
833.374	15370.67
833.7	15399.82
834.026	15351.69
834.351	15372.03
834.677	15346.49
835.003	15365.47
835.329	15298.58
835.654	15259.49
835.98	15276.89
836.306	15291.35
836.631	15181.97
836.956	15230.33
837.282	15281.41
837.607	15123.9
837.932	15133.84
838.258	15116.44
838.583	15092.48
838.908	14964.8
839.233	15163.67
839.558	15092.48
839.883	15029.89
840.208	14937.69
840.533	14998.48
840.858	14923.9
841.182	14945.14
841.507	14942.21
841.832	14807.07
842.156	14755.77
842.481	14860.63
842.805	14730.01
843.13	14762.32
843.454	14772.27
843.778	14742.66
844.103	14605.94
844.427	14598.26
844.751	14666.73
845.075	14584.93
845.399	14573.85
845.723	14439.85
846.047	14478.94
846.371	14392.39
846.695	14300.41
847.019	14219.06
847.343	14232.62
847.666	14101.55
847.99	14087.31
848.313	13972.97
848.637	13944.04
848.96	13957.15
849.284	13885.96
849.607	13798.06
849.931	13797.15
850.254	13623.6
850.577	13566.2
850.9	13539.31
851.223	13454.79
851.546	13369.37
851.869	13341.34
852.192	13416.6
852.515	13311.06
852.838	13202.59
853.161	13216.38
853.483	13178.41
853.806	13112.88
854.129	13058.41
854.451	13068.13
854.774	12949.04
855.096	12977.29
855.419	12890.96
855.741	12909.94
856.063	12839.66
856.385	12897.74
856.708	12726.22
857.03	12676.5
857.352	12683.51
857.674	12567.58
857.996	12596.28
858.318	12495.04
858.64	12506.79
858.961	12516.96
859.283	12374.82
859.605	12412.55
859.926	12347.02
860.248	12333.01
860.57	12322.84
860.891	12350.41
861.212	12240.13
861.534	12271.54
861.855	12164.65
862.176	12205.78
862.498	12200.13
862.819	12190.87
863.14	12202.62
863.461	12088.04
863.782	12122.17
864.103	12078.1
864.424	12039.68
864.745	12040.14
865.065	11993.81
865.386	11906.35
865.707	11937.31
866.027	11888.95
866.348	11890.99
866.668	11860.93
866.989	11866.13
867.309	11778.67
867.63	11780.03
867.95	11757.88
868.27	11679.24
868.59	11705
868.91	11691.22
869.23	11690.31
869.55	11626.13
869.87	11731.44
870.19	11611.67
870.51	11608.06
870.83	11626.59
871.15	11608.73
871.469	11583.65
871.789	11586.14
872.109	11545.91
872.428	11466.59
872.748	11490.32
873.067	11516.31
873.386	11495.97
873.706	11420.94
874.025	11365.12
874.344	11386.37
874.663	11380.72
874.982	11346.14
875.301	11356.76
875.62	11344.11
875.939	11265.24
876.258	11260.72
876.577	11231.8
876.896	11265.01
877.214	11229.76
877.533	11180.95
877.852	11185.02
878.17	11122.87
878.489	11133.49
878.807	11173.94
879.125	11122.65
879.444	11138.46
879.762	11081.06
880.08	11072.7
880.398	11077.9
880.716	11010.78
881.034	11033.83
881.352	11006.26
881.67	10938.7
881.988	10937.34
882.306	10902.76
882.624	10823.9
882.941	10757.01
883.259	10835.87
883.577	10809.66
883.894	10804.69
884.212	10758.14
884.529	10775.76
884.846	10710.9
885.164	10743.67
885.481	10609.66
885.798	10702.54
886.115	10613.05
886.432	10554.52
886.75	10610.34
887.067	10626.16
887.383	10487.18
887.7	10512.27
888.017	10430.23
888.334	10478.82
888.651	10409.67
888.967	10375.32
889.284	10353.85
889.6	10332.61
889.917	10223.69
890.233	10288.32
890.55	10259.62
890.866	10219.39
891.182	10160.41
891.498	10072.73
891.815	10155.21
892.131	10099.4
892.447	10078.83
892.763	10009.68
893.079	10053.75
893.395	9964.26
893.71	9933.98
894.026	9910.47
894.342	9838.61
894.657	9804.26
894.973	9727.65
895.289	9773.3
895.604	9745.05
895.92	9667.54
896.235	9648.11
896.55	9610.14
896.865	9585.74
897.181	9547.55
897.496	9590.26
897.811	9480.88
898.126	9483.82
898.441	9440.66
898.756	9385.29
899.071	9298.96
899.386	9390.94
899.7	9287.67
900.015	9221.68
900.33	9129.25
900.644	9183.04
900.959	9151.17
901.273	9192.3
901.588	9089.7
901.902	9035.69
902.216	9084.96
902.531	9045.86
902.845	8971.29
903.159	8956.83
903.473	8900.56
903.787	8858.75
904.101	8837.28
904.415	8807.23
904.729	8762.48
905.042	8698.3
905.356	8702.37
905.67	8660.11
905.984	8588.93
906.297	8629.6
906.611	8583.05
906.924	8546.89
907.237	8527.46
907.551	8472.55
907.864	8527.91
908.177	8470.29
908.491	8364.98
908.804	8360.01
909.117	8288.14
909.43	8268.94
909.743	8226.22
910.056	8233
910.368	8188.71
910.681	8061.03
910.994	8076.62
911.307	8088.37
911.619	7995.95
911.932	8025.55
912.244	7957.08
912.557	7909.85
912.869	7849.51
913.181	7908.27
913.494	7841.15
913.806	7798.44
914.118	7811.09
914.43	7681.15
914.742	7722.96
915.054	7677.09
915.366	7706.69
915.678	7575.85
915.99	7546.24
916.302	7576.75
916.613	7441.84
916.925	7459.46
917.236	7392.35
917.548	7421.27
917.859	7431.89
918.171	7345.12
918.482	7325.23
918.794	7304.89
919.105	7298.34
919.416	7209.3
919.727	7177.21
920.038	7162.98
920.349	7132.69
920.66	7143.99
920.971	7124.11
921.282	7091.11
921.593	7030.55
921.903	7013.15
922.214	6991.45
922.525	6941.74
922.835	6917.33
923.146	6843.66
923.456	6886.15
923.767	6842.53
924.077	6826.26
924.387	6809.31
924.697	6728.64
925.008	6769.09
925.318	6705.81
925.628	6705.59
925.938	6690.45
926.248	6617.23
926.558	6598.24
926.867	6596.89
927.177	6556.66
927.487	6517.79
927.796	6456.55
928.106	6479.15
928.416	6442.09
928.725	6372.71
929.034	6391.7
929.344	6365.48
929.653	6285.71
929.962	6297.91
930.271	6249.1
930.581	6207.75
930.89	6220.4
931.199	6139.27
931.508	6097.69
931.817	6151.7
932.125	6119.84
932.434	6045.26
932.743	6057.92
933.051	6006.85
933.36	6012.5
933.669	5955.78
933.977	5959.39
934.286	5922.78
934.594	5944.25
934.902	5875.55
935.21	5920.3
935.519	5834.87
935.827	5847.08
936.135	5762.11
936.443	5701.55
936.751	5747.19
937.059	5683.92
937.367	5660.87
937.674	5699.74
937.982	5659.29
938.29	5654.09
938.597	5660.19
938.905	5563.92
939.213	5520.98
939.52	5472.4
939.827	5520.98
940.135	5524.37
940.442	5454.09
940.749	5463.13
941.056	5403.25
941.363	5360.31
941.67	5389.69
941.977	5344.04
942.284	5299.07
942.591	5252.52
942.898	5287.77
943.205	5252.07
943.511	5213.65
943.818	5176.14
944.125	5234.44
944.431	5165.74
944.738	5131.62
945.044	5082.13
945.35	5063.37
945.657	5027.44
945.963	5047.1
946.269	5047.1
946.575	5013.88
946.881	4915.12
947.187	4950.83
947.493	4936.59
947.799	4910.38
948.105	4923.71
948.41	4858.63
948.716	4856.6
949.022	4835.13
949.327	4782.7
949.633	4799.42
949.938	4762.59
950.244	4759.87
950.549	4695.24
950.854	4704.28
951.16	4662.7
951.465	4677.39
951.77	4627
952.075	4596.49
952.38	4604.17
952.685	4593.33
952.99	4567.34
953.294	4542.93
953.599	4523.5
953.904	4484.18
954.209	4481.92
954.513	4479.88
954.818	4420.45
955.122	4433.33
955.426	4416.38
955.731	4360.79
956.035	4400.56
956.339	4363.28
956.643	4328.02
956.948	4302.71
957.252	4314.91
957.556	4255.48
957.86	4263.16
958.163	4197.4
958.467	4178.65
958.771	4219.1
959.075	4174.58
959.378	4159.89
959.682	4177.97
959.985	4113.79
960.289	4133.22
960.592	4098.2
960.896	4090.51
961.199	4102.94
961.502	4031.76
961.805	4019.33
962.108	3973.68
962.411	3996.05
962.714	3993.57
963.017	3945.66
963.32	3952.89
963.623	3947.01
963.926	3915.15
964.228	3910.41
964.531	3845.77
964.833	3860.46
965.136	3788.6
965.438	3816.4
965.741	3809.17
966.043	3773.46
966.345	3765.1
966.648	3809.17
966.95	3761.03
967.252	3742.27
967.554	3677.64
967.856	3664.76
968.158	3653.92
968.46	3671.32
968.761	3630.86
969.063	3629.96
969.365	3656.63
969.666	3593.35
969.968	3603.97
970.269	3574.37
970.571	3556.06
970.872	3556.74
971.174	3535.5
971.475	3519.68
971.776	3476.07
972.077	3449.63
972.378	3448.04
972.679	3457.54
972.98	3421.38
973.281	3415.73
973.582	3426.8
973.883	3396.97
974.183	3310.87
974.484	3365.56
974.785	3320.14
975.085	3347.93
975.386	3300.93
975.686	3302.74
975.986	3265
976.287	3248.95
976.587	3257.32
976.887	3231.78
977.187	3228.84
977.487	3235.62
977.787	3195.62
978.087	3140.26
978.387	3154.27
978.687	3163.08
978.987	3141.16
979.286	3091.67
979.586	3064.78
979.885	3109.97
980.185	3073.14
980.484	3077.21
980.784	3057.32
981.083	3032.24
981.382	3035.63
981.682	3009.86
981.981	3024.78
982.28	2996.53
982.579	2947.72
982.878	2970.54
983.177	2966.7
983.475	2963.99
983.774	2896.2
984.073	2890.55
984.372	2901.84
984.67	2887.83
984.969	2880.6
985.267	2860.72
985.566	2853.94
985.864	2811.23
986.162	2836.08
986.461	2812.81
986.759	2791.11
987.057	2784.11
987.355	2745.69
987.653	2736.65
987.951	2754.05
988.249	2746.82
988.547	2700.95
988.844	2699.59
989.142	2677.44
989.44	2687.61
989.737	2649.65
990.035	2688.97
990.332	2622.76
990.63	2630.89
990.927	2643.55
991.224	2590.67
991.521	2591.8
991.819	2571.46
992.116	2583.66
992.413	2542.31
992.71	2568.07
993.006	2546.15
993.303	2543.21
993.6	2477.45
993.897	2514.28
994.193	2504.34
994.49	2466.83
994.787	2494.85
995.083	2495.53
995.379	2436.09
995.676	2407.62
995.972	2413.04
996.268	2416.21
996.565	2400.84
996.861	2383.67
997.157	2397.68
997.453	2349.77
997.749	2336.89
998.044	2352.48
998.34	2299.15
998.636	2284.23
998.932	2316.32
999.227	2305.48
999.523	2246.04
999.818	2240.62
1000.114	2268.87
1000.409	2234.97
1000.704	2213.5
1001	2208.3
1001.295	2181.86
1001.59	2180.28
1001.885	2152.49
1002.18	2163.78
1002.475	2144.58
1002.77	2111.36
1003.065	2136.22
1003.359	2112.71
1003.654	2110.45
1003.949	2085.59
1004.243	2108.87
1004.538	2029.55
1004.832	2051.7
1005.127	2044.69
1005.421	2019.16
1005.715	1999.72
1006.009	1999.5
1006.304	1991.81
1006.598	2005.6
1006.892	1963.34
1007.186	1957.69
1007.48	1930.57
1007.773	1913.17
1008.067	1951.14
1008.361	1900.52
1008.655	1925.15
1008.948	1885.37
1009.242	1861.87
1009.535	1893.51
1009.829	1866.62
1010.122	1855.54
1010.415	1843.34
1010.708	1814.64
1011.001	1827.52
1011.295	1799.05
1011.588	1784.59
1011.881	1786.39
1012.173	1766.06
1012.466	1783.23
1012.759	1773.06
1013.052	1780.07
1013.344	1729.9
1013.637	1731.03
1013.93	1727.64
1014.222	1715.44
1014.514	1704.36
1014.807	1712.95
1015.099	1669.11
1015.391	1675.89
1015.683	1676.79
1015.976	1641.76
1016.268	1630.69
1016.56	1620.07
1016.851	1610.58
1017.143	1597.02
1017.435	1618.71
1017.727	1594.76
1018.018	1575.1
1018.31	1570.35
1018.602	1547.3
1018.893	1532.84
1019.185	1503.24
1019.476	1514.76
1019.767	1505.27
1020.058	1521.09
1020.35	1495.33
1020.641	1458.72
1020.932	1460.07
1021.223	1455.78
1021.514	1426.86
1021.804	1414.88
1022.095	1430.7
1022.386	1443.13
1022.677	1436.57
1022.967	1406.52
1023.258	1410.81
1023.548	1393.41
1023.839	1388.66
1024.129	1372.39
1024.419	1351.38
1024.709	1335.78
1025	1337.59
1025.29	1333.75
1025.58	1321.55
1025.87	1341.66
1026.16	1318.61
1026.449	1321.1
1026.739	1305.05
1027.029	1277.03
1027.319	1314.09
1027.608	1253.3
1027.898	1260.98
1028.187	1248.1
1028.477	1271.83
1028.766	1216.01
1029.055	1232.28
1029.344	1206.75
1029.634	1235.22
1029.923	1180.08
1030.212	1180.99
1030.501	1214.66
1030.79	1188.9
1031.078	1176.24
1031.367	1179.4
1031.656	1145.51
1031.945	1137.15
1032.233	1131.5
1032.522	1146.18
1032.81	1136.02
1033.099	1134.21
1033.387	1148.67
1033.675	1095.11
1033.963	1114.55
1034.251	1091.04
1034.54	1065.51
1034.828	1082.68
1035.116	1075.23
1035.403	1057.83
1035.691	1056.02
1035.979	1072.97
1036.267	1053.53
1036.554	1042.91
1036.842	1033.65
1037.129	1022.35
1037.417	1019.63
1037.704	1021.67
1037.992	989.58
1038.279	997.04
1038.566	978.73
1038.853	978.73
1039.14	978.73
