Data from hue_290_FLMS001491_00017.txt Node
Date: Tue Feb 07 15:52:23 GMT 2017
User: dcchb
Spectrometer: FLMS00149
Trigger mode: 0
Integration Time (sec): 2.000000E-2
Scans to average: 10
Electric dark correction enabled: true
Nonlinearity correction enabled: false
Boxcar width: 0
XAxis mode: Wavelengths
Number of Pixels in Spectrum: 2048
>>>>>Begin Spectral Data<<<<<
341.393	1.09
341.776	1.09
342.16	1.09
342.543	-54.05
342.927	-72.36
343.31	-92.24
343.693	-68.29
344.077	-64.22
344.46	-69.42
344.843	-41.17
345.226	-42.75
345.61	-30.55
345.993	-16.31
346.376	-4.79
346.759	6.74
347.142	34.98
347.525	49
347.908	59.62
348.291	81.54
348.674	98.94
349.057	98.94
349.44	132.16
349.823	131.03
350.206	167.18
350.588	197.92
350.971	219.39
351.354	227.75
351.737	216.22
352.119	242.66
352.502	254.64
352.884	265.71
353.267	254.64
353.65	284.7
354.032	280.85
354.414	293.96
354.797	307.52
355.179	296
355.562	317.69
355.944	302.55
356.326	304.81
356.709	288.09
357.091	320.85
357.473	338.71
357.855	310.68
358.238	325.15
358.62	320.63
359.002	321.31
359.384	328.08
359.766	327.41
360.148	335.77
360.53	346.62
360.912	347.97
361.294	323.11
361.676	325.82
362.057	330.8
362.439	343.9
362.821	334.19
363.203	322.66
363.584	336.22
363.966	324.02
364.348	307.07
364.729	295.54
365.111	314.07
365.493	301.42
365.874	309.78
366.256	308.88
366.637	297.8
367.019	298.48
367.4	301.87
367.781	301.42
368.163	310.68
368.544	289.44
368.925	309.33
369.306	322.21
369.688	294.41
370.069	299.84
370.45	310.23
370.831	291.7
371.212	312.27
371.593	291.7
371.974	290.8
372.355	302.32
372.736	301.42
373.117	294.87
373.498	317.46
373.879	308.2
374.26	316.33
374.641	309.1
375.021	302.55
375.402	304.81
375.783	311.36
376.163	306.62
376.544	320.63
376.925	300.97
377.305	333.51
377.686	311.81
378.066	311.14
378.447	327.41
378.827	306.39
379.208	306.62
379.588	324.92
379.968	320.63
380.349	325.15
380.729	323.34
381.109	322.66
381.489	334.64
381.87	337.58
382.25	319.72
382.63	327.18
383.01	345.71
383.39	329.89
383.77	326.73
384.15	325.15
384.53	321.98
384.91	337.8
385.29	345.94
385.67	347.97
386.049	367.41
386.429	351.13
386.809	332.15
387.189	345.49
387.568	352.26
387.948	338.48
388.328	354.3
388.707	359.5
389.087	361.98
389.466	353.85
389.846	375.77
390.225	357.91
390.605	364.24
390.984	365.15
391.363	366.73
391.743	382.32
392.122	362.21
392.501	356.56
392.881	360.17
393.26	375.09
393.639	390.23
394.018	357.91
394.397	345.26
394.776	355.2
395.155	378.93
395.534	386.39
395.913	375.99
396.292	377.12
396.671	379.61
397.05	377.57
397.429	382.09
397.808	377.12
398.186	383
398.565	387.52
398.944	380.29
399.323	385.03
399.701	396.78
400.08	399.27
400.458	410.79
400.837	408.08
401.215	402.88
401.594	395.88
401.972	400.4
402.351	421.42
402.729	383.45
403.107	417.12
403.486	423
403.864	422.77
404.242	430.91
404.62	430.45
404.999	434.52
405.377	427.97
405.755	448.08
406.133	425.26
406.511	442.21
406.889	434.97
407.267	425.94
407.645	462.77
408.023	454.63
408.401	463.9
408.779	467.97
409.156	449.44
409.534	466.61
409.912	488.76
410.29	474.3
410.667	500.51
411.045	514.29
411.422	506.84
411.8	492.6
412.178	533.95
412.555	521.53
412.933	534.18
413.31	552.03
413.687	535.08
414.065	518.59
414.442	557.23
414.819	563.56
415.197	567.4
415.574	577.57
415.951	607.4
416.328	611.47
416.705	622.09
417.082	605.14
417.46	618.7
417.837	619.38
418.214	623.9
418.591	632.94
418.967	626.61
419.344	659.83
419.721	663.67
420.098	665.25
420.475	694.63
420.852	677.45
421.228	691.24
421.605	695.31
421.982	733.27
422.358	686.49
422.735	708.64
423.111	733.27
423.488	759.49
423.864	723.78
424.241	774.85
424.617	758.81
424.994	778.69
425.37	782.54
425.746	783.89
426.123	792.93
426.499	796.77
426.875	782.76
427.251	813.72
427.627	829.31
428.003	852.59
428.379	852.36
428.756	851.23
429.132	862.76
429.507	896.21
429.883	895.3
430.259	887.62
430.635	908.41
431.011	913.83
431.387	942.53
431.763	969.88
432.138	933.27
432.514	950.67
432.89	988.86
433.265	1015.52
433.641	1003.55
434.016	1016.43
434.392	1016.88
434.767	1020.95
435.143	1059.36
435.518	1054.17
435.894	1073.6
436.269	1092.36
436.644	1091
437.02	1117.67
437.395	1125.8
437.77	1150.89
438.145	1142.53
438.52	1154.96
438.895	1160.38
439.271	1155.41
439.646	1210.77
440.021	1223.65
440.395	1208.29
440.77	1182.98
441.145	1195.18
441.52	1252.58
441.895	1241.73
442.27	1254.39
442.645	1239.47
443.019	1254.16
443.394	1269.3
443.769	1279.47
444.143	1268.17
444.518	1278.79
444.892	1283.99
445.267	1302.97
445.641	1299.58
446.016	1341.39
446.39	1313.14
446.764	1330.09
447.139	1334.39
447.513	1336.87
447.887	1333.26
448.262	1357.89
448.636	1332.13
449.01	1372.58
449.384	1389.07
449.758	1399.02
450.132	1394.95
450.506	1399.47
450.88	1403.99
451.254	1412.8
451.628	1403.99
452.002	1431.33
452.376	1439.24
452.75	1449.64
453.123	1444.21
453.497	1436.98
453.871	1460.48
454.244	1488.96
454.618	1481.05
454.992	1505.91
455.365	1526.25
455.739	1505.45
456.112	1541.84
456.486	1535.51
456.859	1573.7
457.232	1608.73
457.606	1578
457.979	1584.77
458.352	1629.29
458.725	1630.88
459.099	1628.62
459.472	1662.29
459.845	1664.77
460.218	1683.53
460.591	1688.5
460.964	1704.09
461.337	1734.15
461.71	1734.83
462.083	1747.93
462.456	1784.09
462.829	1769.85
463.201	1812.79
463.574	1793.81
463.947	1808.95
464.32	1814.6
464.692	1857.54
465.065	1843.3
465.438	1846.46
465.81	1878.55
466.183	1933.92
466.555	1915.84
466.928	1937.31
467.3	1919.68
467.672	1936.86
468.045	1980.24
468.417	2003.97
468.789	1993.8
469.161	2066.57
469.534	2027.7
469.906	2057.3
470.278	2088.26
470.65	2107.92
471.022	2130.07
471.394	2168.94
471.766	2177.08
472.138	2144.53
472.51	2196.74
472.882	2246.9
473.253	2245.55
473.625	2286
473.997	2309.5
474.369	2355.15
474.74	2359.22
475.112	2383.85
475.484	2364.64
475.855	2434.24
476.227	2405.09
476.598	2486.67
476.97	2471.98
477.341	2508.14
477.713	2536.39
478.084	2524.19
478.455	2626.1
478.827	2652.09
479.198	2656.38
479.569	2676.05
479.94	2780.22
480.311	2777.51
480.682	2820.22
481.053	2869.49
481.424	2892.99
481.795	2881.69
482.166	2947.22
482.537	2933.21
482.908	2981.8
483.279	3042.59
483.65	3054.57
484.021	3126.88
484.391	3151.29
484.762	3153.55
485.133	3165.07
485.503	3178.86
485.874	3230.38
486.244	3231.06
486.615	3310.38
486.985	3349.25
487.356	3378.4
487.726	3380.21
488.097	3438.51
488.467	3428.79
488.837	3522.35
489.207	3488.68
489.578	3584.5
489.948	3608.68
490.318	3623.59
490.688	3582.91
491.058	3659.52
491.428	3695.45
491.798	3666.3
492.168	3802.12
492.538	3800.99
492.908	3819.74
493.278	3849.35
493.648	3885.73
494.017	3888.89
494.387	3897.93
494.757	3927.31
495.126	3958.95
495.496	3914.2
495.866	3987.65
496.235	4014.32
496.605	4030.13
496.974	4052.28
497.344	4096.35
497.713	4102.9
498.082	4126.63
498.452	4151.71
498.821	4153.07
499.19	4186.51
499.559	4168.66
499.928	4232.61
500.298	4235.78
500.667	4239.85
501.036	4280.52
501.405	4281.88
501.774	4296.79
502.143	4300.64
502.512	4307.19
502.88	4376.57
503.249	4353.52
503.618	4367.98
503.987	4404.36
504.356	4436
504.724	4395.77
505.093	4426.73
505.462	4436.45
505.83	4453.4
506.199	4475.77
506.567	4497.47
506.936	4502.66
507.304	4518.26
507.672	4568.88
508.041	4544.24
508.409	4556.45
508.777	4631.25
509.145	4634.64
509.514	4616.11
509.882	4584.92
510.25	4670.57
510.618	4660.4
510.986	4658.37
511.354	4720.51
511.722	4717.12
512.09	4789.44
512.458	4719.83
512.826	4783.56
513.193	4782.66
513.561	4787.4
513.929	4824.69
514.297	4788.98
514.664	4853.84
515.032	4855.65
515.4	4852.03
515.767	4866.95
516.135	4886.83
516.502	4858.59
516.869	4951.92
517.237	4931.58
517.604	4862.43
517.972	4980.17
518.339	4929.09
518.706	4967.74
519.073	4997.79
519.44	4996.44
519.808	5051.58
520.175	5002.09
520.542	5106.26
520.909	5097.45
521.276	5068.07
521.643	5129.31
522.009	5116.89
522.376	5127.73
522.743	5180.61
523.11	5187.62
523.477	5269.42
523.843	5238.92
524.21	5266.94
524.577	5286.15
524.943	5292.7
525.31	5347.39
525.676	5362.53
526.043	5375.18
526.409	5336.77
526.776	5412.47
527.142	5471.68
527.508	5491.56
527.874	5470.55
528.241	5520.26
528.607	5525.01
528.973	5560.04
529.339	5536.76
529.705	5607.27
530.071	5617.66
530.437	5653.82
530.803	5623.76
531.169	5663.54
531.535	5707.83
531.901	5727.49
532.267	5708.73
532.632	5781.27
532.998	5727.49
533.364	5776.75
533.73	5779.92
534.095	5823.08
534.461	5819.01
534.826	5866.47
535.192	5889.97
535.557	5930.2
535.923	5864.21
536.288	5899.01
536.653	5935.39
537.019	5892.01
537.384	5946.92
537.749	6010.87
538.114	5971.78
538.479	6019.46
538.845	6052.68
539.21	5992.57
539.575	6011.55
539.94	6018.78
540.305	6038.89
540.67	6101.94
541.034	6117.08
541.399	6106.01
541.764	6151.89
542.129	6113.24
542.494	6144.43
542.858	6268.72
543.223	6184.88
543.587	6281.6
543.952	6265.78
544.316	6277.53
544.681	6278.66
545.045	6293.58
545.41	6367.02
545.774	6287.02
546.138	6346.91
546.503	6397.98
546.867	6289.06
547.231	6406.79
547.595	6381.71
547.959	6380.13
548.324	6412.9
548.688	6439.79
549.052	6452.67
549.416	6470.3
549.779	6503.74
550.143	6460.35
550.507	6508.49
550.871	6570.18
551.235	6543.06
551.599	6534.48
551.962	6590.07
552.326	6571.31
552.689	6595.04
553.053	6577.86
553.417	6597.07
553.78	6650.18
554.143	6636.85
554.507	6682.72
554.87	6668.71
555.234	6745.99
555.597	6680.23
555.96	6750.06
556.323	6780.34
556.686	6739.22
557.05	6793.45
557.413	6775.6
557.776	6752.77
558.139	6867.35
558.502	6838.2
558.865	6842.04
559.228	6885.43
559.59	6907.8
559.953	6904.86
560.316	6917.29
560.679	6939.66
561.041	6988.47
561.404	6970.85
561.767	7017.85
562.129	6988.7
562.492	7023.5
562.854	7079.77
563.217	7104.86
563.579	7076.83
563.941	7121.35
564.304	7123.16
564.666	7156.83
565.028	7163.39
565.39	7196.6
565.753	7218.98
566.115	7233.21
566.477	7230.5
566.839	7240.45
567.201	7300.78
567.563	7319.77
567.925	7376.71
568.287	7424.4
568.648	7418.52
569.01	7493.77
569.372	7503.94
569.734	7529.48
570.095	7556.37
570.457	7568.12
570.819	7594.11
571.18	7640.21
571.542	7621.68
571.903	7692.18
572.265	7722.24
572.626	7711.62
572.987	7764.95
573.349	7766.08
573.71	7766.08
574.071	7888.11
574.432	7933.53
574.794	7997.94
575.155	7999.3
575.516	7995.23
575.877	8031.84
576.238	8072.97
576.599	8114.09
576.96	8190.25
577.32	8235
577.681	8389.79
578.042	8399.74
578.403	8387.31
578.763	8402.67
579.124	8505.5
579.485	8529.9
579.845	8601.99
580.206	8669.11
580.566	8725.83
580.927	8769.22
581.287	8884.47
581.648	8924.92
582.008	9041.53
582.368	9082.66
582.728	9225.25
583.089	9220.73
583.449	9330.33
583.809	9457.56
584.169	9518.13
584.529	9564.68
584.889	9746.59
585.249	9774.16
585.609	9928.96
585.969	9996.53
586.329	10133.25
586.688	10274.49
587.048	10360.14
587.408	10410.08
587.768	10534.14
588.127	10638.1
588.487	10742.27
588.846	10914.7
589.206	10980.46
589.565	11211.87
589.925	11370.96
590.284	11461.35
590.643	11618.18
591.003	11777.28
591.362	11928.91
591.721	11922.58
592.08	12190.6
592.44	12245.51
592.799	12388.78
593.158	12563.24
593.517	12735.67
593.876	12861.77
594.235	12947.41
594.593	13064.02
594.952	13269.21
595.311	13344.69
595.67	13539.94
596.029	13714.17
596.387	13862.42
596.746	13999.36
597.104	14099.47
597.463	14149.42
597.822	14329.07
598.18	14501.95
598.538	14469.86
598.897	14696.29
599.255	14754.82
599.613	15035.49
599.972	14947.81
600.33	15215.38
600.688	15167.47
601.046	15390.74
601.404	15685.87
601.762	15571.53
602.12	15923.83
602.478	15873.44
602.836	16036.6
603.194	16021.46
603.552	16186.88
603.91	16277.95
604.268	16418.06
604.625	16465.51
604.983	16572.63
605.341	16578.28
605.698	16780.53
606.056	16853.75
606.413	16952.96
606.771	17081.09
607.128	17221.2
607.485	17169.22
607.843	17233.4
608.2	17443.79
608.557	17496.67
608.914	17616.9
609.272	17663.9
609.629	17834.29
609.986	17844.91
610.343	17898.92
610.7	18114.51
611.057	18098.24
611.414	18126.03
611.771	18268.18
612.127	18458.68
612.484	18420.26
612.841	18464.33
613.198	18513.82
613.554	18530.32
613.911	18745
614.267	18748.62
614.624	18735.51
614.98	18914.04
615.337	18916.52
615.693	18964.2
616.05	19090.98
616.406	19237.42
616.762	19100.47
617.118	19109.74
617.475	19259.79
617.831	19288.49
618.187	19286
618.543	19343.86
618.899	19509.5
619.255	19485.1
619.611	19569.39
619.967	19604.87
620.323	19710.85
620.678	19629.5
621.034	19689.16
621.39	19823.62
621.746	19737.07
622.101	19998.98
622.457	19843.73
622.812	19831.98
623.168	19895.03
623.523	19955.82
623.879	20074.91
624.234	19895.71
624.589	20111.52
624.945	20069.94
625.3	20081.69
625.655	20106.32
626.01	20158.3
626.365	20070.62
626.72	20147.45
627.075	20117.39
627.43	20259.54
627.785	20150.61
628.14	20224.96
628.495	20246.88
628.85	20159.43
629.205	20185.64
629.559	20263.15
629.914	20118.3
630.269	20309.93
630.623	20237.39
630.978	20230.61
631.332	20331.4
631.687	20324.39
632.041	20298.63
632.396	20398.97
632.75	20220.67
633.104	20337.5
633.459	20196.49
633.813	20241.23
634.167	20185.64
634.521	20212.99
634.875	20224.51
635.229	20203.95
635.583	20143.83
635.937	20174.57
636.291	20104.97
636.645	20239.88
636.999	20126.66
637.352	20198.97
637.706	20136.15
638.06	20092.31
638.413	20061.58
638.767	20125.53
639.121	20084.85
639.474	19945.65
639.828	20021.58
640.181	20031.97
640.534	20087.11
640.888	20007.34
641.241	19948.13
641.594	19925.31
641.947	20056.15
642.301	19858.42
642.654	20099.99
643.007	19998.98
643.36	19958.98
643.713	19903.16
644.066	20046.21
644.419	19860.68
644.771	19809.83
645.124	19695.48
645.477	19634.24
645.83	19500.24
646.182	19561.7
646.535	19359
646.888	19475.6
647.24	19297.98
647.593	19471.31
647.945	19398.54
648.298	19376.85
648.65	19386.57
649.002	19313.35
649.355	19377.3
649.707	19324.87
650.059	19484.19
650.411	19593.57
650.763	19664.07
651.115	19850.74
651.467	19768.48
651.819	19777.97
652.171	19730.96
652.523	19622.04
652.875	19706.78
653.227	19673.34
653.578	19827.91
653.93	19709.95
654.282	19630.4
654.633	19571.87
654.985	19730.96
655.337	19762.6
655.688	19742.72
656.039	19910.85
656.391	19687.58
656.742	19730.96
657.094	19783.62
657.445	19815.03
657.796	19783.62
658.147	19843.05
658.498	19712.43
658.849	19789.49
659.2	19733.45
659.551	19818.87
659.902	19778.65
660.253	19757.4
660.604	19788.36
660.955	19813.67
661.306	19773.9
661.656	19836.95
662.007	19837.85
662.358	19844.86
662.708	19872.43
663.059	19837.18
663.409	19747.91
663.76	19944.97
664.11	19856.84
664.461	19869.94
664.811	19937.96
665.161	19861.81
665.511	19853.9
665.862	19826.78
666.212	19939.55
666.562	19955.82
666.912	19859.32
667.262	19896.84
667.612	19949.49
667.962	19877.63
668.312	19829.04
668.662	19970.05
669.011	19938.42
669.361	19783.84
669.711	19867.46
670.06	19771.87
670.41	19768.93
670.76	19744.07
671.109	19747.69
671.459	19963.73
671.808	19772.09
672.157	19846.89
672.507	19658.65
672.856	19659.33
673.205	19695.26
673.554	19754.69
673.904	19733.9
674.253	19813.22
674.602	19653.9
674.951	19448.03
675.3	19387.24
675.649	19574.58
675.998	19631.76
676.346	19589.95
676.695	19619.78
677.044	19522.83
677.393	19618.65
677.741	19538.88
678.09	19485.32
678.438	19502.04
678.787	19481.48
679.135	19486.22
679.484	19309.51
679.832	19476.06
680.181	19289.17
680.529	19359
680.877	19304.31
681.225	19345.89
681.573	19326.68
681.922	19247.59
682.27	19088.04
682.618	19111.32
682.966	19133.47
683.314	19165.1
683.661	19040.81
684.009	19029.06
684.357	19076.74
684.705	19050.08
685.053	19076.07
685.4	19007.14
685.748	18872.46
686.095	18891.89
686.443	18767.6
686.79	18738.67
687.138	18738.22
687.485	18720.6
687.832	18739.58
688.18	18561.73
688.527	18566.93
688.874	18549.98
689.221	18479.47
689.568	18465.01
689.915	18453.26
690.262	18386.37
690.609	18386.37
690.956	18174.85
691.303	18267.73
691.65	18159.25
691.997	18132.81
692.344	17958.36
692.69	18048.07
693.037	17990.67
693.383	17885.36
693.73	17927.17
694.077	17765.59
694.423	17763.78
694.769	17732.6
695.116	17644.01
695.462	17670.68
695.808	17648.76
696.155	17478.59
696.501	17440.85
696.847	17517.92
697.193	17279.5
697.539	17391.36
697.885	17258.49
698.231	17096.68
698.577	17197.02
698.923	17113.18
699.269	16988.89
699.614	16876.12
699.96	16867.76
700.306	16926.74
700.651	16709.12
700.997	16738.5
701.342	16775.11
701.688	16610.82
702.033	16622.57
702.379	16569.47
702.724	16481.11
703.069	16537.15
703.415	16249.02
703.76	16288.12
704.105	16372.86
704.45	16194.79
704.795	16154.11
705.14	16036.15
705.485	16064.39
705.83	15933.1
706.175	16045.86
706.52	15943.49
706.865	15887
707.209	15854.23
707.554	15836.15
707.899	15815.59
708.243	15756.38
708.588	15749.37
708.932	15663.73
709.277	15632.99
709.621	15556.16
709.966	15515.26
710.31	15542.83
710.654	15451.08
710.998	15404.52
711.342	15400.91
711.687	15378.54
712.031	15216.05
712.375	15235.26
712.719	15305.09
713.063	15213.57
713.407	15214.25
713.75	15151.2
714.094	15127.7
714.438	15087.7
714.782	15061.03
715.125	14977.19
715.469	15019.45
715.812	14907.14
716.156	14791.21
716.499	14877.08
716.843	14802.96
717.186	14715.5
717.53	14832.11
717.873	14816.29
718.216	14801.38
718.559	14810.19
718.902	14630.76
719.246	14665.33
719.589	14611.78
719.932	14594.38
720.275	14547.37
720.617	14612.91
720.96	14516.19
721.303	14532.91
721.646	14661.49
721.989	14501.05
722.331	14476.87
722.674	14544.43
723.016	14600.93
723.359	14425.34
723.701	14512.57
724.044	14367.72
724.386	14320.03
724.729	14390.99
725.071	14378.79
725.413	14369.3
725.755	14298.56
726.097	14249.07
726.439	14289.3
726.782	14302.18
727.124	14372.24
727.465	14202.97
727.807	14223.54
728.149	14213.82
728.491	14236.19
728.833	14291.33
729.175	14172.69
729.516	14165.01
729.858	14110.1
730.199	14158.91
730.541	14132.69
730.882	14142.18
731.224	14176.76
731.565	13996.2
731.906	14128.17
732.248	14174.73
732.589	14048.4
732.93	13936.09
733.271	14057.89
733.612	14042.3
733.953	14001.17
734.294	14105.58
734.635	14074.16
734.976	14049.98
735.317	14031.45
735.658	14019.02
735.999	14054.28
736.339	13996.2
736.68	14055.41
737.021	14036.2
737.361	13986.71
737.702	14026.71
738.042	14049.31
738.383	14017.44
738.723	14098.57
739.063	14006.14
739.404	14072.58
739.744	13992.36
740.084	14011.34
740.424	13969.99
740.764	13984.22
741.104	14079.59
741.444	13967.73
741.784	14075.97
742.124	14023.54
742.464	14084.79
742.804	14048.63
743.143	14142.18
743.483	14089.53
743.823	14044.11
744.162	14202.52
744.502	14213.6
744.841	14195.06
745.181	14234.61
745.52	14260.15
745.86	14292.24
746.199	14327.04
746.538	14296.08
746.877	14442.74
747.216	14466.24
747.556	14499.92
747.895	14500.14
748.234	14501.5
748.573	14585.56
748.911	14636.63
749.25	14700.36
749.589	14656.07
749.928	14775.39
750.267	14848.83
750.605	14858.32
750.944	14980.81
751.283	14960.24
751.621	15098.32
751.96	15139.9
752.298	15299.22
752.636	15329.5
752.975	15397.74
753.313	15365.2
753.651	15543.5
753.989	15618.98
754.327	15688.36
754.666	15708.7
755.004	15856.04
755.342	15925.64
755.679	16088.35
756.017	16135.13
756.355	16198.18
756.693	16239.3
757.031	16516.36
757.368	16480.2
757.706	16633.64
758.044	16699.18
758.381	16889.91
758.719	16942.79
759.056	17008.1
759.394	17093.07
759.731	17112.05
760.068	17256.91
760.405	17257.81
760.743	17438.37
761.08	17545.26
761.417	17559.27
761.754	17747.97
762.091	17710.23
762.428	17858.47
762.765	17903.89
763.102	18039.48
763.438	18053.72
763.775	18135.3
764.112	18292.13
764.449	18350.21
764.785	18453.03
765.122	18464.1
765.458	18466.36
765.795	18615.06
766.131	18638.34
766.467	18728.96
766.804	18650.77
767.14	18662.97
767.476	18793.59
767.812	18847.82
768.148	18935.28
768.485	18877.43
768.821	18856.64
769.157	18968.72
769.492	18987.25
769.828	19007.59
770.164	18896.86
770.5	18964.43
770.836	19069.96
771.171	19073.13
771.507	19095.73
771.842	18981.38
772.178	19103.41
772.513	19127.14
772.849	19109.29
773.184	19064.32
773.519	19061.15
773.855	19031.55
774.19	18988.16
774.525	19038.55
774.86	19025.22
775.195	19049.63
775.53	19060.7
775.865	18918.78
776.2	18813.02
776.535	18781.16
776.87	18887.37
777.205	18792.01
777.539	18721.05
777.874	18903.87
778.209	18613.48
778.543	18709.3
778.878	18578
779.212	18568.73
779.547	18504.1
779.881	18613.25
780.215	18538.91
780.55	18551.79
780.884	18464.33
781.218	18461.62
781.552	18501.17
781.886	18423.65
782.22	18283.09
782.554	18261.85
782.888	18161.51
783.222	18087.62
783.556	18151.8
783.889	18121.06
784.223	17974.17
784.557	17955.19
784.89	17977.11
785.224	17830.9
785.557	17874.52
785.891	17734.41
786.224	17779.6
786.558	17726.72
786.891	17667.97
787.224	17591.13
787.557	17560.4
787.891	17556.56
788.224	17481.08
788.557	17493.06
788.89	17465.04
789.223	17405.38
789.556	17272.05
789.888	17320.18
790.221	17144.59
790.554	17118.6
790.887	17112.28
791.219	16959.51
791.552	16961.09
791.884	16941.66
792.217	16989.34
792.549	16834.54
792.882	16662.57
793.214	16681.78
793.546	16770.59
793.879	16731.04
794.211	16524.04
794.543	16566.08
794.875	16471.61
795.207	16608.79
795.539	16456.47
795.871	16455.34
796.203	16292.86
796.535	16202.47
796.867	16192.75
797.198	16230.04
797.53	16086.99
797.862	15957.96
798.193	16102.81
798.525	16002.25
798.856	15999.08
799.188	15881.12
799.519	15765.64
799.85	15792.31
800.182	15782.59
800.513	15715.7
800.844	15599.55
801.175	15662.37
801.506	15612.88
801.837	15559.77
802.168	15545.09
802.499	15488.82
802.83	15353.68
803.161	15318.65
803.491	15257.64
803.822	15304.64
804.153	15144.19
804.483	15059.22
804.814	15173.34
805.145	15077.53
805.475	15108.26
805.805	15012.44
806.136	15000.92
806.466	14980.81
806.796	14903.52
807.126	14803.18
807.457	14858.1
807.787	14814.48
808.117	14759.8
808.447	14717.54
808.777	14740.36
809.107	14617.65
809.436	14611.55
809.766	14653.13
810.096	14538.56
810.426	14446.81
810.755	14550.08
811.085	14386.47
811.414	14456.75
811.744	14331.11
812.073	14290.66
812.403	14338.11
812.732	14202.07
813.061	14297.21
813.39	14104.45
813.719	14168.4
814.049	14259.24
814.378	14127.04
814.707	14084.11
815.036	14077.55
815.365	14005.24
815.693	13909.87
816.022	13920.27
816.351	13796.21
816.68	13785.81
817.008	13892.7
817.337	13743.55
817.665	13702.2
817.994	13792.36
818.322	13709.88
818.651	13599.83
818.979	13620.39
819.307	13654.51
819.636	13557.57
819.964	13552.6
820.292	13532.71
820.62	13527.06
820.948	13463.11
821.276	13540.62
821.604	13459.26
821.932	13488.87
822.259	13551.01
822.587	13466.72
822.915	13436.89
823.243	13443.9
823.57	13308.99
823.898	13452.26
824.225	13382.43
824.553	13389.44
824.88	13431.24
825.207	13462.88
825.535	13384.01
825.862	13439.6
826.189	13414.29
826.516	13393.05
826.843	13480.28
827.17	13446.16
827.497	13491.58
827.824	13412.03
828.151	13519.83
828.478	13421.07
828.805	13451.13
829.131	13385.59
829.458	13373.84
829.785	13355.99
830.111	13372.49
830.438	13446.16
830.764	13348.53
831.09	13423.56
831.417	13384.24
831.743	13337.23
832.069	13460.39
832.395	13373.39
832.722	13371.58
833.048	13331.58
833.374	13327.97
833.7	13247.74
834.026	13298.82
834.351	13271.02
834.677	13332.71
835.003	13400.06
835.329	13315.09
835.654	13278.48
835.98	13268.31
836.306	13267.63
836.631	13233.51
836.956	13279.16
837.282	13174.53
837.607	13116.22
837.932	13069.9
838.258	13048.43
838.583	13054.3
838.908	13127.52
839.233	12956
839.558	12958.94
839.883	13045.26
840.208	12856.79
840.533	12931.6
840.858	12936.34
841.182	12831.26
841.507	12931.82
841.832	12785.38
842.156	12774.54
842.481	12702.9
842.805	12746.06
843.13	12694.77
843.454	12746.06
843.778	12614.77
844.103	12568.89
844.427	12627.65
844.751	12605.73
845.075	12571.6
845.399	12533.19
845.723	12474.43
846.047	12425.39
846.371	12316.02
846.695	12362.8
847.019	12297.71
847.343	12226.08
847.666	12205.74
847.99	12081.22
848.313	12124.84
848.637	11985.18
848.96	11946.54
849.284	11930.04
849.607	11840.1
849.931	11855.69
850.254	11727.11
850.577	11715.81
850.9	11622.25
851.223	11609.14
851.546	11542.93
851.869	11514.91
852.192	11576.83
852.515	11438.98
852.838	11416.15
853.161	11424.74
853.483	11305.42
853.806	11282.6
854.129	11343.84
854.451	11165.09
854.774	11171.19
855.096	11189.49
855.419	11117.18
855.741	11107.24
856.063	11052.55
856.385	11012.32
856.708	10973.91
857.03	10926.45
857.352	10936.39
857.674	10886.23
857.996	10885.55
858.318	10838.32
858.64	10784.31
858.961	10800.13
859.283	10763.06
859.605	10661.6
859.926	10775.72
860.248	10686.68
860.57	10621.15
860.891	10632.45
861.212	10536.86
861.534	10493.69
861.855	10533.47
862.176	10529.85
862.498	10444.65
862.819	10486.01
863.14	10450.98
863.461	10400.36
863.782	10459.12
864.103	10395.84
864.424	10299.12
864.745	10357.43
865.065	10273.13
865.386	10255.28
865.707	10260.48
866.027	10265.22
866.348	10245.11
866.668	10266.81
866.989	10231.33
867.309	10110.65
867.63	10160.14
867.95	10198.33
868.27	10079.24
868.59	10093.93
868.91	10079.01
869.23	10111.33
869.55	10044.89
869.87	10042.86
870.19	10047.15
870.51	10027.04
870.83	9977.55
871.15	9933.03
871.469	9974.61
871.789	9924.89
872.109	9938.23
872.428	9876.53
872.748	9891.22
873.067	9858.23
873.386	9912.92
873.706	9911.34
874.025	9859.36
874.344	9759.25
874.663	9839.47
874.982	9787.95
875.301	9712.7
875.62	9710.44
875.939	9718.8
876.258	9769.42
876.577	9666.14
876.896	9755.41
877.214	9707.95
877.533	9747.05
877.852	9663.88
878.17	9622.3
878.489	9613.94
878.807	9633.6
879.125	9563.55
879.444	9575.53
879.762	9549.54
880.08	9576.43
880.398	9459.6
880.716	9522.42
881.034	9427.51
881.352	9465.7
881.67	9444.46
881.988	9474.74
882.306	9393.83
882.624	9369.65
882.941	9288.53
883.259	9367.85
883.577	9289.43
883.894	9258.25
884.212	9227.51
884.529	9260.51
884.846	9235.87
885.164	9201.98
885.481	9185.25
885.798	9190
886.115	9080.62
886.432	9133.05
886.75	9078.36
887.067	9046.5
887.383	9054.18
887.7	9053.5
888.017	8961.98
888.334	9010.34
888.651	9019.83
888.967	8931.7
889.284	8876.33
889.6	8909.1
889.917	8824.36
890.233	8847.18
890.55	8814.64
890.866	8798.14
891.182	8770.8
891.498	8739.84
891.815	8727.41
892.131	8679.96
892.447	8631.6
892.763	8611.71
893.079	8571.03
893.395	8581.88
893.71	8569.45
894.026	8517.7
894.342	8576
894.657	8433.41
894.973	8379.17
895.289	8400.87
895.604	8382.11
895.92	8365.16
896.235	8304.37
896.55	8351.15
896.865	8304.37
897.181	8278.61
897.496	8294.65
897.811	8271.15
898.126	8185.73
898.441	8170.59
898.756	8148.44
899.071	8077.26
899.386	8093.76
899.7	8065.96
900.015	7996.36
900.33	7912.74
900.644	7963.14
900.959	7870.71
901.273	7880.65
901.588	7899.18
901.902	7812.63
902.216	7815.35
902.531	7768.34
902.845	7763.14
903.159	7710.49
903.473	7677.5
903.787	7550.95
904.101	7583.26
904.415	7631.17
904.729	7526.09
905.042	7515.69
905.356	7538.29
905.67	7512.98
905.984	7499.2
906.297	7436.82
906.611	7442.02
906.924	7374
907.237	7324.51
907.551	7352.98
907.864	7261.01
908.177	7293.55
908.491	7219.65
908.804	7208.81
909.117	7209.71
909.43	7101.69
909.743	7099.43
910.056	7097.4
910.368	7054.01
910.681	6990.06
910.994	7030.28
911.307	6930.4
911.619	6893.11
911.932	6879.78
912.244	6801.59
912.557	6826.67
912.869	6858.08
913.181	6799.33
913.494	6785.54
913.806	6742.61
914.118	6714.81
914.43	6683.85
914.742	6668.03
915.054	6581.93
915.366	6595.72
915.678	6586.45
915.99	6587.81
916.302	6483.63
916.613	6503.97
916.925	6501.03
917.236	6449.05
917.548	6409.51
917.859	6420.13
918.171	6364.08
918.482	6327.02
918.794	6303.75
919.105	6300.58
919.416	6246.35
919.727	6247.7
920.038	6236.86
920.349	6179.46
920.66	6134.03
920.971	6119.34
921.282	6117.08
921.593	6023.98
921.903	6001.38
922.214	6017.65
922.525	6009.29
922.835	5983.3
923.146	5930.88
923.456	5979.91
923.767	5917.32
924.077	5917.09
924.387	5905.57
924.697	5873.02
925.008	5840.48
925.318	5799.13
925.628	5794.16
925.938	5746.25
926.248	5684.33
926.558	5697.66
926.867	5681.84
927.177	5647.49
927.487	5668.06
927.796	5560.72
928.106	5548.51
928.416	5535.18
928.725	5590.09
929.034	5496.54
929.344	5519.36
929.653	5504.67
929.962	5436.88
930.271	5404.79
930.581	5377.67
930.89	5362.08
931.199	5303.32
931.508	5363.21
931.817	5281.63
932.125	5262.19
932.434	5260.38
932.743	5209.76
933.051	5194.62
933.36	5152.82
933.669	5198.92
933.977	5113.95
934.286	5134.74
934.594	5084.8
934.902	5053.61
935.21	5059.94
935.519	5051.8
935.827	5033.72
936.135	4979.94
936.443	4943.33
936.751	4954.63
937.059	4938.58
937.367	4871.47
937.674	4839.15
937.982	4838.7
938.29	4880.06
938.597	4836.21
938.905	4763.45
939.213	4753.28
939.52	4715.54
939.827	4758.7
940.135	4713.28
940.442	4688.42
940.749	4734.75
941.056	4683.45
941.363	4627.63
941.67	4612.72
941.977	4561.65
942.284	4576.33
942.591	4569.1
942.898	4543.79
943.205	4554.19
943.511	4487.75
943.818	4479.39
944.125	4490.91
944.431	4473.96
944.738	4413.17
945.044	4391.48
945.35	4404.36
945.657	4393.51
945.963	4333.85
946.269	4333.18
946.575	4341.09
946.881	4305.38
947.187	4239.62
947.493	4261.31
947.799	4235.1
948.105	4233.07
948.41	4132.96
948.716	4229.9
949.022	4182.45
949.327	4192.84
949.633	4124.59
949.938	4124.37
950.244	4132.5
950.549	4037.82
950.854	4029.91
951.16	4021.09
951.465	4040.53
951.77	3994.65
952.075	3977.03
952.38	3948.78
952.685	3946.07
952.99	3939.29
953.294	3913.3
953.599	3890.7
953.904	3847.77
954.209	3829.91
954.513	3853.87
954.818	3858.39
955.122	3811.16
955.426	3791.95
955.731	3746.53
956.035	3772.06
956.339	3757.82
956.643	3790.59
956.948	3700.2
957.252	3750.14
957.556	3681.44
957.86	3663.14
958.163	3690.48
958.467	3688.22
958.771	3655.45
959.075	3635.34
959.378	3573.2
959.682	3602.12
959.985	3588.56
960.289	3578.17
960.592	3501.33
960.896	3486.87
961.199	3493.65
961.502	3531.16
961.805	3499.07
962.108	3416.59
962.411	3425.4
962.714	3436.7
963.017	3367.55
963.32	3407.33
963.623	3412.98
963.926	3425.18
964.228	3322.36
964.531	3353.32
964.833	3349.25
965.136	3323.03
965.438	3314.9
965.741	3296.37
966.043	3266.31
966.345	3267.44
966.648	3293.88
966.95	3254.79
967.252	3220.89
967.554	3237.16
967.856	3185.64
968.158	3212.3
968.46	3155.35
968.761	3151.06
969.063	3129.59
969.365	3105.64
969.666	3140.21
969.968	3142.7
970.269	3050.27
970.571	3050.72
970.872	3040.1
971.174	3027.9
971.475	3005.3
971.776	2995.13
972.077	2998.52
972.378	2983.16
972.679	2966.21
972.98	2953.33
973.281	2933.67
973.582	2921.01
973.883	2893.21
974.183	2929.6
974.484	2887.79
974.785	2881.01
975.085	2895.47
975.386	2877.17
975.686	2867.9
975.986	2808.25
976.287	2812.77
976.587	2812.31
976.887	2798.53
977.187	2764.4
977.487	2767.57
977.787	2765.08
978.087	2768.25
978.387	2752.43
978.687	2761.24
978.987	2709.72
979.286	2708.36
979.586	2693.9
979.885	2678.76
980.185	2637.4
980.484	2632.43
980.784	2658.19
981.083	2627.69
981.382	2606.22
981.682	2615.48
981.981	2588.36
982.28	2573.68
982.579	2544.75
982.878	2554.92
983.177	2528.93
983.475	2573.9
983.774	2550.63
984.073	2510.4
984.372	2492.32
984.67	2479.44
984.969	2487.58
985.267	2502.49
985.566	2493.9
985.864	2434.7
986.162	2415.04
986.461	2373.23
986.759	2430.4
987.057	2394.7
987.355	2387.24
987.653	2409.84
987.951	2382.95
988.249	2385.43
988.547	2341.36
988.844	2333.23
989.142	2329.84
989.44	2313.34
989.737	2290.74
990.035	2306.79
990.332	2299.11
990.63	2317.41
990.927	2294.13
991.224	2233.12
991.521	2239.45
991.819	2221.82
992.116	2196.74
992.413	2246.9
992.71	2204.19
993.006	2177.75
993.303	2207.81
993.6	2161.93
993.897	2147.47
994.193	2130.98
994.49	2132.1
994.787	2147.47
995.083	2123.29
995.379	2134.36
995.676	2116.29
995.972	2084.2
996.268	2074.25
996.565	2071.54
996.861	2028.38
997.157	2060.24
997.453	2056.63
997.749	2020.02
998.044	2004.88
998.34	1986.12
998.636	2013.92
998.932	1969.62
999.227	2018.66
999.523	1971.21
999.818	1964.2
1000.114	1946.12
1000.409	1915.61
1000.704	1925.1
1001	1931.88
1001.295	1897.99
1001.59	1900.7
1001.885	1880.36
1002.18	1873.58
1002.475	1863.86
1002.77	1855.05
1003.065	1832
1003.359	1831.32
1003.654	1824.77
1003.949	1827.93
1004.243	1841.27
1004.538	1811.89
1004.832	1794.49
1005.127	1791.55
1005.421	1764.66
1005.715	1769.18
1006.009	1755.39
1006.304	1742.51
1006.598	1715.17
1006.892	1738.89
1007.186	1676.75
1007.48	1710.65
1007.773	1690.08
1008.067	1674.72
1008.361	1673.36
1008.655	1652.12
1008.948	1646.02
1009.242	1648.5
1009.535	1617.77
1009.829	1643.08
1010.122	1587.94
1010.415	1588.84
1010.708	1604.66
1011.001	1595.4
1011.295	1610.99
1011.588	1570.31
1011.881	1575.51
1012.173	1558.11
1012.466	1548.62
1012.759	1528.28
1013.052	1529.41
1013.344	1556.07
1013.637	1518.11
1013.93	1504.78
1014.222	1496.64
1014.514	1483.76
1014.807	1492.8
1015.099	1475.4
1015.391	1456.19
1015.683	1459.13
1015.976	1439.69
1016.268	1449.86
1016.56	1423.42
1016.851	1406.25
1017.143	1402.18
1017.435	1396.98
1017.727	1374.16
1018.018	1408.51
1018.31	1365.12
1018.602	1356.98
1018.893	1371.9
1019.185	1343.2
1019.476	1342.75
1019.767	1334.61
1020.058	1329.64
1020.35	1319.24
1020.641	1323.76
1020.932	1310.43
1021.223	1293.93
1021.514	1294.16
1021.804	1266.59
1022.095	1261.39
1022.386	1252.13
1022.677	1234.5
1022.967	1231.79
1023.258	1248.06
1023.548	1199.93
1023.839	1245.57
1024.129	1199.25
1024.419	1200.6
1024.709	1170.1
1025	1192.92
1025.29	1174.39
1025.58	1180.94
1025.87	1160.15
1026.16	1135.75
1026.449	1137.78
1026.739	1142.3
1027.029	1132.36
1027.319	1148.4
1027.608	1114.28
1027.898	1120.83
1028.187	1108.86
1028.477	1074.96
1028.766	1124.67
1029.055	1086.71
1029.344	1100.95
1029.634	1069.99
1029.923	1072.47
1030.212	1074.73
1030.501	1063.21
1030.79	1051.68
1031.078	1064.56
1031.367	1030.66
1031.656	1024.34
1031.945	1005.35
1032.233	1023.66
1032.522	986.6
1032.81	1013.26
1033.099	980.72
1033.387	995.64
1033.675	977.56
1033.963	971.46
1034.251	953.6
1034.54	978.01
1034.828	983.21
1035.116	949.99
1035.403	961.06
1035.691	948.63
1035.979	951.57
1036.267	935.53
1036.554	918.58
1036.842	947.5
1037.129	900.05
1037.417	908.41
1037.704	905.02
1037.992	869.99
1038.279	901.4
1038.566	887.62
1038.853	887.62
1039.14	887.62
