Data from hue_230_FLMS001491_00067.txt Node
Date: Tue Feb 07 16:37:35 GMT 2017
User: dcchb
Spectrometer: FLMS00149
Trigger mode: 0
Integration Time (sec): 2.000000E-2
Scans to average: 10
Electric dark correction enabled: true
Nonlinearity correction enabled: false
Boxcar width: 0
XAxis mode: Wavelengths
Number of Pixels in Spectrum: 2048
>>>>>Begin Spectral Data<<<<<
341.393	-6.33
341.776	-6.33
342.16	-6.33
342.543	-76.16
342.927	-79.77
343.31	-54.69
343.693	-85.2
344.077	-56.04
344.46	-62.6
344.843	-66.21
345.226	-37.97
345.61	-31.19
345.993	-15.14
346.376	-14.46
346.759	7.91
347.142	42.48
347.525	33.45
347.908	51.07
348.291	78.42
348.674	92.88
349.057	117.29
349.44	112.31
349.823	138.08
350.206	159.09
350.588	196.38
350.971	206.32
351.354	218.53
351.737	227.34
352.119	225.53
352.502	254.23
352.884	269.6
353.267	263.95
353.65	282.03
354.032	287.22
354.414	301.91
354.797	303.72
355.179	331.52
355.562	308.47
355.944	334
356.326	330.61
356.709	322.93
357.091	329.71
357.473	374.91
357.855	324.96
358.238	344.4
358.62	322.03
359.002	342.59
359.384	337.17
359.766	314.34
360.148	344.62
360.53	322.93
360.912	323.61
361.294	314.34
361.676	326.77
362.057	302.14
362.439	296.94
362.821	315.92
363.203	328.13
363.584	310.5
363.966	323.38
364.348	310.05
364.729	323.16
365.111	303.72
365.493	294.46
365.874	310.5
366.256	285.42
366.637	316.15
367.019	288.35
367.4	323.16
367.781	321.35
368.163	284.74
368.544	310.73
368.925	311.63
369.306	328.35
369.688	320.44
370.069	316.15
370.45	309.82
370.831	314.34
371.212	291.52
371.593	323.38
371.974	284.74
372.355	323.38
372.736	297.39
373.117	300.11
373.498	320.22
373.879	302.59
374.26	299.2
374.641	306.21
375.021	311.86
375.402	318.18
375.783	305.3
376.163	326.55
376.544	312.31
376.925	330.61
377.305	341.91
377.686	308.01
378.066	321.12
378.447	333.1
378.827	341.69
379.208	331.97
379.588	336.04
379.968	325.87
380.349	331.52
380.729	313.44
381.109	319.77
381.489	315.92
381.87	320.9
382.25	327.45
382.63	320.9
383.01	332.65
383.39	331.06
383.77	347.56
384.15	332.65
384.53	352.76
384.91	344.4
385.29	338.97
385.67	337.62
386.049	329.26
386.429	361.57
386.809	340.56
387.189	325.19
387.568	330.39
387.948	325.64
388.328	326.32
388.707	361.12
389.087	356.15
389.466	344.17
389.846	351.4
390.225	343.72
390.605	343.95
390.984	341.69
391.363	372.42
391.743	357.05
392.122	365.19
392.501	357.96
392.881	360.67
393.26	381.91
393.639	362.93
394.018	374.91
394.397	360.44
394.776	376.04
395.155	376.26
395.534	385.07
395.913	371.06
396.292	357.05
396.671	363.61
397.05	356.15
397.429	405.19
397.808	379.88
398.186	384.85
398.565	376.26
398.944	414.23
399.323	393.89
399.701	393.89
400.08	383.72
400.458	402.7
400.837	384.17
401.215	406.77
401.594	395.47
401.972	405.41
402.351	392.98
402.729	407.45
403.107	404.51
403.486	409.03
403.864	442.25
404.242	429.82
404.62	439.99
404.999	420.55
405.377	439.31
405.755	423.72
406.133	433.89
406.511	435.92
406.889	449.25
407.267	441.12
407.645	431.18
408.023	456.03
408.401	450.38
408.779	461.23
409.156	479.76
409.534	461.91
409.912	455.58
410.29	492.19
410.667	479.76
411.045	491.06
411.422	511.17
411.8	508.69
412.178	519.31
412.555	527.44
412.933	546.65
413.31	527.44
413.687	543.26
414.065	559.08
414.442	542.58
414.819	551.17
415.197	543.94
415.574	565.86
415.951	560.66
416.328	584.84
416.705	578.29
417.082	600.89
417.46	596.37
417.837	598.18
418.214	601.34
418.591	619.42
418.967	626.65
419.344	627.55
419.721	611.51
420.098	645.86
420.475	664.62
420.852	649.93
421.228	668.01
421.605	670.72
421.982	680.21
422.358	706.65
422.735	689.47
423.111	692.64
423.488	706.2
423.864	732.41
424.241	719.08
424.617	750.94
424.994	757.27
425.37	742.13
425.746	772.64
426.123	789.58
426.499	769.25
426.875	788.68
427.251	809.02
427.627	813.99
428.003	818.74
428.379	826.42
428.756	835.68
429.132	849.24
429.507	880.43
429.883	850.83
430.259	902.12
430.635	895.12
431.011	917.72
431.387	910.94
431.763	933.76
432.138	929.69
432.514	976.02
432.89	975.34
433.265	985.28
433.641	998.84
434.016	1000.2
434.392	1037.03
434.767	1066.19
435.143	1062.34
435.518	1062.57
435.894	1076.58
436.269	1134.66
436.644	1117.48
437.02	1122.23
437.395	1130.14
437.77	1173.98
438.145	1187.99
438.52	1187.31
438.895	1236.8
439.271	1216.69
439.646	1241.32
440.021	1263.02
440.395	1285.16
440.77	1284.03
441.145	1284.94
441.52	1310.7
441.895	1338.5
442.27	1360.42
442.645	1351.6
443.019	1389.34
443.394	1376.91
443.769	1372.39
444.143	1392.96
444.518	1411.94
444.892	1423.92
445.267	1454.88
445.641	1437.25
446.016	1446.29
446.39	1464.14
446.764	1474.54
447.139	1482.9
447.513	1509.79
447.887	1496.68
448.262	1498.27
448.636	1525.16
449.01	1555.89
449.384	1539.17
449.758	1553.63
450.132	1589.79
450.506	1594.99
450.88	1573.52
451.254	1596.12
451.628	1605.61
452.002	1641.09
452.376	1631.6
452.75	1665.72
453.123	1670.01
453.497	1708.88
453.871	1704.36
454.244	1739.84
454.618	1743.46
454.992	1746.17
455.365	1770.35
455.739	1827.3
456.112	1818.26
456.486	1820.97
456.859	1825.49
457.232	1883.34
457.606	1871.82
457.979	1907.29
458.352	1964.24
458.725	1940.06
459.099	2003.56
459.472	2028.87
459.845	2026.84
460.218	2018.7
460.591	2069.78
460.964	2079.49
461.337	2122.88
461.71	2136.89
462.083	2145.25
462.456	2181.86
462.829	2211.24
463.201	2193.16
463.574	2196.78
463.947	2239.72
464.32	2286.72
464.692	2290.11
465.065	2311.35
465.438	2330.79
465.81	2385.25
466.183	2369.66
466.555	2436.09
466.928	2413.95
467.3	2408.07
467.672	2465.92
468.045	2530.1
468.417	2552.93
468.789	2559.71
469.161	2608.07
469.534	2626.6
469.906	2663.66
470.278	2685.35
470.65	2712.02
471.022	2777.55
471.394	2808.51
471.766	2827.95
472.138	2849.19
472.51	2916.08
472.882	2934.39
473.253	3008.51
473.625	3005.34
473.997	3052.8
474.369	3072.91
474.74	3092.8
475.112	3192.01
475.484	3196.75
475.855	3230.65
476.227	3269.52
476.598	3326.69
476.97	3365.56
477.341	3422.06
477.713	3465.22
478.084	3492.79
478.455	3561.94
478.827	3589.96
479.198	3713.8
479.569	3668.38
479.94	3787.7
480.311	3814.36
480.682	3884.64
481.053	3954.47
481.424	4026.33
481.795	4029.05
482.166	4111.98
482.537	4147.46
482.908	4184.52
483.279	4238.08
483.65	4305.42
484.021	4361.02
484.391	4410.96
484.762	4440.79
485.133	4433.1
485.503	4531.63
485.874	4595.81
486.244	4623.38
486.615	4731.85
486.985	4761.46
487.356	4822.02
487.726	4840.32
488.097	4942.92
488.467	4944.73
488.837	5078.96
489.207	5087.32
489.578	5159.19
489.948	5186.53
490.318	5218.62
490.688	5269.92
491.058	5352.18
491.428	5431.72
491.798	5440.53
492.168	5560.31
492.538	5549.91
492.908	5622.68
493.278	5652.96
493.648	5617.03
494.017	5666.29
494.387	5765.27
494.757	5749.45
495.126	5840.98
495.496	5846.85
495.866	5873.74
496.235	5950.35
496.605	5972.5
496.974	6030.58
497.344	6068.32
497.713	6093.63
498.082	6089.33
498.452	6201.19
498.821	6200.97
499.19	6185.37
499.559	6199.84
499.928	6224.24
500.298	6256.33
500.667	6291.13
501.036	6325.26
501.405	6359.15
501.774	6368.42
502.143	6387.85
502.512	6419.94
502.88	6461.75
503.249	6494.07
503.618	6487.74
503.987	6506.5
504.356	6558.47
504.724	6580.62
505.093	6553.05
505.462	6577.45
505.83	6649.77
506.199	6654.29
506.567	6632.14
506.936	6746.72
507.304	6732.7
507.672	6734.74
508.041	6737.68
508.409	6802.98
508.777	6790.78
509.145	6835.75
509.514	6848.86
509.882	6850.89
510.25	6891.34
510.618	6912.13
510.986	6920.27
511.354	6941.74
511.722	6978.8
512.09	6978.35
512.458	7027.84
512.826	7017.44
513.193	7022.19
513.561	7068.29
513.929	7066.93
514.297	7156.42
514.664	7094.95
515.032	7115.52
515.4	7162.98
515.767	7172.69
516.135	7138.8
516.502	7120.94
516.869	7246.36
517.237	7224.67
517.604	7138.12
517.972	7245.46
518.339	7191.22
518.706	7264.89
519.073	7223.09
519.44	7271
519.808	7306.25
520.175	7289.98
520.542	7385.34
520.909	7305.34
521.276	7306.47
521.643	7378.56
522.009	7393.03
522.376	7384.21
522.743	7381.05
523.11	7443.19
523.477	7456.3
523.843	7540.59
524.21	7515.51
524.577	7481.84
524.943	7538.33
525.31	7579.01
525.676	7579.91
526.043	7583.98
526.409	7600.25
526.776	7650.65
527.142	7647.03
527.508	7672.79
527.874	7651.55
528.241	7662.17
528.607	7640.48
528.973	7753.02
529.339	7711.66
529.705	7715.5
530.071	7775.16
530.437	7741.27
530.803	7741.94
531.169	7732.23
531.535	7676.86
531.901	7679.35
532.267	7647.71
532.632	7709.85
532.998	7709.18
533.364	7736.52
533.73	7722.73
534.095	7743.07
534.461	7731.77
534.826	7760.47
535.192	7761.83
535.557	7722.06
535.923	7661.27
536.288	7671.89
536.653	7706.69
537.019	7627.6
537.384	7743.3
537.749	7664.43
538.114	7620.14
538.479	7600.03
538.845	7684.54
539.21	7588.5
539.575	7655.17
539.94	7585.11
540.305	7591.21
540.67	7583.08
541.034	7536.07
541.399	7512.8
541.764	7540.37
542.129	7555.06
542.494	7496.98
542.858	7561.16
543.223	7477.09
543.587	7528.62
543.952	7435.06
544.316	7464.21
544.681	7501.27
545.045	7432.8
545.41	7501.27
545.774	7502.85
546.138	7449.07
546.503	7414.04
546.867	7387.15
547.231	7442.06
547.595	7396.42
547.959	7362.97
548.324	7386.92
548.688	7365.91
549.052	7372.69
549.416	7322.52
549.779	7367.72
550.143	7306.47
550.507	7311.9
550.871	7298.79
551.235	7313.03
551.599	7353.48
551.962	7275.74
552.326	7275.97
552.689	7352.35
553.053	7270.77
553.417	7200.71
553.78	7309.41
554.143	7251.79
554.507	7278
554.87	7235.97
555.234	7313.03
555.597	7241.84
555.96	7196.87
556.323	7163.65
556.686	7170.21
557.05	7256.53
557.413	7223.99
557.776	7244.1
558.139	7228.06
558.502	7231.22
558.865	7307.15
559.228	7210.88
559.59	7289.3
559.953	7258.57
560.316	7283.42
560.679	7280.94
561.041	7359.35
561.404	7307.6
561.767	7355.74
562.129	7286.59
562.492	7345.8
562.854	7335.17
563.217	7346.93
563.579	7387.83
563.941	7376.3
564.304	7403.42
564.666	7434.61
565.028	7420.37
565.39	7411.1
565.753	7428.73
566.115	7419.01
566.477	7459.69
566.839	7524.1
567.201	7545.56
567.563	7492.46
567.925	7601.38
568.287	7546.24
568.648	7530.42
569.01	7546.47
569.372	7606.35
569.734	7567.48
570.095	7627.37
570.457	7580.59
570.819	7680.93
571.18	7681.38
571.542	7632.79
571.903	7690.65
572.265	7765.22
572.626	7739.68
572.987	7707.14
573.349	7778.33
573.71	7792.79
574.071	7793.24
574.432	7807.93
574.794	7901.71
575.155	7860.13
575.516	7800.7
575.877	7875.5
576.238	7890.19
576.599	7880.92
576.96	7868.95
577.32	7954.14
577.681	7955.05
578.042	8011.09
578.403	8012.9
578.763	7974.48
579.124	7986
579.485	7986.91
579.845	8028.49
580.206	8048.38
580.566	8022.61
580.927	8062.39
581.287	8139.9
581.648	8066.91
582.008	8160.92
582.368	8109.84
582.728	8157.07
583.089	8179.22
583.449	8166.11
583.809	8181.93
584.169	8155.04
584.529	8136.96
584.889	8263.96
585.249	8207.92
585.609	8153.46
585.969	8233.23
586.329	8193.68
586.688	8261.03
587.048	8253.12
587.408	8215.6
587.768	8248.6
588.127	8269.61
588.487	8254.25
588.846	8289.05
589.206	8293.34
589.565	8283.17
589.925	8370.85
590.284	8335.83
590.643	8308.26
591.003	8336.28
591.362	8405.43
591.721	8339.22
592.08	8380.57
592.44	8477.74
592.799	8428.03
593.158	8418.31
593.517	8478.65
593.876	8451.3
594.235	8413.11
594.593	8456.27
594.952	8471.64
595.311	8394.13
595.67	8440.23
596.029	8526.1
596.387	8523.39
596.746	8475.48
597.104	8460.57
597.463	8455.37
597.822	8499.66
598.18	8506.89
598.538	8434.35
598.897	8555.48
599.255	8482.04
599.613	8563.16
599.972	8486.1
600.33	8541.7
600.688	8520.23
601.046	8563.16
601.404	8593.22
601.762	8597.06
602.12	8600.23
602.478	8611.07
602.836	8603.62
603.194	8540.34
603.552	8581.7
603.91	8541.47
604.268	8667.79
604.625	8600
604.983	8582.83
605.341	8567.68
605.698	8588.02
606.056	8621.92
606.413	8635.93
606.771	8722.26
607.128	8655.59
607.485	8624.41
607.843	8655.37
608.2	8634.8
608.557	8719.77
608.914	8606.1
609.272	8678.64
609.629	8698.08
609.986	8798.41
610.343	8725.42
610.7	8777.4
611.057	8695.14
611.414	8708.47
611.771	8753.44
612.127	8759.09
612.484	8724.06
612.841	8743.95
613.198	8812.65
613.554	8762.48
613.911	8789.15
614.267	8793.44
614.624	8817.4
614.98	8793.67
615.337	8894
615.693	8811.52
616.05	8846.32
616.406	8910.5
616.762	8862.59
617.118	8849.48
617.475	8821.46
617.831	8915.7
618.187	8861.91
618.543	8894.91
618.899	8915.25
619.255	8929.71
619.611	8917.28
619.967	8993.89
620.323	8957.28
620.678	8927.67
621.034	8900.33
621.39	8969.71
621.746	8894.23
622.101	8943.27
622.457	8937.84
622.812	8950.27
623.168	8943.27
623.523	8911.86
623.879	8992.98
624.234	8894
624.589	8967.45
624.945	8972.87
625.3	8919.99
625.655	8927.45
626.01	8956.37
626.365	8934.68
626.72	8904.17
627.075	8931.74
627.43	8927.9
627.785	8876.15
628.14	8904.17
628.495	8923.61
628.85	8963.83
629.205	8887.22
629.559	8987.79
629.914	8862.14
630.269	8873.21
630.623	8827.34
630.978	8886.55
631.332	8911.63
631.687	8963.61
632.041	8879.77
632.396	8789.83
632.75	8808.58
633.104	8807.68
633.459	8769.26
633.813	8789.15
634.167	8776.49
634.521	8724.97
634.875	8769.26
635.229	8796.6
635.583	8703.95
635.937	8705.31
636.291	8712.31
636.645	8738.3
636.999	8649.49
637.352	8631.19
637.706	8643.39
638.06	8691.3
638.413	8685.42
638.767	8653.78
639.121	8766.78
639.474	8640.9
639.828	8641.58
640.181	8660.34
640.534	8593.22
640.888	8597.97
641.241	8622.37
641.594	8595.48
641.947	8551.64
642.301	8591.86
642.654	8623.05
643.007	8577.63
643.36	8627.8
643.713	8573.11
644.066	8573.56
644.419	8563.39
644.771	8414.47
645.124	8419.44
645.477	8459.89
645.83	8316.84
646.182	8285.88
646.535	8297.18
646.888	8280.91
647.24	8221.48
647.593	8243.85
647.945	8228.71
648.298	8187.58
648.65	8197.07
649.002	8171.08
649.355	8224.87
649.707	8236.85
650.059	8206.56
650.411	8363.62
650.763	8342.61
651.115	8436.61
651.467	8404.07
651.819	8387.58
652.171	8407.24
652.523	8419.67
652.875	8435.03
653.227	8398.88
653.578	8454.01
653.93	8489.49
654.282	8346
654.633	8380.57
654.985	8377.41
655.337	8417.86
655.688	8397.75
656.039	8423.28
656.391	8371.53
656.742	8433
657.094	8391.42
657.445	8430.51
657.796	8362.04
658.147	8347.8
658.498	8361.36
658.849	8385.32
659.2	8448.82
659.551	8375.6
659.902	8473.9
660.253	8346.67
660.604	8404.3
660.955	8337.18
661.306	8410.63
661.656	8367.01
662.007	8305.32
662.358	8418.54
662.708	8415.6
663.059	8383.96
663.409	8328.82
663.76	8404.52
664.11	8430.74
664.461	8375.82
664.811	8465.54
665.161	8409.5
665.511	8321.59
665.862	8404.98
666.212	8435.94
666.562	8422.15
666.912	8433.9
667.262	8395.03
667.612	8453.56
667.962	8388.93
668.312	8384.19
668.662	8452.43
669.011	8367.01
669.361	8358.42
669.711	8346.67
670.06	8410.4
670.41	8364.75
670.76	8364.07
671.109	8377.86
671.459	8338.09
671.808	8288.37
672.157	8348.71
672.507	8268.71
672.856	8270.52
673.205	8271.87
673.554	8384.41
673.904	8303.74
674.253	8275.26
674.602	8336.05
674.951	8238.2
675.3	8149.16
675.649	8254.92
675.998	8235.26
676.346	8263.51
676.695	8234.59
677.044	8206.34
677.393	8174.25
677.741	8224.42
678.09	8251.08
678.438	8159.11
678.787	8194.13
679.135	8171.99
679.484	8156.4
679.832	8113.46
680.181	8006.34
680.529	8140.58
680.877	8104.65
681.225	8125.89
681.573	8134.7
681.922	8037.53
682.27	8111.88
682.618	8066.23
682.966	8044.53
683.314	8060.13
683.661	8008.15
684.009	7905.33
684.357	7995.27
684.705	7947.81
685.053	7937.19
685.4	7907.36
685.748	7898.55
686.095	7928.61
686.443	7841.15
686.79	7823.98
687.138	7886.35
687.485	7850.87
687.832	7831.43
688.18	7821.72
688.527	7750.53
688.874	7712.57
689.221	7743.98
689.568	7678.22
689.915	7668.95
690.262	7640.25
690.609	7662.85
690.956	7552.12
691.303	7600.93
691.65	7549.18
691.997	7567.94
692.344	7534.49
692.69	7491.1
693.037	7456.75
693.383	7426.25
693.73	7409.52
694.077	7449.52
694.423	7379.69
694.769	7354.16
695.116	7340.15
695.462	7318.9
695.808	7307.38
696.155	7282.97
696.501	7265.8
696.847	7260.37
697.193	7255.85
697.539	7190.55
697.885	7144.44
698.231	7097.67
698.577	7084.33
698.923	7110.77
699.269	7075.29
699.614	7025.35
699.96	7090.89
700.306	7001.17
700.651	7011.79
700.997	6922.53
701.342	6868.75
701.688	6921.85
702.033	6912.36
702.379	6857.45
702.724	6864.9
703.069	6846.6
703.415	6756.21
703.76	6804.11
704.105	6771.57
704.45	6774.96
704.795	6727.51
705.14	6719.6
705.485	6660.39
705.83	6603.22
706.175	6631.69
706.52	6650.9
706.865	6607.06
707.209	6576.78
707.554	6555.76
707.899	6560.73
708.243	6568.41
708.588	6501.75
708.932	6494.74
709.277	6442.77
709.621	6523.44
709.966	6492.48
710.31	6483.9
710.654	6410.9
710.998	6447.74
711.342	6434.41
711.687	6391.24
712.031	6354.41
712.375	6335.43
712.719	6334.3
713.063	6334.52
713.407	6331.58
713.75	6299.72
714.094	6326.61
714.438	6279.83
714.782	6231.93
715.125	6265.37
715.469	6264.92
715.812	6228.31
716.156	6194.87
716.499	6181.08
716.843	6205.03
717.186	6203.23
717.53	6193.28
717.873	6212.72
718.216	6153.51
718.559	6147.18
718.902	6127.52
719.246	6131.59
719.589	6086.85
719.932	6085.72
720.275	6099.27
720.617	6094.75
720.96	6135.21
721.303	6076.9
721.646	6079.61
721.989	6057.02
722.331	6101.99
722.674	6050.69
723.016	6045.49
723.359	6013.85
723.701	6049.11
724.044	6041.65
724.386	5973.85
724.729	6032.61
725.071	5972.27
725.413	5952.84
725.755	6003.91
726.097	5992.61
726.439	5936.79
726.782	5910.13
727.124	5958.49
727.465	5963.46
727.807	5957.13
728.149	5896.12
728.491	5922.78
728.833	5934.08
729.175	5911.93
729.516	5942.44
729.858	5892.05
730.199	5906.74
730.541	5913.74
730.882	5898.6
731.224	5903.35
731.565	5910.58
731.906	5897.02
732.248	5879.85
732.589	5874.42
732.93	5887.53
733.271	5885.72
733.612	5852.05
733.953	5922.78
734.294	5883.91
734.635	5885.72
734.976	5881.88
735.317	5880.98
735.658	5899.96
735.999	5924.82
736.339	5900.86
736.68	5911.71
737.021	5878.94
737.361	5901.77
737.702	5905.16
738.042	5892.05
738.383	5848.66
738.723	5882.11
739.063	5911.71
739.404	5974.76
739.744	5903.12
740.084	5894.53
740.424	5934.76
740.764	5878.26
741.104	5984.25
741.444	5954.19
741.784	5940.18
742.124	5967.98
742.464	5959.84
742.804	5972.5
743.143	5999.62
743.483	5987.19
743.823	6015.21
744.162	6073.06
744.502	6062.44
744.841	6064.93
745.181	6140.18
745.52	6111.48
745.86	6125.26
746.199	6131.82
746.538	6189.44
746.877	6176.56
747.216	6246.84
747.556	6301.3
747.895	6312.83
748.234	6271.47
748.573	6375.65
748.911	6427.85
749.25	6447.29
749.589	6466.27
749.928	6547.85
750.267	6566.38
750.605	6632.59
750.944	6663.55
751.283	6615.65
751.621	6764.79
751.96	6781.52
752.298	6866.26
752.636	6894.96
752.975	6989.87
753.313	7031.45
753.651	7102.86
753.989	7172.01
754.327	7282.75
754.666	7409.3
755.004	7458.56
755.342	7524.1
755.679	7619.01
756.017	7671.89
756.355	7819.68
756.693	7932.45
757.031	8027.59
757.368	8042.05
757.706	8210.18
758.044	8264.19
758.381	8366.33
758.719	8513.67
759.056	8605.65
759.394	8664.63
759.731	8798.19
760.068	8860.33
760.405	8965.64
760.743	9070.72
761.08	9224.16
761.417	9347.55
761.754	9482.24
762.091	9593.87
762.428	9700.08
762.765	9780.99
763.102	9883.58
763.438	10022.34
763.775	10066.18
764.112	10243.12
764.449	10362.21
764.785	10493.28
765.122	10630.91
765.458	10647.18
765.795	10738.47
766.131	10896.66
766.467	10925.14
766.804	11027.05
767.14	11156.54
767.476	11254.17
767.812	11362.87
768.148	11417.55
768.485	11489.42
768.821	11607.83
769.157	11717.43
769.492	11839.24
769.828	11933.7
770.164	11896.64
770.5	11969.85
770.836	12104.09
771.171	12166.01
771.507	12157.19
771.842	12245.1
772.178	12362.61
772.513	12350.86
772.849	12440.12
773.184	12575.71
773.519	12560.12
773.855	12652.32
774.19	12690.06
774.525	12632.89
774.86	12731.42
775.195	12781.58
775.53	12722.6
775.865	12770.51
776.2	12839.44
776.535	12750.17
776.87	12871.98
777.205	12891.41
777.539	12813.45
777.874	12931.64
778.209	12815.48
778.543	12867.01
778.878	12878.53
779.212	12995.36
779.547	12877.4
779.881	13005.99
780.215	13018.64
780.55	13008.25
780.884	12974.12
781.218	12961.24
781.552	13021.13
781.886	13035.59
782.22	13007.57
782.554	12994.69
782.888	12848.25
783.222	12913.78
783.556	12876.05
783.889	12911.75
784.223	12789.04
784.557	12836.72
784.89	12955.14
785.224	12879.66
785.557	12784.3
785.891	12777.74
786.224	12849.15
786.558	12895.03
786.891	12749.5
787.224	12787.46
787.557	12775.94
787.891	12739.33
788.224	12778.2
788.557	12763.51
788.89	12832.88
789.223	12693
789.556	12758.76
789.888	12634.92
790.221	12596.05
790.554	12615.94
790.887	12625.88
791.219	12610.97
791.552	12585.43
791.884	12448.03
792.217	12591.31
792.549	12464.53
792.882	12462.95
793.214	12337.98
793.546	12415.72
793.879	12318.32
794.211	12328.49
794.543	12319
794.875	12261.15
795.207	12394.48
795.539	12251.2
795.871	12346.12
796.203	12129.4
796.535	12111.55
796.867	12138.21
797.198	12076.07
797.53	12065.45
797.862	12049.85
798.193	11990.65
798.525	11985.22
798.856	12031.1
799.188	11932.12
799.519	11839.46
799.85	11894.15
800.182	11840.14
800.513	11896.86
800.844	11784.1
801.175	11810.76
801.506	11799.01
801.837	11789.52
802.168	11714.27
802.499	11673.37
802.83	11682.4
803.161	11607.83
803.491	11646.02
803.822	11584.33
804.153	11487.16
804.483	11444.67
804.814	11484.9
805.145	11491
805.475	11448.29
805.805	11410.1
806.136	11431.34
806.466	11411.45
806.796	11340.04
807.126	11313.6
807.457	11315.63
807.787	11220.04
808.117	11216.65
808.447	11172.59
808.777	11199.03
809.107	11126.04
809.436	11147.05
809.766	11185.69
810.096	11082.65
810.426	11085.58
810.755	11077.45
811.085	11064.12
811.414	11021.18
811.744	10906.15
812.073	10974.63
812.403	10926.04
812.732	10892.82
813.061	10896.66
813.39	10826.83
813.719	10818.47
814.049	10948.86
814.378	10912.03
814.707	10764.46
815.036	10757.01
815.365	10740.73
815.693	10647.63
816.022	10676.1
816.351	10674.75
816.68	10592.04
817.008	10607.86
817.337	10558.37
817.665	10496
817.994	10529.21
818.322	10542.55
818.651	10476.33
818.979	10459.39
819.307	10476.56
819.636	10514.75
819.964	10413.51
820.292	10443.79
820.62	10343
820.948	10425.26
821.276	10465.04
821.604	10401.76
821.932	10408.54
822.259	10457.8
822.587	10423.68
822.915	10364.7
823.243	10404.7
823.57	10354.53
823.898	10301.2
824.225	10332.84
824.553	10308.2
824.88	10372.38
825.207	10408.77
825.535	10357.24
825.862	10475.88
826.189	10380.97
826.516	10448.09
826.843	10446.73
827.17	10388.2
827.497	10385.04
827.824	10406.96
828.151	10507.75
828.478	10468.88
828.805	10476.56
829.131	10403.34
829.458	10453.06
829.785	10390.46
830.111	10376.22
830.438	10452.38
830.764	10398.82
831.09	10465.49
831.417	10406.96
831.743	10369.67
832.069	10407.64
832.395	10424.13
832.722	10361.08
833.048	10290.8
833.374	10326.28
833.7	10309.33
834.026	10341.65
834.351	10364.93
834.677	10330.8
835.003	10345.04
835.329	10301.42
835.654	10269.33
835.98	10230.24
836.306	10343.68
836.631	10263.23
836.956	10275.66
837.282	10277.24
837.607	10244.93
837.932	10189.34
838.258	10202.9
838.583	10184.36
838.908	10108.43
839.233	10167.87
839.558	10096.46
839.883	10064.37
840.208	10105.72
840.533	10036.57
840.858	10093.07
841.182	10129.68
841.507	10034.31
841.832	9964.71
842.156	10002.22
842.481	9947.54
842.805	9995.22
843.13	9961.32
843.454	9883.36
843.778	9883.36
844.103	9886.52
844.427	9762.91
844.751	9867.09
845.075	9771.49
845.399	9806.07
845.723	9690.14
846.047	9726.3
846.371	9669.58
846.695	9641.1
847.019	9647.43
847.343	9472.07
847.666	9375.35
847.99	9472.07
848.313	9449.24
848.637	9376.48
848.96	9335.35
849.284	9380.09
849.607	9307.33
849.931	9272.3
850.254	9190.94
850.577	9144.17
850.9	9098.74
851.223	9095.13
851.546	9048.12
851.869	9012.64
852.192	8969.03
852.515	8940.1
852.838	8903.49
853.161	8924.06
853.483	8911.4
853.806	8856.94
854.129	8850.61
854.451	8800.67
854.774	8741.92
855.096	8729.71
855.419	8734.01
855.741	8690.62
856.063	8671.64
856.385	8625.76
856.708	8581.02
857.03	8578.98
857.352	8529.27
857.674	8546.67
857.996	8458.08
858.318	8490.17
858.64	8456.5
858.961	8461.02
859.283	8454.47
859.605	8355.94
859.926	8415.82
860.248	8402.72
860.57	8392.32
860.891	8385.77
861.212	8277.07
861.534	8288.14
861.855	8248.14
862.176	8267.58
862.498	8307.8
862.819	8204.3
863.14	8186.68
863.461	8193
863.782	8153.68
864.103	8156.62
864.424	8106.23
864.745	8120.92
865.065	8174.02
865.386	8052.44
865.707	8076.85
866.027	8118.88
866.348	8078.88
866.668	8061.03
866.989	8003.41
867.309	7971.54
867.63	8019
867.95	8019.45
868.27	7926.12
868.59	7926.8
868.91	7949.4
869.23	7960.92
869.55	7902.84
869.87	7929.28
870.19	7947.36
870.51	7876.86
870.83	7794.15
871.15	7811.55
871.469	7853.8
871.789	7855.39
872.109	7815.16
872.428	7766.12
872.748	7822.39
873.067	7794.15
873.386	7808.38
873.706	7785.56
874.025	7743.75
874.344	7670.98
874.663	7749.4
874.982	7692.68
875.301	7723.86
875.62	7649.06
875.939	7654.94
876.258	7640.03
876.577	7662.62
876.896	7639.35
877.214	7577.65
877.533	7572.46
877.852	7562.74
878.17	7616.3
878.489	7574.49
878.807	7576.07
879.125	7547.82
879.444	7612.91
879.762	7531.1
880.08	7513.7
880.398	7464.89
880.716	7500.59
881.034	7481.61
881.352	7450.2
881.67	7462.4
881.988	7426.7
882.306	7402.74
882.624	7366.59
882.941	7404.78
883.259	7324.78
883.577	7356.64
883.894	7352.8
884.212	7328.17
884.529	7360.94
884.846	7278.23
885.164	7266.48
885.481	7294.05
885.798	7222.18
886.115	7217.21
886.432	7238.68
886.75	7158
887.067	7176.08
887.383	7107.84
887.7	7084.79
888.017	7156.42
888.334	7148.51
888.651	7135.41
888.967	7086.14
889.284	6991.45
889.6	6995.52
889.917	7005.69
890.233	7016.54
890.55	6991.91
890.866	6955.3
891.182	6908.52
891.498	6901.29
891.815	6878.92
892.131	6886.37
892.447	6860.38
892.763	6802.53
893.079	6795.3
893.395	6751.23
893.71	6817
894.026	6810.67
894.342	6716.89
894.657	6696.77
894.973	6701.52
895.289	6678.24
895.604	6666.94
895.92	6604.35
896.235	6612.48
896.55	6591.69
896.865	6542.65
897.181	6575.42
897.496	6541.75
897.811	6541.97
898.126	6477.57
898.441	6452.03
898.756	6460.4
899.071	6350.57
899.386	6408.19
899.7	6344.24
900.015	6314.18
900.33	6266.28
900.644	6266.05
900.959	6258.82
901.273	6232.15
901.588	6207.29
901.902	6171.82
902.216	6151.48
902.531	6153.96
902.845	6107.41
903.159	6108.09
903.473	6074.19
903.787	6056.11
904.101	6017.02
904.415	6052.95
904.729	5962.56
905.042	5983.8
905.356	6014.53
905.67	6008.2
905.984	5921.2
906.297	5925.27
906.611	5825.84
906.924	5880.75
907.237	5866.06
907.551	5805.5
907.864	5744.71
908.177	5753.75
908.491	5699.74
908.804	5719.4
909.117	5703.13
909.43	5669.91
909.743	5578.84
910.056	5612.51
910.368	5567.54
910.681	5582.45
910.994	5537.26
911.307	5523.92
911.619	5512.62
911.932	5529.57
912.244	5476.47
912.557	5510.82
912.869	5445.96
913.181	5409.35
913.494	5393.08
913.806	5323.93
914.118	5329.13
914.43	5308.79
914.742	5310.14
915.054	5320.31
915.366	5248.68
915.678	5250.94
915.99	5220.65
916.302	5232.4
916.613	5166.87
916.925	5166.19
917.236	5185.17
917.548	5147.44
917.859	5126.42
918.171	5077.15
918.482	5078.06
918.794	4980.21
919.105	4995.57
919.416	5015.46
919.727	4990.6
920.038	4964.62
920.349	4938.4
920.66	4886.2
920.971	4895.46
921.282	4907.67
921.593	4892.3
921.903	4866.09
922.214	4846.88
922.525	4839.19
922.835	4783.38
923.146	4779.99
923.456	4784.96
923.767	4724.17
924.077	4692.98
924.387	4681.46
924.697	4645.3
925.008	4709.48
925.318	4630.61
925.628	4626.55
925.938	4600.33
926.248	4563.72
926.558	4545.87
926.867	4559.2
927.177	4502.25
927.487	4512.88
927.796	4474.91
928.106	4442.37
928.416	4477.85
928.725	4411.18
929.034	4411.86
929.344	4432.65
929.653	4374.57
929.962	4375.48
930.271	4350.17
930.581	4333.45
930.89	4291.64
931.199	4266.1
931.508	4316.95
931.817	4251.87
932.125	4221.13
932.434	4269.49
932.743	4180
933.051	4197.86
933.36	4192.21
933.669	4154.02
933.977	4138.65
934.286	4120.12
934.594	4100.01
934.902	4089.16
935.21	4067.46
935.519	4053.23
935.827	4038.99
936.135	4049.16
936.443	4004.87
936.751	4018.2
937.059	4008.26
937.367	3950.18
937.674	3930.07
937.982	3921.25
938.29	3911.99
938.597	3919.9
938.905	3919.22
939.213	3882.84
939.52	3842.61
939.827	3827.47
940.135	3796.96
940.442	3848.71
940.749	3808.26
941.056	3795.38
941.363	3734.82
941.67	3778.66
941.977	3726.68
942.284	3732.56
942.591	3701.6
942.898	3697.76
943.205	3706.12
943.511	3700.69
943.818	3687.81
944.125	3617.98
944.431	3602.17
944.738	3593.8
945.044	3592.9
945.35	3567.14
945.657	3580.7
945.963	3527.82
946.269	3507.25
946.575	3516.29
946.881	3469.74
947.187	3465.45
947.493	3479.91
947.799	3422.06
948.105	3452.11
948.41	3432.9
948.716	3406.01
949.022	3403.3
949.327	3407.14
949.633	3364.43
949.938	3336.64
950.244	3365.79
950.549	3314.26
950.854	3324.66
951.16	3326.47
951.465	3256.86
951.77	3296.86
952.075	3252.12
952.38	3238.78
952.685	3257.32
952.99	3221.84
953.294	3220.93
953.599	3214.15
953.904	3135.96
954.209	3147.71
954.513	3163.08
954.818	3158.11
955.122	3106.81
955.426	3130.54
955.731	3111.33
956.035	3075.63
956.339	3060.71
956.643	3096.64
956.948	3042.41
957.252	3041.73
957.556	2996.31
957.86	3013.25
958.163	3002.41
958.467	2961.5
958.771	2981.39
959.075	2979.81
959.378	2936.19
959.682	2921.96
959.985	2926.25
960.289	2923.54
960.592	2850.55
960.896	2890.77
961.199	2909.75
961.502	2869.98
961.805	2847.61
962.108	2825.24
962.411	2815.52
962.714	2833.82
963.017	2818.23
963.32	2796.99
963.623	2796.99
963.926	2743.43
964.228	2742.53
964.531	2715.63
964.833	2726.71
965.136	2752.92
965.438	2721.06
965.741	2721.28
966.043	2681.96
966.345	2696.65
966.648	2674.96
966.95	2645.35
967.252	2648.52
967.554	2584.56
967.856	2632.47
968.158	2620.04
968.46	2580.95
968.761	2604.23
969.063	2608.07
969.365	2569.2
969.666	2562.87
969.968	2559.48
970.269	2525.81
970.571	2516.32
970.872	2531.68
971.174	2513.38
971.475	2523.78
971.776	2476.32
972.077	2476.32
972.378	2492.14
972.679	2472.7
972.98	2425.7
973.281	2424.57
973.582	2457.79
973.883	2412.82
974.183	2395.42
974.484	2407.85
974.785	2384.12
975.085	2369.2
975.386	2373.5
975.686	2368.98
975.986	2372.37
976.287	2348.19
976.587	2321.52
976.887	2328.07
977.187	2313.61
977.487	2284.46
977.787	2304.35
978.087	2274.52
978.387	2250.56
978.687	2247.62
978.987	2215.08
979.286	2217.34
979.586	2228.19
979.885	2204.91
980.185	2177.12
980.484	2188.64
980.784	2210.79
981.083	2193.16
981.382	2162.88
981.682	2135.99
981.981	2140.96
982.28	2122.2
982.579	2145.03
982.878	2158.59
983.177	2101.19
983.475	2126.05
983.774	2092.37
984.073	2092.6
984.372	2093.28
984.67	2067.52
984.969	2041.08
985.267	2033.62
985.566	2037.69
985.864	2044.01
986.162	2042.43
986.461	2031.36
986.759	2023
987.057	1999.72
987.355	2003.11
987.653	2000.63
987.951	1977.35
988.249	2011.92
988.547	1941.42
988.844	1948.88
989.142	1941.19
989.44	1957.46
989.737	1960.4
990.035	1944.36
990.332	1885.37
990.63	1890.57
990.927	1912.49
991.224	1880.18
991.521	1879.72
991.819	1857.58
992.116	1845.83
992.413	1860.06
992.71	1857.8
993.006	1853.06
993.303	1827.52
993.6	1850.57
993.897	1808.09
994.193	1826.62
994.49	1797.69
994.787	1782.78
995.083	1779.84
995.379	1768.54
995.676	1776
995.972	1792.27
996.268	1771.48
996.565	1726.96
996.861	1710.01
997.157	1750.24
997.453	1724.02
997.749	1706.4
998.044	1728.77
998.34	1720.41
998.636	1702.1
998.932	1682.44
999.227	1662.1
999.523	1659.17
999.818	1662.78
1000.114	1669.56
1000.409	1635.44
1000.704	1613.97
1001	1648.32
1001.295	1615.78
1001.59	1608.32
1001.885	1598.83
1002.18	1557.93
1002.475	1558.15
1002.77	1592.5
1003.065	1569.9
1003.359	1534.42
1003.654	1576.91
1003.949	1539.17
1004.243	1514.99
1004.538	1506.63
1004.832	1514.99
1005.127	1503.01
1005.421	1530.58
1005.715	1512.73
1006.009	1490.13
1006.304	1503.01
1006.598	1500.3
1006.892	1453.75
1007.186	1463.01
1007.48	1441.32
1007.773	1426.18
1008.067	1441.09
1008.361	1421.21
1008.655	1429.57
1008.948	1410.13
1009.242	1400.64
1009.535	1399.06
1009.829	1389.12
1010.122	1380.53
1010.415	1386.18
1010.708	1367.65
1011.001	1351.6
1011.295	1346.63
1011.588	1349.8
1011.881	1334.2
1012.173	1338.72
1012.466	1307.31
1012.759	1314.77
1013.052	1298.27
1013.344	1280.64
1013.637	1268.44
1013.93	1288.78
1014.222	1288.55
1014.514	1297.37
1014.807	1234.09
1015.099	1220.53
1015.391	1256.24
1015.683	1265.73
1015.976	1248.55
1016.268	1257.14
1016.56	1212.85
1016.851	1206.97
1017.143	1218.27
1017.435	1210.36
1017.727	1196.58
1018.018	1170.36
1018.31	1165.85
1018.602	1155.45
1018.893	1144.38
1019.185	1162
1019.476	1152.29
1019.767	1167.88
1020.058	1126.98
1020.35	1158.39
1020.641	1122.46
1020.932	1121.33
1021.223	1128.56
1021.514	1104.83
1021.804	1087.43
1022.095	1099.18
1022.386	1092.4
1022.677	1081.55
1022.967	1057.15
1023.258	1063.02
1023.548	1045.85
1023.839	1067.77
1024.129	1063.02
1024.419	1043.59
1024.709	1050.59
1025	1014.66
1025.29	1031.61
1025.58	1011.72
1025.87	1015.57
1026.16	1011.95
1026.449	1015.34
1026.739	989.13
1027.029	998.17
1027.319	978.28
1027.608	953.65
1027.898	963.59
1028.187	973.08
1028.477	938.28
1028.766	955.68
1029.055	947.77
1029.344	936.47
1029.634	916.59
1029.923	944.61
1030.212	959.75
1030.501	939.18
1030.79	930.6
1031.078	907.55
1031.367	914.33
1031.656	909.13
1031.945	897.15
1032.233	874.1
1032.522	896.93
1032.81	898.96
1033.099	894.21
1033.387	890.6
1033.675	837.49
1033.963	849.47
1034.251	844.05
1034.54	838.62
1034.828	857.38
1035.116	826.42
1035.403	848.79
1035.691	818.51
1035.979	834.55
1036.267	832.97
1036.554	820.09
1036.842	792.75
1037.129	791.39
1037.417	798.4
1037.704	843.82
1037.992	800.66
1038.279	797.72
1038.566	784.61
1038.853	784.61
1039.14	784.61
