Data from hue_250_FLMS001491_00076.txt Node
Date: Tue Feb 07 16:01:27 GMT 2017
User: dcchb
Spectrometer: FLMS00149
Trigger mode: 0
Integration Time (sec): 2.000000E-2
Scans to average: 10
Electric dark correction enabled: true
Nonlinearity correction enabled: false
Boxcar width: 0
XAxis mode: Wavelengths
Number of Pixels in Spectrum: 2048
>>>>>Begin Spectral Data<<<<<
341.393	-8.28
341.776	-8.28
342.16	-8.28
342.543	-59.12
342.927	-63.64
343.31	-52.57
343.693	-60.93
344.077	-81.5
344.46	-54.15
344.843	-40.14
345.226	-55.06
345.61	-21.16
345.993	-10.54
346.376	-7.15
346.759	19.29
347.142	14.32
347.525	41.89
347.908	49.8
348.291	63.36
348.674	80.99
349.057	113.53
349.44	129.12
349.823	146.52
350.206	184.49
350.588	175.67
350.971	204.6
351.354	225.84
351.737	240.53
352.119	239.17
352.502	254.77
352.884	259.74
353.267	273.52
353.65	266.07
354.032	279.4
354.414	318.04
354.797	313.75
355.179	302.22
355.562	320.98
355.944	311.71
356.326	322.11
356.709	324.82
357.091	303.13
357.473	331.83
357.855	342.45
358.238	313.75
358.62	313.75
359.002	334.54
359.384	330.7
359.766	319.4
360.148	331.6
360.53	327.53
360.912	330.47
361.294	329.79
361.676	305.61
362.057	319.62
362.439	327.53
362.821	313.07
363.203	306.29
363.584	314.88
363.966	312.62
364.348	283.69
364.729	304.26
365.111	313.07
365.493	285.27
365.874	300.87
366.256	277.59
366.637	314.88
367.019	330.02
367.4	311.26
367.781	318.95
368.163	298.16
368.544	293.18
368.925	317.36
369.306	326.18
369.688	292.05
370.069	305.84
370.45	297.03
370.831	302
371.212	314.43
371.593	313.07
371.974	305.61
372.355	313.75
372.736	298.83
373.117	315.78
373.498	309.23
373.879	311.71
374.26	327.08
374.641	285.05
375.021	293.18
375.402	311.26
375.783	321.66
376.163	314.65
376.544	327.08
376.925	302.9
377.305	303.58
377.686	315.1
378.066	317.59
378.447	301.32
378.827	362.79
379.208	332.28
379.588	302.9
379.968	321.21
380.349	318.27
380.729	331.15
381.109	333.41
381.489	333.41
381.87	319.62
382.25	320.75
382.63	328.66
383.01	330.7
383.39	355.33
383.77	331.38
384.15	325.5
384.53	346.52
384.91	329.57
385.29	340.19
385.67	354.65
386.049	330.25
386.429	333.86
386.809	344.93
387.189	347.42
387.568	355.1
387.948	357.82
388.328	364.82
388.707	363.47
389.087	342
389.466	347.19
389.846	351.49
390.225	347.42
390.605	347.65
390.984	356.01
391.363	372.73
391.743	370.47
392.122	391.49
392.501	363.69
392.881	385.84
393.26	372.5
393.639	375.44
394.018	378.83
394.397	390.36
394.776	369.34
395.155	374.09
395.534	373.86
395.913	378.83
396.292	379.96
396.671	383.13
397.05	386.74
397.429	401.88
397.808	383.35
398.186	410.7
398.565	388.32
398.944	392.39
399.323	400.53
399.701	399.17
400.08	422.45
400.458	389.45
400.837	409.57
401.215	397.81
401.594	428.1
401.972	405.95
402.351	420.64
402.729	431.49
403.107	426.97
403.486	429.68
403.864	432.84
404.242	442.11
404.62	446.17
404.999	440.07
405.377	454.99
405.755	447.3
406.133	492.95
406.511	433.97
406.889	453.86
407.267	489.56
407.645	455.44
408.023	457.02
408.401	476.68
408.779	475.78
409.156	478.26
409.534	503.35
409.912	494.76
410.29	485.95
410.667	520.07
411.045	506.06
411.422	531.37
411.8	523.91
412.178	541.99
412.555	563.01
412.933	558.49
413.31	548.32
413.687	569.34
414.065	559.84
414.442	579.96
414.819	592.39
415.197	584.25
415.574	582.44
415.951	606.4
416.328	603.01
416.705	618.15
417.082	610.24
417.46	646.85
417.837	612.5
418.214	629.22
418.591	641.42
418.967	634.64
419.344	651.37
419.721	670.58
420.098	681.87
420.475	665.6
420.852	668.54
421.228	691.82
421.605	679.84
421.982	686.17
422.358	717.81
422.735	723.68
423.111	754.42
423.488	738.6
423.864	760.06
424.241	773.4
424.617	766.39
424.994	790.12
425.37	790.35
425.746	808.2
426.123	793.96
426.499	847.52
426.875	826.28
427.251	848.88
427.627	848.42
428.003	869.89
428.379	883.9
428.756	869.89
429.132	888.42
429.507	895.43
429.883	900.63
430.259	931.13
430.635	942.21
431.011	946.5
431.387	937.91
431.763	991.25
432.138	971.58
432.514	1012.04
432.89	1001.41
433.265	1015.43
433.641	1043.9
434.016	1043.9
434.392	1058.81
434.767	1083.67
435.143	1106.5
435.518	1124.8
435.894	1101.98
436.269	1112.6
436.644	1141.52
437.02	1177.23
437.395	1182.43
437.77	1201.18
438.145	1210.45
438.52	1240.96
438.895	1252.26
439.271	1264.01
439.646	1292.71
440.021	1285.7
440.395	1324.57
440.77	1315.3
441.145	1335.42
441.52	1331.58
441.895	1338.58
442.27	1378.13
442.645	1401.63
443.019	1399.82
443.394	1394.62
443.769	1431.91
444.143	1387.39
444.518	1460.16
444.892	1433.72
445.267	1455.19
445.641	1469.2
446.016	1457.22
446.39	1513.49
446.764	1513.04
447.139	1496.99
447.513	1476.43
447.887	1514.4
448.262	1528.63
448.636	1528.63
449.01	1581.06
449.384	1570.21
449.758	1604.34
450.132	1578.12
450.506	1575.86
450.88	1619.03
451.254	1633.71
451.628	1645.47
452.002	1661.06
452.376	1664.45
452.75	1694.05
453.123	1706.25
453.497	1761.39
453.871	1741.06
454.244	1763.2
454.618	1783.54
454.992	1807.49
455.365	1812.47
455.739	1852.24
456.112	1863.99
456.486	1868.96
456.859	1884.55
457.232	1897.21
457.606	1924.55
457.979	1931.56
458.352	1958.68
458.725	2002.52
459.099	2010.2
459.472	2050.2
459.845	2080.93
460.218	2068.28
460.591	2085.91
460.964	2108.28
461.337	2119.35
461.71	2192.8
462.083	2240.48
462.456	2207.48
462.829	2212.91
463.201	2218.33
463.574	2253.58
463.947	2289.74
464.32	2334.94
464.692	2343.53
465.065	2376.29
465.438	2424.2
465.81	2407.25
466.183	2471.43
466.555	2520.7
466.928	2486.57
467.3	2525.67
467.672	2504.65
468.045	2590.98
468.417	2601.37
468.789	2629.17
469.161	2630.3
469.534	2659.9
469.906	2764.08
470.278	2742.84
470.65	2777.41
471.022	2847.69
471.394	2886.34
471.766	2884.53
472.138	2939.67
472.51	2980.35
472.882	2997.97
473.253	3017.18
473.625	3102.15
473.997	3116.84
474.369	3145.99
474.74	3184.41
475.112	3259.89
475.484	3279.09
475.855	3297.85
476.227	3346.89
476.598	3393.67
476.97	3480.45
477.341	3510.95
477.713	3585.75
478.084	3591.18
478.455	3633.44
478.827	3715.24
479.198	3817.39
479.569	3806.76
479.94	3867.55
480.311	3911.62
480.682	4035.23
481.053	4059.64
481.424	4075.23
481.795	4146.19
482.166	4205.62
482.537	4225.96
482.908	4343.02
483.279	4317.94
483.65	4445.39
484.021	4533.3
484.391	4505.95
484.762	4535.78
485.133	4623.24
485.503	4657.59
485.874	4744.37
486.244	4753.41
486.615	4824.82
486.985	4900.52
487.356	4995.89
487.726	4973.29
488.097	5090.12
488.467	5100.29
488.837	5198.82
489.207	5222.55
489.578	5263.22
489.948	5357.01
490.318	5419.6
490.688	5396.33
491.058	5483.56
491.428	5578.02
491.798	5575.76
492.168	5740.05
492.538	5708.41
492.908	5779.82
493.278	5837.22
493.648	5826.6
494.017	5884.9
494.387	5967.84
494.757	5980.94
495.126	6037.21
495.496	6054.39
495.866	6105.01
496.235	6121.73
496.605	6237.21
496.974	6249.86
497.344	6294.61
497.713	6317.43
498.082	6330.77
498.452	6398.11
498.821	6399.24
499.19	6433.36
499.559	6479.69
499.928	6496.19
500.298	6525.79
500.667	6524.88
501.036	6538.44
501.405	6620.02
501.774	6601.72
502.143	6603.53
502.512	6682.85
502.88	6744.54
503.249	6745.22
503.618	6783.86
503.987	6840.36
504.356	6850.98
504.724	6891.88
505.093	6884.65
505.462	6914.48
505.83	6917.19
506.199	6994.25
506.567	7061.59
506.936	7001.03
507.304	7141.59
507.672	7087.58
508.041	7102.95
508.409	7131.87
508.777	7195.83
509.145	7254.36
509.514	7173.91
509.882	7210.74
510.25	7271.31
510.618	7290.74
510.986	7309.27
511.354	7301.36
511.722	7342.94
512.09	7392.43
512.458	7398.76
512.826	7498.64
513.193	7477.4
513.561	7463.62
513.929	7545.2
514.297	7558.08
514.664	7624.07
515.032	7570.73
515.4	7610.28
515.767	7629.49
516.135	7628.13
516.502	7525.99
516.869	7690.05
517.237	7704.29
517.604	7673.56
517.972	7702.03
518.339	7722.59
518.706	7790.39
519.073	7731.86
519.44	7823.83
519.808	7857.73
520.175	7845.3
520.542	7954
520.909	7939.09
521.276	7947.45
521.643	7935.47
522.009	7976.82
522.376	7969.82
522.743	7983.15
523.11	8052.08
523.477	8103.15
523.843	8100.66
524.21	8125.97
524.577	8159.64
524.943	8145.86
525.31	8160.55
525.676	8216.14
526.043	8272.64
526.409	8208.46
526.776	8341.79
527.142	8270.6
527.508	8319.41
527.874	8366.42
528.241	8378.62
528.607	8426.08
528.973	8405.74
529.339	8421.56
529.705	8485.74
530.071	8480.09
530.437	8492.74
530.803	8494.1
531.169	8571.84
531.535	8501.1
531.901	8474.89
532.267	8571.84
532.632	8557.15
532.998	8537.71
533.364	8595.34
533.73	8497.49
534.095	8607.09
534.461	8606.86
534.826	8598.28
535.192	8574.1
535.557	8673.08
535.923	8644.6
536.288	8649.8
536.653	8624.49
537.019	8539.97
537.384	8527.32
537.749	8581.1
538.114	8583.59
538.479	8578.16
538.845	8565.51
539.21	8544.94
539.575	8610.71
539.94	8601.67
540.305	8614.1
540.67	8593.76
541.034	8603.25
541.399	8532.74
541.764	8596.02
542.129	8645.96
542.494	8608.45
542.858	8578.39
543.223	8593.76
543.587	8647.77
543.952	8615.68
544.316	8589.46
544.681	8523.93
545.045	8510.37
545.41	8643.02
545.774	8596.47
546.138	8604.83
546.503	8593.08
546.867	8548.79
547.231	8611.61
547.595	8473.53
547.959	8575.68
548.324	8582.46
548.688	8589.01
549.052	8587.66
549.416	8553.98
549.779	8546.3
550.143	8505.4
550.507	8603.93
550.871	8576.58
551.235	8572.29
551.599	8648.9
551.962	8591.27
552.326	8565.06
552.689	8615.45
553.053	8553.08
553.417	8533.42
553.78	8600.31
554.143	8596.02
554.507	8549.24
554.87	8616.58
555.234	8734.77
555.597	8609.8
555.96	8582.68
556.323	8617.03
556.686	8662.23
557.05	8659.97
557.413	8595.11
557.776	8695.68
558.139	8763.7
558.502	8666.3
558.865	8713.08
559.228	8679.18
559.59	8695.68
559.953	8695.68
560.316	8822.9
560.679	8800.76
561.041	8812.73
561.404	8849.12
561.767	8908.1
562.129	8868.55
562.492	8925.95
562.854	8909.23
563.217	8886.63
563.579	8950.81
563.941	8991.49
564.304	8954.2
564.666	9017.25
565.028	8993.75
565.39	9002.11
565.753	9088.66
566.115	9075.78
566.477	9160.75
566.839	9156.23
567.201	9179.96
567.563	9202.55
567.925	9208.66
568.287	9227.86
568.648	9249.79
569.01	9254.53
569.372	9371.59
569.734	9312.16
570.095	9368.2
570.457	9391.02
570.819	9378.6
571.18	9447.07
571.542	9491.81
571.903	9448.42
572.265	9385.37
572.626	9564.58
572.987	9570
573.349	9585.82
573.71	9617.91
574.071	9585.14
574.432	9636.89
574.794	9608.19
575.155	9678.25
575.516	9595.99
575.877	9693.84
576.238	9698.81
576.599	9809.77
576.96	9729.77
577.32	9720.51
577.681	9829.43
578.042	9829.2
578.403	9832.59
578.763	9853.38
579.124	9833.72
579.485	9940.16
579.845	10004.57
580.206	9869.88
580.566	9979.48
580.927	9909.88
581.287	9906.94
581.648	9953.72
582.008	9979.26
582.368	10051.8
582.728	10031.69
583.089	10018.35
583.449	10093.6
583.809	10114.85
584.169	10052.93
584.529	10051.8
584.889	10161.4
585.249	10139.48
585.609	10019.93
585.969	10150.33
586.329	10172.47
586.688	10175.64
587.048	10200.49
587.408	10191
587.768	10117.56
588.127	10150.78
588.487	10234.84
588.846	10218.35
589.206	10178.8
589.565	10171.57
589.925	10269.42
590.284	10309.64
590.643	10270.32
591.003	10304.67
591.362	10291.57
591.721	10254.73
592.08	10278.91
592.44	10423.54
592.799	10346.93
593.158	10354.39
593.517	10346.25
593.876	10391.9
594.235	10393.48
594.593	10350.32
594.952	10446.36
595.311	10327.04
595.67	10415.86
596.029	10485.23
596.387	10498.34
596.746	10427.38
597.104	10483.42
597.463	10395.74
597.822	10505.57
598.18	10437.55
598.538	10419.47
598.897	10482.07
599.255	10414.73
599.613	10580.82
599.972	10551.22
600.33	10553.48
600.688	10513.25
601.046	10602.29
601.404	10581.05
601.762	10553.25
602.12	10621.95
602.478	10561.61
602.836	10609.75
603.194	10582.86
603.552	10580.6
603.91	10540.82
604.268	10585.12
604.625	10525.68
604.983	10624.89
605.341	10567.49
605.698	10636.19
606.056	10662.18
606.413	10671.67
606.771	10642.52
607.128	10715.06
607.485	10568.39
607.843	10586.02
608.2	10665.57
608.557	10744.89
608.914	10692.23
609.272	10677.77
609.629	10788.73
609.986	10758.9
610.343	10807.94
610.7	10835.51
611.057	10795.06
611.414	10839.57
611.771	10832.12
612.127	10832.79
612.484	10802.74
612.841	10840.93
613.198	10808.39
613.554	10813.13
613.911	10839.8
614.267	10892.23
614.624	10877.99
614.98	10869.4
615.337	10919.35
615.693	10899.23
616.05	10828.5
616.406	10933.81
616.762	10858.56
617.118	10939.01
617.475	10865.34
617.831	10950.98
618.187	10939.01
618.543	10942.4
618.899	11009.06
619.255	11028.04
619.611	10969.51
619.967	10983.98
620.323	11014.71
620.678	11016.07
621.034	10957.99
621.39	10953.47
621.746	10921.15
622.101	11025.56
622.457	11005.22
622.812	11072.56
623.168	11082.73
623.523	11099
623.879	11065.33
624.234	10978.78
624.589	11027.59
624.945	10979.91
625.3	11126.8
625.655	10972.68
626.01	11021.72
626.365	11010.19
626.72	10935.16
627.075	11080.02
627.43	11019.91
627.785	10893.58
628.14	10972.68
628.495	11016.74
628.85	10954.15
629.205	10936.52
629.559	10990.53
629.914	10948.27
630.269	10927.48
630.623	10931.77
630.978	10886.8
631.332	11016.52
631.687	10944.43
632.041	10930.87
632.396	10911.44
632.75	10805.68
633.104	10984.88
633.459	10822.63
633.813	10841.61
634.167	10832.34
634.521	10762.74
634.875	10785.79
635.229	10774.26
635.583	10791.67
635.937	10740.37
636.291	10727.03
636.645	10795.28
636.999	10694.94
637.352	10654.72
637.706	10650.65
638.06	10683.19
638.413	10692.23
638.767	10622.18
639.121	10669.63
639.474	10531.79
639.828	10610.65
640.181	10584.44
640.534	10603.65
640.888	10630.54
641.241	10500.37
641.594	10601.61
641.947	10579.92
642.301	10519.81
642.654	10508.51
643.007	10593.03
643.36	10501.96
643.713	10504.44
644.066	10559.13
644.419	10487.94
644.771	10451.11
645.124	10379.02
645.477	10311.23
645.83	10256.99
646.182	10178.8
646.535	10116.88
646.888	10150.78
647.24	10094.73
647.593	10120.27
647.945	10124.79
648.298	10084.34
648.65	10022.87
649.002	10026.49
649.355	10052.48
649.707	10042.76
650.059	10076.66
650.411	10228.06
650.763	10213.6
651.115	10390.55
651.467	10355.07
651.819	10274.62
652.171	10305.35
652.523	10210.89
652.875	10301.96
653.227	10200.04
653.578	10331.34
653.93	10342.41
654.282	10244.34
654.633	10224
654.985	10201.85
655.337	10286.14
655.688	10298.35
656.039	10302.19
656.391	10224.67
656.742	10191.23
657.094	10216.99
657.445	10289.53
657.796	10191.46
658.147	10252.7
658.498	10244.79
658.849	10234.17
659.2	10212.25
659.551	10234.84
659.902	10217.9
660.253	10179.25
660.604	10192.13
660.955	10230.78
661.306	10227.84
661.656	10214.73
662.007	10191.46
662.358	10248.18
662.708	10271.91
663.059	10277.1
663.409	10161.85
663.76	10205.92
664.11	10188.74
664.461	10173.83
664.811	10312.36
665.161	10225.13
665.511	10162.76
665.862	10243.43
666.212	10254.28
666.562	10242.3
666.912	10193.04
667.262	10157.11
667.612	10201.85
667.962	10226.26
668.312	10224.22
668.662	10221.06
669.011	10194.84
669.361	10186.48
669.711	10197.78
670.06	10158.46
670.41	10153.26
670.76	10192.59
671.109	10232.13
671.459	10165.69
671.808	10104.9
672.157	10156.88
672.507	10103.55
672.856	10069.65
673.205	10112.14
673.554	10196.2
673.904	10107.62
674.253	10133.15
674.602	10078.69
674.951	9926.15
675.3	10003.21
675.649	10100.84
675.998	10011.35
676.346	10058.8
676.695	10110.33
677.044	9951.24
677.393	10029.88
677.741	10029.43
678.09	9957.11
678.438	9939.03
678.787	9959.6
679.135	9991.91
679.484	9939.71
679.832	9896.1
680.181	9921.86
680.529	9920.28
680.877	9869.66
681.225	9888.64
681.573	9980.39
681.922	9899.26
682.27	9818.13
682.618	9786.27
682.966	9698.59
683.314	9765.7
683.661	9734.29
684.009	9706.04
684.357	9699.72
684.705	9624.69
685.053	9654.52
685.4	9699.26
685.748	9664.01
686.095	9615.65
686.443	9556.67
686.79	9557.35
687.138	9616.33
687.485	9601.87
687.832	9615.2
688.18	9588.99
688.527	9498.82
688.874	9462.21
689.221	9475.09
689.568	9435.54
689.915	9382.44
690.262	9354.19
690.609	9292.5
690.956	9325.94
691.303	9347.64
691.65	9310.35
691.997	9255.43
692.344	9194.65
692.69	9163.23
693.037	9226.96
693.383	9125.27
693.73	9141.99
694.077	9070.81
694.423	9086.85
694.769	9046.85
695.116	9019.51
695.462	8967.53
695.808	8957.36
696.155	8924.6
696.501	8839.85
696.847	8873.07
697.193	8826.07
697.539	8794.66
697.885	8742.23
698.231	8786.07
698.577	8784.03
698.923	8677.6
699.269	8657.26
699.614	8628.11
699.96	8614.32
700.306	8616.58
700.651	8576.13
700.997	8568.67
701.342	8525.51
701.688	8516.25
702.033	8478.51
702.379	8469.69
702.724	8432.63
703.069	8425.63
703.415	8400.77
703.76	8291.84
704.105	8265.4
704.45	8367.1
704.795	8243.03
705.14	8216.37
705.485	8255.01
705.83	8155.12
706.175	8261.79
706.52	8146.31
706.865	8059.08
707.209	8167.55
707.554	8074.45
707.899	8154.45
708.243	8082.58
708.588	8003.04
708.932	7997.84
709.277	7927.33
709.621	8043.49
709.966	7945.41
710.31	7918.97
710.654	7882.36
710.998	7858.18
711.342	7822.03
711.687	7864.06
712.031	7769.6
712.375	7745.42
712.719	7769.15
713.063	7766.21
713.407	7779.54
713.75	7723.5
714.094	7707.68
714.438	7674.69
714.782	7713.55
715.125	7655.02
715.469	7742.71
715.812	7623.84
716.156	7563.73
716.499	7652.54
716.843	7566.21
717.186	7580.22
717.53	7591.75
717.873	7625.87
718.216	7568.47
718.559	7544.29
718.902	7519.66
719.246	7483.5
719.589	7500.45
719.932	7449.15
720.275	7452.54
720.617	7465.43
720.96	7457.74
721.303	7424.52
721.646	7422.49
721.989	7382.49
722.331	7439.44
722.674	7348.37
723.016	7405.77
723.359	7314.02
723.701	7379.33
724.044	7305.43
724.386	7272.89
724.729	7293.68
725.071	7335.26
725.413	7284.41
725.755	7264.07
726.097	7261.81
726.439	7272.21
726.782	7292.1
727.124	7302.04
727.465	7279.44
727.807	7251.65
728.149	7240.8
728.491	7227.92
728.833	7222.95
729.175	7246.9
729.516	7210.52
729.858	7212.1
730.199	7225.21
730.541	7205.09
730.882	7149.05
731.224	7221.36
731.565	7187.24
731.906	7156.51
732.248	7138.2
732.589	7161.03
732.93	7175.26
733.271	7117.41
733.612	7147.24
733.953	7170.97
734.294	7110.41
734.635	7151.54
734.976	7114.02
735.317	7102.04
735.658	7163.06
735.999	7081.93
736.339	7108.82
736.68	7184.75
737.021	7105.21
737.361	7048.49
737.702	7170.52
738.042	7157.86
738.383	7190.18
738.723	7195.6
739.063	7135.04
739.404	7150.41
739.744	7180.46
740.084	7153.79
740.424	7135.94
740.764	7168.71
741.104	7149.05
741.444	7111.08
741.784	7112.44
742.124	7178.43
742.464	7184.08
742.804	7103.85
743.143	7151.76
743.483	7206.22
743.823	7189.95
744.162	7169.61
744.502	7242.61
744.841	7192.44
745.181	7269.27
745.52	7296.84
745.86	7247.13
746.199	7274.24
746.538	7339.33
746.877	7477.85
747.216	7427.91
747.556	7455.48
747.895	7438.99
748.234	7471.07
748.573	7451.87
748.911	7492.32
749.25	7572.54
749.589	7578.19
749.928	7632.65
750.267	7658.64
750.605	7737.28
750.944	7722.37
751.283	7801.69
751.621	7826.09
751.96	7901.57
752.298	7947.22
752.636	8001.46
752.975	7980.89
753.313	8074
753.651	8182.02
753.989	8127.33
754.327	8230.6
754.666	8333.88
755.004	8417.04
755.342	8493.87
755.679	8585.85
756.017	8618.62
756.355	8776.8
756.693	8742.68
757.031	8846.63
757.368	8985.39
757.706	9060.86
758.044	9071.03
758.381	9254.3
758.719	9311.25
759.056	9445.49
759.394	9537.69
759.731	9562.32
760.068	9736.78
760.405	9726.61
760.743	9856.32
761.08	10003.21
761.417	10065.81
761.754	10120.72
762.091	10254.73
762.428	10344.67
762.765	10394.16
763.102	10583.99
763.438	10632.57
763.775	10658.79
764.112	10858.56
764.449	10951.89
764.785	10975.39
765.122	11027.59
765.458	11114.14
765.795	11247.7
766.131	11344.87
766.467	11406.11
766.804	11420.8
767.14	11501.03
767.476	11647.46
767.812	11687.91
768.148	11785.31
768.485	11873.44
768.821	11807.46
769.157	11953.67
769.492	12078.19
769.828	12188.24
770.164	12110.5
770.5	12178.52
770.836	12328.35
771.171	12378.29
771.507	12345.3
771.842	12366.09
772.178	12588.45
772.513	12530.83
772.849	12604.05
773.184	12536.48
773.519	12632.07
773.855	12656.93
774.19	12717.04
774.525	12722.24
774.86	12772.18
775.195	12779.41
775.53	12871.61
775.865	12788.9
776.2	12785.51
776.535	12792.74
776.87	12857.15
777.205	12827.54
777.539	12886.98
777.874	12963.81
778.209	12829.13
778.543	12884.04
778.878	12821.44
779.212	12926.52
779.547	12905.51
779.881	12938.28
780.215	12975.79
780.55	13032.51
780.884	12917.26
781.218	12947.09
781.552	13020.53
781.886	12888.11
782.22	12913.19
782.554	12850.82
782.888	12819.86
783.222	12800.2
783.556	12844.27
783.889	12783.25
784.223	12767.21
784.557	12802.46
784.89	12733.54
785.224	12736.02
785.557	12661.22
785.891	12706.42
786.224	12750.94
786.558	12697.83
786.891	12689.24
787.224	12637.27
787.557	12548.91
787.891	12528.12
788.224	12640.88
788.557	12624.61
788.89	12616.48
789.223	12519.76
789.556	12496.03
789.888	12531.96
790.221	12487.89
790.554	12450.83
790.887	12404.05
791.219	12322.47
791.552	12376.71
791.884	12344.84
792.217	12350.49
792.549	12339.2
792.882	12274.79
793.214	12197.73
793.546	12250.16
793.879	12164.74
794.211	12101.01
794.543	12034.8
794.875	12087.22
795.207	12152.31
795.539	12084.74
795.871	12109.37
796.203	11876.16
796.535	11927
796.867	11962.03
797.198	11886.78
797.53	11891.52
797.862	11792.77
798.193	11859.21
798.525	11698.31
798.856	11779.66
799.188	11637.74
799.519	11656.28
799.85	11593.45
800.182	11579.44
800.513	11645.43
800.844	11581.25
801.175	11562.04
801.506	11624.19
801.837	11538.54
802.168	11535.37
802.499	11477.98
802.83	11411.54
803.161	11344.42
803.491	11415.38
803.822	11412.67
804.153	11375.6
804.483	11278.21
804.814	11267.81
805.145	11253.8
805.475	11237.3
805.805	11134.93
806.136	11193.91
806.466	11187.14
806.796	11187.14
807.126	11042.05
807.457	11084.99
807.787	11080.02
808.117	10972
808.447	11000.25
808.777	11044.31
809.107	10956.41
809.436	10869.86
809.766	10930.64
810.096	10854.94
810.426	10865.56
810.755	10805
811.085	10804.09
811.414	10817.43
811.744	10745.79
812.073	10778.78
812.403	10734.04
812.732	10696.98
813.061	10662.86
813.39	10615.17
813.719	10648.39
814.049	10678
814.378	10597.32
814.707	10550.77
815.036	10611.33
815.365	10561.61
815.693	10450.21
816.022	10468.06
816.351	10444.78
816.68	10364.33
817.008	10403.2
817.337	10397.78
817.665	10336.31
817.994	10330.66
818.322	10297.89
818.651	10240.04
818.979	10294.05
819.307	10262.41
819.636	10252.7
819.964	10138.58
820.292	10211.12
820.62	10246.14
820.948	10198.46
821.276	10236.43
821.604	10155.52
821.932	10173.83
822.259	10118.91
822.587	10156.2
822.915	10046.6
823.243	10118.24
823.57	10092.25
823.898	10132.25
824.225	10133.38
824.553	10160.27
824.88	10208.18
825.207	10211.12
825.535	10217.67
825.862	10188.29
826.189	10192.36
826.516	10166.37
826.843	10260.15
827.17	10239.82
827.497	10175.86
827.824	10271.23
828.151	10239.59
828.478	10193.72
828.805	10301.51
829.131	10197.56
829.458	10212.25
829.785	10186.26
830.111	10188.97
830.438	10235.07
830.764	10160.95
831.09	10197.56
831.417	10174.05
831.743	10190.78
832.069	10182.42
832.395	10123.21
832.722	10184.68
833.048	10165.24
833.374	10111.68
833.7	10088.18
834.026	10153.04
834.351	10128.63
834.677	10068.07
835.003	10104
835.329	10066.94
835.654	10029.43
835.98	9986.26
836.306	9978.58
836.631	10008.86
836.956	10054.51
837.282	10001.63
837.607	9976.09
837.932	9956.89
838.258	9938.35
838.583	10008.86
838.908	9921.18
839.233	9905.14
839.558	9871.69
839.883	9848.64
840.208	9850.67
840.533	9780.84
840.858	9811.58
841.182	9812.26
841.507	9794.4
841.832	9735.65
842.156	9747.85
842.481	9720.73
842.805	9739.26
843.13	9743.78
843.454	9661.07
843.778	9611.36
844.103	9610.23
844.427	9614.75
844.751	9603.67
845.075	9527.97
845.399	9565.48
845.723	9475.32
846.047	9488.2
846.371	9422.89
846.695	9414.3
847.019	9330.69
847.343	9333.4
847.666	9312.83
847.99	9206.62
848.313	9238.26
848.637	9166.85
848.96	9194.42
849.284	9134.08
849.607	8988.32
849.931	9053.86
850.254	9029.9
850.577	9004.14
850.9	8895.22
851.223	8859.74
851.546	8808.21
851.869	8752.4
852.192	8776.35
852.515	8755.56
852.838	8763.24
853.161	8745.17
853.483	8646.86
853.806	8676.47
854.129	8678.05
854.451	8632.17
854.774	8622
855.096	8564.61
855.419	8563.25
855.741	8546.3
856.063	8509.24
856.385	8494.1
856.708	8413.87
857.03	8408.9
857.352	8369.81
857.674	8328.91
857.996	8340.2
858.318	8295.69
858.64	8315.12
858.961	8295.01
859.283	8240.09
859.605	8214.33
859.926	8167.55
860.248	8194.22
860.57	8196.25
860.891	8197.84
861.212	8173.2
861.534	8121.23
861.855	8079.19
862.176	8108.35
862.498	8077.84
862.819	8103.6
863.14	8049.36
863.461	8050.49
863.782	8004.39
864.103	8005.75
864.424	8007.56
864.745	7872.42
865.065	7909.93
865.386	7932.53
865.707	7843.72
866.027	7896.83
866.348	7927.11
866.668	7894.57
866.989	7886.43
867.309	7842.82
867.63	7814.57
867.95	7822.25
868.27	7812.53
868.59	7738.19
868.91	7774.57
869.23	7756.94
869.55	7720.56
869.87	7747.68
870.19	7690.5
870.51	7782.7
870.83	7667.91
871.15	7666.55
871.469	7668.13
871.789	7698.87
872.109	7712.42
872.428	7617.06
872.748	7662.48
873.067	7655.48
873.386	7706.1
873.706	7578.42
874.025	7583.16
874.344	7584.29
874.663	7612.99
874.982	7529.38
875.301	7584.07
875.62	7502.71
875.939	7507.91
876.258	7496.38
876.577	7461.58
876.896	7436.5
877.214	7415.93
877.533	7457.74
877.852	7482.15
878.17	7432.66
878.489	7456.39
878.807	7477.18
879.125	7383.17
879.444	7387.91
879.762	7355.15
880.08	7395.6
880.398	7333.68
880.716	7371.19
881.034	7283.06
881.352	7338.87
881.67	7276.96
881.988	7236.5
882.306	7264.75
882.624	7255.04
882.941	7201.93
883.259	7230.18
883.577	7150.63
883.894	7147.92
884.212	7107.24
884.529	7173
884.846	7130.29
885.164	7090.97
885.481	7064.76
885.798	7080.58
886.115	7069.96
886.432	7069.05
886.75	7039.45
887.067	7017.98
887.383	6991.54
887.7	6988.15
888.017	6937.3
888.334	6966
888.651	6951.99
888.967	6926.46
889.284	6978.43
889.6	6830.41
889.917	6840.81
890.233	6871.54
890.55	6789.96
890.866	6803.3
891.182	6744.77
891.498	6699.34
891.815	6733.02
892.131	6677.88
892.447	6703.41
892.763	6622.74
893.079	6626.58
893.395	6627.93
893.71	6641.27
894.026	6577.09
894.342	6616.18
894.657	6500.93
894.973	6510.42
895.289	6506.81
895.604	6488.05
895.92	6422.06
896.235	6396.07
896.55	6434.72
896.865	6413.25
897.181	6411.89
897.496	6397.43
897.811	6324.89
898.126	6329.64
898.441	6287.15
898.756	6367.6
899.071	6256.64
899.386	6266.59
899.7	6237.66
900.015	6227.49
900.33	6152.69
900.644	6134.61
900.959	6128.06
901.273	6127.83
901.588	6079.7
901.902	6060.26
902.216	6036.08
902.531	6075.18
902.845	5955.86
903.159	5970.1
903.473	5962.87
903.787	5949.98
904.101	5902.3
904.415	5951.34
904.729	5871.79
905.042	5828.18
905.356	5756.77
905.67	5864.56
905.984	5834.28
906.297	5788.63
906.611	5728.97
906.924	5747.96
907.237	5706.15
907.551	5685.36
907.864	5659.6
908.177	5669.09
908.491	5608.75
908.804	5585.47
909.117	5535.76
909.43	5574.63
909.743	5528.07
910.056	5585.93
910.368	5509.77
910.681	5482.43
910.994	5439.04
911.307	5455.08
911.619	5408.3
911.932	5426.83
912.244	5347.06
912.557	5403.33
912.869	5340.74
913.181	5289.66
913.494	5320.62
913.806	5247.86
914.118	5239.04
914.43	5215.54
914.742	5226.39
915.054	5144.81
915.366	5140.97
915.678	5160.18
915.99	5135.77
916.302	5121.98
916.613	5045.83
916.925	5073.4
917.236	5047.41
917.548	5053.51
917.859	5007.86
918.171	4965.83
918.482	4952.27
918.794	4926.06
919.105	4936.9
919.416	4850.58
919.727	4879.28
920.038	4868.21
920.349	4814.42
920.66	4854.42
920.971	4815.33
921.282	4790.24
921.593	4789.34
921.903	4777.59
922.214	4741.2
922.525	4733.75
922.835	4729.45
923.146	4657.59
923.456	4641.77
923.767	4665.72
924.077	4620.08
924.387	4625.95
924.697	4595.67
925.008	4571.04
925.318	4575.33
925.628	4561.32
925.938	4512.96
926.248	4498.95
926.558	4473.41
926.867	4502.11
927.177	4461.89
927.487	4462.34
927.796	4390.48
928.106	4424.15
928.416	4399.52
928.725	4397.03
929.034	4332.4
929.344	4346.64
929.653	4316.58
929.962	4284.72
930.271	4270.93
930.581	4251.72
930.89	4239.07
931.199	4183.03
931.508	4181.67
931.817	4226.19
932.125	4215.57
932.434	4183.03
932.743	4144.38
933.051	4105.29
933.36	4107.32
933.669	4069.13
933.977	4048.79
934.286	4044.95
934.594	4059.64
934.902	3960.88
935.21	3965.63
935.519	3995.69
935.827	4039.3
936.135	3938.96
936.443	3914.11
936.751	3902.13
937.059	3939.19
937.367	3868.68
937.674	3883.37
937.982	3879.08
938.29	3859.87
938.597	3837.05
938.905	3780.32
939.213	3792.53
939.52	3757.27
939.827	3789.36
940.135	3757.5
940.442	3721.79
940.749	3736.94
941.056	3678.18
941.363	3686.77
941.67	3687.9
941.977	3655.36
942.284	3613.78
942.591	3595.7
942.898	3591.85
943.205	3611.06
943.511	3557.73
943.818	3537.84
944.125	3547.79
944.431	3532.42
944.738	3546.66
945.044	3522.93
945.35	3448.81
945.657	3471.41
945.963	3502.82
946.269	3455.14
946.575	3482.48
946.881	3387.79
947.187	3383.72
947.493	3366.78
947.799	3370.62
948.105	3352.09
948.41	3357.51
948.716	3359.32
949.022	3289.72
949.327	3301.69
949.633	3282.03
949.938	3333.78
950.244	3300.34
950.549	3251.3
950.854	3250.17
951.16	3239.32
951.465	3241.81
951.77	3227.12
952.075	3155.71
952.38	3173.11
952.685	3180.34
952.99	3171.07
953.294	3201.58
953.599	3101.25
953.904	3111.87
954.209	3094.24
954.513	3077.52
954.818	3052.21
955.122	3082.26
955.426	3039.55
955.731	3014.24
956.035	3008.59
956.339	3010.18
956.643	2993.68
956.948	2986.22
957.252	2955.94
957.556	2942.38
957.86	2950.06
958.163	2950.97
958.467	2920.69
958.771	2889.95
959.075	2863.74
959.378	2869.39
959.682	2896.28
959.985	2852.89
960.289	2820.35
960.592	2787.81
960.896	2842.72
961.199	2793.01
961.502	2804.08
961.805	2775.83
962.108	2744.42
962.411	2795.94
962.714	2762.5
963.017	2755.72
963.32	2730.63
963.623	2735.61
963.926	2736.74
964.228	2697.19
964.531	2666.68
964.833	2687.47
965.136	2652.22
965.438	2633.69
965.741	2643.63
966.043	2638.43
966.345	2642.28
966.648	2614.25
966.95	2593.24
967.252	2610.19
967.554	2578.32
967.856	2558.89
968.158	2554.59
968.46	2563.63
968.761	2554.37
969.063	2543.75
969.365	2523.18
969.666	2518.44
969.968	2479.34
970.269	2495.61
970.571	2484.54
970.872	2475.05
971.174	2472.11
971.475	2458.78
971.776	2438.66
972.077	2422.17
972.378	2462.39
972.679	2446.35
972.98	2401.38
973.281	2378.33
973.582	2366.58
973.883	2348.5
974.183	2346.46
974.484	2355.73
974.785	2327.71
975.085	2342.4
975.386	2317.31
975.686	2339.91
975.986	2281.38
976.287	2302.62
976.587	2252.91
976.887	2297.43
977.187	2264.43
977.487	2261.49
977.787	2226.47
978.087	2216.52
978.387	2240.7
978.687	2178.78
978.987	2204.77
979.286	2207.94
979.586	2190.31
979.885	2189.86
980.185	2146.69
980.484	2172.23
980.784	2114.15
981.083	2121.16
981.382	2146.47
981.682	2106.7
981.981	2105.34
982.28	2120.25
982.579	2110.31
982.878	2104.66
983.177	2101.5
983.475	2063.08
983.774	2063.08
984.073	2066.02
984.372	2031.67
984.67	2047.04
984.969	2030.31
985.267	2014.72
985.566	1984.67
985.864	2002.07
986.162	2039.13
986.461	1978.79
986.759	1972.69
987.057	1985.12
987.355	1952.8
987.653	1962.29
987.951	1936.76
988.249	1919.81
988.547	1926.81
988.844	1899.7
989.142	1895.63
989.44	1889.98
989.737	1882.75
990.035	1888.62
990.332	1861.28
990.63	1867.38
990.927	1849.75
991.224	1871
991.521	1837.32
991.819	1839.81
992.116	1816.99
992.413	1806.36
992.71	1795.74
993.006	1783.54
993.303	1835.06
993.6	1802.75
993.897	1788.74
994.193	1772.69
994.49	1779.47
994.787	1755.52
995.083	1748.51
995.379	1723.43
995.676	1733.6
995.972	1721.4
996.268	1711.45
996.565	1698.8
996.861	1700.15
997.157	1700.38
997.453	1688.63
997.749	1685.24
998.044	1649.53
998.34	1649.76
998.636	1640.95
998.932	1644.11
999.227	1612.92
999.523	1612.7
999.818	1641.4
1000.114	1616.09
1000.409	1610.66
1000.704	1569.31
1001	1602.53
1001.295	1580.83
1001.59	1571.34
1001.885	1578.8
1002.18	1550.1
1002.475	1571.57
1002.77	1546.03
1003.065	1539.03
1003.359	1525.92
1003.654	1541.51
1003.949	1507.62
1004.243	1485.24
1004.538	1461.97
1004.832	1491.57
1005.127	1501.97
1005.421	1494.28
1005.715	1454.28
1006.009	1447.96
1006.304	1441.85
1006.598	1422.42
1006.892	1424.45
1007.186	1424
1007.48	1444.11
1007.773	1433.72
1008.067	1391.01
1008.361	1391.91
1008.655	1373.61
1008.948	1370.22
1009.242	1361.18
1009.535	1340.84
1009.829	1377.22
1010.122	1341.97
1010.415	1369.77
1010.708	1333.83
1011.001	1310.78
1011.295	1310.56
1011.588	1358.69
1011.881	1292.93
1012.173	1298.81
1012.466	1268.98
1012.759	1298.58
1013.052	1282.99
1013.344	1286.38
1013.637	1255.42
1013.93	1266.49
1014.222	1269.88
1014.514	1267.85
1014.807	1221.07
1015.099	1220.84
1015.391	1230.79
1015.683	1202.31
1015.976	1181.75
1016.268	1209.32
1016.56	1196.66
1016.851	1177.45
1017.143	1169.77
1017.435	1192.37
1017.727	1162.09
1018.018	1181.97
1018.31	1177.68
1018.602	1173.39
1018.893	1134.74
1019.185	1174.97
1019.476	1142.65
1019.767	1106.72
1020.058	1099.49
1020.35	1122.99
1020.641	1095.88
1020.932	1110.34
1021.223	1093.16
1021.514	1090.45
1021.804	1077.12
1022.095	1076.89
1022.386	1052.49
1022.677	1057.46
1022.967	1073.73
1023.258	1062.88
1023.548	1054.75
1023.839	1038.93
1024.129	1031.92
1024.419	1044.58
1024.709	1002.77
1025	990.34
1025.29	1003.67
1025.58	989.44
1025.87	1000.28
1026.16	981.75
1026.449	1003.9
1026.739	999.15
1027.029	998.48
1027.319	960.06
1027.608	945.14
1027.898	970.45
1028.187	947.18
1028.477	951.02
1028.766	950.57
1029.055	948.53
1029.344	938.37
1029.634	901.3
1029.923	917.57
1030.212	932.94
1030.501	903.79
1030.79	908.31
1031.078	902.21
1031.367	876.45
1031.656	883.9
1031.945	875.32
1032.233	866.95
1032.522	887.52
1032.81	901.3
1033.099	859.95
1033.387	859.27
1033.675	854.75
1033.963	844.58
1034.251	854.3
1034.54	824.7
1034.828	855.2
1035.116	815.43
1035.403	801.87
1035.691	814.53
1035.979	816.33
1036.267	798.93
1036.554	820.85
1036.842	787.18
1037.129	768.65
1037.417	784.24
1037.704	803.91
1037.992	767.52
1038.279	790.8
1038.566	753.06
1038.853	753.06
1039.14	753.06
