Data from hue_350_FLMS001491_24.txt Node
Date: Mon Feb 06 15:37:48 GMT 2017
User: dcchb
Spectrometer: FLMS00149
Trigger mode: 0
Integration Time (sec): 2.000000E-2
Scans to average: 10
Electric dark correction enabled: true
Nonlinearity correction enabled: false
Boxcar width: 0
XAxis mode: Wavelengths
Number of Pixels in Spectrum: 2048
>>>>>Begin Spectral Data<<<<<
341.393	-12.17
341.776	-12.17
342.16	-12.17
342.543	-64.6
342.927	-92.4
343.31	-67.09
343.693	-70.93
344.077	-60.54
344.46	-46.75
344.843	-40.87
345.226	-48.11
345.61	-39.52
345.993	-25.73
346.376	1.84
346.759	17.2
347.142	63.76
347.525	23.53
347.908	31.21
348.291	72.12
348.674	99.69
349.057	90.2
349.44	131.55
349.823	141.95
350.206	161.38
350.588	199.12
350.971	201.6
351.354	228.72
351.737	235.73
352.119	261.26
352.502	269.17
352.884	286.57
353.267	283.18
353.65	275.05
354.032	297.87
354.414	314.37
354.797	302.17
355.179	342.39
355.562	319.12
355.944	326.35
356.326	338.1
356.709	328.38
357.091	311.21
357.473	346.01
357.855	322.05
358.238	322.05
358.62	332
359.002	320.7
359.384	333.13
359.766	341.26
360.148	331.77
360.53	329.96
360.912	320.7
361.294	322.51
361.676	354.6
362.057	310.08
362.439	340.81
362.821	333.13
363.203	332.67
363.584	334.26
363.966	315.27
364.348	316.63
364.729	314.82
365.111	322.51
365.493	332.45
365.874	303.07
366.256	291.55
366.637	295.61
367.019	304.65
367.4	319.57
367.781	335.61
368.163	319.34
368.544	301.72
368.925	296.97
369.306	337.42
369.688	322.96
370.069	325.22
370.45	317.53
370.831	292.68
371.212	322.05
371.593	320.92
371.974	325.22
372.355	297.65
372.736	326.57
373.117	327.25
373.498	316.4
373.879	312.79
374.26	306.46
374.641	299.46
375.021	313.92
375.402	347.36
375.783	341.71
376.163	325.22
376.544	336.97
376.925	346.91
377.305	301.72
377.686	330.42
378.066	341.71
378.447	332.9
378.827	333.13
379.208	342.62
379.588	316.86
379.968	335.61
380.349	342.62
380.729	343.07
381.109	343.75
381.489	346.91
381.87	330.19
382.25	333.35
382.63	341.71
383.01	331.54
383.39	331.54
383.77	351.43
384.15	352.34
384.53	348.04
384.91	340.36
385.29	336.06
385.67	327.7
386.049	359.57
386.429	327.93
386.809	345.78
387.189	360.7
387.568	357.08
387.948	364.09
388.328	356.86
388.707	351.21
389.087	359.34
389.466	354.37
389.846	326.57
390.225	360.02
390.605	347.59
390.984	358.66
391.363	372.9
391.743	362.96
392.122	368.15
392.501	364.31
392.881	378.55
393.26	379.91
393.639	384.65
394.018	369.28
394.397	358.66
394.776	362.96
395.155	360.7
395.534	371.77
395.913	384.42
396.292	377.65
396.671	384.88
397.05	366.12
397.429	362.73
397.808	379.45
398.186	354.6
398.565	400.24
398.944	386.46
399.323	373.35
399.701	406.57
400.08	390.53
400.458	379.23
400.837	381.94
401.215	375.84
401.594	384.2
401.972	401.83
402.351	380.36
402.729	390.53
403.107	413.12
403.486	387.36
403.864	411.32
404.242	421.03
404.62	432.79
404.999	410.86
405.377	403.86
405.755	414.93
406.133	408.61
406.511	429.62
406.889	423.52
407.267	440.02
407.645	428.72
408.023	439.34
408.401	428.49
408.779	416.74
409.156	447.25
409.534	432.79
409.912	430.3
410.29	443.41
410.667	457.42
411.045	443.41
411.422	439.79
411.8	430.53
412.178	455.16
412.555	467.13
412.933	446.34
413.31	459.68
413.687	464.65
414.065	475.27
414.442	470.07
414.819	465.1
415.197	466.46
415.574	491.99
415.951	480.47
416.328	482.73
416.705	523.18
417.082	483.41
417.46	506.46
417.837	477.53
418.214	516.17
418.591	505.1
418.967	527.25
419.344	515.27
419.721	533.35
420.098	515.95
420.475	525.21
420.852	525.89
421.228	536.96
421.605	531.09
421.982	553.01
422.358	535.61
422.735	526.57
423.111	536.06
423.488	553.46
423.864	549.39
424.241	552.78
424.617	574.02
424.994	579
425.37	573.35
425.746	567.92
426.123	584.42
426.499	582.84
426.875	585.78
427.251	597.07
427.627	580.35
428.003	617.64
428.379	625.55
428.756	605.66
429.132	636.17
429.507	611.76
429.883	638.66
430.259	628.71
430.635	616.06
431.011	622.84
431.387	643.85
431.763	628.94
432.138	676.39
432.514	650.41
432.89	671.42
433.265	683.63
433.641	694.47
434.016	693.57
434.392	682.04
434.767	694.7
435.143	686.34
435.518	706
435.894	689.05
436.269	705.77
436.644	698.77
437.02	718.65
437.395	736.28
437.77	731.08
438.145	716.85
438.52	745.55
438.895	750.52
439.271	752.1
439.646	796.17
440.021	766.34
440.395	744.19
440.77	764.98
441.145	771.08
441.52	791.87
441.895	783.96
442.27	783.28
442.645	802.49
443.019	797.52
443.394	797.3
443.769	814.02
444.143	791.19
444.518	800.01
444.892	806.79
445.267	819.67
445.641	816.5
446.016	806.11
446.39	834.36
446.764	819.22
447.139	833.45
447.513	862.38
447.887	864.19
448.262	828.48
448.636	878.88
449.01	851.08
449.384	860.8
449.758	872.1
450.132	867.8
450.506	888.59
450.88	895.6
451.254	861.93
451.628	873.68
452.002	883.39
452.376	896.28
452.75	903.06
453.123	885.43
453.497	911.19
453.871	921.81
454.244	928.59
454.618	922.72
454.992	956.39
455.365	952.09
455.739	964.52
456.112	977.4
456.486	988.48
456.859	967.91
457.232	998.42
457.606	1011.3
457.979	993.45
458.352	1049.49
458.725	1046.1
459.099	1050.4
459.472	1040.9
459.845	1068.47
460.218	1051.75
460.591	1065.31
460.964	1073.45
461.337	1119.77
461.71	1112.77
462.083	1131.52
462.456	1122.48
462.829	1150.05
463.201	1136.95
463.574	1133.56
463.947	1159.55
464.32	1178.08
464.692	1207.91
465.065	1206.1
465.438	1225.98
465.81	1196.15
466.183	1260.79
466.555	1260.11
466.928	1261.01
467.3	1297.17
467.672	1273.22
468.045	1307.79
468.417	1294.91
468.789	1328.81
469.161	1355.92
469.534	1340.33
469.906	1405.19
470.278	1379.2
470.65	1400.67
471.022	1419.88
471.394	1468.01
471.766	1483.61
472.138	1477.96
472.51	1498.29
472.882	1542.81
473.253	1552.08
473.625	1545.75
473.997	1562.93
474.369	1592.3
474.74	1598.86
475.112	1651.28
475.484	1673.43
475.855	1722.47
476.227	1709.59
476.598	1766.76
476.97	1777.61
477.341	1809.02
477.713	1829.81
478.084	1847.66
478.455	1875.91
478.827	1923.82
479.198	1978.51
479.569	1981.67
479.94	2033.2
480.311	2047.21
480.682	2067.77
481.053	2135.57
481.424	2156.81
481.795	2155.9
482.166	2227.54
482.537	2261.66
482.908	2286.75
483.279	2341.44
483.65	2364.49
484.021	2397.48
484.391	2449.68
484.762	2438.61
485.133	2473.18
485.503	2512.5
485.874	2543.92
486.244	2578.94
486.615	2629.11
486.985	2667.98
487.356	2742.33
487.726	2790.01
488.097	2780.97
488.467	2792.72
488.837	2903.68
489.207	2888.77
489.578	2928.09
489.948	2991.59
490.318	3028.42
490.688	3057.57
491.058	3111.13
491.428	3138.48
491.798	3133.28
492.168	3202.2
492.538	3206.5
492.908	3284.46
493.278	3343.44
493.648	3340.05
494.017	3396.1
494.387	3397.45
494.757	3461.63
495.126	3469.54
495.496	3481.29
495.866	3486.04
496.235	3527.17
496.605	3634.06
496.974	3611.01
497.344	3674.73
497.713	3652.59
498.082	3659.37
498.452	3742.75
498.821	3756.09
499.19	3716.31
499.559	3769.19
499.928	3804
500.298	3813.94
500.667	3874.95
501.036	3824.33
501.405	3898
501.774	3899.81
502.143	3948.85
502.512	3935.97
502.88	3958.79
503.249	4031.79
503.618	3988.4
503.987	3996.31
504.356	4093.25
504.724	4092.58
505.093	4069.75
505.462	4106.36
505.83	4138.22
506.199	4160.82
506.567	4260.03
506.936	4244.44
507.304	4231.78
507.672	4271.33
508.041	4263.87
508.409	4306.81
508.777	4328.05
509.145	4315.85
509.514	4339.8
509.882	4355.62
510.25	4391.55
510.618	4422.51
510.986	4428.16
511.354	4451.66
511.722	4445.56
512.09	4508.38
512.458	4495.28
512.826	4524.43
513.193	4542.06
513.561	4539.12
513.929	4585.67
514.297	4643.75
514.664	4609.17
515.032	4614.6
515.4	4632.22
515.767	4653.01
516.135	4684.65
516.502	4647.14
516.869	4735.95
517.237	4748.38
517.604	4740.24
517.972	4787.25
518.339	4808.72
518.706	4845.55
519.073	4843.97
519.44	4855.49
519.808	4878.54
520.175	4893.23
520.542	4906.34
520.909	4956.51
521.276	4946.11
521.643	4966.68
522.009	5019.78
522.376	5027.24
522.743	5083.74
523.11	5112.21
523.477	5107.01
523.843	5129.84
524.21	5136.16
524.577	5230.17
524.943	5178.42
525.31	5217.97
525.676	5261.81
526.043	5240.34
526.409	5328.48
526.776	5340
527.142	5319.44
527.508	5333.45
527.874	5405.54
528.241	5431.3
528.607	5427.91
528.973	5475.82
529.339	5481.47
529.705	5509.26
530.071	5593.1
530.437	5645.76
530.803	5626.1
531.169	5652.53
531.535	5630.84
531.901	5662.25
532.267	5678.52
532.632	5775.02
532.998	5738.86
533.364	5739.54
533.73	5850.27
534.095	5833.1
534.461	5854.11
534.826	5912.64
535.192	5907.22
535.557	5970.04
535.923	5970.04
536.288	6001.9
536.653	5988.57
537.019	5977.95
537.384	6038.29
537.749	6121.45
538.114	6121.68
538.479	6129.36
538.845	6124.84
539.21	6147.44
539.575	6132.75
539.94	6202.8
540.305	6256.36
540.67	6271.5
541.034	6274.44
541.399	6315.79
541.764	6294.33
542.129	6374.78
542.494	6387.88
542.858	6394.44
543.223	6379.07
543.587	6451.61
543.952	6462.23
544.316	6537.94
544.681	6540.87
545.045	6554.66
545.41	6542.91
545.774	6630.36
546.138	6634.43
546.503	6624.26
546.867	6678.04
547.231	6666.52
547.595	6720.08
547.959	6742.68
548.324	6805.73
548.688	6808.44
549.052	6849.34
549.416	6844.82
549.779	6882.79
550.143	6862.67
550.507	6974.53
550.871	6934.76
551.235	6890.02
551.599	6963.01
551.962	7014.08
552.326	7024.25
552.689	7035.1
553.053	7047.3
553.417	7060.63
553.78	7220.63
554.143	7150.35
554.507	7178.14
554.87	7189.22
555.234	7191.7
555.597	7201.65
555.96	7241.42
556.323	7297.92
556.686	7236.67
557.05	7332.26
557.413	7326.62
557.776	7266.96
558.139	7356.9
558.502	7358.93
558.865	7414.97
559.228	7491.13
559.59	7520.06
559.953	7460.85
560.316	7497.68
560.679	7565.25
561.041	7624.46
561.404	7615.42
561.767	7628.08
562.129	7595.31
562.492	7685.25
562.854	7677.34
563.217	7746.94
563.579	7744.91
563.941	7724.34
564.304	7832.14
564.666	7828.75
565.028	7874.17
565.39	7910.55
565.753	7928.41
566.115	7944
566.477	8017.22
566.839	8051.12
567.201	8016.54
567.563	8029.42
567.925	8186.71
568.287	8117.1
568.648	8191.45
569.01	8233.03
569.372	8240.94
569.734	8173.82
570.095	8330.43
570.457	8358
570.819	8381.73
571.18	8405.46
571.542	8451.78
571.903	8489.75
572.265	8489.52
572.626	8581.27
572.987	8570.88
573.349	8637.77
573.71	8680.25
574.071	8745.34
574.432	8796.18
574.794	8866.91
575.155	8861.49
575.516	8953.01
575.877	8989.62
576.238	9052.22
576.599	9151.2
576.96	9133.57
577.32	9189.39
577.681	9280.24
578.042	9418.31
578.403	9442.94
578.763	9486.33
579.124	9602.04
579.485	9700.34
579.845	9808.58
580.206	9955.02
580.566	9992.31
580.927	10139.65
581.287	10245.63
581.648	10395.24
582.008	10518.17
582.368	10625.51
582.728	10778.95
583.089	10874.77
583.449	11018.5
583.809	11215.78
584.169	11274.76
584.529	11490.12
584.889	11696.22
585.249	11804.24
585.609	11959.26
585.969	12167.84
586.329	12295.75
586.688	12493.26
587.048	12781.39
587.408	12927.37
587.768	13273.35
588.127	13331.66
588.487	13543.63
588.846	13895.93
589.206	13930.51
589.565	14288.24
589.925	14488.01
590.284	14738.4
590.643	15031.05
591.003	15261.1
591.362	15546.51
591.721	15766.62
592.08	15987.4
592.44	16310.79
592.799	16541.06
593.158	16828.29
593.517	17074.38
593.876	17439.34
594.235	17650.86
594.593	17880.46
594.952	18264.63
595.311	18487
595.67	18739.87
596.029	19158.62
596.387	19451.95
596.746	19733.07
597.104	19919.5
597.463	20265.48
597.822	20443.33
598.18	20645.59
598.538	21008.97
598.897	21406.25
599.255	21523.53
599.613	22085.55
599.972	22135.49
600.33	22511.07
600.688	22697.96
601.046	23111.06
601.404	23433.31
601.762	23556.7
602.12	23990.81
602.478	24151.03
602.836	24432.38
603.194	24622.66
603.552	24887.28
603.91	25110.78
604.268	25440.26
604.625	25661.05
604.983	25831.44
605.341	25953.24
605.698	26421.71
606.056	26630.97
606.413	26877.51
606.771	27168.35
607.128	27346.88
607.485	27612.86
607.843	27724.72
608.2	28109.12
608.557	28488.77
608.914	28535.1
609.272	28828.87
609.629	29097.12
609.986	29356.77
610.343	29386.37
610.7	29760.38
611.057	29922.86
611.414	30160.59
611.771	30324.2
612.127	30599
612.484	30669.5
612.841	31005.54
613.198	31030.62
613.554	31201.02
613.911	31424.74
614.267	31691.4
614.624	31840.55
614.98	31994.22
615.337	32246.41
615.693	32431.72
616.05	32396.69
616.406	32701.99
616.762	32733.18
617.118	32877.58
617.475	33186.95
617.831	33255.65
618.187	33443.44
618.543	33642.76
618.899	33792.36
619.255	33806.15
619.611	34088.85
619.967	34131.56
620.323	34398.67
620.678	34336.07
621.034	34424.43
621.39	34589.85
621.746	34664.65
622.101	35030.97
622.457	34891.77
622.812	34972.22
623.168	35169.27
623.523	35289.95
623.879	35470.51
624.234	35300.34
624.589	35585.99
624.945	35621.24
625.3	35662.82
625.655	35761.8
626.01	35702.14
626.365	36011.06
626.72	36000.21
627.075	36038.18
627.43	35899.2
627.785	35951.4
628.14	36216.48
628.495	36363.37
628.85	36218.28
629.205	36300.99
629.559	36305.97
629.914	36400.43
630.269	36533.76
630.623	36232.97
630.978	36310.03
631.332	36558.16
631.687	36637.03
632.041	36507.09
632.396	36673.41
632.75	36515.9
633.104	36730.36
633.459	36575.79
633.813	36612.85
634.167	36641.1
634.521	36651.95
634.875	36770.36
635.229	36710.25
635.583	36529.69
635.937	36678.61
636.291	36680.19
636.645	36759.06
636.999	36682
637.352	36738.5
637.706	36646.3
638.06	36988.89
638.413	36868.89
638.767	36617.37
639.121	36800.42
639.474	36620.08
639.828	36613.3
640.181	36678.84
640.534	36797.7
640.888	36607.88
641.241	36513.42
641.594	36650.14
641.947	36567.88
642.301	36641.1
642.654	36783.02
643.007	36682
643.36	36566.07
643.713	36512.51
644.066	36603.59
644.419	36571.5
644.771	36340.54
645.124	36017.16
645.477	35875.47
645.83	35717.06
646.182	35592.09
646.535	35496.95
646.888	35580.11
647.24	35417.63
647.593	35665.98
647.945	35387.57
648.298	35320.68
648.65	35356.84
649.002	35260.57
649.355	35390.06
649.707	35351.64
650.059	35466.89
650.411	35924.51
650.763	35958.63
651.115	36359.75
651.467	36191.84
651.819	36159.76
652.171	36185.29
652.523	36116.82
652.875	36148
653.227	35869.82
653.578	36240.66
653.93	36204.5
654.282	36007.44
654.633	35909.14
654.985	35960.66
655.337	36013.09
655.688	36074.11
656.039	36231.62
656.391	35861.68
656.742	35986.88
657.094	36012.41
657.445	36060.77
657.796	35868.24
658.147	35873.66
658.498	35809.71
658.849	35983.04
659.2	35905.75
659.551	35781.23
659.902	35936.71
660.253	35839.99
660.604	35924.96
660.955	35728.35
661.306	35924.51
661.656	35801.12
662.007	35842.93
662.358	35780.56
662.708	35822.14
663.059	35772.42
663.409	35632.99
663.76	35867.33
664.11	35707.56
664.461	35765.42
664.811	35671.41
665.161	35781.91
665.511	35598.41
665.862	35744.17
666.212	35788.69
666.562	35982.36
666.912	35728.35
667.262	35798.41
667.612	35729.94
667.962	35748.47
668.312	35676.83
668.662	35772.2
669.011	35725.19
669.361	35797.05
669.711	35669.37
670.06	35626.89
670.41	35582.14
670.76	35529.04
671.109	35713.21
671.459	35755.02
671.808	35582.6
672.157	35614.46
672.507	35370.62
672.856	35536.49
673.205	35545.08
673.554	35494.24
673.904	35488.81
674.253	35696.04
674.602	35477.97
674.951	35029.84
675.3	34890.64
675.649	35452.88
675.998	35332.88
676.346	35233.23
676.695	35532.43
677.044	35188.71
677.393	35313.22
677.741	35352.55
678.09	35103.96
678.438	35213.79
678.787	35348.7
679.135	35283.39
679.484	35025.77
679.832	35228.71
680.181	35029.39
680.529	35134.02
680.877	34988.71
681.225	35053.34
681.573	35180.35
681.922	34886.34
682.27	34903.52
682.618	34848.15
682.966	34727.7
683.314	34817.87
683.661	34580.59
684.009	34451.1
684.357	34388.28
684.705	34414.94
685.053	34406.81
685.4	34438.9
685.748	34150.77
686.095	34278.45
686.443	34127.27
686.79	34125.68
687.138	34230.09
687.485	34115.97
687.832	34061.96
688.18	33962.3
688.527	33858.57
688.874	33818.8
689.221	33717.79
689.568	33728.18
689.915	33630.56
690.262	33534.06
690.609	33572.93
690.956	33418.13
691.303	33284.12
691.65	33177.91
691.997	33207.97
692.344	32999.16
692.69	32947.86
693.037	32991.25
693.383	32707.64
693.73	32860.63
694.077	32665.16
694.423	32769.11
694.769	32537.93
695.116	32536.12
695.462	32453.86
695.808	32378.16
696.155	32459.06
696.501	32259.07
696.847	32116.7
697.193	32027.43
697.539	32096.59
697.885	31878.74
698.231	31794.67
698.577	31606.88
698.923	31841
699.269	31623.6
699.614	31409.82
699.96	31408.24
700.306	31596.03
700.651	31111.75
700.997	31131.41
701.342	31246.21
701.688	31014.13
702.033	30950.63
702.379	30823.17
702.724	30840.12
703.069	30916.05
703.415	30482.16
703.76	30576.17
704.105	30558.77
704.45	30406.69
704.795	30262.74
705.14	30290.08
705.485	30153.13
705.83	30061.61
706.175	30090.31
706.52	30127.37
706.865	29894.61
707.209	29898.45
707.554	29838.57
707.899	29944.1
708.243	29684.45
708.588	29713.37
708.932	29504.79
709.277	29395.87
709.621	29426.6
709.966	29264.34
710.31	29453.27
710.654	29116.32
710.998	29137.57
711.342	29224.12
711.687	29093.27
712.031	29047.4
712.375	28879.04
712.719	28857.8
713.063	28826.39
713.407	28825.94
713.75	28780.29
714.094	28749.1
714.438	28694.19
714.782	28649.44
715.125	28468.88
715.469	28484.48
715.812	28345.72
716.156	28169.23
716.499	28183.24
716.843	28302.33
717.186	28126.52
717.53	28234.77
717.873	28187.76
718.216	27964.72
718.559	28081.78
718.902	27860.54
719.246	27890.37
719.589	27740.99
719.932	27713.42
720.275	27761.11
720.617	27636.82
720.96	27678.62
721.303	27527.21
721.646	27549.59
721.989	27449.02
722.331	27542.58
722.674	27370.61
723.016	27376.03
723.359	27293.32
723.701	27303.27
724.044	27188.69
724.386	27003.61
724.729	27126.77
725.071	27155.47
725.413	27101.91
725.755	27114.34
726.097	26881.81
726.439	26841.36
726.782	26796.84
727.124	26967.45
727.465	26715.48
727.807	26774.01
728.149	26739.89
728.491	26689.95
728.833	26676.61
729.175	26534.92
729.516	26504.64
729.858	26538.09
730.199	26448.6
730.541	26456.96
730.882	26414.02
731.224	26445.89
731.565	26207.93
731.906	26267.81
732.248	26305.1
732.589	26221.94
732.93	26108.04
733.271	26045.67
733.612	26250.86
733.953	26110.75
734.294	25959.35
734.635	25985.11
734.976	25939.46
735.317	25863.53
735.658	25862.63
735.999	25788.05
736.339	25869.4
736.68	25798.9
737.021	25835.28
737.361	25638.45
737.702	25716.41
738.042	25740.59
738.383	25536.31
738.723	25652.69
739.063	25490.88
739.404	25572.92
739.744	25525.91
740.084	25363.88
740.424	25371.79
740.764	25248.18
741.104	25296.09
741.444	25210.21
741.784	25245.47
742.124	25357.55
742.464	25195.3
742.804	25144.68
743.143	25095.87
743.483	25208.4
743.823	25072.82
744.162	25112.59
744.502	25007.05
744.841	24952.59
745.181	24914.85
745.52	24851.13
745.86	24849.09
746.199	24758.25
746.538	24767.96
746.877	24785.37
747.216	24769.77
747.556	24664.69
747.895	24600.96
748.234	24595.77
748.573	24510.57
748.911	24579.04
749.25	24585.14
749.589	24474.86
749.928	24454.07
750.267	24420.63
750.605	24393.96
750.944	24311.25
751.283	24280.07
751.621	24260.63
751.96	24165.04
752.298	24153.97
752.636	24074.65
752.975	24068.1
753.313	23871.94
753.651	23979.74
753.989	23833.98
754.327	24017.93
754.666	23718.95
755.004	23723.02
755.342	23865.62
755.679	23775.22
756.017	23619.75
756.355	23623.59
756.693	23567.54
757.031	23554.21
757.368	23453.65
757.706	23465.17
758.044	23292.98
758.381	23394.67
758.719	23267.67
759.056	23192.64
759.394	23103.83
759.731	23060.21
760.068	23007.11
760.405	22909.48
760.743	22806.21
761.08	22846.89
761.417	22676.95
761.754	22753.78
762.091	22648.47
762.428	22603.5
762.765	22518.31
763.102	22412.77
763.438	22506.78
763.775	22151.08
764.112	22256.39
764.449	22232.66
764.785	22182.04
765.122	22051.65
765.458	21961.48
765.795	21906.12
766.131	21894.59
766.467	21868.83
766.804	21742.06
767.14	21631.1
767.476	21674.26
767.812	21575.96
768.148	21587.26
768.485	21456.41
768.821	21255.74
769.157	21285.8
769.492	21356.75
769.828	21139.13
770.164	21039.02
770.5	21069.08
770.836	20992.47
771.171	20747.28
771.507	20818.01
771.842	20701.18
772.178	20684
772.513	20747.96
772.849	20526.04
773.184	20383.45
773.519	20488.3
773.855	20343.45
774.19	20175.77
774.525	20161.31
774.86	20148.43
775.195	20048.99
775.53	19914.53
775.865	19847.64
776.2	19735.33
776.535	19616.24
776.87	19672.51
777.205	19581.89
777.539	19448.56
777.874	19535.56
778.209	19329.92
778.543	19418.95
778.878	19145.06
779.212	19087.21
779.547	19013.77
779.881	19056.7
780.215	18957.5
780.55	18988.46
780.884	18821.45
781.218	18897.61
781.552	18720.67
781.886	18710.72
782.22	18546.66
782.554	18475.7
782.888	18307.8
783.222	18260.57
783.556	18270.28
783.889	18118.87
784.223	18022.38
784.557	18040.01
784.89	18011.76
785.224	17902.83
785.557	17786.91
785.891	17819.45
786.224	17768.15
786.558	17766.34
786.891	17573.58
787.224	17446.58
787.557	17503.3
787.891	17501.94
788.224	17479.57
788.557	17386.01
788.89	17307.37
789.223	17359.57
789.556	17103.99
789.888	17129.97
790.221	16980.6
790.554	16857.44
790.887	16962.52
791.219	16933.37
791.552	16789.19
791.884	16699.48
792.217	16645.01
792.549	16694.05
792.882	16622.42
793.214	16577.45
793.546	16452.48
793.879	16323.44
794.211	16309.66
794.543	16328.86
794.875	16318.24
795.207	16313.05
795.539	16174.07
795.871	16101.53
796.203	16024.69
796.535	15866.96
796.867	15872.15
797.198	15951.93
797.53	15887.75
797.862	15776.56
798.193	15726.85
798.525	15607.98
798.856	15678.71
799.188	15508.77
799.519	15459.96
799.85	15478.72
800.182	15367.08
800.513	15370.7
800.844	15233.75
801.175	15264.03
801.506	15268.1
801.837	15235.56
802.168	15140.2
802.499	15146.97
802.83	15003.25
803.161	15001.44
803.491	14877.38
803.822	14908.79
804.153	14785.4
804.483	14744.05
804.814	14685.74
805.145	14695.01
805.475	14684.84
805.805	14662.69
806.136	14629.93
806.466	14540.44
806.796	14561.23
807.126	14391.74
807.457	14471.74
807.787	14412.98
808.117	14339.54
808.447	14315.13
808.777	14396.03
809.107	14319.2
809.436	14242.82
809.766	14135.25
810.096	14103.61
810.426	14159.66
810.755	14150.39
811.085	14053.9
811.414	14057.06
811.744	13965.76
812.073	13905.88
812.403	13883.96
812.732	13848.7
813.061	13829.27
813.39	13775.03
813.719	13713.34
814.049	13746.79
814.378	13700.46
814.707	13548.15
815.036	13563.51
815.365	13524.42
815.693	13459.34
816.022	13447.58
816.351	13430.64
816.68	13294.59
817.008	13340.24
817.337	13258.89
817.665	13230.87
817.994	13231.54
818.322	13181.15
818.651	13203.3
818.979	13148.84
819.307	13177.76
819.636	13112.9
819.964	13028.84
820.292	13073.36
820.62	13013.47
820.948	13007.37
821.276	13022.28
821.604	13021.15
821.932	13057.09
822.259	12948.61
822.587	12941.38
822.915	12996.52
823.243	13000.59
823.57	12956.3
823.898	12946.81
824.225	12887.6
824.553	12842.18
824.88	12898.67
825.207	12924.66
825.535	12891.44
825.862	12901.38
826.189	12885.11
826.516	12982.06
826.843	12942.96
827.17	12925.11
827.497	12941.61
827.824	12939.8
828.151	12917.43
828.478	12918.56
828.805	12956.52
829.131	12881.95
829.458	12891.44
829.785	12795.85
830.111	12809.18
830.438	12988.16
830.764	12918.56
831.09	12986.81
831.417	12792.01
831.743	12855.06
832.069	12917.88
832.395	12862.06
832.722	12819.13
833.048	12864.77
833.374	12773.25
833.7	12699.58
834.026	12770.77
834.351	12820.26
834.677	12719.92
835.003	12650.54
835.329	12753.59
835.654	12692.58
835.98	12635.63
836.306	12681.05
836.631	12564.22
836.956	12615.52
837.282	12692.12
837.607	12590.43
837.932	12602.41
838.258	12602.63
838.583	12514.05
838.908	12411.23
839.233	12534.16
839.558	12510.89
839.883	12427.5
840.208	12415.75
840.533	12460.04
840.858	12408.97
841.182	12403.77
841.507	12318.8
841.832	12267.73
842.156	12259.14
842.481	12225.47
842.805	12158.58
843.13	12176.88
843.454	12180.72
843.778	12107.73
844.103	12088.07
844.427	12052.82
844.751	11994.74
845.075	12053.04
845.399	11964.01
845.723	11928.3
846.047	11945.02
846.371	11901.86
846.695	11833.39
847.019	11666.61
847.343	11700.51
847.666	11660.06
847.99	11599.72
848.313	11528.99
848.637	11519.5
848.96	11476.56
849.284	11504.36
849.607	11422.33
849.931	11305.27
850.254	11280.18
850.577	11245.83
850.9	11116.8
851.223	11107.31
851.546	11009.91
851.869	10981.43
852.192	11041.32
852.515	10954.99
852.838	10931.27
853.161	10865.28
853.483	10824.83
853.806	10772.17
854.129	10812.4
854.451	10765.17
854.774	10694.21
855.096	10608.56
855.419	10718.16
855.741	10655.57
856.063	10518.85
856.385	10524.72
856.708	10483.82
857.03	10500.09
857.352	10451.73
857.674	10427.55
857.996	10354.56
858.318	10370.6
858.64	10342.81
858.961	10307.78
859.283	10283.15
859.605	10198.4
859.926	10211.29
860.248	10141.91
860.57	10145.3
860.891	10185.07
861.212	10113.66
861.534	10082.93
861.855	10090.38
862.176	10102.36
862.498	10063.94
862.819	10024.85
863.14	9995.92
863.461	9957.28
863.782	9958.18
864.103	9919.54
864.424	9915.47
864.745	9935.81
865.065	9947.34
865.386	9817.4
865.707	9820.11
866.027	9846.32
866.348	9781.24
866.668	9757.74
866.989	9796.61
867.309	9745.99
867.63	9708.47
867.95	9769.26
868.27	9668.7
868.59	9732.65
868.91	9632.54
869.23	9648.59
869.55	9635.03
869.87	9670.28
870.19	9577.86
870.51	9667.12
870.83	9557.97
871.15	9494.92
871.469	9537.18
871.789	9520.91
872.109	9489.72
872.428	9426.22
872.748	9439.78
873.067	9437.75
873.386	9483.17
873.706	9498.08
874.025	9378.31
874.344	9398.65
874.663	9384.64
874.982	9366.34
875.301	9344.87
875.62	9294.02
875.939	9299.9
876.258	9260.12
876.577	9220.58
876.896	9315.72
877.214	9261.48
877.533	9201.59
877.852	9209.5
878.17	9197.3
878.489	9248.82
878.807	9159.56
879.125	9239.33
879.444	9158.43
879.762	9168.37
880.08	9163.18
880.398	9058.77
880.716	9119.79
881.034	9040.47
881.352	9041.6
881.67	9010.41
881.988	8956.85
882.306	8989.62
882.624	8976.74
882.941	8943.07
883.259	8952.34
883.577	8864.2
883.894	8896.52
884.212	8864.43
884.529	8840.47
884.846	8813.81
885.164	8814.71
885.481	8734.49
885.798	8794.15
886.115	8707.6
886.432	8750.53
886.75	8725.9
887.067	8696.97
887.383	8657.2
887.7	8668.05
888.017	8548.28
888.334	8650.65
888.651	8580.59
888.967	8551.22
889.284	8547.15
889.6	8493.59
889.917	8428.06
890.233	8463.31
890.55	8435.96
890.866	8381.73
891.182	8375.63
891.498	8413.59
891.815	8355.51
892.131	8337.44
892.447	8282.52
892.763	8197.55
893.079	8219.93
893.395	8196.2
893.71	8183.32
894.026	8176.76
894.342	8200.72
894.657	8137.67
894.973	8060.83
895.289	8088.18
895.604	8125.24
895.92	7958.01
896.235	8005.69
896.55	7942.19
896.865	7916.43
897.181	7957.56
897.496	7882.08
897.811	7858.13
898.126	7879.6
898.441	7825.59
898.756	7786.94
899.071	7739.26
899.386	7751.24
899.7	7635.76
900.015	7633.27
900.33	7639.6
900.644	7579.72
900.959	7577
901.273	7520.28
901.588	7537.46
901.902	7484.35
902.216	7459.27
902.531	7437.8
902.845	7433.73
903.159	7375.43
903.473	7319.16
903.787	7300.63
904.101	7279.16
904.415	7217.01
904.729	7221.53
905.042	7248.88
905.356	7158.71
905.67	7190.12
905.984	7164.81
906.297	7122.33
906.611	7145.83
906.924	7119.16
907.237	7025.83
907.551	7023.57
907.864	6977.25
908.177	7005.95
908.491	6940.18
908.804	6914.2
909.117	6920.52
909.43	6866.51
909.743	6855.89
910.056	6784.26
910.368	6747.65
910.681	6719.63
910.994	6753.75
911.307	6683.69
911.619	6600.98
911.932	6605.96
912.244	6596.01
912.557	6643.7
912.869	6546.75
913.181	6530.25
913.494	6511.5
913.806	6468.56
914.118	6488.22
914.43	6405.96
914.742	6389.46
915.054	6372.74
915.366	6372.97
915.678	6320.54
915.99	6260.2
916.302	6265.17
916.613	6184.72
916.925	6209.81
917.236	6231.28
917.548	6193.99
917.859	6150.15
918.171	6125.29
918.482	6081
918.794	6098.4
919.105	6102.47
919.416	6051.17
919.727	5979.98
920.038	6009.14
920.349	5896.6
920.66	5923.49
920.971	5932.53
921.282	5851.4
921.593	5870.16
921.903	5778.18
922.214	5752.65
922.525	5751.97
922.835	5718.75
923.146	5721.23
923.456	5676.49
923.767	5687.79
924.077	5664.51
924.387	5651.18
924.697	5608.92
925.008	5581.58
925.318	5540.67
925.628	5511.52
925.938	5508.36
926.248	5489.15
926.558	5456.61
926.867	5454.12
927.177	5434.01
927.487	5410.96
927.796	5356.95
928.106	5370.28
928.416	5327.8
928.725	5338.87
929.034	5220
929.344	5263.39
929.653	5274.69
929.962	5208.7
930.271	5179.55
930.581	5166.67
930.89	5153.11
931.199	5080.57
931.508	5120.12
931.817	5101.14
932.125	5099.78
932.434	5031.53
932.743	4989.28
933.051	5021.37
933.36	4939.79
933.669	4919.67
933.977	4944.08
934.286	4920.12
934.594	4903.4
934.902	4825.21
935.21	4889.84
935.519	4859.11
935.827	4819.11
936.135	4759.9
936.443	4733.92
936.751	4742.05
937.059	4763.07
937.367	4674.71
937.674	4715.38
937.982	4713.58
938.29	4662.5
938.597	4616.4
938.905	4568.72
939.213	4648.95
939.52	4599.46
939.827	4549.74
940.135	4548.16
940.442	4524.2
940.749	4514.26
941.056	4472.9
941.363	4432
941.67	4404.88
941.977	4428.39
942.284	4397.65
942.591	4379.8
942.898	4332.34
943.205	4369.18
943.511	4370.76
943.818	4369.63
944.125	4291.89
944.431	4290.08
944.738	4279.92
945.044	4241.72
945.35	4217.32
945.657	4179.13
945.963	4191.56
946.269	4200.37
946.575	4174.83
946.881	4127.38
947.187	4093.25
947.493	4125.8
947.799	4039.02
948.105	4082.18
948.41	4041.5
948.716	4043.09
949.022	4013.03
949.327	4034.05
949.633	3944.56
949.938	4018
950.244	3948.85
950.549	3924.67
950.854	3903.2
951.16	3857.33
951.465	3846.03
951.77	3837.22
952.075	3848.51
952.38	3829.53
952.685	3780.72
952.99	3793.6
953.294	3797.67
953.599	3764.9
953.904	3743.21
954.209	3691.46
954.513	3705.02
954.818	3684.23
955.122	3671.57
955.426	3672.7
955.731	3631.57
956.035	3632.7
956.339	3614.4
956.643	3631.12
956.948	3572.59
957.252	3601.29
957.556	3555.19
957.86	3533.27
958.163	3544.34
958.467	3538.01
958.771	3512.03
959.075	3498.02
959.378	3444.01
959.682	3487.17
959.985	3469.09
960.289	3400.16
960.592	3399.49
960.896	3366.27
961.199	3350.22
961.502	3391.8
961.805	3326.04
962.108	3314.97
962.411	3341.18
962.714	3339.15
963.017	3299.38
963.32	3279.49
963.623	3259.15
963.926	3244.24
964.228	3232.03
964.531	3231.58
964.833	3242.88
965.136	3187.29
965.438	3173.28
965.741	3187.06
966.043	3143.45
966.345	3140.28
966.648	3129.89
966.95	3107.74
967.252	3109.1
967.554	3112.04
967.856	3090.34
968.158	3028.65
968.46	3075.65
968.761	3033.17
969.063	3007.41
969.365	3000.63
969.666	2994.07
969.968	2950.69
970.269	2989.33
970.571	2948.2
970.872	2964.92
971.174	2892.61
971.475	2940.52
971.776	2910.69
972.077	2928.31
972.378	2889.22
972.679	2863.23
972.98	2920.18
973.281	2861.65
973.582	2856.45
973.883	2841.99
974.183	2839.5
974.484	2803.8
974.785	2771.48
975.085	2784.36
975.386	2759.05
975.686	2705.95
975.986	2771.93
976.287	2723.8
976.587	2725.61
976.887	2707.3
977.187	2704.82
977.487	2680.86
977.787	2686.06
978.087	2665.72
978.387	2695.1
978.687	2635.44
978.987	2621.2
979.286	2635.89
979.586	2609.68
979.885	2570.36
980.185	2604.71
980.484	2586.17
980.784	2555.89
981.083	2534.88
981.382	2501.66
981.682	2533.29
981.981	2523.35
982.28	2506.18
982.579	2444.48
982.878	2523.8
983.177	2476.12
983.475	2452.85
983.774	2467.31
984.073	2424.37
984.372	2420.3
984.67	2440.87
984.969	2404.26
985.267	2424.82
985.566	2359.51
985.864	2351.6
986.162	2370.14
986.461	2371.72
986.759	2336.69
987.057	2330.81
987.355	2317.26
987.653	2301.66
987.951	2286.52
988.249	2280.65
988.547	2286.3
988.844	2253.98
989.142	2266.86
989.44	2244.49
989.737	2265.05
990.035	2255.11
990.332	2217.37
990.63	2189.12
990.927	2179.86
991.224	2192.29
991.521	2214.89
991.819	2192.51
992.116	2181.67
992.413	2159.75
992.71	2147.77
993.006	2136.02
993.303	2126.98
993.6	2138.28
993.897	2132.63
994.193	2115.45
994.49	2070.93
994.787	2098.05
995.083	2081.33
995.379	2015.34
995.676	2016.47
995.972	2029.13
996.268	2034.55
996.565	2024.83
996.861	2031.16
997.157	1979.19
997.453	1973.08
997.749	1983.03
998.044	1975.57
998.34	1939.41
998.636	1956.81
998.932	1984.61
999.227	1948.45
999.523	1919.98
999.818	1921.11
1000.114	1866.19
1000.409	1898.06
1000.704	1870.49
1001	1879.3
1001.295	1861
1001.59	1843.37
1001.885	1843.14
1002.18	1821.22
1002.475	1837.95
1002.77	1808.12
1003.065	1799.08
1003.359	1770.15
1003.654	1839.3
1003.949	1778.29
1004.243	1764.28
1004.538	1716.59
1004.832	1754.78
1005.127	1732.86
1005.421	1764.5
1005.715	1725.63
1006.009	1725.41
1006.304	1704.16
1006.598	1706.65
1006.892	1700.1
1007.186	1698.06
1007.48	1689.93
1007.773	1667.78
1008.067	1642.47
1008.361	1646.09
1008.655	1625.75
1008.948	1613.55
1009.242	1621
1009.535	1599.08
1009.829	1607.67
1010.122	1582.81
1010.415	1553.89
1010.708	1562.02
1011.001	1558.18
1011.295	1549.37
1011.588	1564.96
1011.881	1536.26
1012.173	1525.64
1012.466	1510.72
1012.759	1511.17
1013.052	1524.06
1013.344	1489.25
1013.637	1477.73
1013.93	1476.15
1014.222	1479.54
1014.514	1450.39
1014.807	1452.65
1015.099	1460.33
1015.391	1420.1
1015.683	1415.81
1015.976	1392.99
1016.268	1390.27
1016.56	1418.52
1016.851	1388.47
1017.143	1415.58
1017.435	1365.64
1017.727	1365.87
1018.018	1362.03
1018.31	1337.17
1018.602	1352.99
1018.893	1337.39
1019.185	1331.74
1019.476	1327.68
1019.767	1329.03
1020.058	1310.73
1020.35	1259.66
1020.641	1268.92
1020.932	1272.99
1021.223	1267.34
1021.514	1271.63
1021.804	1255.14
1022.095	1260.79
1022.386	1236.61
1022.677	1237.06
1022.967	1200.9
1023.258	1233.89
1023.548	1230.28
1023.839	1195.93
1024.129	1195.93
1024.419	1200.67
1024.709	1220.34
1025	1183.5
1025.29	1152.31
1025.58	1185.08
1025.87	1164.74
1026.16	1139.66
1026.449	1160.9
1026.739	1118.42
1027.029	1135.37
1027.319	1110.28
1027.608	1120
1027.898	1115.93
1028.187	1084.07
1028.477	1100.79
1028.766	1079.1
1029.055	1084.75
1029.344	1064.63
1029.634	1085.2
1029.923	1055.37
1030.212	1073.45
1030.501	1060.79
1030.79	1042.03
1031.078	1027.35
1031.367	1032.54
1031.656	1002.04
1031.945	990.28
1032.233	992.77
1032.522	994.35
1032.81	985.09
1033.099	999.1
1033.387	972.88
1033.675	973.56
1033.963	991.41
1034.251	992.54
1034.54	947.8
1034.828	952.55
1035.116	937.63
1035.403	951.19
1035.691	954.13
1035.979	937.18
1036.267	902.6
1036.554	931.3
1036.842	897.18
1037.129	901.47
1037.417	906.67
1037.704	888.37
1037.992	908.7
1038.279	879.55
1038.566	859.21
1038.853	859.21
1039.14	859.21
