Data from hue_160_FLMS001491_00008.txt Node
Date: Tue Feb 07 16:50:41 GMT 2017
User: dcchb
Spectrometer: FLMS00149
Trigger mode: 0
Integration Time (sec): 2.000000E-2
Scans to average: 10
Electric dark correction enabled: true
Nonlinearity correction enabled: false
Boxcar width: 0
XAxis mode: Wavelengths
Number of Pixels in Spectrum: 2048
>>>>>Begin Spectral Data<<<<<
341.393	-0.42
341.776	-0.42
342.16	-0.42
342.543	-70.25
342.927	-63.92
343.31	-77.71
343.693	-73.64
344.077	-70.48
344.46	-55.56
344.843	-55.79
345.226	-58.28
345.61	-40.42
345.993	-21.21
346.376	10.88
346.759	-7.43
347.142	40.93
347.525	42.96
347.908	61.72
348.291	94.94
348.674	89.52
349.057	119.57
349.44	115.51
349.823	141.27
350.206	174.49
350.588	181.49
350.971	209.29
351.354	225.33
351.737	230.08
352.119	237.31
352.502	268.95
352.884	273.69
353.267	298.33
353.65	293.13
354.032	310.53
354.414	311.43
354.797	308.49
355.179	318.89
355.562	313.24
355.944	327.48
356.326	339.68
356.709	341.71
357.091	331.09
357.473	335.61
357.855	343.07
358.238	356.18
358.62	354.82
359.002	337.42
359.384	343.52
359.766	322.28
360.148	329.06
360.53	341.04
360.912	328.61
361.294	324.09
361.676	338.78
362.057	317.31
362.439	330.87
362.821	325.67
363.203	323.41
363.584	318.66
363.966	331.54
364.348	318.44
364.729	318.89
365.111	322.05
365.493	328.83
365.874	305.78
366.256	312.56
366.637	329.06
367.019	320.47
367.4	302.39
367.781	294.48
368.163	308.95
368.544	311.43
368.925	324.09
369.306	319.34
369.688	306.69
370.069	328.38
370.45	305.33
370.831	303.07
371.212	303.07
371.593	313.24
371.974	309.85
372.355	310.3
372.736	315.27
373.117	305.1
373.498	328.83
373.879	326.57
374.26	313.92
374.641	317.53
375.021	324.54
375.402	347.14
375.783	337.65
376.163	324.09
376.544	333.13
376.925	297.65
377.305	343.52
377.686	292.22
378.066	311.88
378.447	321.38
378.827	357.76
379.208	325.67
379.588	326.12
379.968	335.39
380.349	332
380.729	349.62
381.109	327.7
381.489	348.49
381.87	337.87
382.25	350.98
382.63	319.12
383.01	346.46
383.39	321.83
383.77	356.63
384.15	342.62
384.53	341.04
384.91	356.4
385.29	354.82
385.67	347.82
386.049	334.48
386.429	345.78
386.809	364.99
387.189	366.35
387.568	362.05
387.948	347.14
388.328	310.08
388.707	360.47
389.087	337.42
389.466	361.83
389.846	347.14
390.225	360.02
390.605	351.21
390.984	366.35
391.363	370.41
391.743	365.22
392.122	356.86
392.501	380.58
392.881	378.32
393.26	367.02
393.639	374.03
394.018	359.57
394.397	382.39
394.776	382.17
395.155	363.63
395.534	374.71
395.913	385.78
396.292	356.63
396.671	378.78
397.05	367.48
397.429	399.57
397.808	384.65
398.186	376.52
398.565	375.39
398.944	406.35
399.323	385.55
399.701	393.01
400.08	388.49
400.458	411.99
400.837	406.8
401.215	401.15
401.594	404.99
401.972	404.09
402.351	412.22
402.729	402.5
403.107	409.73
403.486	414.25
403.864	398.44
404.242	426.91
404.62	422.62
404.999	417.87
405.377	407.25
405.755	428.72
406.133	415.61
406.511	418.77
406.889	423.97
407.267	431.88
407.645	437.76
408.023	429.17
408.401	461.94
408.779	441.6
409.156	460.58
409.534	429.17
409.912	440.69
410.29	450.86
410.667	464.65
411.045	449.28
411.422	453.35
411.8	461.03
412.178	462.16
412.555	480.24
412.933	482.73
413.31	480.69
413.687	470.52
414.065	483.18
414.442	496.96
414.819	480.47
415.197	488.15
415.574	509.17
415.951	498.77
416.328	502.16
416.705	517.08
417.082	516.17
417.46	515.72
417.837	500.35
418.214	542.16
418.591	542.39
418.967	527.47
419.344	536.74
419.721	523.86
420.098	520.01
420.475	525.21
420.852	538.32
421.228	539.9
421.605	539.45
421.982	544.19
422.358	567.02
422.735	565.66
423.111	589.17
423.488	575.15
423.864	565.21
424.241	575.38
424.617	580.13
424.994	574.48
425.37	590.3
425.746	580.13
426.123	596.85
426.499	592.56
426.875	595.94
427.251	621.71
427.627	629.84
428.003	623.06
428.379	627.36
428.756	620.58
429.132	659.22
429.507	628.49
429.883	660.8
430.259	683.17
430.635	657.86
431.011	647.92
431.387	664.42
431.763	661.48
432.138	673.68
432.514	697.41
432.89	693.12
433.265	696.51
433.641	694.93
434.016	703.51
434.392	722.27
434.767	743.29
435.143	737.86
435.518	750.52
435.894	757.97
436.269	766.34
436.644	755.71
437.02	760.69
437.395	796.62
437.77	780.57
438.145	787.13
438.52	788.93
438.895	796.17
439.271	798.2
439.646	830.74
440.021	828.26
440.395	821.48
440.77	822.83
441.145	840.91
441.52	842.04
441.895	850.18
442.27	871.19
442.645	882.94
443.019	885.65
443.394	870.74
443.769	874.13
444.143	875.03
444.518	905.54
444.892	898.99
445.267	893.34
445.641	897.41
446.016	896.95
446.39	901.25
446.764	932.21
447.139	914.81
447.513	908.93
447.887	937.86
448.262	960.68
448.636	931.08
449.01	971.75
449.384	989.15
449.758	995.26
450.132	990.28
450.506	981.92
450.88	998.42
451.254	1008.36
451.628	1009.95
452.002	1021.47
452.376	1018.76
452.75	1058.31
453.123	1038.42
453.497	1066.67
453.871	1067.34
454.244	1094.24
454.618	1109.6
454.992	1102.15
455.365	1105.54
455.739	1135.59
456.112	1135.37
456.486	1153.9
456.859	1167.68
457.232	1192.99
457.606	1198.87
457.979	1206.1
458.352	1241.35
458.725	1244.97
459.099	1265.31
459.472	1251.75
459.845	1274.8
460.218	1287.9
460.591	1305.53
460.964	1321.35
461.337	1354.12
461.71	1356.6
462.083	1397.28
462.456	1399.77
462.829	1411.74
463.201	1442.93
463.574	1469.14
463.947	1453.55
464.32	1490.16
464.692	1504.85
465.065	1508.46
465.438	1540.78
465.81	1570.61
466.183	1599.76
466.555	1630.95
466.928	1637.73
467.3	1631.4
467.672	1682.47
468.045	1740.77
468.417	1728.57
468.789	1766.99
469.161	1794.11
469.534	1824.16
469.906	1858.74
470.278	1868.23
470.65	1889.02
471.022	1958.62
471.394	1974.44
471.766	2032.97
472.138	2094.89
472.51	2128.33
472.882	2172.4
473.253	2150.93
473.625	2229.8
473.997	2292.85
474.369	2291.72
474.74	2367.88
475.112	2387.31
475.484	2463.01
475.855	2548.89
476.227	2599.06
476.598	2675.89
476.97	2731.03
477.341	2794.76
477.713	2826.62
478.084	2858.94
478.455	2981.87
478.827	3048.99
479.198	3151.81
479.569	3212.83
479.94	3279.49
480.311	3352.71
480.682	3457.56
481.053	3559.71
481.424	3663.43
481.795	3707.5
482.166	3825.46
482.537	3898.68
482.908	4022.07
483.279	4117.66
483.65	4187.26
484.021	4349.29
484.391	4453.7
484.762	4514.49
485.133	4622.51
485.503	4694.37
485.874	4836.96
486.244	4975.94
486.615	5062.72
486.985	5203.73
487.356	5374.12
487.726	5445.53
488.097	5619.99
488.467	5671.74
488.837	5781.57
489.207	5967.1
489.578	6046.87
489.948	6203.48
490.318	6337.26
490.688	6389.92
491.058	6581.32
491.428	6745.61
491.798	6836.46
492.168	7078.94
492.538	7123
492.908	7221.76
493.278	7327.29
493.648	7439.83
494.017	7621.52
494.387	7737
494.757	7827.39
495.126	8005.24
495.496	8067.39
495.866	8187.61
496.235	8336.76
496.605	8473.03
496.974	8553.02
497.344	8647.71
497.713	8745.79
498.082	8849.51
498.452	8946.46
498.821	9066.68
499.19	9087.47
499.559	9310.07
499.928	9415.6
500.298	9477.97
500.667	9577.4
501.036	9627.8
501.405	9736.27
501.774	9758.64
502.143	9931.07
502.512	9994.79
502.88	10072.08
503.249	10147.78
503.618	10215.58
503.987	10311.4
504.356	10333.77
504.724	10436.36
505.093	10508.23
505.462	10605.63
505.83	10640.65
506.199	10729.92
506.567	10912.51
506.936	10871.83
507.304	10989.12
507.672	11067.31
508.041	11090.13
508.409	11170.58
508.777	11291.48
509.145	11357.02
509.514	11353.85
509.882	11496
510.25	11402.89
510.618	11544.81
510.986	11482.21
511.354	11624.13
511.722	11769.66
512.09	11826.61
512.458	11816.67
512.826	11907.96
513.193	11893.5
513.561	12004.23
513.929	11981.41
514.297	12114.96
514.664	12111.12
515.032	12139.82
515.4	12200.39
515.767	12184.11
516.135	12218.24
516.502	12151.12
516.869	12393.6
517.237	12337.33
517.604	12280.84
517.972	12368.97
518.339	12465.24
518.706	12462.07
519.073	12513.15
519.44	12486.48
519.808	12647.38
520.175	12506.59
520.542	12727.15
520.909	12693.25
521.276	12687.83
521.643	12839.69
522.009	12807.38
522.376	12843.76
522.743	12806.92
523.11	12884.66
523.477	12990.2
523.843	13036.52
524.21	13159.46
524.577	13006.92
524.943	12999.91
525.31	13119.23
525.676	13227.03
526.043	13212.34
526.409	13208.49
526.776	13280.81
527.142	13250.53
527.508	13177.31
527.874	13298.44
528.241	13229.96
528.607	13235.39
528.973	13342.05
529.339	13253.24
529.705	13355.38
530.071	13349.73
530.437	13398.32
530.803	13388.15
531.169	13363.07
531.535	13296.63
531.901	13251.88
532.267	13342.28
532.632	13263.18
532.998	13310.64
533.364	13351.77
533.73	13273.13
534.095	13246.91
534.461	13313.58
534.826	13332.79
535.192	13247.59
535.557	13272.67
535.923	13252.79
536.288	13205.56
536.653	13233.58
537.019	13073.13
537.384	13120.59
537.749	13077.2
538.114	13129.85
538.479	12975.28
538.845	13029.29
539.21	12972.79
539.575	12973.92
539.94	13012.12
540.305	12904.77
540.67	12830.65
541.034	12832.01
541.399	12839.69
541.764	12784.1
542.129	12778.68
542.494	12706.59
542.858	12766.02
543.223	12697.1
543.587	12650.09
543.952	12592.47
544.316	12550.88
544.681	12511.79
545.045	12602.18
545.41	12596.53
545.774	12384.11
546.138	12443.54
546.503	12383.43
546.867	12300.5
547.231	12371.68
547.595	12337.56
547.959	12224.57
548.324	12188.63
548.688	12253.04
549.052	12200.84
549.416	12096.66
549.779	12118.81
550.143	12008.07
550.507	12033.61
550.871	12052.37
551.235	11932.82
551.599	12039.71
551.962	11979.15
552.326	11965.82
552.689	11877.91
553.053	11846.5
553.417	11949.77
553.78	11926.95
554.143	11797.01
554.507	11915.2
554.87	11876.55
555.234	11780.28
555.597	11721.3
555.96	11674.98
556.323	11679.5
556.686	11726.05
557.05	11780.96
557.413	11645.82
557.776	11664.58
558.139	11702.77
558.502	11611.47
558.865	11642.43
559.228	11716.33
559.59	11655.77
559.953	11715.65
560.316	11811.47
560.679	11703
561.041	11686.95
561.404	11768.76
561.767	11729.89
562.129	11663
562.492	11813.05
562.854	11703.68
563.217	11629.78
563.579	11651.93
563.941	11661.42
564.304	11732.38
564.666	11695.54
565.028	11697.35
565.39	11648.08
565.753	11704.81
566.115	11734.18
566.477	11758.59
566.839	11792.03
567.201	11801.98
567.563	11755.88
567.925	11773.05
568.287	11752.49
568.648	11802.66
569.01	11834.29
569.372	11893.05
569.734	11770.57
570.095	11884.24
570.457	11888.76
570.819	11845.37
571.18	11890.79
571.542	11962.65
571.903	11962.65
572.265	11903.67
572.626	11893.95
572.987	11901.18
573.349	11966.72
573.71	11966.72
574.071	11948.64
574.432	11913.84
574.794	12098.47
575.155	12031.12
575.516	11938.92
575.877	12019.37
576.238	11970.33
576.599	12062.08
576.96	12035.87
577.32	12008.07
577.681	12033.38
578.042	12029.54
578.403	12001.52
578.763	12018.7
579.124	12014.63
579.485	12083.78
579.845	12115.87
580.206	12124.91
580.566	12056.43
580.927	12043.33
581.287	12065.7
581.648	12009.88
582.008	12091.24
582.368	12062.31
582.728	11965.36
583.089	12091.01
583.449	12031.35
583.809	12045.14
584.169	12045.81
584.529	11984.8
584.889	12017.79
585.249	11992.48
585.609	11900.28
585.969	11937.57
586.329	11917.91
586.688	11982.09
587.048	11883.78
587.408	11820.96
587.768	11910
588.127	11877.46
588.487	11852.37
588.846	11953.61
589.206	11869.77
589.565	11905.03
589.925	11996.32
590.284	11923.78
590.643	11814.41
591.003	11890.79
591.362	11893.05
591.721	11925.14
592.08	11830.45
592.44	11819.6
592.799	11834.29
593.158	11782.54
593.517	11771.24
593.876	11865.03
594.235	11743.67
594.593	11784.8
594.952	11740.51
595.311	11676.11
595.67	11784.58
596.029	11922.65
596.387	11800.4
596.746	11769.66
597.104	11745.48
597.463	11736.22
597.822	11799.04
598.18	11681.98
598.538	11650.34
598.897	11767.85
599.255	11618.93
599.613	11806.05
599.972	11782.32
600.33	11692.83
600.688	11740.06
601.046	11716.56
601.404	11734.18
601.762	11711.58
602.12	11849.43
602.478	11876.1
602.836	11813.5
603.194	11748.42
603.552	11729.44
603.91	11765.37
604.268	11787.06
604.625	11704.81
604.983	11755.88
605.341	11693.96
605.698	11684.01
606.056	11762.43
606.413	11798.36
606.771	11824.58
607.128	11739.83
607.485	11712.71
607.843	11694.86
608.2	11743.45
608.557	11800.17
608.914	11763.33
609.272	11776.89
609.629	11836.33
609.986	11792.49
610.343	11753.62
610.7	11840.17
611.057	11815.31
611.414	11856.89
611.771	11834.75
612.127	11875.87
612.484	11918.36
612.841	11928.08
613.198	11831.36
613.554	11880.62
613.911	11978.92
614.267	11938.47
614.624	11805.59
614.98	11902.77
615.337	12018.24
615.693	12015.76
616.05	11963.78
616.406	12027.28
616.762	11939.15
617.118	11990
617.475	12046.49
617.831	12066.6
618.187	12040.84
618.543	12048.53
618.899	12048.07
619.255	12095.98
619.611	12013.5
619.967	12181.18
620.323	12084.91
620.678	12084.68
621.034	11983.44
621.39	11945.48
621.746	11976.66
622.101	12147.28
622.457	12079.48
622.812	12047.62
623.168	12092.82
623.523	12074.96
623.879	12005.36
624.234	12034.74
624.589	12041.29
624.945	12076.32
625.3	12104.57
625.655	12074.51
626.01	12088.75
626.365	12058.47
626.72	12101.63
627.075	12029.77
627.43	12062.99
627.785	12100.05
628.14	12051.24
628.495	12062.54
628.85	12056.66
629.205	11952.26
629.559	12023.44
629.914	11919.26
630.269	12036.77
630.623	11948.87
630.978	11934.63
631.332	11984.57
631.687	11940.51
632.041	11865.48
632.396	12005.59
632.75	11856.21
633.104	11870.9
633.459	11900.28
633.813	11890.34
634.167	11932.6
634.521	11869.32
634.875	11868.19
635.229	11857.12
635.583	11884.01
635.937	11837.01
636.291	11817.8
636.645	11781.64
636.999	11748.65
637.352	11776.44
637.706	11655.99
638.06	11733.28
638.413	11695.77
638.767	11618.48
639.121	11645.82
639.474	11605.6
639.828	11597.69
640.181	11697.35
640.534	11695.54
640.888	11551.59
641.241	11503.23
641.594	11554.53
641.947	11585.26
642.301	11526.5
642.654	11556.11
643.007	11592.27
643.36	11460.97
643.713	11501.87
644.066	11601.31
644.419	11564.02
644.771	11402.21
645.124	11334.87
645.477	11340.52
645.83	11246.06
646.182	11220.98
646.535	11101.43
646.888	11164.48
647.24	11111.6
647.593	11185.5
647.945	11159.73
648.298	11096.91
648.65	11033.18
649.002	11097.14
649.355	11146.63
649.707	11107.53
650.059	11196.57
650.411	11275.21
650.763	11332.61
651.115	11420.52
651.467	11437.69
651.819	11418.71
652.171	11357.24
652.523	11371.93
652.875	11343.01
653.227	11338.49
653.578	11359.73
653.93	11370.8
654.282	11359.96
654.633	11319.5
654.985	11343.23
655.337	11378.49
655.688	11361.54
656.039	11371.48
656.391	11255.1
656.742	11330.8
657.094	11358.15
657.445	11368.77
657.796	11344.14
658.147	11426.17
658.498	11317.92
658.849	11418.49
659.2	11408.99
659.551	11342.1
659.902	11399.28
660.253	11476.79
660.604	11434.76
660.955	11329.9
661.306	11448.09
661.656	11355.21
662.007	11389.11
662.358	11420.97
662.708	11386.17
663.059	11431.37
663.409	11327.87
663.76	11472.72
664.11	11422.33
664.461	11438.15
664.811	11426.62
665.161	11480.4
665.511	11406.73
665.862	11348.88
666.212	11522.44
666.562	11483.12
666.912	11449.9
667.262	11398.15
667.612	11415.32
667.962	11437.69
668.312	11437.69
668.662	11404.47
669.011	11386.85
669.361	11426.39
669.711	11376.23
670.06	11435.43
670.41	11405.38
670.76	11404.02
671.109	11437.24
671.459	11384.59
671.808	11320.18
672.157	11352.72
672.507	11350.01
672.856	11309.11
673.205	11353.4
673.554	11317.92
673.904	11347.75
674.253	11399.28
674.602	11370.12
674.951	11215.33
675.3	11082.45
675.649	11278.6
675.998	11306.4
676.346	11234.31
676.695	11279.73
677.044	11194.99
677.393	11227.3
677.741	11219.17
678.09	11134.2
678.438	11140.98
678.787	11150.7
679.135	11137.14
679.484	11024.37
679.832	11148.44
680.181	10999.51
680.529	11096.69
680.877	11096.23
681.225	11023.24
681.573	11055.1
681.922	11018.04
682.27	10972.4
682.618	10967.2
682.966	10946.41
683.314	10981.43
683.661	10944.37
684.009	10911.15
684.357	10881.1
684.705	10848.1
685.053	10863.92
685.4	10837.94
685.748	10783.93
686.095	10789.58
686.443	10744.15
686.79	10669.58
687.138	10687.43
687.485	10701.44
687.832	10740.54
688.18	10623.25
688.527	10534.44
688.874	10611.27
689.221	10543.71
689.568	10504.84
689.915	10458.51
690.262	10406.99
690.609	10440.43
690.956	10397.72
691.303	10406.08
691.65	10359.3
691.997	10353.43
692.344	10292.41
692.69	10284.5
693.037	10219.87
693.383	10169.93
693.73	10143.49
694.077	10161.57
694.423	10096.71
694.769	10156.37
695.116	10030.95
695.462	10032.53
695.808	9963.38
696.155	9916.15
696.501	9901.46
696.847	9903.72
697.193	9784.63
697.539	9877.51
697.885	9770.62
698.231	9699.21
698.577	9691.98
698.923	9701.24
699.269	9616.05
699.614	9553.9
699.96	9578.53
700.306	9595.26
700.651	9476.84
700.997	9416.96
701.342	9440.01
701.688	9384.87
702.033	9371.31
702.379	9363.85
702.724	9315.72
703.069	9303.51
703.415	9182.39
703.76	9192.78
704.105	9126.79
704.45	9167.47
704.795	9068.94
705.14	9056.74
705.485	9098.09
705.83	9029.17
706.175	9009.06
706.52	9049.73
706.865	8980.81
707.209	8904.65
707.554	8910.53
707.899	8905.33
708.243	8850.42
708.588	8816.97
708.932	8784.43
709.277	8825.11
709.621	8822.17
709.966	8725.22
710.31	8772
710.654	8666.24
710.998	8699.91
711.342	8673.92
711.687	8630.99
712.031	8605.68
712.375	8594.83
712.719	8626.92
713.063	8523.65
713.407	8558.67
713.75	8515.51
714.094	8526.13
714.438	8457.43
714.782	8508.96
715.125	8452.46
715.469	8501.73
715.812	8422.18
716.156	8370.2
716.499	8401.16
716.843	8400.94
717.186	8355.51
717.53	8329.98
717.873	8357.77
718.216	8401.39
718.559	8317.32
718.902	8224.67
719.246	8311.9
719.589	8255.18
719.932	8220.6
720.275	8229.64
720.617	8248.85
720.96	8213.82
721.303	8186.03
721.646	8139.93
721.989	8116.2
722.331	8149.42
722.674	8141.96
723.016	8151.45
723.359	8130.66
723.701	8178.12
724.044	8073.04
724.386	8053.38
724.729	8111.45
725.071	8129.98
725.413	8134.05
725.755	8160.27
726.097	8092.7
726.439	8031.46
726.782	8054.73
727.124	8094.28
727.465	8053.38
727.807	8102.64
728.149	8016.31
728.491	7990.55
728.833	8029.2
729.175	7940.84
729.516	8068.29
729.858	8027.61
730.199	7977.22
730.541	8011.34
730.882	7982.19
731.224	8071
731.565	8036.43
731.906	8011.79
732.248	8016.54
732.589	7984.23
732.93	7978.58
733.271	8003.66
733.612	7999.37
733.953	8072.81
734.294	8014.73
734.635	7950.1
734.976	8018.8
735.317	7975.64
735.658	7962.76
735.999	7969.76
736.339	7930.22
736.68	7957.11
737.021	8009.99
737.361	7982.64
737.702	8073.94
738.042	7937.67
738.383	8038.69
738.723	8065.8
739.063	8028.74
739.404	8096.09
739.744	8056.31
740.084	8079.36
740.424	8080.27
740.764	8032.36
741.104	8092.92
741.444	8059.48
741.784	8074.39
742.124	8121.62
742.464	8071.68
742.804	8091.11
743.143	8141.51
743.483	8191.45
743.823	8179.25
744.162	8251.56
744.502	8259.02
744.841	8279.36
745.181	8350.54
745.52	8337.66
745.86	8437.09
746.199	8392.35
746.538	8433.7
746.877	8589.41
747.216	8493.59
747.556	8571.78
747.895	8647.26
748.234	8626.02
748.573	8669.4
748.911	8775.62
749.25	8823.98
749.589	8856.74
749.928	8942.84
750.267	9075.27
750.605	9096.96
750.944	9101.94
751.283	9205.44
751.621	9315.04
751.96	9312.33
752.298	9412.21
752.636	9557.52
752.975	9595.93
753.313	9725.65
753.651	9851.07
753.989	9870.05
754.327	10032.98
754.666	10166.31
755.004	10224.84
755.342	10372.41
755.679	10536.47
756.017	10512.97
756.355	10715
756.693	10838.84
757.031	10916.35
757.368	11147.08
757.706	11288.09
758.044	11410.8
758.381	11517.24
758.719	11685.82
759.056	11877.23
759.394	12009.66
759.731	12120.84
760.068	12357.22
760.405	12337.33
760.743	12490.1
761.08	12799.24
761.417	12870.65
761.754	13121.72
762.091	13243.07
762.428	13414.59
762.765	13534.36
763.102	13683.06
763.438	13815.26
763.775	13998.53
764.112	14215.02
764.449	14400.55
764.785	14539.53
765.122	14603.26
765.458	14750.15
765.795	14960.76
766.131	15061.55
766.467	15213.41
766.804	15340.64
767.14	15409.34
767.476	15540.18
767.812	15766.62
768.148	15888.65
768.485	15994.41
768.821	16229.43
769.157	16290.22
769.492	16333.84
769.828	16525.24
770.164	16524.57
770.5	16689.76
770.836	16782.86
771.171	16840.04
771.507	16999.13
771.842	16922.3
772.178	17146.02
772.513	17274.83
772.849	17352.34
773.184	17390.08
773.519	17549.62
773.855	17461.49
774.19	17562.5
774.525	17673.24
774.86	17706.46
775.195	17911.42
775.53	17808.37
775.865	17924.75
776.2	17839.79
776.535	17844.98
776.87	17939.22
777.205	17970.63
777.539	17993.23
777.874	18079.55
778.209	18055.82
778.543	18068.03
778.878	18071.87
779.212	18083.62
779.547	18096.95
779.881	18213.56
780.215	18188.93
780.55	18442.71
780.884	18295.37
781.218	18254.46
781.552	18346.66
781.886	18373.33
782.22	18309.83
782.554	18161.58
782.888	18148.03
783.222	18194.13
783.556	18202.49
783.889	18139.44
784.223	18023.74
784.557	18222.83
784.89	18255.59
785.224	18070.97
785.557	17957.97
785.891	18077.75
786.224	18082.04
786.558	18183.05
786.891	17966.34
787.224	17928.14
787.557	17934.7
787.891	17986.22
788.224	17995.71
788.557	17988.48
788.89	17957.07
789.223	18015.37
789.556	17893.8
789.888	17841.82
790.221	17854.93
790.554	17674.82
790.887	17723.4
791.219	17620.58
791.552	17676.17
791.884	17629.17
792.217	17559.57
792.549	17548.04
792.882	17501.26
793.214	17457.65
793.546	17606.8
793.879	17416.29
794.211	17401.15
794.543	17523.64
794.875	17506.46
795.207	17462.85
795.539	17289.97
795.871	17433.92
796.203	17266.47
796.535	17173.36
796.867	17241.61
797.198	17115.28
797.53	17097.21
797.862	17015.63
798.193	17017.21
798.525	16951.9
798.856	16943.09
799.188	16732.24
799.519	16796.65
799.85	16668.97
800.182	16708.06
800.513	16731.34
800.844	16631.23
801.175	16679.14
801.506	16661.96
801.837	16583.77
802.168	16540.16
802.499	16504
802.83	16473.49
803.161	16354.4
803.491	16419.03
803.822	16371.8
804.153	16308.75
804.483	16226.04
804.814	16223.78
805.145	16078.02
805.475	16184.69
805.805	16042.54
806.136	16095.42
806.466	16128.42
806.796	16020.4
807.126	15834.19
807.457	15834.19
807.787	15861.31
808.117	15824.24
808.447	15804.13
808.777	15788.54
809.107	15739.95
809.436	15679.62
809.766	15698.6
810.096	15636.91
810.426	15581.77
810.755	15541.99
811.085	15613.85
811.414	15574.99
811.744	15451.6
812.073	15426.97
812.403	15392.62
812.732	15347.87
813.061	15331.83
813.39	15311.26
813.719	15238.95
814.049	15336.8
814.378	15258.61
814.707	15236.92
815.036	15219.29
815.365	15088.67
815.693	15007.09
816.022	15080.54
816.351	14991.72
816.68	14956.02
817.008	14943.59
817.337	14841.9
817.665	14911.73
817.994	14856.59
818.322	14810.26
818.651	14804.38
818.979	14710.83
819.307	14822.24
819.636	14741.34
819.964	14632.86
820.292	14734.1
820.62	14628.12
820.948	14661.11
821.276	14756.93
821.604	14616.14
821.932	14703.82
822.259	14672.86
822.587	14625.41
822.915	14684.39
823.243	14678.74
823.57	14602.13
823.898	14568.01
824.225	14536.82
824.553	14603.94
824.88	14704.95
825.207	14682.13
825.535	14728
825.862	14633.77
826.189	14568.23
826.516	14636.03
826.843	14745.4
827.17	14686.65
827.497	14746.53
827.824	14739.98
828.151	14708.34
828.478	14649.13
828.805	14800.54
829.131	14703.82
829.458	14628.12
829.785	14578.18
830.111	14649.81
830.438	14757.38
830.764	14728.68
831.09	14730.49
831.417	14554.9
831.743	14671.51
832.069	14646.2
832.395	14617.5
832.722	14720.55
833.048	14630.6
833.374	14586.54
833.7	14481.91
834.026	14568.91
834.351	14669.25
834.677	14537.5
835.003	14514.22
835.329	14547.67
835.654	14572.3
835.98	14427.45
836.306	14551.28
836.631	14468.35
836.956	14494.34
837.282	14509.48
837.607	14341.12
837.932	14335.7
838.258	14370.27
838.583	14314.45
838.908	14261.8
839.233	14325.98
839.558	14248.24
839.883	14131.63
840.208	14181.35
840.533	14134.8
840.858	14234.91
841.182	14177.73
841.507	14133.67
841.832	14073.1
842.156	14023.84
842.481	14056.83
842.805	14039.66
843.13	13962.37
843.454	13903.62
843.778	13829.5
844.103	13889.15
844.427	13814.35
844.751	13855.03
845.075	13782.49
845.399	13711.98
845.723	13635.6
846.047	13680.12
846.371	13567.81
846.695	13633.12
847.019	13462.95
847.343	13389.73
847.666	13380.24
847.99	13281.03
848.313	13344.99
848.637	13162.17
848.96	13189.51
849.284	13173.47
849.607	13093.24
849.931	13033.13
850.254	12910.65
850.577	12913.81
850.9	12810.76
851.223	12838.33
851.546	12759.92
851.869	12661.84
852.192	12770.99
852.515	12591.34
852.838	12581.39
853.161	12492.36
853.483	12513.37
853.806	12447.16
854.129	12386.14
854.451	12379.14
854.774	12300.27
855.096	12305.24
855.419	12191.57
855.741	12244.68
856.063	12178.24
856.385	12160.16
856.708	12147.51
857.03	12064.12
857.352	12060.73
857.674	11951.58
857.996	11965.14
858.318	11881.98
858.64	11814.86
858.961	11878.59
859.283	11827.74
859.605	11763.11
859.926	11737.35
860.248	11698.7
860.57	11704.58
860.891	11654.64
861.212	11571.02
861.534	11572.38
861.855	11525.37
862.176	11506.39
862.498	11601.31
862.819	11508.65
863.14	11465.72
863.461	11496.68
863.782	11453.06
864.103	11567.63
864.424	11397.92
864.745	11362.44
865.065	11398.37
865.386	11242.22
865.707	11291.93
866.027	11361.09
866.348	11251.03
866.668	11301.88
866.989	11234.99
867.309	11064.6
867.63	11223.24
867.95	11207.64
868.27	11171.71
868.59	11143.24
868.91	11110.02
869.23	11044.48
869.55	11034.09
869.87	11029.57
870.19	11058.49
870.51	11068.66
870.83	11070.25
871.15	10999.51
871.469	10967.88
871.789	11025.28
872.109	10953.86
872.428	10821.89
872.748	10969.01
873.067	10937.14
873.386	10923.13
873.706	10836.58
874.025	10840.65
874.344	10781.21
874.663	10804.04
874.982	10818.27
875.301	10771.95
875.62	10770.59
875.939	10743.93
876.258	10785.28
876.577	10760.88
876.896	10653.53
877.214	10678.39
877.533	10557.49
877.852	10630.03
878.17	10624.83
878.489	10638.17
878.807	10629.35
879.125	10569.02
879.444	10591.16
879.762	10543.93
880.08	10527.44
880.398	10504.38
880.716	10527.89
881.034	10481.11
881.352	10414.9
881.67	10348
881.988	10432.75
882.306	10434.56
882.624	10331.73
882.941	10276.37
883.259	10276.37
883.577	10293.99
883.894	10274.79
884.212	10190.95
884.529	10227.33
884.846	10167.22
885.164	10199.99
885.481	10063.49
885.798	10105.53
886.115	10009.26
886.432	10049.71
886.75	10037.96
887.067	9965.64
887.383	10016.26
887.7	10041.8
888.017	9945.08
888.334	9952.99
888.651	9912.76
888.967	9912.31
889.284	9800
889.6	9803.39
889.917	9786.66
890.233	9749.6
890.55	9684.75
890.866	9762.48
891.182	9651.53
891.498	9547.8
891.815	9540.79
892.131	9545.31
892.447	9605.65
892.763	9499.44
893.079	9456.28
893.395	9423.96
893.71	9450.18
894.026	9405.43
894.342	9359.1
894.657	9329.5
894.973	9287.02
895.289	9230.29
895.604	9259.45
895.92	9257.64
896.235	9172.67
896.55	9164.31
896.865	9137.19
897.181	9100.81
897.496	9071.43
897.811	9066.46
898.126	9060.35
898.441	8967.25
898.756	8958.89
899.071	8869.17
899.386	8903.97
899.7	8814.26
900.015	8777.42
900.33	8739.01
900.644	8751.66
900.959	8698.1
901.273	8693.58
901.588	8671.66
901.902	8647.26
902.216	8588.95
902.531	8562.29
902.845	8535.62
903.159	8496.08
903.473	8526.81
903.787	8345.12
904.101	8344.44
904.415	8393.03
904.729	8339.7
905.042	8282.75
905.356	8258.34
905.67	8214.73
905.984	8205.24
906.297	8196.2
906.611	8152.36
906.924	8140.15
907.237	8117.1
907.551	8115.07
907.864	8005.69
908.177	7993.49
908.491	7942.19
908.804	7869.65
909.117	7885.92
909.43	7815.64
909.743	7785.36
910.056	7779.71
910.368	7762.99
910.681	7759.82
910.994	7659.49
911.307	7660.62
911.619	7587.85
911.932	7602.54
912.244	7572.48
912.557	7504.46
912.869	7526.61
913.181	7489.1
913.494	7471.7
913.806	7394.41
914.118	7354.19
914.43	7348.54
914.742	7303.79
915.054	7261.76
915.366	7284.36
915.678	7206.84
915.99	7199.16
916.302	7170.24
916.613	7098.6
916.925	7062.67
917.236	7152.83
917.548	7075.55
917.859	7062.67
918.171	7019.5
918.482	6987.42
918.794	6990.35
919.105	6946.51
919.416	6865.38
919.727	6863.8
920.038	6782.22
920.349	6791.26
920.66	6787.65
920.971	6716.69
921.282	6741.09
921.593	6677.37
921.903	6615
922.214	6656.8
922.525	6570.25
922.835	6558.05
923.146	6534.55
923.456	6482.57
923.767	6522.12
924.077	6442.34
924.387	6458.39
924.697	6387.88
925.008	6356.25
925.318	6316.47
925.628	6337.26
925.938	6342.01
926.248	6248.68
926.558	6245.97
926.867	6282.8
927.177	6232.86
927.487	6179.3
927.796	6105.86
928.106	6081.45
928.416	6116.7
928.725	6102.69
929.034	6038.74
929.344	6048
929.653	6000.1
929.962	5979.08
930.271	5941.34
930.581	5904.51
930.89	5895.69
931.199	5795.13
931.508	5832.42
931.817	5883.26
932.125	5823.83
932.434	5817.05
932.743	5731.85
933.051	5719.43
933.36	5744.28
933.669	5690.05
933.977	5693.21
934.286	5665.87
934.594	5645.53
934.902	5611.41
935.21	5581.8
935.519	5577.51
935.827	5504.97
936.135	5509.26
936.443	5436.5
936.751	5441.92
937.059	5400.34
937.367	5429.49
937.674	5417.74
937.982	5416.83
938.29	5374.35
938.597	5366.21
938.905	5304.3
939.213	5256.61
939.52	5270.62
939.827	5260.23
940.135	5217.29
940.442	5191.3
940.749	5176.16
941.056	5147.01
941.363	5137.97
941.67	5110.18
941.977	5112.89
942.284	5049.39
942.591	5032.66
942.898	5003.29
943.205	5016.17
943.511	4966.68
943.818	4942.5
944.125	4952.21
944.431	4898.88
944.738	4968.03
945.044	4845.78
945.35	4837.64
945.657	4792.44
945.963	4795.83
946.269	4753.35
946.575	4786.8
946.881	4732.33
947.187	4758.77
947.493	4664.54
947.799	4625.44
948.105	4660.47
948.41	4634.26
948.716	4627.7
949.022	4617.99
949.327	4608.27
949.633	4600.59
949.938	4559.46
950.244	4538.89
950.549	4478.55
950.854	4452.79
951.16	4481.04
951.465	4420.7
951.77	4404.43
952.075	4422.51
952.38	4399.46
952.685	4395.84
952.99	4381.83
953.294	4309.52
953.599	4309.97
953.904	4305.68
954.209	4271.1
954.513	4269.29
954.818	4239.92
955.122	4257.77
955.426	4172.8
955.731	4173.7
956.035	4154.5
956.339	4170.99
956.643	4104.33
956.948	4116.53
957.252	4107.72
957.556	4106.81
957.86	4043.09
958.163	4063.42
958.467	4046.7
958.771	4055.97
959.075	4013.71
959.378	3973.03
959.682	3982.07
959.985	3951.34
960.289	3911.56
960.592	3915.86
960.896	3919.7
961.199	3889.87
961.502	3876.54
961.805	3814.62
962.108	3807.39
962.411	3816.43
962.714	3796.09
963.017	3752.92
963.32	3765.8
963.623	3774.17
963.926	3718.12
964.228	3721.51
964.531	3675.86
964.833	3724
965.136	3653.94
965.438	3683.1
965.741	3612.81
966.043	3620.95
966.345	3608.97
966.648	3606.04
966.95	3568.97
967.252	3561.52
967.554	3563.1
967.856	3537.79
968.158	3498.92
968.46	3553.83
968.761	3505.92
969.063	3513.83
969.365	3455.08
969.666	3414.18
969.968	3385.93
970.269	3381.18
970.571	3371.92
970.872	3378.24
971.174	3358.13
971.475	3363.78
971.776	3292.6
972.077	3301.86
972.378	3277.46
972.679	3319.04
972.98	3272.48
973.281	3220.51
973.582	3259.38
973.883	3270.68
974.183	3231.81
974.484	3178.48
974.785	3185.03
975.085	3201.3
975.386	3200.85
975.686	3179.83
975.986	3164.24
976.287	3131.47
976.587	3084.92
976.887	3103.68
977.187	3127.18
977.487	3083.56
977.787	3055.99
978.087	3043.79
978.387	3026.84
978.687	3010.12
978.987	2984.58
979.286	2973.06
979.586	2977.8
979.885	2984.13
980.185	2970.57
980.484	2924.02
980.784	2906.84
981.083	2899.61
981.382	2884.47
981.682	2876.34
981.981	2863.23
982.28	2834.3
982.579	2844.02
982.878	2858.71
983.177	2818.26
983.475	2802.44
983.774	2767.87
984.073	2774.87
984.372	2762.44
984.67	2730.8
984.969	2754.76
985.267	2743.46
985.566	2688.09
985.864	2690.35
986.162	2696
986.461	2689.45
986.759	2642.22
987.057	2647.42
987.355	2669.11
987.653	2612.16
987.951	2647.64
988.249	2619.17
988.547	2607.87
988.844	2579.62
989.142	2598.83
989.44	2565.16
989.737	2552.73
990.035	2532.17
990.332	2533.52
990.63	2512.28
990.927	2477.25
991.224	2500.53
991.521	2483.13
991.819	2485.16
992.116	2463.69
992.413	2465.5
992.71	2420.53
993.006	2423.24
993.303	2414.88
993.6	2409.46
993.897	2375.78
994.193	2398.16
994.49	2393.19
994.787	2377.82
995.083	2336.69
995.379	2338.05
995.676	2347.76
995.972	2316.35
996.268	2318.16
996.565	2252.17
996.861	2276.8
997.157	2252.62
997.453	2241.78
997.749	2237.94
998.044	2241.78
998.34	2206.98
998.636	2227.77
998.932	2225.28
999.227	2159.29
999.523	2150.48
999.818	2145.28
1000.114	2145.06
1000.409	2141.21
1000.704	2138.05
1001	2134.89
1001.295	2120.2
1001.59	2093.31
1001.885	2083.36
1002.18	2044.27
1002.475	2063.48
1002.77	2060.77
1003.065	2046.08
1003.359	2061.44
1003.654	1997.04
1003.949	2005.63
1004.243	1991.16
1004.538	1981.67
1004.832	2013.76
1005.127	1961.56
1005.421	1950.26
1005.715	1926.31
1006.009	1922.01
1006.304	1883.14
1006.598	1920.43
1006.892	1890.15
1007.186	1876.82
1007.48	1868.45
1007.773	1862.58
1008.067	1873.2
1008.361	1845.18
1008.655	1813.54
1008.948	1837.04
1009.242	1803.14
1009.535	1790.94
1009.829	1799.3
1010.122	1765.63
1010.415	1792.98
1010.708	1778.06
1011.001	1736.25
1011.295	1696.48
1011.588	1712.53
1011.881	1736.03
1012.173	1705.29
1012.466	1700.32
1012.759	1699.87
1013.052	1678.85
1013.344	1658.74
1013.637	1646.76
1013.93	1647.22
1014.222	1643.15
1014.514	1637.73
1014.807	1615.35
1015.099	1634.79
1015.391	1584.85
1015.683	1583.94
1015.976	1598.86
1016.268	1555.24
1016.56	1541
1016.851	1541.23
1017.143	1525.64
1017.435	1550.04
1017.727	1550.72
1018.018	1531.51
1018.31	1525.86
1018.602	1515.02
1018.893	1512.53
1019.185	1510.27
1019.476	1492.42
1019.767	1464.17
1020.058	1440.44
1020.35	1431.63
1020.641	1436.83
1020.932	1413.55
1021.223	1412.87
1021.514	1419.65
1021.804	1391.86
1022.095	1378.52
1022.386	1398.86
1022.677	1388.01
1022.967	1376.94
1023.258	1336.94
1023.548	1341.46
1023.839	1350.28
1024.129	1336.26
1024.419	1313.67
1024.709	1300.79
1025	1306.43
1025.29	1272.09
1025.58	1287.68
1025.87	1281.12
1026.16	1296.04
1026.449	1274.57
1026.739	1242.48
1027.029	1256.49
1027.319	1209.04
1027.608	1212.2
1027.898	1221.47
1028.187	1213.78
1028.477	1199.77
1028.766	1184.4
1029.055	1167
1029.344	1160.68
1029.634	1178.53
1029.923	1177.62
1030.212	1164.07
1030.501	1152.09
1030.79	1148.02
1031.078	1146.21
1031.367	1135.14
1031.656	1130.62
1031.945	1109.38
1032.233	1121.13
1032.522	1104.41
1032.81	1072.77
1033.099	1069.83
1033.387	1103.28
1033.675	1061.47
1033.963	1082.71
1034.251	1074.35
1034.54	1059.89
1034.828	1056.72
1035.116	1070.51
1035.403	1035.48
1035.691	1044.07
1035.979	1034.35
1036.267	1016.95
1036.554	1022.37
1036.842	993.45
1037.129	990.28
1037.417	988.02
1037.704	1002.49
1037.992	973.11
1038.279	974.01
1038.566	969.27
1038.853	969.27
1039.14	969.27
