Data from hue_30_FLMS001491_62.txt Node
Date: Mon Feb 06 15:05:45 GMT 2017
User: dcchb
Spectrometer: FLMS00149
Trigger mode: 0
Integration Time (sec): 2.000000E-2
Scans to average: 10
Electric dark correction enabled: true
Nonlinearity correction enabled: false
Boxcar width: 0
XAxis mode: Wavelengths
Number of Pixels in Spectrum: 2048
>>>>>Begin Spectral Data<<<<<
341.393	7.73
341.776	7.73
342.16	7.73
342.543	-61.42
342.927	-79.96
343.31	-69.33
343.693	-72.05
344.077	-61.2
344.46	-64.81
344.843	-55.32
345.226	-31.82
345.61	-33.4
345.993	-19.62
346.376	-16.91
346.759	-0.18
347.142	37.33
347.525	45.01
347.908	67.16
348.291	75.75
348.674	94.28
349.057	105.12
349.44	149.42
349.823	144.45
350.206	170.66
350.588	216.08
350.971	215.18
351.354	217.66
351.737	235.97
352.119	266.93
352.502	243.88
352.884	263.99
353.267	281.16
353.65	282.52
354.032	307.6
354.414	304.22
354.797	309.64
355.179	311.67
355.562	339.02
355.944	329.98
356.326	334.04
356.709	332.69
357.091	339.02
357.473	341.28
357.855	344.44
358.238	342.63
358.62	337.66
359.002	340.6
359.384	369.07
359.766	340.37
360.148	333.14
360.53	333.37
360.912	335.4
361.294	334.95
361.676	331.11
362.057	322.97
362.439	340.15
362.821	328.62
363.203	346.7
363.584	321.39
363.966	325.46
364.348	337.66
364.729	326.59
365.111	315.97
365.493	319.58
365.874	303.76
366.256	325.46
366.637	325.46
367.019	315.51
367.4	296.31
367.781	328.4
368.163	322.75
368.544	304.89
368.925	300.15
369.306	299.7
369.688	340.37
370.069	323.2
370.45	296.76
370.831	304.89
371.212	338.79
371.593	316.19
371.974	315.29
372.355	306.47
372.736	316.87
373.117	304.44
373.498	329.53
373.879	331.33
374.26	313.93
374.641	336.76
375.021	328.17
375.402	331.79
375.783	325.23
376.163	344.67
376.544	325.46
376.925	329.07
377.305	333.37
377.686	324.55
378.066	332.46
378.447	348.51
378.827	323.88
379.208	334.27
379.588	345.57
379.968	344.44
380.349	345.34
380.729	334.72
381.109	352.8
381.489	350.77
381.87	343.99
382.25	338.11
382.63	358.45
383.01	343.99
383.39	362.97
383.77	370.43
384.15	344.21
384.53	350.99
384.91	351.22
385.29	358.68
385.67	337.21
386.049	348.06
386.429	359.13
386.809	357.32
387.189	366.36
387.568	361.61
387.948	372.24
388.328	378.56
388.707	374.04
389.087	356.19
389.466	365
389.846	362.07
390.225	361.39
390.605	370.43
390.984	368.85
391.363	377.89
391.743	389.18
392.122	391.67
392.501	364.1
392.881	369.98
393.26	399.81
393.639	379.24
394.018	386.25
394.397	367.49
394.776	384.21
395.155	400.26
395.534	404.33
395.913	385.34
396.292	395.06
396.671	388.73
397.05	386.7
397.429	393.48
397.808	396.42
398.186	401.16
398.565	376.76
398.944	404.1
399.323	397.32
399.701	416.53
400.08	411.11
400.458	408.85
400.837	395.74
401.215	421.95
401.594	411.33
401.972	412.91
402.351	433.48
402.729	426.47
403.107	407.72
403.486	423.08
403.864	409.3
404.242	425.12
404.62	428.28
404.999	442.74
405.377	418.11
405.755	439.13
406.133	423.99
406.511	426.25
406.889	428.05
407.267	447.94
407.645	448.17
408.023	456.08
408.401	441.39
408.779	452.69
409.156	431.22
409.534	469.18
409.912	454.49
410.29	469.63
410.667	452.23
411.045	461.27
411.422	473.02
411.8	485.45
412.178	486.36
412.555	473.48
412.933	478
413.31	470.54
413.687	469.41
414.065	492.23
414.442	519.58
414.819	492.23
415.197	506.92
415.574	517.54
415.951	502.85
416.328	521.16
416.705	518.67
417.082	482.29
417.46	519.35
417.837	535.4
418.214	521.61
418.591	541.5
418.967	508.28
419.344	510.31
419.721	538.56
420.098	539.01
420.475	547.6
420.852	549.18
421.228	546.69
421.605	538.33
421.982	555.06
422.358	556.19
422.735	567.03
423.111	561.61
423.488	576.07
423.864	574.72
424.241	577.43
424.617	576.07
424.994	566.13
425.37	580.14
425.746	573.59
426.123	595.28
426.499	588.5
426.875	595.73
427.251	593.47
427.627	626.92
428.003	606.81
428.379	628.73
428.756	609.97
429.132	646.13
429.507	652.68
429.883	653.36
430.259	651.32
430.635	661.72
431.011	683.64
431.387	653.36
431.763	648.61
432.138	635.05
432.514	682.06
432.89	700.59
433.265	679.35
433.641	688.84
434.016	677.31
434.392	701.27
434.767	707.59
435.143	688.39
435.518	705.11
435.894	708.27
436.269	724.32
436.644	739.91
437.02	739.68
437.395	722.74
437.77	750.31
438.145	743.53
438.52	765.45
438.895	766.58
439.271	770.64
439.646	774.49
440.021	774.71
440.395	784.43
440.77	760.47
441.145	781.04
441.52	797.76
441.895	799.12
442.27	822.85
442.645	790.3
443.019	825.56
443.394	809.74
443.769	803.41
444.143	822.39
444.518	850.42
444.892	814.03
445.267	828.72
445.641	832.34
446.016	831.21
446.39	861.71
446.764	864.43
447.139	848.83
447.513	858.32
447.887	875.05
448.262	844.77
448.636	859.91
449.01	889.96
449.384	896.29
449.758	890.64
450.132	901.04
450.506	910.98
450.88	923.18
451.254	898.78
451.628	935.61
452.002	944.65
452.376	933.35
452.75	964.54
453.123	981.94
453.497	967.7
453.871	968.6
454.244	1006.57
454.618	1010.19
454.992	982.62
455.365	1001.15
455.739	1021.71
456.112	1005.89
456.486	1033.69
456.859	1045.66
457.232	1035.5
457.606	1047.7
457.979	1077.98
458.352	1105.32
458.725	1088.15
459.099	1116.85
459.472	1142.61
459.845	1151.88
460.218	1129.73
460.591	1152.78
460.964	1192.33
461.337	1179.45
461.71	1181.03
462.083	1222.61
462.456	1224.64
462.829	1247.02
463.201	1228.48
463.574	1245.66
463.947	1216.51
464.32	1302.83
464.692	1298.99
465.065	1302.61
465.438	1318.65
465.81	1333.79
466.183	1348.48
466.555	1352.1
466.928	1361.14
467.3	1401.14
467.672	1394.58
468.045	1440.91
468.417	1447.01
468.789	1439.33
469.161	1458.76
469.534	1518.65
469.906	1536.95
470.278	1544.41
470.65	1549.38
471.022	1583.28
471.394	1592.77
471.766	1642.71
472.138	1656.72
472.51	1696.04
472.882	1738.75
473.253	1758.87
473.625	1757.74
473.997	1829.15
474.369	1818.98
474.74	1853.55
475.112	1889.48
475.484	1927.9
475.855	1975.58
476.227	2005.64
476.598	2039.54
476.97	2073.21
477.341	2115.92
477.713	2123.6
478.084	2117.95
478.455	2222.13
478.827	2259.87
479.198	2315.69
479.569	2356.14
479.94	2447.66
480.311	2446.31
480.682	2516.81
481.053	2580.99
481.424	2619.18
481.795	2677.71
482.166	2711.38
482.537	2742.57
482.908	2827.09
483.279	2891.49
483.65	2913.41
484.021	2979.85
484.391	3028.21
484.762	3084.26
485.133	3132.16
485.503	3178.26
485.874	3262.78
486.244	3313.85
486.615	3395.21
486.985	3451.93
487.356	3510.68
487.726	3589.78
488.097	3632.72
488.467	3658.7
488.837	3791.36
489.207	3837.23
489.578	3889.43
489.948	3992.25
490.318	4052.59
490.688	4088.07
491.058	4166.94
491.428	4233.38
491.798	4270.66
492.168	4376.42
492.538	4439.93
492.908	4526.93
493.278	4559.02
493.648	4620.94
494.017	4661.16
494.387	4702.29
494.757	4786.36
495.126	4831.78
495.496	4887.82
495.866	4887.82
496.235	4996.52
496.605	5058.21
496.974	5065.22
497.344	5167.59
497.713	5211.88
498.082	5243.52
498.452	5307.7
498.821	5406.23
499.19	5396.74
499.559	5469.28
499.928	5547.02
500.298	5549.95
500.667	5612.55
501.036	5661.36
501.405	5689.84
501.774	5719.89
502.143	5798.31
502.512	5821.36
502.88	5857.52
503.249	5876.27
503.618	5921.47
503.987	5996.04
504.356	6027.68
504.724	6060
505.093	6072.88
505.462	6139.77
505.83	6203.27
506.199	6225.19
506.567	6337.05
506.936	6364.17
507.304	6384.51
507.672	6410.04
508.041	6438.07
508.409	6507.89
508.777	6529.59
509.145	6568.01
509.514	6589.02
509.882	6667.21
510.25	6682.35
510.618	6682.35
510.986	6758.96
511.354	6836.25
511.722	6882.8
512.09	6890.93
512.458	6889.35
512.826	6968.67
513.193	7011.84
513.561	6979.75
513.929	7070.14
514.297	7102.68
514.664	7166.63
515.032	7136.13
515.4	7225.39
515.767	7209.57
516.135	7304.94
516.502	7272.62
516.869	7337.02
517.237	7420.64
517.604	7364.59
517.972	7426.06
518.339	7460.64
518.706	7571.59
519.073	7480.98
519.44	7619.96
519.808	7649.33
520.175	7675.32
520.542	7727.52
520.909	7767.97
521.276	7782.21
521.643	7857.46
522.009	7884.81
522.376	7891.36
522.743	7953.05
523.11	7997.12
523.477	8082.77
523.843	8078.47
524.21	8176.32
524.577	8226.49
524.943	8225.36
525.31	8295.42
525.676	8380.16
526.043	8398.01
526.409	8503.55
526.776	8520.5
527.142	8504
527.508	8594.84
527.874	8646.59
528.241	8650.66
528.607	8722.52
528.973	8736.76
529.339	8857.89
529.705	8873.71
530.071	8977.21
530.437	8970.88
530.803	8974.5
531.169	9077.09
531.535	9069.41
531.901	9079.35
532.267	9153.93
532.632	9184.89
532.998	9283.41
533.364	9286.8
533.73	9347.59
534.095	9391.43
534.461	9381.72
534.826	9494.71
535.192	9531.32
535.557	9534.25
535.923	9566.8
536.288	9623.07
536.653	9686.79
537.019	9585.55
537.384	9714.36
537.749	9744.64
538.114	9778.77
538.479	9851.08
538.845	9857.41
539.21	9882.72
539.575	9956.39
539.94	9972.66
540.305	10033.22
540.67	10018.08
541.034	10040.68
541.399	10074.81
541.764	10118.19
542.129	10222.6
542.494	10234.35
542.858	10304.18
543.223	10315.03
543.587	10404.06
543.952	10401.8
544.316	10511.4
544.681	10488.13
545.045	10448.36
545.41	10604.06
545.774	10648.8
546.138	10597.5
546.503	10597.5
546.867	10701.91
547.231	10762.25
547.595	10846.76
547.959	10781.68
548.324	10825.97
548.688	10873.2
549.052	10893.99
549.416	10977.83
549.779	11024.61
550.143	11069.36
550.507	11080.88
550.871	11180.09
551.235	11208.11
551.599	11246.53
551.962	11261.22
552.326	11294.43
552.689	11253.08
553.053	11401.32
553.417	11372.85
553.78	11470.7
554.143	11372.85
554.507	11491.49
554.87	11560.64
555.234	11622.11
555.597	11569.68
555.96	11634.76
556.323	11668.89
556.686	11631.6
557.05	11767.19
557.413	11829.34
557.776	11747.08
558.139	11924.7
558.502	11863.23
558.865	11965.83
559.228	12028.2
559.59	12051.02
559.953	12065.49
560.316	12138.48
560.679	12159.95
561.041	12213.05
561.404	12246.73
561.767	12366.95
562.129	12344.12
562.492	12410.34
562.854	12488.75
563.217	12382.32
563.579	12491.47
563.941	12584.57
564.304	12587.06
564.666	12717.45
565.028	12675.87
565.39	12716.54
565.753	12842.42
566.115	12797.67
566.477	12914.05
566.839	12902.75
567.201	12980.04
567.563	13025.91
567.925	13051.68
568.287	13042.41
568.648	13134.61
569.01	13235.63
569.372	13284.44
569.734	13260.71
570.095	13392.23
570.457	13433.81
570.819	13479.24
571.18	13522.62
571.542	13627.03
571.903	13619.12
572.265	13687.37
572.626	13738.89
572.987	13836.06
573.349	13848.94
573.71	14023.85
574.071	14030.18
574.432	14090.52
574.794	14238.99
575.155	14290.97
575.516	14228.59
575.877	14398.08
576.238	14431.75
576.599	14532.77
576.96	14622.03
577.32	14702.25
577.681	14865.64
578.042	14960.33
578.403	15026.31
578.763	15096.82
579.124	15264.5
579.485	15414.55
579.845	15597.15
580.206	15636.02
580.566	15714.21
580.927	15897.03
581.287	16145.83
581.648	16200.52
582.008	16452.72
582.368	16516.44
582.728	16729.55
583.089	16860.16
583.449	17044.34
583.809	17315.29
584.169	17594.38
584.529	17572.91
584.889	17925.67
585.249	18037.76
585.609	18180.13
585.969	18505.09
586.329	18711.87
586.688	18962.93
587.048	19124.06
587.408	19188.24
587.768	19641.11
588.127	19740.09
588.487	19929.46
588.846	20321.99
589.206	20438.38
589.565	20764.24
589.925	21055.99
590.284	21323.78
590.643	21538.69
591.003	21828.85
591.362	22186.13
591.721	22398.55
592.08	22613.01
592.44	22946.11
592.799	23236.27
593.158	23472.42
593.517	23759.19
593.876	24006.64
594.235	24263.59
594.593	24639.39
594.952	24995.77
595.311	25072.83
595.67	25416.55
596.029	25790.55
596.387	26036.42
596.746	26433.92
597.104	26591.89
597.463	26826.46
597.822	27193.45
598.18	27413.11
598.538	27686.77
598.897	28141.68
599.255	28037.27
599.613	28837.93
599.972	28871.6
600.33	29145.72
600.688	29312.04
601.046	29505.03
601.404	30027.28
601.762	30175.75
602.12	30491.67
602.478	30762.4
602.836	30941.83
603.194	30963.52
603.552	31303.4
603.91	31366.22
604.268	31963.5
604.625	31980.22
604.983	32323.26
605.341	32378.85
605.698	32755.57
606.056	33044.6
606.413	33201.66
606.771	33542.21
607.128	33751.02
607.485	33679.61
607.843	33956.66
608.2	34400.72
608.557	34480.49
608.914	34704.89
609.272	34975.62
609.629	35040.02
609.986	35459.9
610.343	35469.17
610.7	35853.56
611.057	35962.03
611.414	35987.8
611.771	36379.2
612.127	36470.72
612.484	36752.3
612.841	36838.62
613.198	36805.4
613.554	37052.85
613.911	37302.56
614.267	37460.53
614.624	37684.25
614.98	37759.5
615.337	37967.63
615.693	38051.92
616.05	38216.21
616.406	38512.93
616.762	38373.04
617.118	38613.72
617.475	38680.16
617.831	38900.49
618.187	38999.69
618.543	39240.59
618.899	39523.07
619.255	39579.34
619.611	39695.72
619.967	39683.29
620.323	39908.82
620.678	39854.59
621.034	39846.45
621.39	39957.41
621.746	40037.63
622.101	40341.35
622.457	40208.7
622.812	40425.19
623.168	40608.69
623.523	40411.86
623.879	40647.34
624.234	40660.44
624.589	40779.76
624.945	40912.19
625.3	40944.05
625.655	40988.34
626.01	41139.75
626.365	41088.23
626.72	41219.52
627.075	41276.02
627.43	41279.86
627.785	41153.54
628.14	41454.77
628.495	41575.67
628.85	41488.67
629.205	41349.24
629.559	41538.39
629.914	41553.3
630.269	41461.55
630.623	41391.72
630.978	41392.17
631.332	41704.93
631.687	41760.53
632.041	41604.15
632.396	41792.39
632.75	41640.98
633.104	41748.78
633.459	41530.93
633.813	41613.64
634.167	41622.9
634.521	41611.83
634.875	41811.6
635.229	41634.2
635.583	41540.19
635.937	41591.94
636.291	41563.47
636.645	41513.75
636.999	41525.05
637.352	41674.2
637.706	41411.83
638.06	41614.99
638.413	41494.32
638.767	41417.03
639.121	41531.83
639.474	41335.45
639.828	41445.73
640.181	41448.22
640.534	41491.15
640.888	41433.53
641.241	41251.61
641.594	41333.42
641.947	41463.13
642.301	41450.25
642.654	41342.23
643.007	41441.21
643.36	41138.62
643.713	41185.85
644.066	41381.78
644.419	41244.83
644.771	40868.57
645.124	40634.45
645.477	40618.86
645.83	40308.59
646.182	40145.88
646.535	40103.62
646.888	40055.49
647.24	39949.05
647.593	40338.19
647.945	39994.47
648.298	39888.49
648.65	39862.5
649.002	39662.73
649.355	40045.54
649.707	40067.01
650.059	40175.48
650.411	40554.23
650.763	40532.99
651.115	41036.48
651.467	40993.77
651.819	40911.28
652.171	40812.08
652.523	40665.19
652.875	40799.65
653.227	40417.96
653.578	40772.3
653.93	40678.75
654.282	40548.58
654.633	40450.05
654.985	40581.35
655.337	40661.12
655.688	40542.25
656.039	40751.97
656.391	40397.85
656.742	40382.71
657.094	40454.8
657.445	40583.61
657.796	40377.96
658.147	40304.29
658.498	40428.81
658.849	40521.91
659.2	40429.04
659.551	40375.93
659.902	40555.59
660.253	40319.89
660.604	40491.63
660.955	40304.97
661.306	40273.33
661.656	40283.5
662.007	40431.07
662.358	40388.58
662.708	40333.67
663.059	40346.55
663.409	39900.46
663.76	40402.82
664.11	40358.08
664.461	40265.2
664.811	40318.3
665.161	40224.52
665.511	40182.71
665.862	40301.81
666.212	40470.62
666.562	40372.54
666.912	40359.66
667.262	40104.75
667.612	40275.37
667.962	40341.35
668.312	40378.19
668.662	40285.31
669.011	40304.52
669.361	40208.93
669.711	40093.9
670.06	40132.77
670.41	40105.65
670.76	40060.01
671.109	40116.05
671.459	40159.89
671.808	40006.45
672.157	40215.48
672.507	39826.34
672.856	39960.8
673.205	40050.29
673.554	39916.05
673.904	39987.01
674.253	40151.75
674.602	39845.32
674.951	39366.46
675.3	39182.74
675.649	39822.05
675.998	39711.09
676.346	39787.47
676.695	39931.42
677.044	39661.15
677.393	39796.74
677.741	39800.58
678.09	39763.74
678.438	39655.95
678.787	39757.19
679.135	39582.73
679.484	39434.71
679.832	39625.22
680.181	39269.97
680.529	39559.23
680.877	39331.66
681.225	39408.05
681.573	39587.7
681.922	39333.02
682.27	39208.73
682.618	39252.34
682.966	38988.4
683.314	39055.51
683.661	39161.72
684.009	38887.16
684.357	38868.17
684.705	38696.65
685.053	38644.22
685.4	38643.32
685.748	38560.84
686.095	38465.25
686.443	38449.2
686.79	38279.94
687.138	38403.78
687.485	38357
687.832	38189.77
688.18	38355.87
688.527	38144.8
688.874	37992.04
689.221	37969.21
689.568	37926.28
689.915	37790.69
690.262	37768.54
690.609	37639.5
690.956	37698.03
691.303	37599.73
691.65	37454.88
691.997	37456.91
692.344	37128.56
692.69	37217.82
693.037	37089.91
693.383	37006.3
693.73	37119.97
694.077	36732.86
694.423	36708.46
694.769	36624.62
695.116	36583.94
695.462	36619.87
695.808	36383.27
696.155	36410.61
696.501	36142.14
696.847	36208.58
697.193	35867.8
697.539	36065.31
697.885	35659.67
698.231	35608.82
698.577	35640.69
698.923	35603.85
699.269	35456.51
699.614	35329.51
699.96	35329.96
700.306	35319.57
700.651	35077.09
700.997	35083.19
701.342	35008.16
701.688	34931.55
702.033	34878.22
702.379	34830.76
702.724	34791.67
703.069	34878.22
703.415	34365.24
703.76	34383.55
704.105	34429.42
704.45	34394.39
704.795	34048.86
705.14	34142.42
705.485	34094.74
705.83	33903.78
706.175	33998.47
706.52	33735.43
706.865	33677.35
707.209	33618.37
707.554	33599.16
707.899	33733.39
708.243	33328.21
708.588	33454.08
708.932	33191.94
709.277	33064.03
709.621	33197.59
709.966	32926.86
710.31	33165.5
710.654	32681.22
710.998	32763.02
711.342	32934.32
711.687	32830.37
712.031	32527.77
712.375	32457.27
712.719	32523.03
713.063	32393.31
713.407	32497.72
713.75	32309.93
714.094	32214.79
714.438	32231.06
714.782	32170.04
715.125	32108.35
715.469	32085.53
715.812	31937.28
716.156	31855.02
716.499	31846.44
716.843	31758.53
717.186	31623.84
717.53	31904.06
717.873	31725.99
718.216	31673.11
718.559	31551.98
718.902	31287.58
719.246	31468.14
719.589	31330.07
719.932	31167.36
720.275	31142.27
720.617	31168.71
720.96	31106.8
721.303	31069.73
721.646	31137.75
721.989	30975.95
722.331	30890.3
722.674	30810.31
723.016	30819.57
723.359	30812.79
723.701	30835.62
724.044	30519.47
724.386	30465.91
724.729	30611.89
725.071	30444.21
725.413	30437.66
725.755	30413.71
726.097	30456.64
726.439	30163.77
726.782	30228.63
727.124	30313.82
727.465	30112.24
727.807	30039.03
728.149	29939.59
728.491	29980.27
728.833	29908.63
729.175	29954.73
729.516	29820.05
729.858	29775.53
730.199	29820.95
730.541	29838.35
730.882	29618.47
731.224	29701.41
731.565	29542.32
731.906	29646.04
732.248	29617.79
732.589	29339.16
732.93	29453.05
733.271	29319.27
733.612	29392.04
733.953	29406.27
734.294	29213.51
734.635	29244.92
734.976	29253.51
735.317	29104.59
735.658	29112.95
735.999	28962.9
736.339	28877.25
736.68	29119.95
737.021	28870.47
737.361	28870.02
737.702	28985.95
738.042	28807.19
738.383	28786.86
738.723	28896.68
739.063	28676.8
739.404	28746.86
739.744	28649.23
740.084	28560.42
740.424	28605.84
740.764	28505.73
741.104	28571.49
741.444	28452.4
741.784	28283.14
742.124	28409.01
742.464	28427.32
742.804	28339.64
743.143	28150.26
743.483	28321.11
743.823	28104.16
744.162	28209.24
744.502	28136.48
744.841	27987.56
745.181	28135.57
745.52	28054.45
745.86	28144.39
746.199	27930.83
746.538	27928.57
746.877	27917.73
747.216	27817.84
747.556	27874.79
747.895	27828.01
748.234	27751.4
748.573	27602.71
748.911	27615.36
749.25	27572.88
749.589	27508.25
749.928	27512.77
750.267	27550.96
750.605	27434.12
750.944	27292.43
751.283	27289.27
751.621	27238.87
751.96	27291.3
752.298	27183.06
752.636	27097.63
752.975	27019.22
753.313	27080.91
753.651	27089.95
753.989	26849.28
754.327	26956.4
754.666	26808.83
755.004	26693.58
755.342	26761.6
755.679	26762.73
756.017	26689.06
756.355	26680.7
756.693	26546.24
757.031	26548.04
757.368	26385.79
757.706	26381.5
758.044	26184.66
758.381	26309.18
758.719	26271.44
759.056	26251.1
759.394	26213.36
759.731	26020.15
760.068	25963.88
760.405	25899.02
760.743	25625.13
761.08	25866.03
761.417	25753.94
761.754	25599.6
762.091	25748.97
762.428	25451.8
762.765	25421.29
763.102	25419.04
763.438	25389.66
763.775	25146.05
764.112	25175.88
764.449	25262.65
764.785	25074.41
765.122	24964.58
765.458	24832.84
765.795	24838.03
766.131	24815.89
766.467	24638.49
766.804	24553.52
767.14	24403.02
767.476	24452.05
767.812	24297.48
768.148	24462.68
768.485	24133.87
768.821	24115.57
769.157	24051.61
769.492	24017.49
769.828	24103.59
770.164	23877.15
770.5	23737.72
770.836	23643.49
771.171	23624.28
771.507	23537.05
771.842	23316.04
772.178	23299.09
772.513	23221.35
772.849	23269.94
773.184	23048.48
773.519	23082.83
773.855	22986.56
774.19	22845.32
774.525	22808.71
774.86	22833.11
775.195	22747.69
775.53	22530.07
775.865	22515.16
776.2	22306.12
776.535	22253.69
776.87	22295.73
777.205	22197.2
777.539	21970.09
777.874	22052.34
778.209	21895.06
778.543	21952.23
778.878	21741.84
779.212	21807.6
779.547	21564
779.881	21646.7
780.215	21392.93
780.55	21553.6
780.884	21330.33
781.218	21222.99
781.552	21292.36
781.886	21080.84
782.22	21001.75
782.554	20907.52
782.888	20739.16
783.222	20697.58
783.556	20673.85
783.889	20630.69
784.223	20358.15
784.557	20473.18
784.89	20393.86
785.224	20295.78
785.557	20226.63
785.891	20182.34
786.224	20088.55
786.558	20136.24
786.891	19929.46
787.224	19810.37
787.557	19791.39
787.891	19710.71
788.224	19780.31
788.557	19727.43
788.89	19663.71
789.223	19539.87
789.556	19361.12
789.888	19347.56
790.221	19240.67
790.554	19096.94
790.887	19158.41
791.219	19091.97
791.552	19028.24
791.884	18941.92
792.217	18867.79
792.549	18792.32
792.882	18741.47
793.214	18579.44
793.546	18556.16
793.879	18542.38
794.211	18431.42
794.543	18466.68
794.875	18418.09
795.207	18433.91
795.539	18281.82
795.871	18204.99
796.203	18149.62
796.535	17953.02
796.867	17994.82
797.198	17941.94
797.53	17914.6
797.862	17805.45
798.193	17799.12
798.525	17596.42
798.856	17809.74
799.188	17552.12
799.519	17464.44
799.85	17476.64
800.182	17394.61
800.513	17386.25
800.844	17151
801.175	17428.51
801.506	17311.45
801.837	17148.97
802.168	17176.54
802.499	17116.65
802.83	17066.26
803.161	16935.87
803.491	16953.27
803.822	16830.11
804.153	16866.04
804.483	16660.17
804.814	16626.05
805.145	16712.37
805.475	16644.58
805.805	16577.23
806.136	16582.88
806.466	16538.14
806.796	16482.77
807.126	16333.17
807.457	16347.41
807.787	16301.53
808.117	16276.45
808.447	16141.09
808.777	16247.52
809.107	16144.93
809.436	16067.19
809.766	16007.76
810.096	15977.02
810.426	15855.67
810.755	15900.87
811.085	15961.88
811.414	15845.28
811.744	15724.6
812.073	15700.19
812.403	15757.37
812.732	15584.94
813.061	15599.18
813.39	15488.67
813.719	15429.92
814.049	15508.34
814.378	15486.41
814.707	15338.4
815.036	15403.93
815.365	15322.8
815.693	15125.29
816.022	15227.89
816.351	15083.04
816.68	15129.81
817.008	15136.14
817.337	14989.25
817.665	14978.63
817.994	14950.38
818.322	14947.67
818.651	14835.81
818.979	14779.31
819.307	14957.39
819.636	14789.94
819.964	14702.93
820.292	14724.4
820.62	14797.17
820.948	14738.19
821.276	14792.87
821.604	14616.61
821.932	14693.22
822.259	14679.88
822.587	14664.06
822.915	14609.6
823.243	14627.68
823.57	14629.94
823.898	14692.09
824.225	14615.25
824.553	14522.82
824.88	14594.23
825.207	14627
825.535	14566.89
825.862	14619.77
826.189	14608.7
826.516	14666.1
826.843	14609.6
827.17	14574.12
827.497	14578.87
827.824	14656.38
828.151	14597.62
828.478	14532.32
828.805	14627.23
829.131	14510.17
829.458	14517.17
829.785	14475.14
830.111	14448.93
830.438	14597.4
830.764	14488.47
831.09	14488.47
831.417	14488.93
831.743	14518.08
832.069	14497.97
832.395	14455.26
832.722	14573.44
833.048	14443.73
833.374	14398.08
833.7	14375.03
834.026	14433.34
834.351	14415.26
834.677	14420
835.003	14422.04
835.329	14454.8
835.654	14404.18
835.98	14255.71
836.306	14336.16
836.631	14244.41
836.956	14369.61
837.282	14296.39
837.607	14190.63
837.932	14187.92
838.258	14238.54
838.583	14125.32
838.908	14104.3
839.233	14117.19
839.558	14111.08
839.883	14063.18
840.208	13926
840.533	13918.55
840.858	14011.43
841.182	13982.5
841.507	13967.13
841.832	13926.23
842.156	13856.85
842.481	13790.64
842.805	13815.72
843.13	13832.45
843.454	13777.53
843.778	13637.88
844.103	13649.85
844.427	13701.83
844.751	13626.35
845.075	13600.14
845.399	13530.99
845.723	13449.86
846.047	13515.17
846.371	13336.87
846.695	13407.37
847.019	13296.87
847.343	13184.78
847.666	13090.77
847.99	13103.2
848.313	13083.54
848.637	12970.32
848.96	12954.5
849.284	12885.58
849.607	12874.05
849.931	12858.69
850.254	12686.71
850.577	12690.78
850.9	12554.06
851.223	12618.02
851.546	12535.53
851.869	12430.22
852.192	12499.6
852.515	12407.85
852.838	12290.57
853.161	12356.33
853.483	12226.84
853.806	12233.84
854.129	12201.76
854.451	12105.26
854.774	12068.2
855.096	12100.29
855.419	12048.54
855.741	11976.9
856.063	11923.34
856.385	11834.31
856.708	11780.07
857.03	11903.46
857.352	11828.43
857.674	11774.87
857.996	11763.8
858.318	11592.51
858.64	11705.72
858.961	11709.56
859.283	11561.32
859.605	11513.64
859.926	11531.49
860.248	11477.71
860.57	11413.3
860.891	11444.04
861.212	11364.72
861.534	11380.99
861.855	11401.1
862.176	11373.53
862.498	11406.97
862.819	11338.5
863.14	11246.98
863.461	11274.77
863.782	11205.4
864.103	11253.98
864.424	11150.03
864.745	11159.3
865.065	11079.07
865.386	11096.25
865.707	11089.02
866.027	11108
866.348	11031.16
866.668	11036.59
866.989	10976.48
867.309	10981.9
867.63	10970.6
867.95	10915.69
868.27	10921.79
868.59	10870.04
868.91	10937.16
869.23	10835.24
869.55	10792.3
869.87	10817.16
870.19	10793.43
870.51	10823.03
870.83	10809.93
871.15	10710.95
871.469	10765.41
871.789	10726.54
872.109	10738.29
872.428	10711.17
872.748	10737.61
873.067	10586.43
873.386	10713.88
873.706	10712.98
874.025	10597.28
874.344	10571.06
874.663	10588.69
874.982	10531.06
875.301	10493.33
875.62	10532.87
875.939	10443.84
876.258	10530.61
876.577	10453.1
876.896	10425.76
877.214	10358.87
877.533	10476.6
877.852	10346.89
878.17	10357.06
878.489	10378.75
878.807	10349.37
879.125	10332.65
879.444	10372.2
879.762	10306.89
880.08	10316.16
880.398	10212.66
880.716	10264.41
881.034	10199.55
881.352	10222.6
881.67	10161.58
881.988	10173.56
882.306	10163.39
882.624	10135.6
882.941	10068.93
883.259	10090.4
883.577	9998.65
883.894	10031.87
884.212	10017.41
884.529	10007.46
884.846	9953.9
885.164	9969.95
885.481	9929.5
885.798	9977.41
886.115	9825.32
886.432	9856.73
886.75	9837.07
887.067	9809.73
887.383	9728.15
887.7	9775.15
888.017	9628.72
888.334	9666.23
888.651	9614.48
888.967	9595.5
889.284	9583.97
889.6	9553.92
889.917	9525.44
890.233	9516.85
890.55	9442.51
890.866	9542.84
891.182	9430.08
891.498	9428.72
891.815	9359.57
892.131	9395.05
892.447	9384.88
892.763	9301.49
893.079	9353.02
893.395	9300.14
893.71	9294.94
894.026	9253.36
894.342	9165.23
894.657	9151.44
894.973	9090.65
895.289	9119.35
895.604	9124.55
895.92	8952.8
896.235	9055.62
896.55	9018.56
896.865	8927.72
897.181	8902.18
897.496	8901.28
897.811	8865.57
898.126	8811.56
898.441	8774.73
898.756	8756.65
899.071	8625.58
899.386	8773.6
899.7	8682.98
900.015	8618.12
900.33	8533.83
900.644	8495.41
900.959	8543.77
901.273	8524.79
901.588	8485.47
901.902	8397.11
902.216	8358.01
902.531	8438.46
902.845	8349.2
903.159	8334.74
903.473	8335.42
903.787	8220.17
904.101	8172.26
904.415	8188.08
904.729	8157.34
905.042	8094.52
905.356	8111.47
905.67	8100.17
905.984	8066.95
906.297	8007.29
906.611	7974.07
906.924	7923.68
907.237	7905.6
907.551	7970.45
907.864	7850.91
908.177	7836.22
908.491	7831.7
908.804	7766.84
909.117	7752.15
909.43	7722.78
909.743	7689.78
910.056	7641.2
910.368	7610.24
910.681	7556.23
910.994	7534.99
911.307	7528.88
911.619	7532.5
911.932	7493.18
912.244	7354.2
912.557	7426.06
912.869	7351.26
913.181	7298.61
913.494	7371.15
913.806	7237.37
914.118	7303.35
914.43	7233.3
914.742	7212.06
915.054	7195.56
915.366	7128.89
915.678	7099.52
915.99	7050.7
916.302	7070.59
916.613	6951.95
916.925	6955.57
917.236	6984.27
917.548	6934.32
917.859	6941.33
918.171	6906.53
918.482	6877.38
918.794	6866.53
919.105	6832.18
919.416	6735.01
919.727	6746.53
920.038	6746.98
920.349	6686.65
920.66	6635.8
920.971	6625.63
921.282	6619.98
921.593	6529.59
921.903	6523.94
922.214	6485.3
922.525	6538.18
922.835	6410.5
923.146	6442.36
923.456	6418.63
923.767	6371.63
924.077	6349.71
924.387	6330.72
924.697	6317.39
925.008	6241.23
925.318	6276.49
925.628	6260.44
925.938	6210.73
926.248	6159.43
926.558	6152.87
926.867	6102.71
927.177	6104.74
927.487	6050.5
927.796	5983.39
928.106	6027.23
928.416	5986.78
928.725	5988.13
929.034	5941.58
929.344	5955.59
929.653	5950.17
929.962	5889.61
930.271	5845.09
930.581	5815.93
930.89	5765.31
931.199	5711.76
931.508	5712.43
931.817	5692.55
932.125	5704.3
932.434	5682.6
932.743	5577.52
933.051	5578.2
933.36	5589.95
933.669	5563.29
933.977	5556.51
934.286	5497.98
934.594	5533.46
934.902	5452.78
935.21	5435.83
935.519	5459.11
935.827	5428.83
936.135	5384.31
936.443	5338.66
936.751	5272.67
937.059	5301.82
937.367	5270.41
937.674	5225.67
937.982	5259.57
938.29	5200.81
938.597	5217.08
938.905	5163.97
939.213	5128.5
939.52	5130.53
939.827	5083.3
940.135	5083.75
940.442	5036.07
940.749	5030.87
941.056	5055.5
941.363	4971.66
941.67	4980.02
941.977	4909.07
942.284	4915.85
942.591	4931.44
942.898	4860.48
943.205	4857.54
943.511	4825.45
943.818	4783.42
944.125	4807.6
944.431	4786.81
944.738	4779.8
945.044	4750.65
945.35	4705.46
945.657	4677.21
945.963	4704.1
946.269	4615.29
946.575	4616.19
946.881	4621.39
947.187	4621.39
947.493	4599.24
947.799	4538.91
948.105	4589.53
948.41	4510.43
948.716	4527.83
949.022	4524.44
949.327	4485.57
949.633	4466.59
949.938	4418.46
950.244	4425.91
950.549	4378.01
950.854	4329.19
951.16	4334.62
951.465	4299.14
951.77	4302.3
952.075	4275.64
952.38	4283.32
952.685	4270.66
952.99	4244.22
953.294	4149.99
953.599	4185.7
953.904	4151.57
954.209	4131.23
954.513	4116.32
954.818	4092.82
955.122	4110.44
955.426	4107.73
955.731	4072.25
956.035	4025.7
956.339	4049.43
956.643	4018.69
956.948	4016.66
957.252	3970.56
957.556	3958.58
957.86	3945.7
958.163	3953.16
958.467	3935.98
958.771	3896.66
959.075	3912.71
959.378	3895.99
959.682	3880.84
959.985	3824.57
960.289	3822.77
960.592	3805.14
960.896	3779.15
961.199	3763.79
961.502	3761.75
961.805	3730.57
962.108	3720.17
962.411	3740.28
962.714	3643.11
963.017	3691.24
963.32	3673.84
963.623	3702.54
963.926	3606.5
964.228	3575.54
964.531	3581.87
964.833	3563.11
965.136	3590.46
965.438	3547.75
965.741	3562.21
966.043	3493.06
966.345	3473.4
966.648	3478.82
966.95	3473.4
967.252	3420.74
967.554	3456.9
967.856	3440.63
968.158	3391.59
968.46	3383.23
968.761	3414.87
969.063	3369.22
969.365	3354.76
969.666	3319.73
969.968	3316.57
970.269	3329.9
970.571	3304.59
970.872	3292.84
971.174	3251.93
971.475	3306.62
971.776	3199.05
972.077	3247.64
972.378	3195.89
972.679	3197.92
972.98	3178.04
973.281	3204.25
973.582	3125.16
973.883	3133.75
974.183	3136.46
974.484	3140.52
974.785	3121.54
975.085	3110.92
975.386	3094.2
975.686	3071.83
975.986	3022.34
976.287	3027.53
976.587	3057.82
976.887	2993.41
977.187	3011.71
977.487	2990.47
977.787	2941.21
978.087	2959.74
978.387	2950.25
978.687	2961.55
978.987	2914.77
979.286	2899.63
979.586	2884.49
979.885	2869.8
980.185	2854.2
980.484	2845.62
980.784	2823.92
981.083	2833.41
981.382	2811.72
981.682	2774.43
981.981	2751.83
982.28	2757.48
982.579	2789.57
982.878	2753.19
983.177	2758.84
983.475	2719.07
983.774	2711.84
984.073	2696.47
984.372	2669.58
984.67	2700.99
984.969	2652.18
985.267	2672.51
985.566	2622.12
985.864	2651.27
986.162	2661.89
986.461	2600.88
986.759	2591.84
987.057	2593.87
987.355	2569.69
987.653	2576.7
987.951	2552.29
988.249	2518.17
988.547	2567.88
988.844	2501.67
989.142	2528.11
989.44	2502.58
989.737	2492.18
990.035	2488.56
990.332	2475.23
990.63	2431.62
990.927	2427.32
991.224	2413.99
991.521	2377.38
991.819	2386.65
992.116	2388.91
992.413	2378.28
992.71	2372.64
993.006	2358.4
993.303	2364.05
993.6	2368.57
993.897	2330.38
994.193	2348.23
994.49	2306.87
994.787	2310.04
995.083	2296.25
995.379	2251.28
995.676	2249.02
995.972	2237.5
996.268	2232.3
996.565	2222.58
996.861	2208.57
997.157	2215.58
997.453	2178.29
997.749	2170.15
998.044	2191.17
998.34	2157.73
998.636	2172.87
998.932	2088.12
999.227	2150.95
999.523	2134.9
999.818	2072.98
1000.114	2088.58
1000.409	2079.54
1000.704	2062.81
1001	2071.63
1001.295	2059.65
1001.59	2073.21
1001.885	2026.2
1002.18	2042.47
1002.475	2043.38
1002.77	1997.28
1003.065	1982.59
1003.359	1996.83
1003.654	1971.97
1003.949	1964.28
1004.243	1950.27
1004.538	1943.04
1004.832	1912.08
1005.127	1901.01
1005.421	1909.14
1005.715	1898.75
1006.009	1862.14
1006.304	1847.9
1006.598	1881.12
1006.892	1868.24
1007.186	1873.21
1007.48	1835.25
1007.773	1811.52
1008.067	1816.04
1008.361	1831.18
1008.655	1827.79
1008.948	1749.15
1009.242	1760
1009.535	1750.28
1009.829	1774.46
1010.122	1724.29
1010.415	1742.6
1010.708	1743.27
1011.001	1732.43
1011.295	1715.03
1011.588	1692.2
1011.881	1678.64
1012.173	1709.15
1012.466	1656.95
1012.759	1665.76
1013.052	1670.96
1013.344	1676.16
1013.637	1637.97
1013.93	1607.01
1014.222	1649.49
1014.514	1602.49
1014.807	1589.61
1015.099	1571.07
1015.391	1572.88
1015.683	1543.73
1015.976	1572.2
1016.268	1534.92
1016.56	1531.3
1016.851	1516.84
1017.143	1507.35
1017.435	1511.42
1017.727	1487.91
1018.018	1486.56
1018.31	1469.83
1018.602	1432.77
1018.893	1453.11
1019.185	1439.78
1019.476	1456.5
1019.767	1445.65
1020.058	1424.41
1020.35	1413.11
1020.641	1434.58
1020.932	1383.73
1021.223	1400.46
1021.514	1390.97
1021.804	1385.09
1022.095	1352.1
1022.386	1345.32
1022.677	1320.23
1022.967	1345.32
1023.258	1323.17
1023.548	1309.84
1023.839	1328.82
1024.129	1321.59
1024.419	1292.21
1024.709	1293.57
1025	1258.31
1025.29	1287.24
1025.58	1253.12
1025.87	1273.91
1026.16	1268.94
1026.449	1270.07
1026.739	1228.03
1027.029	1231.42
1027.319	1206.34
1027.608	1204.08
1027.898	1211.54
1028.187	1204.08
1028.477	1174.7
1028.766	1176.96
1029.055	1178.09
1029.344	1154.81
1029.634	1145.32
1029.923	1134.48
1030.212	1127.92
1030.501	1125.66
1030.79	1131.76
1031.078	1141.71
1031.367	1110.97
1031.656	1116.4
1031.945	1108.49
1032.233	1079.56
1032.522	1084.08
1032.81	1096.74
1033.099	1037.98
1033.387	1073.91
1033.675	1055.38
1033.963	1038.21
1034.251	1037.3
1034.54	1022.39
1034.828	1034.59
1035.116	1008.6
1035.403	1010.41
1035.691	992.56
1035.979	1000.69
1036.267	1023.07
1036.554	991.43
1036.842	987.81
1037.129	973.12
1037.417	975.16
1037.704	958.44
1037.992	946.46
1038.279	936.29
1038.566	960.7
1038.853	960.7
1039.14	960.7
