Data from hue_10_FLMS001491_58.txt Node
Date: Mon Feb 06 15:32:09 GMT 2017
User: dcchb
Spectrometer: FLMS00149
Trigger mode: 0
Integration Time (sec): 2.000000E-2
Scans to average: 10
Electric dark correction enabled: true
Nonlinearity correction enabled: false
Boxcar width: 0
XAxis mode: Wavelengths
Number of Pixels in Spectrum: 2048
>>>>>Begin Spectral Data<<<<<
341.393	0.54
341.776	0.54
342.16	0.54
342.543	-58.22
342.927	-56.86
343.31	-63.87
343.693	-57.99
344.077	-67.94
344.46	-77.43
344.843	-48.28
345.226	-34.04
345.61	-38.11
345.993	-13.25
346.376	-25.23
346.759	6.41
347.142	32.4
347.525	51.83
347.908	74.21
348.291	61.1
348.674	99.74
349.057	100.42
349.44	120.08
349.823	128.67
350.206	167.54
350.588	181.77
350.971	186.52
351.354	214.54
351.737	229.68
352.119	256.35
352.502	255.45
352.884	267.87
353.267	269.46
353.65	292.73
354.032	315.33
354.414	294.77
354.797	318.27
355.179	318.27
355.562	319.85
355.944	317.36
356.326	306.29
356.709	318.72
357.091	350.13
357.473	336.12
357.855	336.8
358.238	333.41
358.62	347.19
359.002	344.03
359.384	342.9
359.766	334.77
360.148	337.03
360.53	325.05
360.912	310.59
361.294	332.73
361.676	327.53
362.057	302.45
362.439	337.48
362.821	299.51
363.203	318.72
363.584	328.66
363.966	305.16
364.348	329.79
364.729	314.2
365.111	311.49
365.493	313.3
365.874	325.73
366.256	321.21
366.637	311.71
367.019	308.78
367.4	323.92
367.781	323.47
368.163	303.81
368.544	332.73
368.925	297.93
369.306	299.29
369.688	289.34
370.069	293.41
370.45	292.28
370.831	322.34
371.212	309.91
371.593	318.95
371.974	322.79
372.355	300.64
372.736	316.91
373.117	324.82
373.498	312.62
373.879	316.01
374.26	317.82
374.641	316.01
375.021	308.78
375.402	329.12
375.783	331.6
376.163	341.54
376.544	324.82
376.925	317.36
377.305	316.46
377.686	321.66
378.066	304.94
378.447	312.62
378.827	321.88
379.208	326.18
379.588	342.22
379.968	320.3
380.349	323.92
380.729	293.41
381.109	316.91
381.489	341.32
381.87	334.54
382.25	313.07
382.63	365.27
383.01	316.91
383.39	334.77
383.77	335.22
384.15	349.45
384.53	353.07
384.91	352.62
385.29	333.64
385.67	327.31
386.049	338.38
386.429	335.9
386.809	338.15
387.189	344.48
387.568	357.36
387.948	340.87
388.328	367.53
388.707	360.08
389.087	352.39
389.466	351.71
389.846	347.19
390.225	364.14
390.605	359.4
390.984	346.97
391.363	355.1
391.743	369.11
392.122	357.59
392.501	358.27
392.881	363.01
393.26	358.04
393.639	368.21
394.018	359.17
394.397	356.69
394.776	371.37
395.155	367.76
395.534	378.38
395.913	361.21
396.292	360.53
396.671	363.24
397.05	373.63
397.429	376.57
397.808	388.55
398.186	373.86
398.565	368.66
398.944	388.55
399.323	377.02
399.701	367.31
400.08	382.9
400.458	369.34
400.837	387.65
401.215	379.74
401.594	387.19
401.972	378.61
402.351	377.48
402.729	392.16
403.107	387.65
403.486	374.54
403.864	389
404.242	387.42
404.62	406.18
404.999	402.33
405.377	400.07
405.755	400.07
406.133	395.33
406.511	402.79
406.889	413.63
407.267	416.12
407.645	407.08
408.023	407.53
408.401	429.9
408.779	415.22
409.156	432.39
409.534	417.47
409.912	409.57
410.29	411.15
410.667	435.55
411.045	418.83
411.422	444.59
411.8	414.99
412.178	433.75
412.555	400.98
412.933	453.18
413.31	446.17
413.687	454.54
414.065	441.66
414.442	471.94
414.819	426.51
415.197	463.58
415.574	457.25
415.951	472.39
416.328	469.22
416.705	445.27
417.082	482.56
417.46	476.23
417.837	490.92
418.214	461.54
418.591	455.44
418.967	460.86
419.344	502.22
419.721	472.16
420.098	472.84
420.475	477.59
420.852	483.69
421.228	488.66
421.605	491.37
421.982	518.94
422.358	509.9
422.735	514.65
423.111	502.9
423.488	499.96
423.864	520.75
424.241	497.25
424.617	544.7
424.994	508.09
425.37	503.57
425.746	527.98
426.123	522.33
426.499	541.54
426.875	525.95
427.251	547.87
427.627	563.46
428.003	547.19
428.379	530.69
428.756	547.87
429.132	555.1
429.507	561.2
429.883	559.17
430.259	564.82
430.635	580.63
431.011	579.96
431.387	578.15
431.763	601.42
432.138	593.52
432.514	609.33
432.89	596
433.265	589.67
433.641	614.53
434.016	608.66
434.392	594.42
434.767	619.05
435.143	620.63
435.518	619.28
435.894	636.9
436.269	619.05
436.644	650.24
437.02	646.4
437.395	640.52
437.77	637.36
438.145	672.38
438.52	644.14
438.895	677.81
439.271	687.3
439.646	685.26
440.021	682.33
440.395	687.75
440.77	674.64
441.145	696.79
441.52	706.05
441.895	687.07
442.27	689.56
442.645	686.62
443.019	694.53
443.394	707.41
443.769	709.9
444.143	699.73
444.518	729.56
444.892	721.87
445.267	718.48
445.641	712.38
446.016	724.13
446.39	728.2
446.764	744.25
447.139	734.98
447.513	759.61
447.887	732.04
448.262	760.52
448.636	744.25
449.01	758.03
449.384	771.36
449.758	765.26
450.132	767.52
450.506	810.23
450.88	772.72
451.254	782.44
451.628	775.66
452.002	789.67
452.376	801.42
452.75	785.37
453.123	796.9
453.497	806.84
453.871	823.34
454.244	822.89
454.618	854.75
454.992	849.33
455.365	847.75
455.739	843.45
456.112	864.92
456.486	879.61
456.859	875.77
457.232	866.95
457.606	884.36
457.979	910.34
458.352	929.1
458.725	925.94
459.099	929.33
459.472	917.8
459.845	946.5
460.218	975.88
460.591	948.99
460.964	943.79
461.337	989.21
461.71	1007.29
462.083	1013.62
462.456	992.6
462.829	1009.55
463.201	1025.14
463.574	1031.7
463.947	1033.5
464.32	1042.32
464.692	1073.5
465.065	1077.12
465.438	1086.16
465.81	1101.07
466.183	1112.37
466.555	1114.63
466.928	1121.19
467.3	1136.1
467.672	1140.17
468.045	1151.69
468.417	1150.11
468.789	1180.39
469.161	1217.45
469.534	1227.17
469.906	1229.2
470.278	1250.22
470.65	1277.79
471.022	1275.31
471.394	1285.02
471.766	1322.54
472.138	1329.09
472.51	1334.96
472.882	1365.47
473.253	1374.51
473.625	1407.28
473.997	1420.84
474.369	1434.4
474.74	1452.93
475.112	1477.56
475.484	1517.78
475.855	1552.13
476.227	1533.6
476.598	1577.67
476.97	1600.27
477.341	1641.62
477.713	1703.09
478.084	1660.83
478.455	1731.11
478.827	1730.43
479.198	1787.38
479.569	1772.02
479.94	1811.34
480.311	1852.92
480.682	1886.14
481.053	1906.25
481.424	1977.89
481.795	2015.17
482.166	2055.17
482.537	2041.61
482.908	2085.68
483.279	2130.2
483.65	2160.03
484.021	2183.53
484.391	2246.58
484.762	2246.81
485.133	2307.82
485.503	2327.93
485.874	2347.14
486.244	2433.24
486.615	2460.81
486.985	2466.46
487.356	2521.37
487.726	2541.49
488.097	2615.38
488.467	2609.06
488.837	2684.31
489.207	2705.32
489.578	2726.79
489.948	2796.4
490.318	2828.94
490.688	2868.48
491.058	2919.1
491.428	2914.58
491.798	2970.18
492.168	3031.42
492.538	3071.64
492.908	3076.84
493.278	3151.41
493.648	3131.08
494.017	3198.87
494.387	3223.95
494.757	3276.61
495.126	3284.74
495.496	3267.57
495.866	3382.14
496.235	3394.8
496.605	3395.48
496.974	3378.75
497.344	3472.31
497.713	3500.11
498.082	3531.97
498.452	3543.04
498.821	3548.92
499.19	3596.83
499.559	3603.61
499.928	3673.89
500.298	3646.54
500.667	3709.37
501.036	3686.09
501.405	3703.94
501.774	3772.64
502.143	3723.15
502.512	3800.21
502.88	3867.78
503.249	3813.09
503.618	3814.22
503.987	3877.04
504.356	3863.94
504.724	3896.25
505.093	3918.17
505.462	3921.34
505.83	3984.61
506.199	3991.62
506.567	4066.42
506.936	4049.47
507.304	4119.75
507.672	4117.72
508.041	4090.37
508.409	4158.39
508.777	4193.19
509.145	4195.91
509.514	4193.19
509.882	4204.49
510.25	4221.67
510.618	4237.94
510.986	4278.84
511.354	4291.72
511.722	4323.81
512.09	4296.92
512.458	4344.83
512.826	4382.79
513.193	4385.73
513.561	4366.3
513.929	4405.84
514.297	4452.4
514.664	4435.9
515.032	4504.37
515.4	4590.25
515.767	4507.99
516.135	4564.94
516.502	4477.26
516.869	4562
517.237	4584.37
517.604	4583.24
517.972	4609
518.339	4673.63
518.706	4661.43
519.073	4682.9
519.44	4708.89
519.808	4750.92
520.175	4714.76
520.542	4783.69
520.909	4773.74
521.276	4764.71
521.643	4866.85
522.009	4855.32
522.376	4875.89
522.743	4867.98
523.11	4948.43
523.477	4969.67
523.843	5009.22
524.21	5057.35
524.577	5065.94
524.943	5031.82
525.31	5094.41
525.676	5118.14
526.043	5143.23
526.409	5151.14
526.776	5244.92
527.142	5245.6
527.508	5284.69
527.874	5244.47
528.241	5264.58
528.607	5312.94
528.973	5337.8
529.339	5314.75
529.705	5405.37
530.071	5462.09
530.437	5451.01
530.803	5494.18
531.169	5520.17
531.535	5496.44
531.901	5495.99
532.267	5570.33
532.632	5587.96
532.998	5626.83
533.364	5668.86
533.73	5640.61
534.095	5719.26
534.461	5722.87
534.826	5803.32
535.192	5757.67
535.557	5777.56
535.923	5804.45
536.288	5861.85
536.653	5838.58
537.019	5888.29
537.384	5875.41
537.749	5898.23
538.114	5930.1
538.479	5884.68
538.845	5939.36
539.21	5947.95
539.575	6034.73
539.94	6065.24
540.305	6085.12
540.67	6077.67
541.034	6139.58
541.399	6189.98
541.764	6104.78
542.129	6143.2
542.494	6254.84
542.858	6223.88
543.223	6290.31
543.587	6274.04
543.952	6251.67
544.316	6337.09
544.681	6261.84
545.045	6391.78
545.41	6412.8
545.774	6400.14
546.138	6414.38
546.503	6471.78
546.867	6467.03
547.231	6466.36
547.595	6514.94
547.959	6536.41
548.324	6605.11
548.688	6607.14
549.052	6629.97
549.416	6636.52
549.779	6653.7
550.143	6685.33
550.507	6685.56
550.871	6747.03
551.235	6720.36
551.599	6748.83
551.962	6808.49
552.326	6834.26
552.689	6849.85
553.053	6859.34
553.417	6893.01
553.78	6968.26
554.143	6906.8
554.507	6954.48
554.87	7008.04
555.234	7012.1
555.597	7009.17
555.96	7087.81
556.323	7053.23
556.686	7139.56
557.05	7144.53
557.413	7131.65
557.776	7168.94
558.139	7176.39
558.502	7200.35
558.865	7203.51
559.228	7256.39
559.59	7269.27
559.953	7350.63
560.316	7382.26
560.679	7355.82
561.041	7387.46
561.404	7427.46
561.767	7530.06
562.129	7469.94
562.492	7531.41
562.854	7517.4
563.217	7550.85
563.579	7561.69
563.941	7614.8
564.304	7626.78
564.666	7717.4
565.028	7674.91
565.39	7700.22
565.753	7792.2
566.115	7796.04
566.477	7816.6
566.839	7771.18
567.201	7852.31
567.563	7937.5
567.925	7883.27
568.287	7954.23
568.648	7917.16
569.01	8010.72
569.372	8073.32
569.734	7999.42
570.095	8115.58
570.457	8116.26
570.819	8190.38
571.18	8160.1
571.542	8267.66
571.903	8302.24
572.265	8315.12
572.626	8351.05
572.987	8371.16
573.349	8439.18
573.71	8433.31
574.071	8542.91
574.432	8555.34
574.794	8682.79
575.155	8651.16
575.516	8655.68
575.877	8723.25
576.238	8812.96
576.599	8875.11
576.96	8956.01
577.32	8934.09
577.681	9067.64
578.042	9096.57
578.403	9154.87
578.763	9286.62
579.124	9344.47
579.485	9443.23
579.845	9553.73
580.206	9636.22
580.566	9744.91
580.927	9782.88
581.287	9951.46
581.648	10029.88
582.008	10210.21
582.368	10262.19
582.728	10416.76
583.089	10467.15
583.449	10673.93
583.809	10766.36
584.169	10942.85
584.529	11077.76
584.889	11290.86
585.249	11384.42
585.609	11491.08
585.969	11731.08
586.329	11885.42
586.688	12138.97
587.048	12248.8
587.408	12446.09
587.768	12528.34
588.127	12876.58
588.487	12947.99
588.846	13317.02
589.206	13423.46
589.565	13684.24
589.925	13887.63
590.284	14182.31
590.643	14384.57
591.003	14588.63
591.362	15000.14
591.721	15121.04
592.08	15328.95
592.44	15627.7
592.799	15842.38
593.158	16172.54
593.517	16413.66
593.876	16626.77
594.235	16892.75
594.593	17099.75
594.952	17439.63
595.311	17625.84
595.67	18011.36
596.029	18306.72
596.387	18660.39
596.746	19021.73
597.104	19091.79
597.463	19397.31
597.822	19604.99
598.18	19783.29
598.538	20139.67
598.897	20502.82
599.255	20569.04
599.613	21180.09
599.972	21282.01
600.33	21592.29
600.688	21721.32
601.046	22109.33
601.404	22472.04
601.762	22609.66
602.12	22973.49
602.478	23166.71
602.836	23495.96
603.194	23615.06
603.552	23951.32
603.91	24111.09
604.268	24460.68
604.625	24634.01
604.983	24983.61
605.341	25112.64
605.698	25503.14
606.056	25687.32
606.413	25874.21
606.771	26229.9
607.128	26466.73
607.485	26567.75
607.843	26741.3
608.2	27157.11
608.557	27397.78
608.914	27477.33
609.272	27753.48
609.629	27954.6
609.986	28131.55
610.343	28202.06
610.7	28661.7
611.057	28723.4
611.414	28905.31
611.771	29115.93
612.127	29456.71
612.484	29543.71
612.841	29733.54
613.198	29957.26
613.554	30100.31
613.911	30551.82
614.267	30592.5
614.624	30727.19
614.98	30888.31
615.337	31051.02
615.693	31163.56
616.05	31314.52
616.406	31673.83
616.762	31536.43
617.118	31821.17
617.475	31892.81
617.831	31987.04
618.187	32171.44
618.543	32398.33
618.899	32622.05
619.255	32777.3
619.611	32860.92
619.967	32890.97
620.323	33111.53
620.678	33121.02
621.034	33161.25
621.39	33236.27
621.746	33246.22
622.101	33672.87
622.457	33614.34
622.812	33735.24
623.168	34015.46
623.523	34014.11
623.879	34203.71
624.234	34083.03
624.589	34243.03
624.945	34351.5
625.3	34398.73
625.655	34531.83
626.01	34537.71
626.365	34768.89
626.72	34775.89
627.075	34699.74
627.43	34786.06
627.785	34758.72
628.14	34942.44
628.495	34983.12
628.85	35000.07
629.205	34966.17
629.559	35288.87
629.914	34967.07
630.269	35121.87
630.623	35027.19
630.978	35064.7
631.332	35189.22
631.687	35489.77
632.041	35291.81
632.396	35313.96
632.75	35273.51
633.104	35416.1
633.459	35328.65
633.813	35320.06
634.167	35363.45
634.521	35344.01
634.875	35532.26
635.229	35444.35
635.583	35279.38
635.937	35386.05
636.291	35307.86
636.645	35313.28
636.999	35331.13
637.352	35589.21
637.706	35276.22
638.06	35518.7
638.413	35473.73
638.767	35345.82
639.121	35419.04
639.474	35211.81
639.828	35294.98
640.181	35253.62
640.534	35401.64
640.888	35196.67
641.241	35120.97
641.594	35235.54
641.947	35285.03
642.301	35245.94
642.654	35266.95
643.007	35259.5
643.36	35222.44
643.713	35200.97
644.066	35467.4
644.419	35069.67
644.771	34970.01
645.124	34713.75
645.477	34647.54
645.83	34446.41
646.182	34308.34
646.535	34206.87
646.888	34366.64
647.24	34156.02
647.593	34332.74
647.945	34229.02
648.298	34092.97
648.65	33996.48
649.002	33980.21
649.355	34131.16
649.707	34087.32
650.059	34168.23
650.411	34610.25
650.763	34696.57
651.115	34915.55
651.467	34951.71
651.819	35013.18
652.171	34832.39
652.523	34888.88
652.875	34718.72
653.227	34632.62
653.578	34832.62
653.93	34738.83
654.282	34687.31
654.633	34732.28
654.985	34704.48
655.337	34777.93
655.688	34692.51
656.039	34865.16
656.391	34407.54
656.742	34583.13
657.094	34567.76
657.445	34711.26
657.796	34555.79
658.147	34532.74
658.498	34615.45
658.849	34696.57
659.2	34562.79
659.551	34498.16
659.902	34649.8
660.253	34608.21
660.604	34625.16
660.955	34423.81
661.306	34569.57
661.656	34541.1
662.007	34552.62
662.358	34487.99
662.708	34494.32
663.059	34475.56
663.409	34360.99
663.76	34462.46
664.11	34544.26
664.461	34536.8
664.811	34601.43
665.161	34512.4
665.511	34467.88
665.862	34462.91
666.212	34521.44
666.562	34589.01
666.912	34327.32
667.262	34450.7
667.612	34470.59
667.962	34443.02
668.312	34402.57
668.662	34569.8
669.011	34376.58
669.361	34463.59
669.711	34296.81
670.06	34316.02
670.41	34259.97
670.76	34159.64
671.109	34348.79
671.459	34352.18
671.808	34225.85
672.157	34272.4
672.507	34169.58
672.856	34132.97
673.205	34162.8
673.554	34340.88
673.904	34135.01
674.253	34227.66
674.602	34103.37
674.951	33746.09
675.3	33504.06
675.649	34029.25
675.998	34001.45
676.346	33989.25
676.695	34071.73
677.044	33984.95
677.393	33883.26
677.741	33998.51
678.09	33887.56
678.438	33878.52
678.787	33881.68
679.135	33979.98
679.484	33610.05
679.832	33843.94
680.181	33735.47
680.529	33757.39
680.877	33674.23
681.225	33736.37
681.573	33779.54
681.922	33475.81
682.27	33461.8
682.618	33513.33
682.966	33433.1
683.314	33574.57
683.661	33245.09
684.009	33271.07
684.357	33176.39
684.705	33056.39
685.053	33252.54
685.4	33137.07
685.748	32973.68
686.095	32903.63
686.443	32911.76
686.79	32839.9
687.138	32961.25
687.485	32829.96
687.832	32762.84
688.18	32836.96
688.527	32596.29
688.874	32672.45
689.221	32559.91
689.568	32412.11
689.915	32398.33
690.262	32311.33
690.609	32244.66
690.956	32100.48
691.303	31996.08
691.65	31980.71
691.997	31852.58
692.344	31783.66
692.69	31727.39
693.037	31716.54
693.383	31315.65
693.73	31613.04
694.077	31422.99
694.423	31351.8
694.769	31384.57
695.116	31274.52
695.462	31206.04
695.808	31103.67
696.155	31193.61
696.501	30874.08
696.847	30781.87
697.193	30781.2
697.539	30804.25
697.885	30460.07
698.231	30552.95
698.577	30568.09
698.923	30355.44
699.269	30363.35
699.614	30272.74
699.96	30169.46
700.306	30127.2
700.651	29910.94
700.997	29894.89
701.342	29889.24
701.688	29882.69
702.033	29709.36
702.379	29756.14
702.724	29523.83
703.069	29627.33
703.415	29276.15
703.76	29363.61
704.105	29306.88
704.45	29274.57
704.795	29041.13
705.14	28974.69
705.485	28961.81
705.83	28884.52
706.175	28889.72
706.52	28919.1
706.865	28790.29
707.209	28727.01
707.554	28579.67
707.899	28654.25
708.243	28565.21
708.588	28565.66
708.932	28314.37
709.277	28405.67
709.621	28277.76
709.966	28082.96
710.31	28176.29
710.654	27954.6
710.998	28084.54
711.342	28003.87
711.687	27904.66
712.031	27720.03
712.375	27729.98
712.719	27789.41
713.063	27673.26
713.407	27786.02
713.75	27606.82
714.094	27519.36
714.438	27435.75
714.782	27473.94
715.125	27339.25
715.469	27339.7
715.812	27215.87
716.156	27139.48
716.499	27197.34
716.843	27128.64
717.186	26922.99
717.53	27112.37
717.873	27029.43
718.216	26922.54
718.559	26857.23
718.902	26652.49
719.246	26709.44
719.589	26629.89
719.932	26538.37
720.275	26596.22
720.617	26455.89
720.96	26492.72
721.303	26435.32
721.646	26512.38
721.989	26310.58
722.331	26357.13
722.674	26262.9
723.016	26354.19
723.359	26269.45
723.701	26258.15
724.044	25985.62
724.386	26030.36
724.729	26025.39
725.071	25992.4
725.413	26040.98
725.755	26042.56
726.097	25910.82
726.439	25747.43
726.782	25753.08
727.124	25911.49
727.465	25661.78
727.807	25650.94
728.149	25548.57
728.491	25616.36
728.833	25645.29
729.175	25417.5
729.516	25476.7
729.858	25457.72
730.199	25408.46
730.541	25382.02
730.882	25292.75
731.224	25424.05
731.565	25164.17
731.906	25260.21
732.248	25227.22
732.589	25065.41
732.93	25013.21
733.271	24909.03
733.612	25039.88
733.953	25021.8
734.294	24921.92
734.635	24845.08
734.976	24972.08
735.317	24749.49
735.658	24857.06
735.999	24864.06
736.339	24735.25
736.68	24947.9
737.021	24807.79
737.361	24643.28
737.702	24829.04
738.042	24794.91
738.383	24688.48
738.723	24665.65
739.063	24592.66
739.404	24579.55
739.744	24511.08
740.084	24417.97
740.424	24410.29
740.764	24389.27
741.104	24406.67
741.444	24315.15
741.784	24125.55
742.124	24348.6
742.464	24220.69
742.804	24163.97
743.143	24177.53
743.483	24088.72
743.823	24032.9
744.162	23979.34
744.502	24064.08
744.841	23799.23
745.181	24055.72
745.52	23882.85
745.86	24007.36
746.199	23862.96
746.538	23806.01
746.877	23874.49
747.216	23831.1
747.556	23729.63
747.895	23872
748.234	23629.75
748.573	23632.68
748.911	23523.08
749.25	23570.99
749.589	23526.7
749.928	23524.21
750.267	23507.04
750.605	23438.11
750.944	23399.02
751.283	23272.02
751.621	23292.58
751.96	23188.18
752.298	23167.16
752.636	23239.02
752.975	23154.5
753.313	22997.9
753.651	23157.89
753.989	22963.77
754.327	23015.75
754.666	22947.73
755.004	22910.44
755.342	22932.36
755.679	22906.6
756.017	22759.71
756.355	22887.39
756.693	22665.93
757.031	22712.71
757.368	22562.66
757.706	22551.36
758.044	22458.03
758.381	22580.06
758.719	22398.82
759.056	22476.1
759.394	22413.05
759.731	22183.23
760.068	22303.68
760.405	22158.6
760.743	22098.03
761.08	22117.02
761.417	22044.48
761.754	22005.83
762.091	21935.55
762.428	21816.23
762.765	21756.35
763.102	21754.32
763.438	21708.89
763.775	21463.93
764.112	21692.17
764.449	21577.6
764.785	21477.49
765.122	21272.29
765.458	21236.59
765.795	21171.96
766.131	21294.44
766.467	21062.36
766.804	20990.72
767.14	20905.98
767.476	20909.37
767.812	20877.95
768.148	20750.73
768.485	20708.47
768.821	20563.61
769.157	20565.65
769.492	20539.66
769.828	20469.83
770.164	20361.81
770.5	20296.27
770.836	20241.36
771.171	20237.97
771.507	20197.97
771.842	19964.31
772.178	20013.8
772.513	19902.16
772.849	19852.67
773.184	19752.11
773.519	19739.9
773.855	19661.49
774.19	19640.02
774.525	19556.18
774.86	19485.67
775.195	19485.67
775.53	19370.87
775.865	19182.41
776.2	19069.87
776.535	18969.08
776.87	19087.04
777.205	18942.41
777.539	18807.95
777.874	18972.24
778.209	18725.02
778.543	18660.16
778.878	18574.51
779.212	18539.94
779.547	18455.42
779.881	18472.37
780.215	18296.78
780.55	18329.32
780.884	18137.23
781.218	18145.82
781.552	18159.83
781.886	18033.96
782.22	17868.77
782.554	17925.04
782.888	17723.23
783.222	17698.38
783.556	17625.61
783.889	17553.75
784.223	17517.14
784.557	17429.46
784.89	17507.42
785.224	17326.41
785.557	17271.72
785.891	17330.48
786.224	17098.62
786.558	17178.84
786.891	16955.35
787.224	16985.63
787.557	16998.28
787.891	16855.46
788.224	16872.86
788.557	16836.03
788.89	16864.5
789.223	16721.45
789.556	16542.7
789.888	16557.84
790.221	16431.29
790.554	16417.51
790.887	16325.98
791.219	16378.64
791.552	16334.8
791.884	16093.45
792.217	16208.92
792.549	16121.02
792.882	15944.3
793.214	15960.34
793.546	15994.92
793.879	15843.74
794.211	15777.07
794.543	15879.67
794.875	15756.96
795.207	15758.54
795.539	15604.65
795.871	15581.37
796.203	15484.65
796.535	15379.34
796.867	15315.61
797.198	15355.16
797.53	15404.2
797.862	15216.63
798.193	15339.12
798.525	15203.3
798.856	15262.28
799.188	14983.19
799.519	14991.78
799.85	14927.83
800.182	14938.22
800.513	14863.65
800.844	14793.14
801.175	14823.2
801.506	14783.88
801.837	14675.63
802.168	14716.31
802.499	14555.41
802.83	14534.84
803.161	14510.44
803.491	14401.29
803.822	14491.91
804.153	14448.29
804.483	14321.52
804.814	14235.87
805.145	14309.09
805.475	14115.42
805.805	14167.85
806.136	14051.92
806.466	14098.7
806.796	14089.43
807.126	14020.28
807.457	13934.18
807.787	13855.99
808.117	13894.63
808.447	13782.77
808.777	13861.87
809.107	13831.36
809.436	13677.47
809.766	13722.21
810.096	13769.21
810.426	13566.73
810.755	13598.15
811.085	13580.07
811.414	13555.89
811.744	13421.65
812.073	13498.94
812.403	13427.75
812.732	13362.67
813.061	13421.2
813.39	13205.84
813.719	13213.07
814.049	13256.69
814.378	13170.13
814.707	13166.52
815.036	13221.88
815.365	13151.15
815.693	13020.08
816.022	13061.21
816.351	12971.27
816.68	12878.16
817.008	12929.24
817.337	12830.48
817.665	12841.1
817.994	12797.94
818.322	12878.39
818.651	12794.1
818.979	12654.22
819.307	12756.36
819.636	12667.32
819.964	12656.93
820.292	12660.32
820.62	12634.1
820.948	12574.44
821.276	12637.72
821.604	12554.56
821.932	12556.82
822.259	12565.86
822.587	12621
822.915	12525.63
823.243	12542.58
823.57	12483.15
823.898	12573.54
824.225	12546.42
824.553	12493.77
824.88	12489.93
825.207	12526.76
825.535	12504.84
825.862	12593.88
826.189	12355.69
826.516	12605.63
826.843	12566.99
827.17	12534.22
827.497	12494.22
827.824	12545.29
828.151	12566.99
828.478	12495.35
828.805	12544.16
829.131	12475.46
829.458	12453.77
829.785	12367.44
830.111	12368.8
830.438	12466.65
830.764	12520.66
831.09	12464.62
831.417	12383.94
831.743	12539.42
832.069	12510.72
832.395	12395.24
832.722	12422.36
833.048	12403.6
833.374	12414.67
833.7	12351.62
834.026	12308.46
834.351	12399.98
834.677	12401.11
835.003	12328.57
835.329	12282.7
835.654	12252.42
835.98	12287.67
836.306	12252.87
836.631	12189.37
836.956	12229.14
837.282	12235.92
837.607	12204.96
837.932	12150.5
838.258	12077.73
838.583	12169.93
838.908	12041.35
839.233	12055.14
839.558	12102.14
839.883	12046.55
840.208	11963.39
840.533	11966.1
840.858	11973.56
841.182	11971.75
841.507	11953.22
841.832	11906.66
842.156	11908.92
842.481	11839.32
842.805	11883.39
843.13	11754.8
843.454	11798.87
843.778	11753.45
844.103	11711.87
844.427	11715.48
844.751	11668.93
845.075	11615.37
845.399	11581.48
845.723	11540.12
846.047	11543.28
846.371	11464.42
846.695	11431.42
847.019	11387.36
847.343	11333.35
847.666	11311.2
847.99	11209.28
848.313	11142.84
848.637	11148.27
848.96	11173.8
849.284	11131.77
849.607	11030.53
849.931	11012.68
850.254	10950.08
850.577	10888.39
850.9	10841.38
851.223	10829.4
851.546	10721.16
851.869	10628.28
852.192	10797.54
852.515	10613.59
852.838	10526.14
853.161	10545.8
853.483	10520.71
853.806	10481.17
854.129	10423.09
854.451	10456.98
854.774	10377.44
855.096	10300.6
855.419	10400.72
855.741	10277.33
856.063	10250.21
856.385	10239.36
856.708	10222.64
857.03	10145.35
857.352	10141.06
857.674	10169.76
857.996	10104.45
858.318	10029.43
858.64	10080.95
858.961	9999.82
859.283	9969.09
859.605	9947.17
859.926	9866.27
860.248	9855.42
860.57	9827.17
860.891	9879.6
861.212	9791.47
861.534	9771.81
861.855	9755.76
862.176	9794.4
862.498	9749.88
862.819	9749.88
863.14	9673.95
863.461	9725.25
863.782	9636.22
864.103	9687.74
864.424	9617.91
864.745	9607.74
865.065	9587.18
865.386	9535.88
865.707	9561.42
866.027	9535.2
866.348	9466.95
866.668	9484.36
866.989	9445.26
867.309	9404.58
867.63	9347.64
867.95	9369.78
868.27	9342.66
868.59	9404.13
868.91	9364.58
869.23	9372.49
869.55	9309.22
869.87	9350.12
870.19	9310.12
870.51	9313.29
870.83	9289.78
871.15	9213.4
871.469	9259.05
871.789	9219.05
872.109	9248.2
872.428	9168.21
872.748	9132.5
873.067	9197.36
873.386	9171.37
873.706	9160.07
874.025	9117.36
874.344	9070.35
874.663	9160.52
874.982	9104.25
875.301	9136.79
875.62	8985.84
875.939	9026.74
876.258	8969.11
876.577	8953.75
876.896	9003.46
877.214	8920.3
877.533	8967.31
877.852	8927.76
878.17	8923.01
878.489	8962.79
878.807	8911.94
879.125	8915.33
879.444	8813.64
879.762	8811.15
880.08	8802.11
880.398	8806.86
880.716	8837.59
881.034	8776.13
881.352	8713.98
881.67	8683.92
881.988	8683.47
882.306	8718.27
882.624	8677.82
882.941	8657.48
883.259	8609.35
883.577	8617.94
883.894	8589.24
884.212	8589.01
884.529	8565.06
884.846	8548.56
885.164	8529.8
885.481	8523.02
885.798	8562.8
886.115	8475.57
886.432	8458.85
886.75	8433.99
887.067	8433.76
887.383	8448.45
887.7	8434.21
888.017	8403.48
888.334	8301.79
888.651	8338.62
888.967	8305.63
889.284	8230.83
889.6	8246.65
889.917	8247.55
890.233	8141.11
890.55	8109.7
890.866	8202.13
891.182	8105.41
891.498	8111.28
891.815	8114.9
892.131	8120.32
892.447	8082.81
892.763	7983.6
893.079	8052.53
893.395	7985.64
893.71	7958.07
894.026	7892.76
894.342	7966.2
894.657	7834
894.973	7894.34
895.289	7907.67
895.604	7861.57
895.92	7716.94
896.235	7758.3
896.55	7720.56
896.865	7726.89
897.181	7669.04
897.496	7674.23
897.811	7593.11
898.126	7579.77
898.441	7554.24
898.756	7547.68
899.071	7484.41
899.386	7509.72
899.7	7387.46
900.015	7424.75
900.33	7354.69
900.644	7347.24
900.959	7352.66
901.273	7346.56
901.588	7284.41
901.902	7239.67
902.216	7268.14
902.531	7216.39
902.845	7175.04
903.159	7132.1
903.473	7103.4
903.787	7121.48
904.101	7086
904.415	7058.43
904.729	7004.42
905.042	7036.28
905.356	6968.49
905.67	6976.17
905.984	6945.21
906.297	6878.1
906.611	6864.99
906.924	6890.98
907.237	6774.37
907.551	6859.79
907.864	6754.26
908.177	6756.29
908.491	6726.46
908.804	6726.46
909.117	6666.12
909.43	6655.28
909.743	6610.31
910.056	6638.78
910.368	6587.71
910.681	6543.64
910.994	6476.07
911.307	6480.37
911.619	6446.24
911.932	6484.21
912.244	6418.67
912.557	6419.35
912.869	6385.45
913.181	6359.01
913.494	6391.56
913.806	6284.89
914.118	6280.15
914.43	6225.46
914.742	6231.79
915.054	6150.66
915.366	6174.16
915.678	6192.46
915.99	6126.03
916.302	6094.84
916.613	6051.23
916.925	6071.79
917.236	6046.93
917.548	5980.49
917.859	6004.22
918.171	5933.04
918.482	5924.45
918.794	5859.14
919.105	5883.32
919.416	5834.51
919.727	5850.33
920.038	5805.36
920.349	5771.68
920.66	5727.39
920.971	5754.51
921.282	5685.81
921.593	5699.82
921.903	5640.61
922.214	5598.13
922.525	5663.44
922.835	5575.53
923.146	5545.25
923.456	5551.13
923.767	5500.28
924.077	5512.93
924.387	5472.48
924.697	5478.81
925.008	5399.94
925.318	5410.79
925.628	5410.79
925.938	5351.58
926.248	5347.51
926.558	5310.68
926.867	5250.57
927.177	5246.73
927.487	5251.7
927.796	5199.5
928.106	5211.93
928.416	5196.11
928.725	5160.4
929.034	5111.14
929.344	5120.4
929.653	5096.22
929.962	5063.68
930.271	5097.8
930.581	5031.82
930.89	5027.3
931.199	4980.07
931.508	5023.68
931.817	4980.52
932.125	4962.67
932.434	4893.97
932.743	4894.65
933.051	4851.26
933.36	4839.28
933.669	4814.87
933.977	4814.65
934.286	4784.59
934.594	4779.39
934.902	4725.61
935.21	4733.29
935.519	4736.68
935.827	4698.94
936.135	4651.26
936.443	4659.62
936.751	4611.26
937.059	4562.9
937.367	4613.3
937.674	4589.79
937.982	4542.79
938.29	4484.71
938.597	4515.67
938.905	4453.75
939.213	4453.08
939.52	4408.78
939.827	4455.11
940.135	4428.67
940.442	4370.14
940.749	4357.71
941.056	4342.8
941.363	4313.19
941.67	4318.84
941.977	4297.82
942.284	4285.17
942.591	4266.87
942.898	4238.62
943.205	4238.62
943.511	4207.21
943.818	4183.93
944.125	4155.46
944.431	4145.96
944.738	4121.11
945.044	4109.81
945.35	4099.19
945.657	4094.67
945.963	4025.97
946.269	4058.74
946.575	4008.34
946.881	4033.2
947.187	4005.4
947.493	3946.2
947.799	3963.6
948.105	3982.13
948.41	3937.83
948.716	3956.59
949.022	3900.32
949.327	3946.42
949.633	3832.53
949.938	3829.36
950.244	3840.21
950.549	3813.54
950.854	3789.59
951.16	3780.32
951.465	3785.07
951.77	3670.27
952.075	3731.96
952.38	3746.88
952.685	3714.79
952.99	3657.39
953.294	3668.01
953.599	3650.84
953.904	3621.46
954.209	3599.09
954.513	3585.75
954.818	3569.26
955.122	3588.69
955.426	3575.13
955.731	3526.55
956.035	3527.9
956.339	3506.43
956.643	3510.73
956.948	3469.15
957.252	3491.29
957.556	3473.21
957.86	3473.89
958.163	3441.58
958.467	3402.26
958.771	3413.1
959.075	3412.42
959.378	3380.33
959.682	3341.24
959.985	3307.12
960.289	3318.87
960.592	3315.7
960.896	3275.03
961.199	3305.53
961.502	3290.85
961.805	3277.06
962.108	3249.26
962.411	3253.33
962.714	3218.98
963.017	3227.8
963.32	3208.81
963.623	3157.29
963.926	3159.32
964.228	3158.65
964.531	3166.1
964.833	3136.05
965.136	3123.84
965.438	3067.12
965.741	3119.1
966.043	3128.59
966.345	3008.14
966.648	3042.49
966.95	3025.77
967.252	3022.38
967.554	2993.23
967.856	2999.78
968.158	3003.62
968.46	2993
968.761	2973.57
969.063	2914.58
969.365	2888.14
969.666	2943.28
969.968	2917.52
970.269	2880.91
970.571	2900.35
970.872	2867.13
971.174	2847.47
971.475	2823.51
971.776	2816.51
972.077	2786.68
972.378	2821.25
972.679	2788.26
972.98	2782.84
973.281	2750.75
973.582	2787.81
973.883	2762.5
974.183	2713.46
974.484	2754.81
974.785	2696.51
975.085	2683.86
975.386	2661.03
975.686	2683.18
975.986	2661.94
976.287	2670.97
976.587	2659.9
976.887	2597.76
977.187	2634.37
977.487	2590.75
977.787	2567.47
978.087	2565.67
978.387	2589.62
978.687	2573.12
978.987	2577.87
979.286	2542.84
979.586	2519.79
979.885	2519.11
980.185	2511.88
980.484	2497.87
980.784	2452.45
981.083	2477.08
981.382	2432.79
981.682	2459.23
981.981	2442.96
982.28	2463.3
982.579	2402.73
982.878	2422.39
983.177	2388.27
983.475	2417.42
983.774	2369.51
984.073	2377.65
984.372	2318.44
984.67	2337.88
984.969	2356.63
985.267	2343.53
985.566	2350.98
985.864	2305.56
986.162	2308.95
986.461	2309.4
986.759	2310.08
987.057	2259.01
987.355	2235.05
987.653	2258.78
987.951	2219.46
988.249	2205
988.547	2197.09
988.844	2208.84
989.142	2180.59
989.44	2181.72
989.737	2133.59
990.035	2175.39
990.332	2140.37
990.63	2144.66
990.927	2159.35
991.224	2122.29
991.521	2111.67
991.819	2113.48
992.116	2090.65
992.413	2079.8
992.71	2098.11
993.006	2087.49
993.303	2058.56
993.6	2055.17
993.897	2059.24
994.193	2048.84
994.49	2044.32
994.787	2045.23
995.083	2015.85
995.379	2012.69
995.676	2005.23
995.972	1965.46
996.268	1989.18
996.565	1953.93
996.861	1943.99
997.157	1948.51
997.453	1928.62
997.749	1938.34
998.044	1926.14
998.34	1915.51
998.636	1911.67
998.932	1881.17
999.227	1858.34
999.523	1882.3
999.818	1837.1
1000.114	1844.33
1000.409	1852.24
1000.704	1823.31
1001	1831.68
1001.295	1804.56
1001.59	1801.39
1001.885	1814.05
1002.18	1784.9
1002.475	1753.71
1002.77	1756.65
1003.065	1760.04
1003.359	1721.17
1003.654	1745.35
1003.949	1765.69
1004.243	1740.6
1004.538	1692.7
1004.832	1698.8
1005.127	1688.4
1005.421	1686.37
1005.715	1650.21
1006.009	1668.52
1006.304	1628.06
1006.598	1651.34
1006.892	1623.09
1007.186	1648.4
1007.48	1598.46
1007.773	1620.83
1008.067	1619.03
1008.361	1615.18
1008.655	1581.96
1008.948	1577.44
1009.242	1561.85
1009.535	1566.37
1009.829	1541.97
1010.122	1555.07
1010.415	1515.53
1010.708	1508.52
1011.001	1521.4
1011.295	1524.79
1011.588	1508.75
1011.881	1509.88
1012.173	1471.23
1012.466	1475.98
1012.759	1477.33
1013.052	1466.26
1013.344	1449.54
1013.637	1457.45
1013.93	1436.21
1014.222	1434.4
1014.514	1425.36
1014.807	1423.1
1015.099	1381.07
1015.391	1405.47
1015.683	1381.97
1015.976	1375.87
1016.268	1386.71
1016.56	1373.83
1016.851	1378.58
1017.143	1380.16
1017.435	1329.32
1017.727	1340.16
1018.018	1328.86
1018.31	1296.77
1018.602	1291.35
1018.893	1310.78
1019.185	1280.28
1019.476	1308.75
1019.767	1271.46
1020.058	1273.5
1020.35	1275.98
1020.641	1239.83
1020.932	1238.7
1021.223	1230.56
1021.514	1241.86
1021.804	1196.21
1022.095	1196.21
1022.386	1196.89
1022.677	1162.54
1022.967	1186.27
1023.258	1197.12
1023.548	1194.63
1023.839	1165.25
1024.129	1160.96
1024.419	1164.8
1024.709	1156.44
1025	1131.13
1025.29	1146.04
1025.58	1127.74
1025.87	1108.76
1026.16	1117.57
1026.449	1115.76
1026.739	1134.97
1027.029	1091.81
1027.319	1087.74
1027.608	1072.15
1027.898	1086.16
1028.187	1070.11
1028.477	1079.6
1028.766	1075.31
1029.055	1060.4
1029.344	1046.61
1029.634	1055.88
1029.923	1047.06
1030.212	1057.68
1030.501	1014.07
1030.79	997.8
1031.078	986.73
1031.367	986.95
1031.656	989.44
1031.945	990.34
1032.233	991.25
1032.522	979.72
1032.81	965.94
1033.099	967.52
1033.387	967.97
1033.675	951.25
1033.963	942.66
1034.251	942.43
1034.54	901.53
1034.828	928.42
1035.116	903.34
1035.403	922.55
1035.691	920.96
1035.979	907.86
1036.267	886.39
1036.554	898.59
1036.842	894.98
1037.129	878.48
1037.417	871.25
1037.704	860.85
1037.992	855.2
1038.279	892.49
1038.566	875.99
1038.853	875.99
1039.14	875.99
