Data from hue_28_FLMS001491_00073.txt Node
Date: Tue Feb 07 17:17:47 GMT 2017
User: dcchb
Spectrometer: FLMS00149
Trigger mode: 0
Integration Time (sec): 2.000000E-2
Scans to average: 10
Electric dark correction enabled: true
Nonlinearity correction enabled: false
Boxcar width: 0
XAxis mode: Wavelengths
Number of Pixels in Spectrum: 2048
>>>>>Begin Spectral Data<<<<<
341.393	-28.91
341.776	-28.91
342.16	-28.91
342.543	-62.81
342.927	-55.35
343.31	-72.98
343.693	-77.95
344.077	-58.74
344.46	-58.52
344.843	-39.08
345.226	-56.26
345.61	-32.3
345.993	-33.43
346.376	-20.32
346.759	6.79
347.142	11.77
347.525	57.64
347.908	72.78
348.291	86.34
348.674	89.73
349.057	124.53
349.44	134.7
349.823	144.64
350.206	158.43
350.588	198.2
350.971	206.34
351.354	228.48
351.737	251.53
352.119	249.05
352.502	263.06
352.884	262.83
353.267	288.59
353.65	292.44
354.032	283.62
354.414	295.6
354.797	318.65
355.179	338.08
355.562	317.52
355.944	328.14
356.326	331.08
356.709	322.94
357.091	344.19
357.473	329.5
357.855	360
358.238	327.69
358.62	356.84
359.002	344.41
359.384	323.62
359.766	328.37
360.148	342.38
360.53	357.52
360.912	355.71
361.294	342.83
361.676	327.69
362.057	349.61
362.439	316.16
362.821	329.5
363.203	334.69
363.584	326.33
363.966	330.85
364.348	315.71
364.729	310.51
365.111	315.71
365.493	322.72
365.874	331.3
366.256	327.46
366.637	324.53
367.019	309.61
367.4	301.93
367.781	329.27
368.163	313.9
368.544	315.94
368.925	303.51
369.306	314.13
369.688	317.97
370.069	307.58
370.45	312.77
370.831	319.78
371.212	305.77
371.593	301.25
371.974	318.2
372.355	308.03
372.736	305.77
373.117	324.75
373.498	321.36
373.879	293.34
374.26	316.16
374.641	313.9
375.021	321.14
375.402	318.42
375.783	326.79
376.163	343.96
376.544	334.92
376.925	319.78
377.305	331.53
377.686	305.54
378.066	320.46
378.447	322.94
378.827	333.79
379.208	323.85
379.588	343.28
379.968	328.14
380.349	346.22
380.729	344.64
381.109	332.89
381.489	351.64
381.87	331.76
382.25	341.25
382.63	332.89
383.01	357.97
383.39	329.95
383.77	345.54
384.15	355.71
384.53	352.55
384.91	334.47
385.29	363.85
385.67	340.8
386.049	362.72
386.429	390.51
386.809	383.96
387.189	359.78
387.568	352.55
387.948	353.23
388.328	363.39
388.707	350.29
389.087	378.99
389.466	352.1
389.846	350.97
390.225	382.38
390.605	386.9
390.984	371.08
391.363	365.43
391.743	379.89
392.122	374.47
392.501	382.15
392.881	390.29
393.26	382.38
393.639	379.44
394.018	388.48
394.397	398.65
394.776	380.8
395.155	380.57
395.534	400.91
395.913	362.26
396.292	393.9
396.671	394.81
397.05	383.05
397.429	384.86
397.808	394.81
398.186	390.51
398.565	385.99
398.944	388.93
399.323	394.13
399.701	406.33
400.08	391.87
400.458	402.72
400.837	402.04
401.215	405.2
401.594	403.17
401.972	427.35
402.351	414.69
402.729	400.68
403.107	407.01
403.486	407.69
403.864	430.96
404.242	419.21
404.62	409.49
404.999	398.65
405.377	401.59
405.755	424.18
406.133	438.65
406.511	423.96
406.889	433.9
407.267	428.25
407.645	423.28
408.023	429.16
408.401	427.57
408.779	449.04
409.156	453.34
409.534	435.26
409.912	442.71
410.29	458.08
410.667	443.62
411.045	471.41
411.422	455.82
411.8	462.83
412.178	476.16
412.555	469.38
412.933	468.93
413.31	477.74
413.687	487.46
414.065	488.14
414.442	494.46
414.819	483.62
415.197	471.87
415.574	496.05
415.951	517.06
416.328	501.7
416.705	488.59
417.082	497.85
417.46	486.33
417.837	495.59
418.214	511.87
418.591	509.38
418.967	531.53
419.344	520.23
419.721	532.2
420.098	527.01
420.475	536.5
420.852	537.18
421.228	542.37
421.605	526.1
421.982	538.98
422.358	554.12
422.735	542.15
423.111	552.77
423.488	549.38
423.864	556.84
424.241	579.66
424.617	579.66
424.994	574.91
425.37	572.65
425.746	567
426.123	576.27
426.499	573.78
426.875	567
427.251	575.37
427.627	599.32
428.003	579.89
428.379	597.29
428.756	607.68
429.132	614.46
429.507	616.72
429.883	611.75
430.259	627.57
430.635	614.01
431.011	612.88
431.387	625.53
431.763	647.23
432.138	650.84
432.514	653.1
432.89	641.13
433.265	675.93
433.641	682.03
434.016	677.28
434.392	699.88
434.767	694.23
435.143	710.28
435.518	682.71
435.894	708.24
436.269	691.52
436.644	694.23
437.02	723.61
437.395	762.93
437.77	719.77
438.145	731.52
438.52	725.64
438.895	736.04
439.271	727.68
439.646	765.64
440.021	769.71
440.395	773.55
440.77	760.9
441.145	752.54
441.52	790.95
441.895	778.98
442.27	786.66
442.645	793.44
443.019	775.36
443.394	797.06
443.769	806.09
444.143	791.63
444.518	824.85
444.892	810.39
445.267	814.68
445.641	812.87
446.016	809.48
446.39	814
446.764	836.15
447.139	828.24
447.513	821.69
447.887	827.11
448.262	843.83
448.636	856.04
449.01	847.45
449.384	843.16
449.758	865.98
450.132	861.69
450.506	886.77
450.88	871.4
451.254	896.04
451.628	898.75
452.002	894.23
452.376	917.28
452.75	947.79
453.123	900.33
453.497	923.15
453.871	941.46
454.244	959.31
454.618	957.73
454.992	957.28
455.365	980.33
455.739	996.37
456.112	980.1
456.486	1003.38
456.859	1032.53
457.232	1040.21
457.606	1029.14
457.979	1044.28
458.352	1055.81
458.725	1079.76
459.099	1050.61
459.472	1082.7
459.845	1092.87
460.218	1092.41
460.591	1101.23
460.964	1129.48
461.337	1141.68
461.71	1156.82
462.083	1180.77
462.456	1154.79
462.829	1192.3
463.201	1173.99
463.574	1173.32
463.947	1200.43
464.32	1223.94
464.692	1251.73
465.065	1233.65
465.438	1288.79
465.81	1283.82
466.183	1292.86
466.555	1329.7
466.928	1346.19
467.3	1336.25
467.672	1389.36
468.045	1395.01
468.417	1407.43
468.789	1424.38
469.161	1422.12
469.534	1446.98
469.906	1488.56
470.278	1485.17
470.65	1504.38
471.022	1513.19
471.394	1557.26
471.766	1569.46
472.138	1569.01
472.51	1598.62
472.882	1654.21
473.253	1668.67
473.625	1688.56
473.997	1751.61
474.369	1720.87
474.74	1766.75
475.112	1803.58
475.484	1851.04
475.855	1865.95
476.227	1873.64
476.598	1902.79
476.97	1981.88
477.341	2002.9
477.713	2042.9
478.084	2081.54
478.455	2146.4
478.827	2167.87
479.198	2250.35
479.569	2220.52
479.94	2310.69
480.311	2323.12
480.682	2375.09
481.053	2437.92
481.424	2489.44
481.795	2515.43
482.166	2551.36
482.537	2603.79
482.908	2690.79
483.279	2687.63
483.65	2773.95
484.021	2844.69
484.391	2830
484.762	2888.98
485.133	2935.98
485.503	3014.4
485.874	3060.5
486.244	3128.52
486.615	3193.15
486.985	3224.34
487.356	3330.1
487.726	3353.37
488.097	3443.31
488.467	3477.21
488.837	3556.76
489.207	3607.6
489.578	3642.18
489.948	3709.75
490.318	3764.66
490.688	3752.01
491.058	3879.01
491.428	3932.11
491.798	4000.81
492.168	4023.41
492.538	4111.32
492.908	4174.37
493.278	4218.89
493.648	4223.86
494.017	4266.12
494.387	4384.31
494.757	4402.61
495.126	4494.81
495.496	4489.16
495.866	4548.6
496.235	4624.98
496.605	4643.96
496.974	4706.56
497.344	4726.22
497.713	4768.02
498.082	4802.15
498.452	4855.48
498.821	4910.85
499.19	4963.95
499.559	5014.12
499.928	5062.48
500.298	5083.27
500.667	5162.36
501.036	5133.21
501.405	5189.48
501.774	5217.73
502.143	5254.34
502.512	5309.48
502.88	5356.26
503.249	5340.66
503.618	5426.99
503.987	5424.28
504.356	5486.65
504.724	5516.71
505.093	5547.89
505.462	5539.53
505.83	5652.29
506.199	5641
506.567	5692.29
506.936	5690.94
507.304	5780.88
507.672	5782.23
508.041	5869.24
508.409	5844.15
508.777	5861.78
509.145	5913.98
509.514	5968.9
509.882	6024.71
510.25	5994.66
510.618	6020.19
510.986	6042.79
511.354	6070.59
511.722	6182.68
512.09	6201.43
512.458	6176.8
512.826	6224.03
513.193	6266.06
513.561	6253.64
513.929	6334.08
514.297	6437.13
514.664	6425.38
515.032	6473.52
515.4	6467.19
515.767	6507.64
516.135	6483.46
516.502	6491.37
516.869	6615.66
517.237	6565.04
517.604	6586.73
517.972	6637.13
518.339	6690.01
518.706	6694.53
519.073	6737.69
519.44	6779.27
519.808	6840.06
520.175	6844.35
520.542	6880.96
520.909	6920.51
521.276	6926.16
521.643	6896.33
522.009	7033.5
522.376	7002.77
522.743	7070.34
523.11	7121.63
523.477	7160.5
523.843	7212.71
524.21	7261.07
524.577	7342.19
524.943	7303.1
525.31	7293.83
525.676	7426.03
526.043	7506.71
526.409	7521.17
526.776	7558.69
527.142	7550.55
527.508	7637.33
527.874	7710.77
528.241	7709.87
528.607	7732.01
528.973	7763.65
529.339	7762.3
529.705	7850.43
530.071	7918.68
530.437	7896.3
530.803	7976.53
531.169	8009.07
531.535	8037.09
531.901	8061.5
532.267	8081.61
532.632	8150.99
532.998	8173.58
533.364	8192.34
533.73	8204.09
534.095	8388.04
534.461	8349.4
534.826	8418.32
535.192	8429.4
535.557	8513.01
535.923	8481.6
536.288	8483.86
536.653	8564.76
537.019	8526.57
537.384	8570.41
537.749	8678.43
538.114	8654.02
538.479	8757.3
538.845	8762.95
539.21	8774.25
539.575	8788.03
539.94	8856.96
540.305	8900.12
540.67	8866.9
541.034	8893.11
541.399	8957.29
541.764	9015.37
542.129	9067.35
542.494	9089.94
542.858	9103.73
543.223	9100.79
543.587	9184.18
543.952	9162.94
544.316	9283.84
544.681	9212.88
545.045	9350.28
545.41	9396.83
545.774	9395.47
546.138	9427.79
546.503	9463.72
546.867	9464.85
547.231	9599.54
547.595	9566.54
547.959	9600.89
548.324	9610.16
548.688	9598.41
549.052	9698.52
549.416	9708.23
549.779	9709.14
550.143	9714.56
550.507	9796.37
550.871	9814.45
551.235	9853.09
551.599	9908
551.962	9986.87
552.326	9994.55
552.689	10059.86
553.053	9988
553.417	10028
553.78	10189.8
554.143	10124.49
554.507	10232.74
554.87	10227.09
555.234	10328.56
555.597	10253.76
555.96	10313.64
556.323	10321.55
556.686	10376.69
557.05	10412.17
557.413	10362.45
557.776	10475.9
558.139	10470.7
558.502	10558.15
558.865	10493.07
559.228	10635.21
559.59	10652.62
559.953	10750.92
560.316	10747.98
560.679	10730.81
561.041	10870.24
561.404	10867.3
561.767	10967.86
562.129	10882.21
562.492	11004.24
562.854	10996.34
563.217	10993.62
563.579	11024.81
563.941	11078.59
564.304	11107.07
564.666	11266.84
565.028	11240.62
565.39	11218.7
565.753	11285.59
566.115	11271.58
566.477	11378.02
566.839	11467.06
567.201	11443.1
567.563	11572.82
567.925	11531.91
568.287	11554.51
568.648	11619.37
569.01	11680.84
569.372	11745.92
569.734	11688.29
570.095	11845.13
570.457	11808.29
570.819	11910.44
571.18	11945.46
571.542	12092.8
571.903	12003.54
572.265	12161.28
572.626	12203.08
572.987	12212.57
573.349	12350.2
573.71	12331.89
574.071	12406.92
574.432	12551.55
574.794	12593.13
575.155	12655.5
575.516	12660.7
575.877	12816.4
576.238	12836.29
576.599	12958.09
576.96	13008.03
577.32	13081.7
577.681	13195.15
578.042	13330.74
578.403	13360.34
578.763	13481.24
579.124	13564.63
579.485	13698.19
579.845	13841.23
580.206	13920.55
580.566	14085.29
580.927	14188.12
581.287	14329.81
581.648	14444.61
582.008	14683.24
582.368	14846.63
582.728	15026.74
583.089	15121.2
583.449	15328.88
583.809	15475.99
584.169	15755.31
584.529	15827.62
584.889	16196.42
585.249	16238.46
585.609	16328.62
585.969	16703.08
586.329	16897.2
586.688	17131.99
587.048	17292.21
587.408	17526.33
587.768	17732.43
588.127	17995.02
588.487	18228.24
588.846	18698.73
589.206	18774.66
589.565	19084.48
589.925	19417.36
590.284	19651.47
590.643	19905.71
591.003	20209.43
591.362	20545.24
591.721	20682.18
592.08	20972.8
592.44	21266.8
592.799	21638.54
593.158	21855.94
593.517	22126.89
593.876	22534.34
594.235	22748.79
594.593	23043.02
594.952	23364.37
595.311	23563.91
595.67	23871.02
596.029	24235.54
596.387	24506.71
596.746	24817.21
597.104	24934.73
597.463	25296.98
597.822	25686.34
598.18	25838.66
598.538	26159.55
598.897	26651.97
599.255	26694.45
599.613	27326.08
599.972	27471.16
600.33	27804.93
600.688	28103.46
601.046	28358.82
601.404	28705.02
601.762	28935.52
602.12	29258
602.478	29473.36
602.836	29839.23
603.194	29855.95
603.552	30205.1
603.91	30412.32
604.268	30809.83
604.625	30924.85
604.983	31283.94
605.341	31304.5
605.698	31800.08
606.056	32011.15
606.413	32266.28
606.771	32500.85
607.128	32837.12
607.485	32944.01
607.843	33175.64
608.2	33528.85
608.557	33792.8
608.914	33853.81
609.272	34073.69
609.629	34379.9
609.986	34620.12
610.343	34704.86
610.7	35103.72
611.057	35338.97
611.414	35460.55
611.771	35638.17
612.127	36023.02
612.484	35990.03
612.841	36429.34
613.198	36383.69
613.554	36533.74
613.911	36767.63
614.267	37070.9
614.624	37033.62
614.98	37285.81
615.337	37675.86
615.693	37669.31
616.05	37765.8
616.406	38072.01
616.762	38166.24
617.118	38204.66
617.475	38335.96
617.831	38667.47
618.187	38637.19
618.543	38893
618.899	39125.31
619.255	39166.22
619.611	39166.89
619.967	39476.04
620.323	39591.74
620.678	39449.82
621.034	39610.05
621.39	39693.66
621.746	39893.65
622.101	40329.8
622.457	40081.9
622.812	40178.39
623.168	40449.12
623.523	40430.59
623.879	40713.29
624.234	40495.67
624.589	40657.48
624.945	40814.08
625.3	40863.8
625.655	40808.66
626.01	41013.4
626.365	41081.87
626.72	41025.15
627.075	40958.03
627.43	41168.88
627.785	41211.81
628.14	41436.66
628.495	41250.68
628.85	41255.43
629.205	41226.5
629.559	41493.39
629.914	41504.46
630.269	41523.22
630.623	41399.38
630.978	41492.93
631.332	41756.66
631.687	41708.75
632.041	41637.56
632.396	41870.33
632.75	41594.17
633.104	41903.09
633.459	41669.88
633.813	41666.04
634.167	41767.96
634.521	41812.93
634.875	41815.41
635.229	41847.5
635.583	41648.86
635.937	41629.43
636.291	41753.72
636.645	41834.85
636.999	41779.48
637.352	41879.36
637.706	41633.04
638.06	41754.4
638.413	41709.88
638.767	41677.56
639.121	41823.55
639.474	41532.03
639.828	41647.96
640.181	41673.04
640.534	41603.44
640.888	41535.19
641.241	41523.44
641.594	41651.57
641.947	41604.12
642.301	41527.96
642.654	41654.96
643.007	41569.32
643.36	41514.18
643.713	41480.05
644.066	41598.92
644.419	41359.83
644.771	41190.12
645.124	40801.43
645.477	40776.8
645.83	40523.69
646.182	40299.75
646.535	40356.47
646.888	40486.86
647.24	40210.48
647.593	40492.06
647.945	40390.14
648.298	40199.41
648.65	40188.34
649.002	40191.73
649.355	40449.57
649.707	40293.64
650.059	40540.64
650.411	40885.27
650.763	40952.38
651.115	41254.97
651.467	41096.11
651.819	41132.04
652.171	41068.76
652.523	41056.11
652.875	40872.61
653.227	40876.45
653.578	41099.05
653.93	40975.89
654.282	40813.18
654.633	40721.2
654.985	40924.14
655.337	40962.78
655.688	40945.6
656.039	41034.42
656.391	40727.76
656.742	40890.46
657.094	40827.87
657.445	40900.41
657.796	40928.43
658.147	40932.5
658.498	40863.57
658.849	40919.62
659.2	40761.43
659.551	40845.49
659.902	40973.63
660.253	40718.94
660.604	40880.07
660.955	40590.13
661.306	40694.76
661.656	40705.38
662.007	40732.73
662.358	40802.78
662.708	40745.16
663.059	40839.39
663.409	40412.51
663.76	40725.95
664.11	40804.14
664.461	40719.17
664.811	40789.22
665.161	40669
665.511	40640.53
665.862	40652.05
666.212	40692.73
666.562	40769.11
666.912	40699.96
667.262	40589.91
667.612	40809.34
667.962	40705.61
668.312	40689.11
668.662	40968.88
669.011	40622.67
669.361	40600.53
669.711	40591.04
670.06	40619.29
670.41	40517.14
670.76	40541.55
671.109	40606.4
671.459	40577.03
671.808	40417.71
672.157	40648.44
672.507	40081.9
672.856	40334.55
673.205	40482.79
673.554	40512.85
673.904	40394.43
674.253	40540.42
674.602	40265.85
674.951	39793.32
675.3	39670.16
675.649	40271.05
675.998	40222.69
676.346	40264.04
676.695	40342
677.044	40075.57
677.393	40232.4
677.741	40229.01
678.09	40055.46
678.438	40062.24
678.787	40163.03
679.135	40109.69
679.484	39805.75
679.832	39909.25
680.181	39666.77
680.529	39850.94
680.877	39754.9
681.225	39814.11
681.573	39854.79
681.922	39651.85
682.27	39487.79
682.618	39591.97
682.966	39521.69
683.314	39648.24
683.661	39499.31
684.009	39323.95
684.357	39285.99
684.705	39236.04
685.053	39277.4
685.4	39222.71
685.748	38970.74
686.095	38997.41
686.443	38937.52
686.79	38888.26
687.138	39039.89
687.485	38863.17
687.832	38867.92
688.18	38737.75
688.527	38647.59
688.874	38555.61
689.221	38499.79
689.568	38530.75
689.915	38375.28
690.262	38276.52
690.609	38285.79
690.956	38152.01
691.303	38091.44
691.65	37912.24
691.997	37989.07
692.344	37796.99
692.69	37728.51
693.037	37575.3
693.383	37366.49
693.73	37507.28
694.077	37239.94
694.423	37348.64
694.769	37133.28
695.116	37130.34
695.462	37041.07
695.808	36878.59
696.155	37013.96
696.501	36631.14
696.847	36676.11
697.193	36459.62
697.539	36614.42
697.885	36322.45
698.231	36277.7
698.577	36377.59
698.923	36281.09
699.269	36010.82
699.614	35760.88
699.96	35790.26
700.306	35855.79
700.651	35670.04
700.997	35626.65
701.342	35568.8
701.688	35516.14
702.033	35335.13
702.379	35329.25
702.724	35155.7
703.069	35237.96
703.415	34974.01
703.76	34992.99
704.105	35009.94
704.45	34875.71
704.795	34785.09
705.14	34655.15
705.485	34546.9
705.83	34434.36
706.175	34542.16
706.52	34304.2
706.865	34211.54
707.209	34168.16
707.554	34047.71
707.899	34249.74
708.243	33950.99
708.588	33981.27
708.932	33760.71
709.277	33703.99
709.621	33671.22
709.966	33442.98
710.31	33504.22
710.654	33244.56
710.998	33376.09
711.342	33405.92
711.687	33292.7
712.031	33031.01
712.375	32972.48
712.719	33085.02
713.063	33038.69
713.407	33071.01
713.75	32822.43
714.094	32940.84
714.438	32595.99
714.782	32822.65
715.125	32608.42
715.469	32669.89
715.812	32339.95
716.156	32259.28
716.499	32344.25
716.843	32280.3
717.186	32055.89
717.53	32233.52
717.873	32287.75
718.216	32097.93
718.559	31985.84
718.902	31823.81
719.246	32014.09
719.589	31847.76
719.932	31632.85
720.275	31708.11
720.617	31798.27
720.96	31602.57
721.303	31575.46
721.646	31577.49
721.989	31404.61
722.331	31591.95
722.674	31514.67
723.016	31428.79
723.359	31328.23
723.701	31330.26
724.044	31143.15
724.386	31025.41
724.729	31213.88
725.071	31038.52
725.413	31029.71
725.755	31043.94
726.097	30947.67
726.439	30651.86
726.782	30775.7
727.124	30838.53
727.465	30782.03
727.807	30711.75
728.149	30526.22
728.491	30519.21
728.833	30564.63
729.175	30470.63
729.516	30471.3
729.858	30380.23
730.199	30451.87
730.541	30352.66
730.882	30226.11
731.224	30431.08
731.565	30253
731.906	30234.47
732.248	30167.36
732.589	30016.85
732.93	29939.57
733.271	29856.63
733.612	29956.51
733.953	29966.91
734.294	29803.07
734.635	29825.22
734.976	29745.45
735.317	29715.84
735.658	29587.26
735.999	29538.22
736.339	29530.09
736.68	29731.44
737.021	29524.44
737.361	29324.67
737.702	29394.95
738.042	29393.59
738.383	29398.34
738.723	29434.04
739.063	29247.61
739.404	29325.34
739.744	29186.59
740.084	29124.22
740.424	29160.38
740.764	29137.78
741.104	29279.7
741.444	29068.18
741.784	28895.53
742.124	28950.21
742.464	28895.75
742.804	28837.45
743.143	28816.43
743.483	28769.88
743.823	28606.49
744.162	28681.52
744.502	28707.06
744.841	28535.76
745.181	28748.18
745.52	28552.03
745.86	28619.6
746.199	28487.4
746.538	28467.29
746.877	28585.93
747.216	28503.67
747.556	28444.24
747.895	28301.42
748.234	28102.55
748.573	28285.6
748.911	28260.74
749.25	28136
749.589	28045.6
749.928	28134.42
750.267	28159.27
750.605	27952.95
750.944	27878.15
751.283	27813.29
751.621	27836.57
751.96	27695.33
752.298	27757.02
752.636	27796.8
752.975	27576.46
753.313	27518.39
753.651	27774.88
753.989	27379.18
754.327	27419.41
754.666	27363.59
755.004	27336.92
755.342	27421.67
755.679	27346.19
756.017	27199.98
756.355	27229.81
756.693	27083.82
757.031	27203.14
757.368	26956.59
757.706	26897.39
758.044	26769.25
758.381	26877.73
758.719	26671.4
759.056	26741.46
759.394	26696.26
759.731	26457.17
760.068	26503.05
760.405	26298.76
760.743	26204.3
761.08	26227.12
761.417	26119.1
761.754	26045.21
762.091	26057.41
762.428	25938.32
762.765	25781.26
763.102	25825.78
763.438	25763.63
763.775	25683.41
764.112	25644.54
764.449	25570.64
764.785	25492.68
765.122	25279.8
765.458	25296.75
765.795	25254.49
766.131	25236.64
766.467	25060.6
766.804	24945.8
767.14	24903.99
767.476	24938.57
767.812	24714.39
768.148	24791.23
768.485	24553.49
768.821	24397.56
769.157	24469.65
769.492	24372.71
769.828	24349.88
770.164	24153.73
770.5	24229.43
770.836	24039.16
771.171	23982.66
771.507	23937.24
771.842	23677.81
772.178	23773.17
772.513	23643.91
772.849	23572.05
773.184	23505.16
773.519	23489.57
773.855	23344.49
774.19	23251.15
774.525	23220.42
774.86	23172.06
775.195	23086.64
775.53	22903.37
775.865	22878.28
776.2	22715.58
776.535	22544.05
776.87	22710.15
777.205	22518.74
777.539	22339.09
777.874	22369.37
778.209	22170.73
778.543	22157.17
778.878	22037.85
779.212	22007.57
779.547	21932.54
779.881	21985.2
780.215	21709.5
780.55	21776.84
780.884	21726
781.218	21636.96
781.552	21674.7
781.886	21572.78
782.22	21373.92
782.554	21287.82
782.888	21020.48
783.222	20985.45
783.556	20977.32
783.889	20973.25
784.223	20768.51
784.557	20873.14
784.89	20780.03
785.224	20613.48
785.557	20582.3
785.891	20541.85
786.224	20486.26
786.558	20447.16
786.891	20199.93
787.224	20145.93
787.557	20174.85
787.891	20026.61
788.224	20011.24
788.557	20020.28
788.89	19951.35
789.223	19909.77
789.556	19781.87
789.888	19669.33
790.221	19568.54
790.554	19482.44
790.887	19512.95
791.219	19425.49
791.552	19333.07
791.884	19255.1
792.217	19267.3
792.549	19159.06
792.882	19120.87
793.214	18936.24
793.546	19009.68
793.879	18830.03
794.211	18724.95
794.543	18833.64
794.875	18698.28
795.207	18739.41
795.539	18645.63
795.871	18592.75
796.203	18507.1
796.535	18450.15
796.867	18382.36
797.198	18257.39
797.53	18280.89
797.862	18186.65
798.193	18180.1
798.525	18029.82
798.856	18018.98
799.188	17898.75
799.519	17703.73
799.85	17706.89
800.182	17745.76
800.513	17773.11
800.844	17595.94
801.175	17708.48
801.506	17598.2
801.837	17539.44
802.168	17477.07
802.499	17347.58
802.83	17392.78
803.161	17295.38
803.491	17230.07
803.822	17292.21
804.153	17160.69
804.483	17033.24
804.814	16981.71
805.145	16962.05
805.475	16867.14
805.805	16837.09
806.136	16906.01
806.466	16803.19
806.796	16785.56
807.126	16606.13
807.457	16535.17
807.787	16570.43
808.117	16464.21
808.447	16460.6
808.777	16540.82
809.107	16359.58
809.436	16394.39
809.766	16283.43
810.096	16281.17
810.426	16200.49
810.755	16153.04
811.085	16128.4
811.414	16148.06
811.744	15978.8
812.073	15980.84
812.403	15995.98
812.732	15969.76
813.061	15939.71
813.39	15825.81
813.719	15760.5
814.049	15829.43
814.378	15810.67
814.707	15689.32
815.036	15639.15
815.365	15556.44
815.693	15433.96
816.022	15441.42
816.351	15427.41
816.68	15353.73
817.008	15417.91
817.337	15280.52
817.665	15178.15
817.994	15205.04
818.322	15203.91
818.651	15142.89
818.979	15018.38
819.307	15125.94
819.636	15097.47
819.964	14988.77
820.292	15020.41
820.62	15069.45
820.948	14941.77
821.276	15024.93
821.604	14917.59
821.932	14972.73
822.259	14908.77
822.587	14876.91
822.915	14907.87
823.243	15052.73
823.57	14904.48
823.898	15005.72
824.225	14830.58
824.553	14857.25
824.88	14915.78
825.207	14934.08
825.535	14891.37
825.862	14849.12
826.189	14793.07
826.516	14860.19
826.843	14946.51
827.17	14973.18
827.497	15034.65
827.824	14889.79
828.151	14951.71
828.478	14840.53
828.805	14945.84
829.131	14877.82
829.458	14887.53
829.785	14789.46
830.111	14820.42
830.438	14900.41
830.764	14836.91
831.09	14854.76
831.417	14688.44
831.743	14829.91
832.069	14882.11
832.395	14698.61
832.722	14800.53
833.048	14784.26
833.374	14746.97
833.7	14752.85
834.026	14753.98
834.351	14733.19
834.677	14702.23
835.003	14735.45
835.329	14650.02
835.654	14629.69
835.98	14644.37
836.306	14637.82
836.631	14607.77
836.956	14557.6
837.282	14569.8
837.607	14523.02
837.932	14431.95
838.258	14431.05
838.583	14373.65
838.908	14391.05
839.233	14353.99
839.558	14397.83
839.883	14313.54
840.208	14175.01
840.533	14303.59
840.858	14285.74
841.182	14363.25
841.507	14240.09
841.832	14146.31
842.156	14064.96
842.481	14125.52
842.805	14037.61
843.13	14023.6
843.454	14066.76
843.778	13978.86
844.103	13926.2
844.427	13957.16
844.751	13921.91
845.075	13903.6
845.399	13873.32
845.723	13675.13
846.047	13785.41
846.371	13643.95
846.695	13682.37
847.019	13524.18
847.343	13436.72
847.666	13401.7
847.99	13358.31
848.313	13297.74
848.637	13245.77
848.96	13276.95
849.284	13220.23
849.607	13065.43
849.931	13054.13
850.254	12977.75
850.577	12944.08
850.9	12823.41
851.223	12825.89
851.546	12754.93
851.869	12701.83
852.192	12731.66
852.515	12660.92
852.838	12626.8
853.161	12560.59
853.483	12486.92
853.806	12478.1
854.129	12460.48
854.451	12382.51
854.774	12368.28
855.096	12307.26
855.419	12295.28
855.741	12266.58
856.063	12242.63
856.385	12114.5
856.708	12022.97
857.03	12041.51
857.352	12067.95
857.674	12005.12
857.996	11977.1
858.318	11903.2
858.64	11899.81
858.961	11894.62
859.283	11820.27
859.605	11784.79
859.926	11815.97
860.248	11710.44
860.57	11698.46
860.891	11665.02
861.212	11676.54
861.534	11653.72
861.855	11575.98
862.176	11551.57
862.498	11541.63
862.819	11520.84
863.14	11498.69
863.461	11519.94
863.782	11397.91
864.103	11469.77
864.424	11445.81
864.745	11405.36
865.065	11386.83
865.386	11343.44
865.707	11235.2
866.027	11252.6
866.348	11282.88
866.668	11230.91
866.989	11157.46
867.309	11190.45
867.63	11207.18
867.95	11232.04
868.27	11064.81
868.59	11150.23
868.91	11060.74
869.23	11034.75
869.55	10997.92
869.87	11044.02
870.19	11044.92
870.51	11048.54
870.83	11019.61
871.15	10939.16
871.469	10976.67
871.789	10984.13
872.109	10890.58
872.428	10855.32
872.748	10845.38
873.067	10965.83
873.386	10879.5
873.706	10863.91
874.025	10783.46
874.344	10793.4
874.663	10786.62
874.982	10736.68
875.301	10765.61
875.62	10719.05
875.939	10636.34
876.258	10641.99
876.577	10628.66
876.896	10691.94
877.214	10615.33
877.533	10696.46
877.852	10630.02
878.17	10541.43
878.489	10656.23
878.807	10584.14
879.125	10519.96
879.444	10534.88
879.762	10494.43
880.08	10454.88
880.398	10408.33
880.716	10423.02
881.034	10449.46
881.352	10432.73
881.67	10364.71
881.988	10416.46
882.306	10367.65
882.624	10333.75
882.941	10276.13
883.259	10202.68
883.577	10257.15
883.894	10164.04
884.212	10192.97
884.529	10226.86
884.846	10119.3
885.164	10104.61
885.481	10090.82
885.798	10149.35
886.115	9983.03
886.432	10031.39
886.75	9919.75
887.067	10001.79
887.383	9905.06
887.7	9964.72
888.017	9902.35
888.334	9942.13
888.651	9858.06
888.967	9889.25
889.284	9812.41
889.6	9806.31
889.917	9702.36
890.233	9700.32
890.55	9685.18
890.866	9713.88
891.182	9625.98
891.498	9566.54
891.815	9557.5
892.131	9553.21
892.447	9546.2
892.763	9556.82
893.079	9458.52
893.395	9399.54
893.71	9441.35
894.026	9431.63
894.342	9433.89
894.657	9327.68
894.973	9323.84
895.289	9307.57
895.604	9218.53
895.92	9181.92
896.235	9183.28
896.55	9104.86
896.865	9103.05
897.181	9140.34
897.496	9093.33
897.811	9014.01
898.126	9064.63
898.441	8973.34
898.756	8917.07
899.071	8869.61
899.386	8929.72
899.7	8790.74
900.015	8776.73
900.33	8714.81
900.644	8727.92
900.959	8683.18
901.273	8616.51
901.588	8650.18
901.902	8591.43
902.216	8587.36
902.531	8556.63
902.845	8539.22
903.159	8517.98
903.473	8466.23
903.787	8412
904.101	8353.47
904.415	8398.44
904.729	8366.12
905.042	8275.5
905.356	8295.39
905.67	8276.41
905.984	8211.78
906.297	8286.8
906.611	8182.85
906.924	8117.77
907.237	8100.59
907.551	8039.35
907.864	8050.2
908.177	8053.59
908.491	8032.57
908.804	7906.47
909.117	7908.05
909.43	7926.81
909.743	7815.85
910.056	7828.06
910.368	7827.83
910.681	7753.03
910.994	7756.42
911.307	7720.26
911.619	7619.7
911.932	7662.19
912.244	7616.76
912.557	7593.03
912.869	7558.01
913.181	7504.68
913.494	7499.25
913.806	7422.87
914.118	7408.86
914.43	7358.01
914.742	7393.27
915.054	7330.22
915.366	7278.24
915.678	7317.11
915.99	7210.45
916.302	7262.87
916.613	7145.59
916.925	7158.47
917.236	7159.83
917.548	7090.22
917.859	7093.16
918.171	7044.12
918.482	6965.48
918.794	6928.19
919.105	6952.83
919.416	6875.99
919.727	6900.17
920.038	6823.56
920.349	6783.11
920.66	6820.4
920.971	6818.14
921.282	6730.23
921.593	6666.96
921.903	6542.44
922.214	6620.41
922.525	6649.33
922.835	6653.17
923.146	6559.62
923.456	6486.17
923.767	6480.97
924.077	6485.49
924.387	6447.3
924.697	6347.87
925.008	6383.8
925.318	6410.92
925.628	6377.47
925.938	6371.15
926.248	6283.01
926.558	6289.79
926.867	6211.15
927.177	6247.99
927.487	6182.45
927.796	6116.69
928.106	6149.68
928.416	6140.87
928.725	6088.67
929.034	6072.4
929.344	6022.23
929.653	6007.77
929.962	5978.16
930.271	5947.2
930.581	5908.79
930.89	5912.85
931.199	5859.97
931.508	5855.68
931.817	5850.93
932.125	5783.36
932.434	5810.48
932.743	5735.68
933.051	5723.93
933.36	5681.45
933.669	5650.71
933.977	5622.01
934.286	5648.68
934.594	5596.48
934.902	5597.61
935.21	5537.72
935.519	5560.32
935.827	5502.92
936.135	5461.11
936.443	5407.1
936.751	5458.85
937.059	5441
937.367	5370.95
937.674	5379.31
937.982	5337.05
938.29	5313.77
938.597	5316.71
938.905	5315.58
939.213	5246.66
939.52	5225.41
939.827	5204.85
940.135	5183.61
940.442	5146.32
940.749	5147
941.056	5136.6
941.363	5103.83
941.67	5061.35
941.977	5054.8
942.284	5025.19
942.591	4991.52
942.898	4980.67
943.205	4988.58
943.511	4949.94
943.818	4908.81
944.125	4896.38
944.431	4898.64
944.738	4901.81
945.044	4870.39
945.35	4870.85
945.657	4779.55
945.963	4765.09
946.269	4718.76
946.575	4738.65
946.881	4724.86
947.187	4693.9
947.493	4675.82
947.799	4669.95
948.105	4667.69
948.41	4641.25
948.716	4596.28
949.022	4583.62
949.327	4599.22
949.633	4519.9
949.938	4537.52
950.244	4542.49
950.549	4439.45
950.854	4451.65
951.16	4457.75
951.465	4398.09
951.77	4405.32
952.075	4372.78
952.38	4362.84
952.685	4374.81
952.99	4314.02
953.294	4315.38
953.599	4259.56
953.904	4197.19
954.209	4271.31
954.513	4220.47
954.818	4176.85
955.122	4168.04
955.426	4202.16
955.731	4149.28
956.035	4114.03
956.339	4152
956.643	4087.82
956.948	4102.05
957.252	4090.53
957.556	4041.72
957.86	4045.11
958.163	4018.44
958.467	3962.85
958.771	4001.94
959.075	3993.36
959.378	3956.52
959.682	3901.61
959.985	3938.67
960.289	3890.31
960.592	3887.37
960.896	3859.35
961.199	3869.29
961.502	3813.47
961.805	3819.12
962.108	3810.08
962.411	3783.19
962.714	3750.42
963.017	3728.5
963.32	3755.17
963.623	3690.31
963.926	3715.4
964.228	3692.35
964.531	3658.9
964.833	3608.51
965.136	3655.51
965.438	3614.38
965.741	3592.24
966.043	3597.89
966.345	3552.24
966.648	3566.7
966.95	3571.45
967.252	3520.83
967.554	3539.81
967.856	3496.42
968.158	3514.5
968.46	3465.46
968.761	3460.49
969.063	3412.58
969.365	3411.68
969.666	3421.85
969.968	3364.67
970.269	3357.44
970.571	3360.6
970.872	3369.64
971.174	3315.18
971.475	3347.27
971.776	3308.85
972.077	3304.79
972.378	3261.17
972.679	3277.67
972.98	3256.88
973.281	3219.36
973.582	3256.88
973.883	3196.31
974.183	3161.51
974.484	3186.6
974.785	3158.12
975.085	3156.54
975.386	3171.46
975.686	3094.62
975.986	3067.73
976.287	3092.81
976.587	3079.03
976.887	3044.23
977.187	3037.22
977.487	2997.68
977.787	3012.82
978.087	3007.39
978.387	3019.6
978.687	3025.25
978.987	2938.69
979.286	2946.15
979.586	2945.25
979.885	2951.8
980.185	2897.34
980.484	2888.3
980.784	2886.04
981.083	2896.66
981.382	2878.13
981.682	2867.06
981.981	2838.81
982.28	2797.23
982.579	2793.16
982.878	2836.32
983.177	2780.51
983.475	2789.77
983.774	2759.49
984.073	2766.72
984.372	2706.84
984.67	2731.47
984.969	2732.6
985.267	2719.49
985.566	2658.25
985.864	2677.46
986.162	2699.38
986.461	2626.16
986.759	2609.89
987.057	2636.55
987.355	2625.93
987.653	2622.77
987.951	2613.73
988.249	2581.87
988.547	2564.24
988.844	2594.07
989.142	2542.77
989.44	2544.58
989.737	2531.25
990.035	2535.09
990.332	2486.05
990.63	2480.85
990.927	2476.79
991.224	2450.8
991.521	2455.09
991.819	2443.11
992.116	2418.26
992.413	2418.26
992.71	2428.88
993.006	2424.58
993.303	2378.26
993.6	2416.9
993.897	2397.69
994.193	2361.53
994.49	2331.7
994.787	2342.55
995.083	2319.5
995.379	2320.86
995.676	2319.95
995.972	2305.49
996.268	2285.38
996.565	2262.33
996.861	2252.16
997.157	2250.8
997.453	2240.63
997.749	2224.36
998.044	2211.26
998.34	2174.87
998.636	2183.23
998.932	2191.59
999.227	2160.86
999.523	2138.49
999.818	2153.18
1000.114	2134.2
1000.409	2122.9
1000.704	2123.57
1001	2116.57
1001.295	2078.83
1001.59	2067.53
1001.885	2070.24
1002.18	2050.36
1002.475	2044.03
1002.77	2039.28
1003.065	2000.87
1003.359	2006.97
1003.654	2017.59
1003.949	1981.2
1004.243	1994.54
1004.538	1962.9
1004.832	1933.07
1005.127	1958.61
1005.421	1920.42
1005.715	1946.4
1006.009	1916.57
1006.304	1925.16
1006.598	1877.7
1006.892	1898.27
1007.186	1898.72
1007.48	1878.16
1007.773	1889.68
1008.067	1836.58
1008.361	1802.45
1008.655	1805.39
1008.948	1811.72
1009.242	1811.04
1009.535	1777.14
1009.829	1797.71
1010.122	1772.85
1010.415	1770.82
1010.708	1775.79
1011.001	1758.84
1011.295	1712.96
1011.588	1753.19
1011.881	1710.48
1012.173	1685.39
1012.466	1698.27
1012.759	1676.35
1013.052	1666.19
1013.344	1672.74
1013.637	1654.66
1013.93	1669.35
1014.222	1624.6
1014.514	1646.07
1014.807	1597.71
1015.099	1599.07
1015.391	1618.28
1015.683	1618.73
1015.976	1555.68
1016.268	1580.31
1016.56	1568.79
1016.851	1544.61
1017.143	1537.6
1017.435	1531.05
1017.727	1527.43
1018.018	1537.37
1018.31	1515.23
1018.602	1531.95
1018.893	1474.33
1019.185	1481.11
1019.476	1475.23
1019.767	1449.92
1020.058	1473.65
1020.35	1446.08
1020.641	1430.48
1020.932	1416.7
1021.223	1427.77
1021.514	1405.63
1021.804	1407.43
1022.095	1378.96
1022.386	1380.09
1022.677	1371.5
1022.967	1366.31
1023.258	1383.48
1023.548	1391.62
1023.839	1336.02
1024.129	1332.18
1024.419	1308.91
1024.709	1310.04
1025	1297.38
1025.29	1319.3
1025.58	1279.08
1025.87	1278.62
1026.16	1288.34
1026.449	1264.16
1026.739	1238.4
1027.029	1255.8
1027.319	1222.81
1027.608	1205.86
1027.898	1225.07
1028.187	1204.5
1028.477	1188.46
1028.766	1190.49
1029.055	1175.58
1029.344	1206.54
1029.634	1195.01
1029.923	1190.04
1030.212	1144.16
1030.501	1140.78
1030.79	1149.14
1031.078	1151.17
1031.367	1136.93
1031.656	1123.83
1031.945	1122.24
1032.233	1084.73
1032.522	1091.96
1032.81	1108.01
1033.099	1071.85
1033.387	1090.83
1033.675	1062.13
1033.963	1044.73
1034.251	1068.69
1034.54	1050.38
1034.828	1037.73
1035.116	1017.39
1035.403	1029.37
1035.691	1016.26
1035.979	1012.64
1036.267	1004.06
1036.554	995.02
1036.842	1008.58
1037.129	996.15
1037.417	992.08
1037.704	967.67
1037.992	958.41
1038.279	978.29
1038.566	935.13
1038.853	935.13
1039.14	935.13
