Data from hue_130_FLMS001491_00064.txt Node
Date: Tue Feb 07 16:57:55 GMT 2017
User: dcchb
Spectrometer: FLMS00149
Trigger mode: 0
Integration Time (sec): 2.000000E-2
Scans to average: 10
Electric dark correction enabled: true
Nonlinearity correction enabled: false
Boxcar width: 0
XAxis mode: Wavelengths
Number of Pixels in Spectrum: 2048
>>>>>Begin Spectral Data<<<<<
341.393	-2.3
341.776	-2.3
342.16	-2.3
342.543	-52.92
342.927	-68.74
343.31	-82.98
343.693	-71.23
344.077	-72.58
344.46	-63.77
344.843	-57.44
345.226	-59.25
345.61	-26.93
345.993	-35.3
346.376	13.29
346.759	-6.37
347.142	22.1
347.525	61.65
347.908	72.05
348.291	76.57
348.674	113.4
349.057	116.79
349.44	141.87
349.823	143
350.206	155.43
350.588	196.56
350.971	224.36
351.354	241.31
351.737	236.34
352.119	261.19
352.502	254.41
352.884	283.34
353.267	281.53
353.65	299.61
354.032	300.51
354.414	289.89
354.797	339.84
355.179	335.77
355.562	343.23
355.944	335.09
356.326	338.03
356.709	357.91
357.091	350.23
357.473	345.94
357.855	346.16
358.238	357.01
358.62	343.9
359.002	344.58
359.384	340.06
359.766	333.73
360.148	346.84
360.53	354.3
360.912	339.16
361.294	337.8
361.676	335.99
362.057	336.9
362.439	327.86
362.821	343.45
363.203	342.32
363.584	324.69
363.966	323.34
364.348	343
364.729	339.61
365.111	320.4
365.493	340.29
365.874	337.58
366.256	354.98
366.637	285.37
367.019	331.25
367.4	329.44
367.781	336.67
368.163	324.92
368.544	309.33
368.925	322.66
369.306	319.27
369.688	341.42
370.069	312.72
370.45	314.75
370.831	310.68
371.212	317.69
371.593	329.21
371.974	310.23
372.355	313.62
372.736	312.72
373.117	324.24
373.498	327.63
373.879	306.16
374.26	305.49
374.641	302.77
375.021	313.62
375.402	322.89
375.783	320.4
376.163	337.58
376.544	338.71
376.925	327.63
377.305	340.06
377.686	319.05
378.066	367.63
378.447	337.35
378.827	336.9
379.208	351.36
379.588	350
379.968	366.73
380.349	348.65
380.729	361.76
381.109	356.56
381.489	349.1
381.87	352.72
382.25	355.2
382.63	349.78
383.01	360.4
383.39	368.76
383.77	358.37
384.15	346.39
384.53	364.92
384.91	349.55
385.29	356.78
385.67	358.37
386.049	359.27
386.429	370.12
386.809	375.77
387.189	361.53
387.568	383.9
387.948	369.44
388.328	374.41
388.707	365.82
389.087	351.36
389.466	397.69
389.846	387.52
390.225	383.9
390.605	380.29
390.984	394.52
391.363	388.42
391.743	406.95
392.122	376.22
392.501	375.31
392.881	381.87
393.26	408.53
393.639	378.48
394.018	391.81
394.397	395.88
394.776	404.47
395.155	377.35
395.534	409.66
395.913	387.74
396.292	402.88
396.671	397.24
397.05	409.66
397.429	408.76
397.808	405.82
398.186	411.47
398.565	405.14
398.944	404.47
399.323	416.22
399.701	406.5
400.08	424.58
400.458	432.04
400.837	421.87
401.215	426.16
401.594	421.19
401.972	440.4
402.351	427.74
402.729	430
403.107	432.04
403.486	417.35
403.864	419.38
404.242	429.1
404.62	454.63
404.999	431.58
405.377	432.49
405.755	439.04
406.133	444.92
406.511	454.86
406.889	462.09
407.267	454.41
407.645	481.3
408.023	458.02
408.401	477.69
408.779	468.42
409.156	463
409.534	486.72
409.912	473.39
410.29	496.44
410.667	470.45
411.045	515.2
411.422	494.41
411.8	495.09
412.178	484.46
412.555	475.43
412.933	492.6
413.31	524.01
413.687	534.63
414.065	525.59
414.442	516.1
414.819	523.33
415.197	520.4
415.574	511.81
415.951	543.67
416.328	507.74
416.705	523.79
417.082	548.19
417.46	532.15
417.837	559.72
418.214	560.62
418.591	541.64
418.967	550.23
419.344	543.22
419.721	553.62
420.098	567.17
420.475	559.26
420.852	570.11
421.228	583.45
421.605	577.57
421.982	580.51
422.358	608.98
422.735	597
423.111	579.15
423.488	587.96
423.864	595.2
424.241	627.51
424.617	601.75
424.994	596.55
425.37	610.79
425.746	623.9
426.123	643.1
426.499	631.35
426.875	622.09
427.251	634.29
427.627	652.14
428.003	622.77
428.379	649.43
428.756	649.43
429.132	660.28
429.507	666.38
429.883	662.99
430.259	707.51
430.635	696.44
431.011	705.25
431.387	698.92
431.763	702.31
432.138	689.43
432.514	732.37
432.89	719.94
433.265	735.08
433.641	716.1
434.016	727.4
434.392	731.01
434.767	758.81
435.143	764.46
435.518	774.63
435.894	788.41
436.269	778.69
436.644	795.42
437.02	796.09
437.395	782.54
437.77	829.31
438.145	834.96
438.52	801.29
438.895	817.11
439.271	817.56
439.646	844
440.021	841.29
440.395	863.44
440.77	858.47
441.145	844.46
441.52	847.17
441.895	895.08
442.27	883.55
442.645	892.82
443.019	889.88
443.394	879.71
443.769	888.07
444.143	910.67
444.518	917.9
444.892	913.15
445.267	938.01
445.641	935.07
446.016	914.51
446.39	926.71
446.764	976.66
447.139	959.71
447.513	948.63
447.887	965.81
448.262	965.36
448.636	960.38
449.01	989.54
449.384	1004
449.758	1009.42
450.132	1004
450.506	1016.88
450.88	1020.27
451.254	1011.46
451.628	1037.22
452.002	1046.71
452.376	1039.25
452.75	1045.81
453.123	1053.49
453.497	1071.57
453.871	1103.88
454.244	1100.72
454.618	1119.25
454.992	1132.81
455.365	1106.14
455.739	1145.69
456.112	1183.43
456.486	1174.62
456.859	1189.76
457.232	1178.68
457.606	1192.24
457.979	1228.85
458.352	1273.37
458.725	1251
459.099	1257.55
459.472	1270.43
459.845	1270.21
460.218	1283.99
460.591	1313.37
460.964	1331.67
461.337	1364.22
461.71	1355.85
462.083	1401.05
462.456	1400.15
462.829	1404.21
463.201	1451.9
463.574	1427.49
463.947	1493.25
464.32	1495.74
464.692	1514.49
465.065	1530.31
465.438	1567.83
465.81	1571.22
466.183	1614.83
466.555	1652.8
466.928	1647.15
467.3	1622.06
467.672	1700.25
468.045	1726.01
468.417	1733.7
468.789	1772.34
469.161	1801.27
469.534	1842.62
469.906	1882.62
470.278	1865.67
470.65	1900.02
471.022	1956.29
471.394	1995.84
471.766	2031.99
472.138	2087.81
472.51	2100.02
472.882	2152.22
473.253	2196.28
473.625	2232.67
473.997	2304.08
474.369	2315.6
474.74	2363.06
475.112	2397.86
475.484	2445.77
475.855	2541.13
476.227	2585.2
476.598	2661.36
476.97	2699.55
477.341	2784.52
477.713	2838.08
478.084	2901.35
478.455	2982.48
478.827	3025.64
479.198	3129.59
479.569	3202.36
479.94	3294.56
480.311	3332.98
480.682	3453.88
481.053	3595.57
481.424	3693.65
481.795	3747.2
482.166	3864.94
482.537	3931.38
482.908	4034.2
483.279	4153.52
483.65	4231.03
484.021	4382.44
484.391	4454.08
484.762	4576.33
485.133	4658.82
485.503	4804.13
485.874	4920.73
486.244	5051.58
486.615	5165.25
486.985	5291.34
487.356	5462.19
487.726	5525.24
488.097	5704.44
488.467	5812.91
488.837	6021.04
489.207	6075.5
489.578	6289.28
489.948	6409.05
490.318	6536.96
490.688	6668.93
491.058	6833
491.428	7036.16
491.798	7138.08
492.168	7285.64
492.538	7424.62
492.908	7560.21
493.278	7726.76
493.648	7808.11
494.017	8038.84
494.387	8126.98
494.757	8270.7
495.126	8393.64
495.496	8520.86
495.866	8601.77
496.235	8745.72
496.605	8939.61
496.974	8994.75
497.344	9158.36
497.713	9264.57
498.082	9441.52
498.452	9579.14
498.821	9667.73
499.19	9713.83
499.559	9821.62
499.928	10021.16
500.298	10104.1
500.667	10283.98
501.036	10249.41
501.405	10427.48
501.774	10566.46
502.143	10635.38
502.512	10741.82
502.88	10817.75
503.249	10926.45
503.618	10980.01
503.987	11045.99
504.356	11202.6
504.724	11242.15
505.093	11317.17
505.462	11373.44
505.83	11522.14
506.199	11537.73
506.567	11758.52
506.936	11723.27
507.304	11885.29
507.672	11901.11
508.041	12039.64
508.409	12113.99
508.777	12234.89
509.145	12304.04
509.514	12243.7
509.882	12379.07
510.25	12390.82
510.618	12457.48
510.986	12468.1
511.354	12692.73
511.722	12755.1
512.09	12842.33
512.458	12783.58
512.826	12944.02
513.193	12957.58
513.561	12929.11
513.929	13097.01
514.297	13174.07
514.664	13259.95
515.032	13217.92
515.4	13340.85
515.767	13424.69
516.135	13438.47
516.502	13274.86
516.869	13499.26
517.237	13516.21
517.604	13515.31
517.972	13642.31
518.339	13698.35
518.706	13611.58
519.073	13706.94
519.44	13845.24
519.808	13902.87
520.175	13887.28
520.542	13998.91
520.909	13991.68
521.276	13886.82
521.643	14068.97
522.009	14114.39
522.376	14151.22
522.743	14106.03
523.11	14235.97
523.477	14383.53
523.843	14354.83
524.21	14481.61
524.577	14422.4
524.943	14511.89
525.31	14566.13
525.676	14563.87
526.043	14522.06
526.409	14665.56
526.776	14715.73
527.142	14762.28
527.508	14769.51
527.874	14785.56
528.241	14748.72
528.607	14840.47
528.973	14826.69
529.339	14770.42
529.705	14956.17
530.071	14959.56
530.437	14904.2
530.803	14994.14
531.169	14905.55
531.535	14901.03
531.901	14889.06
532.267	14900.36
532.632	14913.69
532.998	14945.55
533.364	14927.7
533.73	14840.47
534.095	14995.72
534.461	14968.38
534.826	15004.08
535.192	15012.9
535.557	15061.03
535.923	14962.28
536.288	14916.85
536.653	14924.08
537.019	14885.67
537.384	14840.02
537.749	14830.08
538.114	14851.32
538.479	14783.98
538.845	14888.38
539.21	14785.11
539.575	14748.72
539.94	14712.34
540.305	14706.46
540.67	14681.38
541.034	14614.04
541.399	14642.28
541.764	14655.62
542.129	14568.84
542.494	14545.34
542.858	14534.04
543.223	14515.06
543.587	14562.96
543.952	14432.12
544.316	14476.87
544.681	14401.16
545.045	14442.97
545.41	14385.34
545.774	14353.25
546.138	14335.17
546.503	14289.07
546.867	14205.91
547.231	14331.78
547.595	14139.47
547.959	14256.76
548.324	14210.88
548.688	14096.08
549.052	14136.54
549.416	14025.13
549.779	14075.29
550.143	13988.06
550.507	14025.8
550.871	13982.64
551.235	13881.4
551.599	13948.74
551.962	13917.33
552.326	13913.72
552.689	13945.58
553.053	13792.82
553.417	13786.71
553.78	13876.88
554.143	13815.19
554.507	13788.3
554.87	13808.18
555.234	13915.98
555.597	13741.74
555.96	13758.69
556.323	13728.41
556.686	13673.04
557.05	13726.38
557.413	13852.93
557.776	13712.82
558.139	13767.73
558.502	13753.27
558.865	13797.79
559.228	13781.97
559.59	13769.54
559.953	13722.08
560.316	13892.47
560.679	13704.68
561.041	13789.43
561.404	13834.4
561.767	13883.21
562.129	13786.26
562.492	13859.93
562.854	13747.17
563.217	13877.33
563.579	13818.58
563.941	13862.64
564.304	13878.69
564.666	13949.2
565.028	13894.73
565.39	13896.99
565.753	13958.69
566.115	13996.43
566.477	14044.79
566.839	13996.2
567.201	14066.93
567.563	14075.75
567.925	14133.37
568.287	14088.17
568.648	14082.75
569.01	14119.13
569.372	14143.77
569.734	14188.74
570.095	14250.66
570.457	14226.02
570.819	14215.86
571.18	14196.19
571.542	14245.46
571.903	14302.41
572.265	14308.06
572.626	14358.68
572.987	14338.34
573.349	14283.88
573.71	14396.64
574.071	14432.8
574.432	14409.3
574.794	14438.67
575.155	14472.12
575.516	14371.56
575.877	14412.69
576.238	14430.54
576.599	14472.8
576.96	14546.92
577.32	14454.49
577.681	14415.85
578.042	14487.94
578.403	14456.3
578.763	14469.41
579.124	14448.39
579.485	14478
579.845	14654.94
580.206	14562.74
580.566	14517.54
580.927	14522.97
581.287	14467.37
581.648	14436.41
582.008	14539.01
582.368	14533.36
582.728	14522.29
583.089	14449.97
583.449	14509.41
583.809	14512.12
584.169	14572
584.529	14414.72
584.889	14531.33
585.249	14437.32
585.609	14449.97
585.969	14448.84
586.329	14416.08
586.688	14431.67
587.048	14430.76
587.408	14403.42
587.768	14393.25
588.127	14425.57
588.487	14279.36
588.846	14490.65
589.206	14285.01
589.565	14301.5
589.925	14373.82
590.284	14342.86
590.643	14322.07
591.003	14338.34
591.362	14467.6
591.721	14373.82
592.08	14312.58
592.44	14393.7
592.799	14281.16
593.158	14248.85
593.517	14292.69
593.876	14285.68
594.235	14289.53
594.593	14275.29
594.952	14300.82
595.311	14189.64
595.67	14282.29
596.029	14272.12
596.387	14311.9
596.746	14366.13
597.104	14275.51
597.463	14169.75
597.822	14240.94
598.18	14214.95
598.538	14207.95
598.897	14292.01
599.255	14158.46
599.613	14379.69
599.972	14211.34
600.33	14240.49
600.688	14174.27
601.046	14282.75
601.404	14290.66
601.762	14275.97
602.12	14354.61
602.478	14352.12
602.836	14283.88
603.194	14221.28
603.552	14260.83
603.91	14244.55
604.268	14287.94
604.625	14195.29
604.983	14326.36
605.341	14234.61
605.698	14324.78
606.056	14333.37
606.413	14339.47
606.771	14390.77
607.128	14350.99
607.485	14293.14
607.843	14315.06
608.2	14333.59
608.557	14395.96
608.914	14321.16
609.272	14365
609.629	14433.25
609.986	14439.13
610.343	14403.42
610.7	14503.98
611.057	14526.81
611.414	14397.55
611.771	14402.97
612.127	14503.98
612.484	14557.09
612.841	14492.01
613.198	14428.73
613.554	14495.4
613.911	14541.04
614.267	14607.26
614.624	14504.21
614.98	14623.53
615.337	14617.43
615.693	14541.95
616.05	14602.51
616.406	14627.82
616.762	14579.46
617.118	14645
617.475	14586.24
617.831	14699.46
618.187	14726.12
618.543	14634.6
618.899	14774.48
619.255	14673.7
619.611	14662.17
619.967	14713.7
620.323	14739.68
620.678	14728.84
621.034	14612
621.39	14605.68
621.746	14716.86
622.101	14802.51
622.457	14692
622.812	14681.15
623.168	14762.06
623.523	14716.41
623.879	14809.51
624.234	14632.57
624.589	14679.57
624.945	14670.53
625.3	14754.15
625.655	14747.59
626.01	14703.75
626.365	14723.86
626.72	14690.87
627.075	14732.45
627.43	14696.75
627.785	14690.64
628.14	14687.26
628.495	14719.57
628.85	14690.42
629.205	14621.49
629.559	14681.61
629.914	14579.01
630.269	14681.83
630.623	14537.65
630.978	14631.44
631.332	14645.67
631.687	14598.67
632.041	14491.33
632.396	14625.56
632.75	14479.58
633.104	14541.72
633.459	14489.97
633.813	14471.44
634.167	14468.5
634.521	14442.52
634.875	14486.36
635.229	14464.89
635.583	14344.44
635.937	14384.89
636.291	14315.06
636.645	14348.51
636.999	14387.38
637.352	14405.68
637.706	14367.49
638.06	14370.2
638.413	14306.02
638.767	14317.1
639.121	14323.42
639.474	14261.96
639.828	14285.01
640.181	14325.46
640.534	14238.68
640.888	14209.75
641.241	14209.08
641.594	14173.37
641.947	14140.83
642.301	14131.79
642.654	14131.34
643.007	14125.46
643.36	14158
643.713	14111.23
644.066	14179.47
644.419	14167.04
644.771	13952.59
645.124	13893.83
645.477	13807.73
645.83	13715.08
646.182	13761.4
646.535	13655.19
646.888	13663.78
647.24	13649.32
647.593	13683.44
647.945	13660.16
648.298	13636.66
648.65	13512.37
649.002	13553.5
649.355	13661.52
649.707	13618.13
650.059	13636.89
650.411	13850.21
650.763	13852.93
651.115	13872.36
651.467	13858.12
651.819	13918.69
652.171	13850.21
652.523	13840.27
652.875	13846.15
653.227	13840.27
653.578	13878.91
653.93	13864.68
654.282	13824.68
654.633	13823.32
654.985	13774.74
655.337	13845.02
655.688	13932.92
656.039	13948.29
656.391	13794.85
656.742	13796.88
657.094	13832.14
657.445	14029.65
657.796	13870.33
658.147	13806.6
658.498	13809.76
658.849	13930.66
659.2	13869.42
659.551	13817
659.902	13904
660.253	13907.84
660.604	13922.3
660.955	13866.49
661.306	13993.71
661.656	13943.77
662.007	13994.62
662.358	13958.23
662.708	13926.6
663.059	13932.47
663.409	13878.01
663.76	13897.22
664.11	13927.5
664.461	13950.1
664.811	13942.42
665.161	13859.93
665.511	13886.15
665.862	13920.95
666.212	13991
666.562	13978.35
666.912	13948.74
667.262	13852.93
667.612	13915.3
667.962	13863.32
668.312	13853.83
668.662	14007.5
669.011	13916.2
669.361	13943.55
669.711	13858.12
670.06	13917.78
670.41	13866.94
670.76	13847.73
671.109	13953.04
671.459	13893.6
671.808	13902.19
672.157	13937.67
672.507	13743.55
672.856	13806.6
673.205	13805.24
673.554	13755.53
673.904	13892.7
674.253	13787.39
674.602	13850.44
674.951	13633.95
675.3	13572.03
675.649	13725.47
675.998	13737.22
676.346	13758.92
676.695	13777.45
677.044	13699.03
677.393	13688.64
677.741	13720.27
678.09	13706.72
678.438	13588.07
678.787	13667.17
679.135	13678.47
679.484	13503.78
679.832	13629.66
680.181	13498.13
680.529	13491.58
680.877	13453.84
681.225	13489.77
681.573	13494.74
681.922	13374.97
682.27	13293.39
682.618	13394.41
682.966	13349.66
683.314	13363.67
683.661	13323.9
684.009	13302.66
684.357	13214.3
684.705	13201.87
685.053	13268.76
685.4	13207.75
685.748	13058.82
686.095	13082.1
686.443	13113.29
686.79	13056.34
687.138	13059.95
687.485	13095.88
687.832	13031.25
688.18	12925.04
688.527	12923.23
688.874	12885.04
689.221	12901.09
689.568	12829.45
689.915	12794.2
690.262	12716.69
690.609	12770.47
690.956	12731.83
691.303	12679.62
691.65	12603.24
691.997	12676.23
692.344	12511.49
692.69	12490.7
693.037	12548.33
693.383	12385.62
693.73	12460.42
694.077	12284.61
694.423	12342.23
694.769	12227.21
695.116	12278.05
695.462	12253.65
695.808	12223.37
696.155	12167.55
696.501	12070.6
696.847	12052.75
697.193	11996.03
697.539	12036.93
697.885	11942.02
698.231	11884.84
698.577	11830.83
698.923	11750.84
699.269	11769.82
699.614	11712.87
699.96	11685.75
700.306	11626.54
700.651	11646.43
700.997	11569.37
701.342	11524.4
701.688	11485.76
702.033	11405.53
702.379	11514.91
702.724	11418.41
703.069	11412.76
703.415	11287.8
703.76	11222.71
704.105	11235.59
704.45	11269.27
704.795	11145.88
705.14	11152.66
705.485	11089.16
705.83	11024.98
706.175	11033.11
706.52	11051.64
706.865	10989.95
707.209	11043.96
707.554	10904.3
707.899	10916.96
708.243	10889.39
708.588	10878.77
708.932	10740.24
709.277	10756.28
709.621	10763.97
709.966	10663.41
710.31	10682.39
710.654	10565.78
710.998	10603.52
711.342	10648.49
711.687	10596.06
712.031	10552.67
712.375	10543.18
712.719	10551.54
713.063	10457.08
713.407	10561.49
713.75	10498.66
714.094	10401.72
714.438	10400.14
714.782	10515.16
715.125	10355.17
715.469	10408.27
715.812	10309.97
716.156	10231.55
716.499	10356.97
716.843	10262.74
717.186	10191.55
717.53	10284.66
717.873	10255.51
718.216	10235.17
718.559	10175.96
718.902	10155.85
719.246	10153.59
719.589	10135.28
719.932	10143.19
720.275	10149.3
720.617	10120.37
720.96	10051.22
721.303	10026.59
721.646	10056.64
721.989	9996.3
722.331	10054.38
722.674	10024.33
723.016	10012.58
723.359	9950.66
723.701	9956.31
724.044	9918.34
724.386	9877.66
724.729	9911.11
725.071	9907.72
725.413	9872.92
725.755	9892.58
726.097	9821.62
726.439	9821.17
726.782	9869.98
727.124	9842.64
727.465	9905.01
727.807	9807.16
728.149	9785.24
728.491	9792.24
728.833	9857.78
729.175	9772.13
729.516	9796.31
729.858	9829.76
730.199	9835.63
730.541	9764.9
730.882	9818
731.224	9849.64
731.565	9718.12
731.906	9737.55
732.248	9743.66
732.589	9739.81
732.93	9714.96
733.271	9723.77
733.612	9738.91
733.953	9720.38
734.294	9753.6
734.635	9701.85
734.976	9717.22
735.317	9693.94
735.658	9676.77
735.999	9784.11
736.339	9721.51
736.68	9723.32
737.021	9704.34
737.361	9688.06
737.702	9711.34
738.042	9770.55
738.383	9663.66
738.723	9758.12
739.063	9737.55
739.404	9759.93
739.744	9789.53
740.084	9735.52
740.424	9727.84
740.764	9838.12
741.104	9811.9
741.444	9821.85
741.784	9764.45
742.124	9831.79
742.464	9847.61
742.804	9823.65
743.143	9856.87
743.483	9959.7
743.823	9896.42
744.162	9898.68
744.502	9997.89
744.841	9940.26
745.181	10049.86
745.52	10044.89
745.86	10097.55
746.199	10102.29
746.538	10100.26
746.877	10196.07
747.216	10250.08
747.556	10303.87
747.895	10314.49
748.234	10314.26
748.573	10380.93
748.911	10429.29
749.25	10576.18
749.589	10568.49
749.928	10611.88
750.267	10714.48
750.605	10817.3
750.944	10824.76
751.283	10910.18
751.621	11039.22
751.96	11027.01
752.298	11137.52
752.636	11234.92
752.975	11281.69
753.313	11343.16
753.651	11445.76
753.989	11595.58
754.327	11706.99
754.666	11775.24
755.004	11916.48
755.342	12061.79
755.679	12219.98
756.017	12334.1
756.355	12496.13
756.693	12538.84
757.031	12793.07
757.368	12815.21
757.706	12931.82
758.044	13090.69
758.381	13308.76
758.719	13447.51
759.056	13567.74
759.394	13694.96
759.731	13828.52
760.068	13949.65
760.405	14089.53
760.743	14280.94
761.08	14412.23
761.417	14555.51
761.754	14688.61
762.091	14898.77
762.428	15069.17
762.765	15256.73
763.102	15390.51
763.438	15487.23
763.775	15623.73
764.112	15868.01
764.449	16030.72
764.785	16157.95
765.122	16211.51
765.458	16361.56
765.795	16584.61
766.131	16651.5
766.467	16899.85
766.804	17031.37
767.14	17085.38
767.476	17136.91
767.812	17373.29
768.148	17521.08
768.485	17537.12
768.821	17624.13
769.157	17750.23
769.492	17966.49
769.828	18009.88
770.164	18049.43
770.5	18203.09
770.836	18308.85
771.171	18381.17
771.507	18402.64
771.842	18483.54
772.178	18668.62
772.513	18730.54
772.849	18717.88
773.184	18810.54
773.519	18939.12
773.855	18948.39
774.19	19015.95
774.525	19091.66
774.86	19137.53
775.195	19234.71
775.53	19273.8
775.865	19322.39
776.2	19296.4
776.535	19196.52
776.87	19331.65
777.205	19326.46
777.539	19311.77
777.874	19518.09
778.209	19507.24
778.543	19426.57
778.878	19439.9
779.212	19509.95
779.547	19515.6
779.881	19607.13
780.215	19475.15
780.55	19563.51
780.884	19542.04
781.218	19577.52
781.552	19547.92
781.886	19600.35
782.22	19491.42
782.554	19591.98
782.888	19370.07
783.222	19384.08
783.556	19431.76
783.889	19340.69
784.223	19285.33
784.557	19355.38
784.89	19373.23
785.224	19299.34
785.557	19343.86
785.891	19361.48
786.224	19248.04
786.558	19317.64
786.891	19163.97
787.224	19127.36
787.557	19139.57
787.891	19079.46
788.224	19097.08
788.557	19095.5
788.89	19182.28
789.223	19095.73
789.556	19056.63
789.888	18950.87
790.221	18879.91
790.554	18855.51
790.887	18898.9
791.219	18768.05
791.552	18668.39
791.884	18734.61
792.217	18636.98
792.549	18646.92
792.882	18575.74
793.214	18526.7
793.546	18638.11
793.879	18420.49
794.211	18355.86
794.543	18611.22
794.875	18407.84
795.207	18541.62
795.539	18462.07
795.871	18416.65
796.203	18330.78
796.535	18148.86
796.867	18232.47
797.198	18064.34
797.53	18203.32
797.862	17937.34
798.193	17995.64
798.525	17893.27
798.856	17977.56
799.188	17852.6
799.519	17790
799.85	17773.05
800.182	17684.01
800.513	17692.83
800.844	17638.82
801.175	17660.06
801.506	17660.28
801.837	17628.42
802.168	17514.3
802.499	17511.59
802.83	17352.5
803.161	17412.83
803.491	17372.16
803.822	17456.9
804.153	17282.22
804.483	17199.51
804.814	17100.52
805.145	17149.56
805.475	17136.91
805.805	17046.06
806.136	17058.27
806.466	17037.25
806.796	17036.35
807.126	16881.32
807.457	16841.77
807.787	16884.26
808.117	16759.97
808.447	16728.33
808.777	16688.56
809.107	16675.45
809.436	16634.55
809.766	16615.79
810.096	16510.26
810.426	16454.67
810.755	16516.13
811.085	16404.27
811.414	16445.85
811.744	16328.34
812.073	16341.22
812.403	16293.77
812.732	16197.05
813.061	16259.87
813.39	16095.58
813.719	16084.05
814.049	16173.09
814.378	16166.31
814.707	16085.86
815.036	16077.73
815.365	15949.37
815.693	15861.91
816.022	15919.31
816.351	15791.41
816.68	15841.8
817.008	15894.91
817.337	15719.32
817.665	15669.38
817.994	15628.02
818.322	15669.6
818.651	15564.29
818.979	15678.64
819.307	15696.72
819.636	15615.37
819.964	15526.33
820.292	15589.83
820.62	15574.24
820.948	15484.97
821.276	15562.26
821.604	15545.76
821.932	15613.33
822.259	15540.57
822.587	15483.17
822.915	15478.87
823.243	15576.05
823.57	15407.01
823.898	15477.52
824.225	15436.16
824.553	15432.32
824.88	15424.18
825.207	15528.59
825.535	15461.02
825.862	15476.61
826.189	15427.57
826.516	15586.21
826.843	15521.13
827.17	15536.05
827.497	15492.43
827.824	15414.02
828.151	15507.8
828.478	15461.92
828.805	15528.81
829.131	15394.13
829.458	15427.12
829.785	15357.75
830.111	15412.43
830.438	15472.09
830.764	15497.86
831.09	15499.44
831.417	15437.29
831.743	15518.42
832.069	15454.24
832.395	15272.32
832.722	15459.89
833.048	15324.98
833.374	15428.25
833.7	15363.85
834.026	15355.94
834.351	15339.89
834.677	15381.25
835.003	15369.72
835.329	15345.09
835.654	15334.24
835.98	15250.4
836.306	15370.4
836.631	15173.12
836.956	15241.59
837.282	15239.78
837.607	15193.23
837.932	15179.45
838.258	15091.54
838.583	15141.03
838.908	15127.7
839.233	15061.93
839.558	15100.8
839.883	15030.97
840.208	14935.84
840.533	14926.8
840.858	14974.48
841.182	14932.45
841.507	14996.17
841.832	14849.28
842.156	14819.91
842.481	14799.12
842.805	14765.9
843.13	14686.35
843.454	14693.58
843.778	14636.86
844.103	14588.5
844.427	14607.71
844.751	14570.42
845.075	14576.3
845.399	14469.41
845.723	14461.95
846.047	14413.14
846.371	14301.05
846.695	14336.98
847.019	14239.81
847.343	14164.78
847.666	14049.08
847.99	14140.38
848.313	14030.78
848.637	13893.83
848.96	13873.72
849.284	13915.75
849.607	13785.58
849.931	13774.96
850.254	13651.58
850.577	13630.79
850.9	13531.81
851.223	13601.86
851.546	13483.67
851.869	13331.36
852.192	13382.43
852.515	13287.97
852.838	13264.92
853.161	13225.15
853.483	13146.28
853.806	13089.78
854.129	13075.32
854.451	13018.82
854.774	13047.07
855.096	12874.87
855.419	12942.44
855.741	12955.1
856.063	12869
856.385	12786.06
856.708	12784.71
857.03	12675.78
857.352	12715.56
857.674	12574.54
857.996	12540.42
858.318	12577.48
858.64	12543.36
858.961	12447.09
859.283	12394.21
859.605	12305.85
859.926	12473.08
860.248	12395.79
860.57	12247.77
860.891	12269.01
861.212	12261.33
861.534	12235.79
861.855	12177.72
862.176	12216.59
862.498	12188.34
862.819	12250.03
863.14	12104.72
863.461	12146.3
863.782	12078.96
864.103	12048.91
864.424	12034.22
864.745	12098.4
865.065	11963.94
865.386	11859.08
865.707	11899.98
866.027	11897.5
866.348	11883.49
866.668	11808.01
866.989	11892.53
867.309	11801.68
867.63	11758.74
867.95	11797.16
868.27	11768.24
868.59	11723.49
868.91	11736.37
869.23	11654.57
869.55	11637.84
869.87	11694.79
870.19	11614.12
870.51	11595.36
870.83	11644.85
871.15	11548.58
871.469	11537.06
871.789	11518.52
872.109	11588.13
872.428	11490.28
872.748	11450.28
873.067	11457.51
873.386	11514.91
873.706	11469.03
874.025	11310.62
874.344	11372.54
874.663	11411.86
874.982	11389.26
875.301	11350.85
875.62	11194.92
875.939	11344.29
876.258	11202.83
876.577	11260.23
876.896	11241.02
877.214	11276.95
877.533	11230.62
877.852	11232.66
878.17	11129.83
878.489	11187.69
878.807	11078.54
879.125	11164.86
879.444	11128.7
879.762	11016.39
880.08	11026.79
880.398	11017.52
880.716	11037.86
881.034	10958.99
881.352	10966.67
881.67	10945.21
881.988	10951.76
882.306	10924.19
882.624	10866.34
882.941	10848.94
883.259	10822.72
883.577	10838.09
883.894	10835.83
884.212	10747.02
884.529	10777.98
884.846	10721.03
885.164	10702.95
885.481	10685.1
885.798	10695.95
886.115	10582.28
886.432	10631.99
886.75	10601.26
887.067	10548.83
887.383	10540.47
887.7	10564.65
888.017	10409.85
888.334	10457.54
888.651	10345.67
888.967	10374.6
889.284	10380.02
889.6	10312.91
889.917	10282.17
890.233	10280.82
890.55	10213.93
890.866	10274.26
891.182	10141.61
891.498	10162.63
891.815	10172.57
892.131	10099.13
892.447	10059.81
892.763	10046.7
893.079	10018
893.395	9986.59
893.71	9983.88
894.026	9875.18
894.342	9870.43
894.657	9809.64
894.973	9826.14
895.289	9756.09
895.604	9734.84
895.92	9685.8
896.235	9680.61
896.55	9667.95
896.865	9578.46
897.181	9624.11
897.496	9553.38
897.811	9525.13
898.126	9472.93
898.441	9464.12
898.756	9444.91
899.071	9372.59
899.386	9384.57
899.7	9269.32
900.015	9259.38
900.33	9155.65
900.644	9191.35
900.959	9209.43
901.273	9172.37
901.588	9097.12
901.902	9050.57
902.216	8970.8
902.531	9030.23
902.845	9025.26
903.159	8905.26
903.473	8912.04
903.787	8886.5
904.101	8817.13
904.415	8815.09
904.729	8732.61
905.042	8740.52
905.356	8745.49
905.67	8711.14
905.984	8660.29
906.297	8629.11
906.611	8580.07
906.924	8555.66
907.237	8544.82
907.551	8453.52
907.864	8500.98
908.177	8440.19
908.491	8378.04
908.804	8350.02
909.117	8318.16
909.43	8213.3
909.743	8226.41
910.056	8170.82
910.368	8179.18
910.681	8165.84
910.994	8121.55
911.307	8102.34
911.619	8064.83
911.932	8032.29
912.244	7991.84
912.557	7996.58
912.869	7903.48
913.181	7871.84
913.494	7843.59
913.806	7835.23
914.118	7815.35
914.43	7723.82
914.742	7699.42
915.054	7669.36
915.366	7653.32
915.678	7594.56
915.99	7588.68
916.302	7512.53
916.613	7553.21
916.925	7477.95
917.236	7532.41
917.548	7394.34
917.859	7415.58
918.171	7347.79
918.482	7382.81
918.794	7294.68
919.105	7273.89
919.416	7206.77
919.727	7256.49
920.038	7260.33
920.349	7170.39
920.66	7177.85
920.971	7075.25
921.282	7152.54
921.593	7016.27
921.903	7010.62
922.214	6993.9
922.525	6976.27
922.835	6945.76
923.146	6897.86
923.456	6893.34
923.767	6862.38
924.077	6874.58
924.387	6790.74
924.697	6771.08
925.008	6704.87
925.318	6660.57
925.628	6708.03
925.938	6685.43
926.248	6614.02
926.558	6579.67
926.867	6600.69
927.177	6556.62
927.487	6533.8
927.796	6430.97
928.106	6490.18
928.416	6390.3
928.725	6375.61
929.034	6351.2
929.344	6357.76
929.653	6299
929.962	6279.11
930.271	6313.46
930.581	6219
930.89	6229.85
931.199	6199.79
931.508	6165.45
931.817	6137.65
932.125	6160.47
932.434	6088.84
932.743	6058.78
933.051	6050.19
933.36	6022.62
933.669	5958.67
933.977	5941.27
934.286	5975.39
934.594	5894.94
934.902	5812.46
935.21	5825.79
935.519	5862.4
935.827	5853.36
936.135	5811.1
936.443	5773.82
936.751	5728.62
937.059	5754.16
937.367	5676.42
937.674	5715.29
937.982	5692.01
938.29	5622.86
938.597	5605.46
938.905	5584.22
939.213	5533.82
939.52	5472.81
939.827	5541.28
940.135	5494.05
940.442	5464.67
940.749	5385.8
941.056	5456.99
941.363	5399.36
941.67	5382.19
941.977	5327.5
942.284	5313.49
942.591	5303.32
942.898	5254.51
943.205	5278.69
943.511	5201.4
943.818	5272.36
944.125	5178.13
944.431	5136.09
944.738	5166.38
945.044	5142.87
945.35	5094.74
945.657	5106.26
945.963	5094.29
946.269	5033.95
946.575	4993.05
946.881	4978.58
947.187	4979.94
947.493	4963.67
947.799	4976.32
948.105	4897
948.41	4876.44
948.716	4892.94
949.022	4832.6
949.327	4833.73
949.633	4786.72
949.938	4802.77
950.244	4787.18
950.549	4680.06
950.854	4727.06
951.16	4692.72
951.465	4666.95
951.77	4642.32
952.075	4640.74
952.38	4620.63
952.685	4638.48
952.99	4567.52
953.294	4565.26
953.599	4503.57
953.904	4503.79
954.209	4476.9
954.513	4474.19
954.818	4486.62
955.122	4439.84
955.426	4450.01
955.731	4399.84
956.035	4420.18
956.339	4363.91
956.643	4376.57
956.948	4299.28
957.252	4282.1
957.556	4296.79
957.86	4307.87
958.163	4273.07
958.467	4243.91
958.771	4196.23
959.075	4200.07
959.378	4189.68
959.682	4155.1
959.985	4144.48
960.289	4117.82
960.592	4086.4
960.896	4097.48
961.199	4078.72
961.502	4058.83
961.805	4064.71
962.108	4017.48
962.411	4033.52
962.714	3946.07
963.017	3947.42
963.32	3984.03
963.623	3930.7
963.926	3940.42
964.228	3890.02
964.531	3869.91
964.833	3851.38
965.136	3871.27
965.438	3783.59
965.741	3804.15
966.043	3813.42
966.345	3794.43
966.648	3765.96
966.95	3749.24
967.252	3736.13
967.554	3719.41
967.856	3739.52
968.158	3651.16
968.46	3611.16
968.761	3645.06
969.063	3622.24
969.365	3612.07
969.666	3628.11
969.968	3598.51
970.269	3563.48
970.571	3542.92
970.872	3530.94
971.174	3518.51
971.475	3523.25
971.776	3492.3
972.077	3473.54
972.378	3455.23
972.679	3439.64
972.98	3455.46
973.281	3417.72
973.582	3368.68
973.883	3399.87
974.183	3405.74
974.484	3383.37
974.785	3315.8
975.085	3333.66
975.386	3332.07
975.686	3265.63
975.986	3233.09
976.287	3307.44
976.587	3261.79
976.887	3262.24
977.187	3255.47
977.487	3249.59
977.787	3237.84
978.087	3198.97
978.387	3174.11
978.687	3174.11
978.987	3161.91
979.286	3144.28
979.586	3104.73
979.885	3134.11
980.185	3111.51
980.484	3099.76
980.784	3098.18
981.083	3072.42
981.382	3038.3
981.682	3030.39
981.981	3019.99
982.28	3005.3
982.579	2957.62
982.878	2948.58
983.177	2976.15
983.475	2948.58
983.774	2938.86
984.073	2961.91
984.372	2895.93
984.67	2912.2
984.969	2853.44
985.267	2862.03
985.566	2857.51
985.864	2848.47
986.162	2827
986.461	2793.1
986.759	2805.76
987.057	2784.74
987.355	2765.08
987.653	2787.68
987.951	2744.52
988.249	2727.34
988.547	2734.12
988.844	2714.24
989.142	2706.1
989.44	2730.06
989.737	2639.44
990.035	2696.16
990.332	2613.22
990.63	2618.19
990.927	2621.36
991.224	2608.48
991.521	2632.43
991.819	2572.32
992.116	2563.73
992.413	2551.53
992.71	2552.21
993.006	2563.96
993.303	2529.16
993.6	2520.12
993.897	2509.04
994.193	2474.24
994.49	2497.75
994.787	2446.9
995.083	2470.85
995.379	2472.43
995.676	2411.87
995.972	2414.13
996.268	2398.99
996.565	2379.33
996.861	2439.67
997.157	2356.73
997.453	2313.12
997.749	2350.63
998.044	2359.22
998.34	2337.07
998.636	2311.99
998.932	2299.78
999.227	2267.47
999.523	2283.29
999.818	2256.62
1000.114	2243.29
1000.409	2228.6
1000.704	2226.34
1001	2180.24
1001.295	2204.19
1001.59	2183.4
1001.885	2194.02
1002.18	2140.01
1002.475	2147.7
1002.77	2139.56
1003.065	2099.11
1003.359	2102.95
1003.654	2122.84
1003.949	2096.63
1004.243	2089.17
1004.538	2084.87
1004.832	2052.56
1005.127	2042.39
1005.421	2003.97
1005.715	2021.37
1006.009	2016.63
1006.304	2037.87
1006.598	1996.74
1006.892	1990.19
1007.186	1963.07
1007.48	1978.66
1007.773	1944.54
1008.067	1945.9
1008.361	1928.49
1008.655	1932.34
1008.948	1906.12
1009.242	1899.57
1009.535	1878.78
1009.829	1853.24
1010.122	1866.35
1010.415	1862.96
1010.708	1883.75
1011.001	1826.58
1011.295	1824.54
1011.588	1785.22
1011.881	1817.08
1012.173	1794.49
1012.466	1766.46
1012.759	1782.28
1013.052	1788.84
1013.344	1738.67
1013.637	1761.27
1013.93	1721.72
1014.222	1713.58
1014.514	1697.77
1014.807	1692.79
1015.099	1688.27
1015.391	1690.99
1015.683	1665.22
1015.976	1642.85
1016.268	1634.04
1016.56	1624.77
1016.851	1620.93
1017.143	1607.6
1017.435	1619.12
1017.727	1598.33
1018.018	1603.76
1018.31	1602.85
1018.602	1582.74
1018.893	1552.01
1019.185	1572.57
1019.476	1556.98
1019.767	1526.7
1020.058	1507.26
1020.35	1499.13
1020.641	1514.95
1020.932	1485.57
1021.223	1466.81
1021.514	1447.83
1021.804	1483.08
1022.095	1451.9
1022.386	1429.52
1022.677	1413.93
1022.967	1439.92
1023.258	1413.25
1023.548	1384.33
1023.839	1382.97
1024.129	1377.77
1024.419	1393.37
1024.709	1371.9
1025	1381.16
1025.29	1354.95
1025.58	1361.96
1025.87	1333.93
1026.16	1311.79
1026.449	1322.41
1026.739	1309.98
1027.029	1284.22
1027.319	1304.56
1027.608	1268.17
1027.898	1277.21
1028.187	1262.75
1028.477	1262.98
1028.766	1246.93
1029.055	1233.6
1029.344	1204.45
1029.634	1222.75
1029.923	1202.64
1030.212	1220.49
1030.501	1199.93
1030.79	1187.5
1031.078	1201.73
1031.367	1182.75
1031.656	1158.57
1031.945	1150.44
1032.233	1144.79
1032.522	1147.95
1032.81	1155.18
1033.099	1139.14
1033.387	1136.42
1033.675	1142.98
1033.963	1101.4
1034.251	1075.18
1034.54	1105.01
1034.828	1081.96
1035.116	1083.54
1035.403	1067.5
1035.691	1079.7
1035.979	1078.8
1036.267	1063.88
1036.554	1055.3
1036.842	1048.07
1037.129	1025.92
1037.417	1013.72
1037.704	1047.39
1037.992	1031.12
1038.279	979.37
1038.566	990.89
1038.853	990.89
1039.14	990.89
