Data from hue_340_FLMS001491_4.txt Node
Date: Mon Feb 06 15:42:12 GMT 2017
User: dcchb
Spectrometer: FLMS00149
Trigger mode: 0
Integration Time (sec): 2.000000E-2
Scans to average: 10
Electric dark correction enabled: true
Nonlinearity correction enabled: false
Boxcar width: 0
XAxis mode: Wavelengths
Number of Pixels in Spectrum: 2048
>>>>>Begin Spectral Data<<<<<
341.393	-18.66
341.776	-18.66
342.16	-18.66
342.543	-60.01
342.927	-61.82
343.31	-49.62
343.693	-71.54
344.077	-48.26
344.46	-68.6
344.843	-77.64
345.226	-29.05
345.61	-20.92
345.993	-37.19
346.376	-10.52
346.759	2.58
347.142	24.05
347.525	50.49
347.908	46.65
348.291	77.16
348.674	106.31
349.057	106.08
349.44	123.03
349.823	134.33
350.206	152.64
350.588	178.4
350.971	203.48
351.354	224.95
351.737	239.87
352.119	247.32
352.502	276.93
352.884	286.42
353.267	274.89
353.65	295.68
354.032	308.79
354.414	306.53
354.797	304.95
355.179	323.48
355.562	319.64
355.944	336.14
356.326	319.19
356.709	331.84
357.091	322.8
357.473	345.85
357.855	335.46
358.238	318.06
358.62	359.19
359.002	348.56
359.384	321.22
359.766	344.72
360.148	336.59
360.53	360.54
360.912	354.21
361.294	333.88
361.676	337.49
362.057	329.13
362.439	328.68
362.821	337.49
363.203	328.23
363.584	335.91
363.966	324.38
364.348	316.7
364.729	329.58
365.111	315.8
365.493	319.19
365.874	300.88
366.256	318.51
366.637	320.99
367.019	320.54
367.4	314.44
367.781	312.63
368.163	312.63
368.544	314.67
368.925	325.29
369.306	331.16
369.688	296.36
370.069	340.65
370.45	312.41
370.831	309.24
371.212	321.22
371.593	317.6
371.974	320.32
372.355	298.62
372.736	315.57
373.117	313.54
373.498	298.17
373.879	317.38
374.26	326.87
374.641	291.84
375.021	309.92
375.402	299.75
375.783	318.06
376.163	323.71
376.544	320.54
376.925	329.58
377.305	300.43
377.686	335.23
378.066	325.06
378.447	331.16
378.827	326.42
379.208	326.42
379.588	346.08
379.968	317.83
380.349	327.32
380.729	334.33
381.109	335.91
381.489	332.07
381.87	332.07
382.25	344.27
382.63	353.99
383.01	351.05
383.39	337.72
383.77	344.72
384.15	338.4
384.53	346.76
384.91	369.58
385.29	346.3
385.67	352.18
386.049	357.15
386.429	351.5
386.809	342.01
387.189	355.34
387.568	326.64
387.948	344.27
388.328	358.28
388.707	361.45
389.087	357.83
389.466	348.79
389.846	366.64
390.225	355.57
390.605	357.6
390.984	353.54
391.363	362.35
391.743	363.03
392.122	380.65
392.501	349.24
392.881	377.26
393.26	371.84
393.639	384.72
394.018	383.14
394.397	364.84
394.776	394.66
395.155	361.22
395.534	377.72
395.913	383.14
396.292	399.41
396.671	387.89
397.05	387.66
397.429	378.62
397.808	404.83
398.186	379.3
398.565	393.99
398.944	372.52
399.323	396.7
399.701	400.77
400.08	378.62
400.458	401.67
400.837	396.7
401.215	390.6
401.594	374.78
401.972	410.03
402.351	423.82
402.729	392.86
403.107	406.64
403.486	417.26
403.864	427.21
404.242	420.88
404.62	409.13
404.999	418.17
405.377	405.29
405.755	423.36
406.133	422.69
406.511	438.96
406.889	421.1
407.267	424.49
407.645	448.9
408.023	436.47
408.401	417.26
408.779	443.7
409.156	455
409.534	456.13
409.912	478.73
410.29	467.88
410.667	439.86
411.045	473.08
411.422	476.47
411.8	477.83
412.178	489.8
412.555	479.18
412.933	473.98
413.31	499.75
413.687	509.46
414.065	515.79
414.442	520.09
414.819	519.86
415.197	519.18
415.574	515.57
415.951	511.95
416.328	526.86
416.705	522.35
417.082	537.03
417.46	539.97
417.837	536.36
418.214	541.55
418.591	558.28
418.967	566.19
419.344	546.53
419.721	562.57
420.098	587.43
420.475	568.9
420.852	567.54
421.228	591.72
421.605	594.66
421.982	601.44
422.358	592.17
422.735	605.96
423.111	591.5
423.488	604.83
423.864	623.59
424.241	659.52
424.617	628.1
424.994	624.04
425.37	634.66
425.746	633.53
426.123	634.88
426.499	643.92
426.875	651.38
427.251	660.19
427.627	676.92
428.003	678.05
428.379	657.48
428.756	673.98
429.132	680.98
429.507	697.03
429.883	716.69
430.259	686.41
430.635	722.57
431.011	722.57
431.387	734.77
431.763	730.25
432.138	758.27
432.514	750.36
432.89	722.79
433.265	751.04
433.641	745.16
434.016	774.09
434.392	779.51
434.767	802.79
435.143	787.87
435.518	775.45
435.894	804.82
436.269	795.33
436.644	823.35
437.02	831.26
437.395	830.36
437.77	831.26
438.145	860.64
438.52	851.83
438.895	855.67
439.271	861.32
439.646	853.18
440.021	860.42
440.395	882.56
440.77	871.49
441.145	874.65
441.52	904.71
441.895	921.2
442.27	918.04
442.645	913.75
443.019	921.2
443.394	940.19
443.769	933.18
444.143	929.34
444.518	935.67
444.892	924.59
445.267	923.01
445.641	965.95
446.016	943.35
446.39	975.67
446.764	954.2
447.139	949.9
447.513	962.33
447.887	970.24
448.262	967.31
448.636	963.01
449.01	986.29
449.384	996.68
449.758	996.46
450.132	1010.92
450.506	1014.54
450.88	1030.81
451.254	1015.89
451.628	1037.59
452.002	1006.85
452.376	1042.11
452.75	1052.05
453.123	1049.34
453.497	1068.77
453.871	1056.12
454.244	1083.01
454.618	1078.94
454.992	1100.41
455.365	1095.21
455.739	1128.2
456.112	1106.51
456.486	1123.69
456.859	1142.67
457.232	1144.48
457.606	1150.58
457.979	1145.61
458.352	1184.25
458.725	1200.97
459.099	1153.29
459.472	1181.76
459.845	1217.02
460.218	1225.15
460.591	1207.52
460.964	1206.17
461.337	1243.68
461.71	1264.47
462.083	1307.86
462.456	1305.83
462.829	1330.23
463.201	1348.54
463.574	1316.9
463.947	1327.75
464.32	1345.6
464.692	1330.91
465.065	1367.07
465.438	1391.93
465.81	1403.45
466.183	1409.78
466.555	1437.58
466.928	1442.32
467.3	1449.33
467.672	1482.09
468.045	1485.71
468.417	1490
468.789	1479.16
469.161	1535.2
469.534	1529.32
469.906	1569.55
470.278	1567.29
470.65	1604.12
471.022	1623.11
471.394	1622.43
471.766	1651.58
472.138	1628.08
472.51	1663.33
472.882	1727.74
473.253	1738.13
473.625	1749.21
473.997	1818.36
474.369	1797.11
474.74	1812.25
475.112	1839.37
475.484	1890.22
475.855	1896.09
476.227	1908.07
476.598	1974.96
476.97	1986.49
477.341	2002.76
477.713	2048.18
478.084	2003.44
478.455	2104.22
478.827	2133.83
479.198	2166.37
479.569	2176.99
479.94	2232.58
480.311	2208.18
480.682	2303.32
481.053	2343.54
481.424	2365.23
481.795	2373.14
482.166	2413.14
482.537	2474.16
482.908	2495.4
483.279	2523.42
483.65	2572.46
484.021	2621.5
484.391	2628.05
484.762	2648.16
485.133	2720.25
485.503	2703.76
485.874	2772.23
486.244	2807.26
486.615	2832.57
486.985	2862.4
487.356	2866.46
487.726	2939.46
488.097	3019.68
488.467	3014.26
488.837	3048.61
489.207	3070.75
489.578	3171.09
489.948	3136.29
490.318	3207.92
490.688	3184.87
491.058	3256.96
491.428	3320.01
491.798	3351.88
492.168	3370.18
492.538	3391.2
492.908	3412.89
493.278	3462.15
493.648	3500.57
494.017	3505.09
494.387	3564.3
494.757	3582.6
495.126	3581.93
495.496	3604.3
495.866	3638.42
496.235	3681.58
496.605	3730.4
496.974	3740.11
497.344	3737.63
497.713	3805.87
498.082	3801.81
498.452	3822.82
498.821	3864.86
499.19	3882.71
499.559	3911.18
499.928	3924.06
500.298	3966.55
500.667	4004.51
501.036	3951.41
501.405	4003.16
501.774	4020.56
502.143	4102.36
502.512	4063.49
502.88	4101.69
503.249	4127.22
503.618	4117.05
503.987	4158.63
504.356	4168.58
504.724	4152.98
505.093	4182.36
505.462	4257.39
505.83	4222.59
506.199	4280.66
506.567	4334
506.936	4303.71
507.304	4375.35
507.672	4360.66
508.041	4410.6
508.409	4359.31
508.777	4444.28
509.145	4455.12
509.514	4491.96
509.882	4503.48
510.25	4475.69
510.618	4508.45
510.986	4534.67
511.354	4502.35
511.722	4576.7
512.09	4586.42
512.458	4607.89
512.826	4632.29
513.193	4652.18
513.561	4609.24
513.929	4655.57
514.297	4678.39
514.664	4717.26
515.032	4707.77
515.4	4766.98
515.767	4732.86
516.135	4765.17
516.502	4748.45
516.869	4838.62
517.237	4785.51
517.604	4827.54
517.972	4919.07
518.339	4873.64
518.706	4827.99
519.073	4884.72
519.44	4905.51
519.808	4951.16
520.175	4953.19
520.542	4985.28
520.909	4999.97
521.276	4997.93
521.643	4998.16
522.009	5059.85
522.376	5098.04
522.743	5099.4
523.11	5117.7
523.477	5129.23
523.843	5244.71
524.21	5204.71
524.577	5237.25
524.943	5297.36
525.31	5277.02
525.676	5306.85
526.043	5362.9
526.409	5382.33
526.776	5418.94
527.142	5411.26
527.508	5429.11
527.874	5525.38
528.241	5548.43
528.607	5545.72
528.973	5560.4
529.339	5555.43
529.705	5619.39
530.071	5645.15
530.437	5676.33
530.803	5721.76
531.169	5728.54
531.535	5716.33
531.901	5727.86
532.267	5775.31
532.632	5809.44
532.998	5817.8
533.364	5892.15
533.73	5896.67
534.095	5924.24
534.461	5974.41
534.826	5945.93
535.192	5976.21
535.557	6076.78
535.923	6009.43
536.288	6087.62
536.653	6102.31
537.019	6055.53
537.384	6130.11
537.749	6167.85
538.114	6185.25
538.479	6132.37
538.845	6240.39
539.21	6196.09
539.575	6224.57
539.94	6273.38
540.305	6281.06
540.67	6307.5
541.034	6360.38
541.399	6394.96
541.764	6388.41
542.129	6409.87
542.494	6430.44
542.858	6457.1
543.223	6454.39
543.587	6542.3
543.952	6648.51
544.316	6544.56
544.681	6621.85
545.045	6641.96
545.41	6654.16
545.774	6724.22
546.138	6686.7
546.503	6759.47
546.867	6732.58
547.231	6847.6
547.595	6761.28
547.959	6776.19
548.324	6862.52
548.688	6852.35
549.052	6884.44
549.416	6940.71
549.779	6952.01
550.143	6933.25
550.507	6968.05
550.871	7029.74
551.235	7008.28
551.599	7043.53
551.962	7125.34
552.326	7167.37
552.689	7150.87
553.053	7138.89
553.417	7162.85
553.78	7213.02
554.143	7195.62
554.507	7259.79
554.87	7255.95
555.234	7352.9
555.597	7265.67
555.96	7314.26
556.323	7352
556.686	7381.6
557.05	7415.05
557.413	7467.7
557.776	7411.43
558.139	7440.13
558.502	7476.06
558.865	7507.02
559.228	7576.62
559.59	7631.76
559.953	7634.7
560.316	7666.56
560.679	7676.73
561.041	7683.29
561.404	7725.77
561.767	7743.62
562.129	7760.35
562.492	7782.49
562.854	7810.29
563.217	7830.18
563.579	7834.7
563.941	7906.56
564.304	7925.99
564.666	7923.05
565.028	7931.42
565.39	7952.66
565.753	8022.26
566.115	8048.7
566.477	8073.11
566.839	8049.15
567.201	8165.99
567.563	8165.31
567.925	8220.45
568.287	8240.11
568.648	8300.9
569.01	8295.47
569.372	8349.03
569.734	8305.64
570.095	8403.95
570.457	8412.08
570.819	8433.78
571.18	8507.9
571.542	8581.57
571.903	8557.39
572.265	8604.84
572.626	8643.49
572.987	8680.32
573.349	8802.81
573.71	8793.09
574.071	8822.01
574.432	8970.26
574.794	8977.94
575.155	8983.37
575.516	9031.05
575.877	9160.31
576.238	9104.72
576.599	9234.88
576.96	9343.81
577.32	9353.75
577.681	9481.43
578.042	9516.01
578.403	9624.7
578.763	9625.61
579.124	9788.54
579.485	9922.32
579.845	10048.65
580.206	10146.27
580.566	10248.64
580.927	10293.39
581.287	10438.47
581.648	10537.45
582.008	10693.6
582.368	10797.1
582.728	10986.25
583.089	11082.07
583.449	11274.38
583.809	11364.32
584.169	11557.76
584.529	11728.38
584.889	11964.3
585.249	12075.49
585.609	12310.28
585.969	12508.47
586.329	12722.48
586.688	12978.06
587.048	13124.95
587.408	13272.97
587.768	13495.56
588.127	13732.17
588.487	13921.31
588.846	14287.18
589.206	14397.01
589.565	14687.4
589.925	15000.38
590.284	15242.18
590.643	15495.96
591.003	15725.79
591.362	16113.35
591.721	16289.39
592.08	16632.88
592.44	16921.24
592.799	17196.48
593.158	17384.05
593.517	17673.31
593.876	18025.16
594.235	18219.73
594.593	18622.43
594.952	18966.15
595.311	19101.74
595.67	19501.73
596.029	19928.16
596.387	20211.09
596.746	20526.56
597.104	20675.49
597.463	21022.14
597.822	21298.75
598.18	21526.99
598.538	21787.77
598.897	22157.48
599.255	22242.68
599.613	22951.81
599.972	22983.68
600.33	23334.63
600.688	23554.06
601.046	23931.45
601.404	24155.17
601.762	24398.55
602.12	24799.67
602.478	25011.64
602.836	25321.24
603.194	25523.5
603.552	25825.86
603.91	26001.22
604.268	26322.12
604.625	26480.76
604.983	26830.13
605.341	27013.17
605.698	27401.86
606.056	27758.69
606.413	27860.38
606.771	28106.7
607.128	28411.56
607.485	28497.43
607.843	28728.61
608.2	29051.76
608.557	29398.65
608.914	29560.68
609.272	29795.93
609.629	30053.55
609.986	30383.25
610.343	30473.65
610.7	30811.94
611.057	30941.66
611.414	31106.17
611.771	31265.27
612.127	31444.47
612.484	31743.22
612.841	31899.15
613.198	32105.7
613.554	32293.26
613.911	32479.24
614.267	32717.88
614.624	32936.63
614.98	33074.94
615.337	33443.74
615.693	33366.68
616.05	33515.15
616.406	33743.62
616.762	33882.37
617.118	33954.46
617.475	34062.71
617.831	34328.01
618.187	34405.97
618.543	34485.75
618.899	34964.6
619.255	34861.56
619.611	35086.86
619.967	35212.28
620.323	35413.41
620.678	35378.15
621.034	35461.99
621.39	35609.33
621.746	35596
622.101	36099.49
622.457	35968.87
622.812	36014.75
623.168	36257
623.523	36259.03
623.879	36533.15
624.234	36381.06
624.589	36569.31
624.945	36719.81
625.3	36838.23
625.655	36934.49
626.01	36804.78
626.365	36947.15
626.72	37115.51
627.075	37050.2
627.43	37175.39
627.785	37074.6
628.14	37224.2
628.495	37195.51
628.85	37228.95
629.205	37183.3
629.559	37536.06
629.914	37508.27
630.269	37498.77
630.623	37424.65
630.978	37457.19
631.332	37635.49
631.687	37764.3
632.041	37495.16
632.396	37661.03
632.75	37456.06
633.104	37784.42
633.459	37643.63
633.813	37632.33
634.167	37714.59
634.521	37648.37
634.875	37844.75
635.229	37809.05
635.583	37628.04
635.937	37664.42
636.291	37449.51
636.645	37660.58
636.999	37629.39
637.352	37750.07
637.706	37581.26
638.06	37804.98
638.413	37722.04
638.767	37598.88
639.121	37796.62
639.474	37576.06
639.828	37440.7
640.181	37695.83
640.534	37715.04
640.888	37584.87
641.241	37524.54
641.594	37634.59
641.947	37705.32
642.301	37543.52
642.654	37659.9
643.007	37584.87
643.36	37580.35
643.713	37454.26
644.066	37707.58
644.419	37415.84
644.771	37232.11
645.124	36957.55
645.477	36963.65
645.83	36797.32
646.182	36601.85
646.535	36402.98
646.888	36627.84
647.24	36386.71
647.593	36563.88
647.945	36403.89
648.298	36381.97
648.65	36408.86
649.002	36183.78
649.355	36391.23
649.707	36325.92
650.059	36443.21
650.411	36895.63
650.763	36906.7
651.115	37227.59
651.467	37290.19
651.819	37254.26
652.171	37180.82
652.523	37174.71
652.875	37224.88
653.227	36941.95
653.578	37240.02
653.93	37115.73
654.282	36880.03
654.633	36937.66
654.985	37017.66
655.337	37049.75
655.688	37136.3
656.039	37142.17
656.391	36783.99
656.742	36890.2
657.094	36928.85
657.445	37035.06
657.796	36978.34
658.147	36826.48
658.498	36787.61
658.849	36816.31
659.2	36813.37
659.551	36778.11
659.902	36861.5
660.253	36900.37
660.604	36852.69
660.955	36745.8
661.306	36781.5
661.656	36709.64
662.007	36840.94
662.358	36818.79
662.708	36831.45
663.059	36737.21
663.409	36590.78
663.76	36858.79
664.11	36725.69
664.461	36902.18
664.811	36810.2
665.161	36772.47
665.511	36594.62
665.862	36723.2
666.212	36736.31
666.562	36847.49
666.912	36755.52
667.262	36583.32
667.612	36667.38
667.962	36729.98
668.312	36699.47
668.662	36830.09
669.011	36654.73
669.361	36551.91
669.711	36570.44
670.06	36526.6
670.41	36512.59
670.76	36537.44
671.109	36525.24
671.459	36549.19
671.808	36428.97
672.157	36615.41
672.507	36281.63
672.856	36453.83
673.205	36445.24
673.554	36615.63
673.904	36350.56
674.253	36558.69
674.602	36577.67
674.951	36020.39
675.3	35806.16
675.649	36213.84
675.998	36293.16
676.346	36404.79
676.695	36471.46
677.044	36153.27
677.393	36314.17
677.741	36287.05
678.09	36253.83
678.438	36235.3
678.787	36153.05
679.135	36234.85
679.484	35911.7
679.832	36192.14
680.181	35995.31
680.529	36037.8
680.877	35860.85
681.225	35781.08
681.573	36092.71
681.922	35812.72
682.27	35637.81
682.618	35784.47
682.966	35640.07
683.314	35680.29
683.661	35547.19
684.009	35394.87
684.357	35334.09
684.705	35304.93
685.053	35257.93
685.4	35254.99
685.748	35153.98
686.095	35066.3
686.443	34944.72
686.79	34894.32
687.138	35165.95
687.485	35067.65
687.832	34894.77
688.18	34949.46
688.527	34793.99
688.874	34695.01
689.221	34662.69
689.568	34557.38
689.915	34471.28
690.262	34536.37
690.609	34436.03
690.956	34343.83
691.303	34134.57
691.65	33995.14
691.997	34098.86
692.344	33945.2
692.69	33907.23
693.037	33973.22
693.383	33736.84
693.73	33735.03
694.077	33641.25
694.423	33496.17
694.769	33431.99
695.116	33449.84
695.462	33344.53
695.808	33303.86
696.155	33360.13
696.501	33076.97
696.847	32994.49
697.193	32843.08
697.539	32920.14
697.885	32788.84
698.231	32573.25
698.577	32709.97
698.923	32479.47
699.269	32360.38
699.614	32247.61
699.96	32250.32
700.306	32280.38
700.651	32123.77
700.997	32132.81
701.342	31958.81
701.688	31896.21
702.033	31714.97
702.379	31691.47
702.724	31630.45
703.069	31769.66
703.415	31376.45
703.76	31355.66
704.105	31382.1
704.45	31408.09
704.795	31104.59
705.14	30992.5
705.485	30979.4
705.83	30719.97
706.175	30880.42
706.52	30814.66
706.865	30708.67
707.209	30610.14
707.554	30616.47
707.899	30724.49
708.243	30395.01
708.588	30391.39
708.932	30199.53
709.277	30164.28
709.621	30141.68
709.966	29899.88
710.31	30033.89
710.654	29835.47
710.998	29961.12
711.342	29852.65
711.687	29873.66
712.031	29715.7
712.375	29663.95
712.719	29758.19
713.063	29589.38
713.407	29666.44
713.75	29527.68
714.094	29545.08
714.438	29331.08
714.782	29307.58
715.125	29281.14
715.469	29309.84
715.812	29032.33
716.156	29045.44
716.499	28929.06
716.843	28915.04
717.186	28869.4
717.53	28940.13
717.873	28916.4
718.216	28849.51
718.559	28816.97
718.902	28703.3
719.246	28605.45
719.589	28554.15
719.932	28413.82
720.275	28602.74
720.617	28381.27
720.96	28446.81
721.303	28303.31
721.646	28391.44
721.989	28094.05
722.331	28183.09
722.674	28244.1
723.016	28164.1
723.359	28153.71
723.701	28120.94
724.044	27899.03
724.386	27758.92
724.729	27924.79
725.071	27762.98
725.413	27824.23
725.755	27770.44
726.097	27701.52
726.439	27541.52
726.782	27543.56
727.124	27670.33
727.465	27607.06
727.807	27494.29
728.149	27389.21
728.491	27392.6
728.833	27442.54
729.175	27310.12
729.516	27168.2
729.858	27243.9
730.199	27393.95
730.541	27201.87
730.882	27074.42
731.224	27199.84
731.565	27017.24
731.906	27005.04
732.248	27045.94
732.589	26754.88
732.93	26814.76
733.271	26856.34
733.612	26874.65
733.953	26883.01
734.294	26790.58
734.635	26595.33
734.976	26786.06
735.317	26469.23
735.658	26497.71
735.999	26541.77
736.339	26585.61
736.68	26621.09
737.021	26478.5
737.361	26353.76
737.702	26454.09
738.042	26355.11
738.383	26301.1
738.723	26251.61
739.063	26191.05
739.404	26323.93
739.744	26163.03
740.084	26072.63
740.424	26163.7
740.764	26149.02
741.104	26052.07
741.444	25926.87
741.784	25879.19
742.124	25940.89
742.464	25840.78
742.804	25853.66
743.143	25778.63
743.483	25761.23
743.823	25604.85
744.162	25649.37
744.502	25703.6
744.841	25473.1
745.181	25674.9
745.52	25459.09
745.86	25594.91
746.199	25392.2
746.538	25424.74
746.877	25465.19
747.216	25440.56
747.556	25399.43
747.895	25298.87
748.234	25143.62
748.573	25170.51
748.911	25175.26
749.25	25214.58
749.589	25060
749.928	25010.06
750.267	25109.04
750.605	25018.88
750.944	24906.34
751.283	24869.95
751.621	24928.93
751.96	24727.13
752.298	24724.42
752.636	24720.35
752.975	24648.26
753.313	24564.42
753.651	24615.04
753.989	24518.55
754.327	24480.59
754.666	24338.67
755.004	24399.68
755.342	24331.89
755.679	24284.88
756.017	24174.83
756.355	24225.45
756.693	24009.19
757.031	24095.28
757.368	23892.8
757.706	23973.25
758.044	23859.58
758.381	23838.57
758.719	23761.06
759.056	23742.98
759.394	23704.79
759.731	23521.06
760.068	23540.72
760.405	23494.62
760.743	23385.92
761.08	23399.03
761.417	23249.88
761.754	23211.69
762.091	23148.42
762.428	23135.08
762.765	23023.9
763.102	23041.98
763.438	22921.53
763.775	22827.52
764.112	22809.67
764.449	22810.12
764.785	22529.45
765.122	22550.92
765.458	22456.46
765.795	22496
766.131	22483.58
766.467	22297.14
766.804	22247.88
767.14	22069.35
767.476	22133.3
767.812	22021.89
768.148	21940.09
768.485	21797.04
768.821	21808.79
769.157	21818.73
769.492	21713.43
769.828	21608.34
770.164	21472.08
770.5	21431.4
770.836	21430.04
771.171	21265.53
771.507	21114.8
771.842	21008.36
772.178	21055.36
772.513	20966.78
772.849	21090.62
773.184	20885.65
773.519	20806.11
773.855	20867.8
774.19	20682.27
774.525	20554.13
774.86	20533.8
775.195	20499.22
775.53	20355.04
775.865	20325.67
776.2	20213.35
776.535	20126.58
776.87	20103.3
777.205	20015.84
777.539	19952.34
777.874	19881.38
778.209	19838.22
778.543	19723.2
778.878	19617.21
779.212	19570.88
779.547	19480.94
779.881	19574.27
780.215	19361.62
780.55	19370.44
780.884	19236.2
781.218	19223.32
781.552	19087.28
781.886	19065.36
782.22	18991.46
782.554	18925.02
782.888	18708.31
783.222	18695.65
783.556	18585.37
783.889	18560.51
784.223	18445.49
784.557	18500.63
784.89	18452.04
785.224	18391.25
785.557	18225.38
785.891	18120.98
786.224	18163.69
786.558	18148.77
786.891	18021.55
787.224	17930.7
787.557	17904.49
787.891	17786.3
788.224	17792.4
788.557	17713.76
788.89	17722.12
789.223	17741.78
789.556	17462.92
789.888	17459.3
790.221	17385.63
790.554	17241.23
790.887	17320.77
791.219	17238.29
791.552	17095.24
791.884	17156.26
792.217	17062.93
792.549	17030.84
792.882	16844.18
793.214	16779.32
793.546	16801.01
793.879	16682.6
794.211	16605.99
794.543	16710.17
794.875	16669.04
795.207	16636.5
795.539	16479.44
795.871	16544.52
796.203	16409.38
796.535	16289.61
796.867	16230.86
797.198	16172.33
797.53	16166.23
797.862	16130.75
798.193	16084.2
798.525	16039.23
798.856	16015.27
799.188	15911.32
799.519	15815.95
799.85	15736.63
800.182	15651.66
800.513	15783.19
800.844	15600.59
801.175	15623.64
801.506	15684.21
801.837	15552.91
802.168	15523.98
802.499	15427.94
802.83	15342.52
803.161	15321.73
803.491	15314.5
803.822	15390.2
804.153	15290.32
804.483	15113.83
804.814	15079.7
805.145	14974.17
805.475	14929.2
805.805	14953.15
806.136	14839.48
806.466	14901.4
806.796	14827.51
807.126	14734.17
807.457	14688.07
807.787	14725.59
808.117	14640.84
808.447	14597
808.777	14533.73
809.107	14497.34
809.436	14522.65
809.766	14496.21
810.096	14414.64
810.426	14364.92
810.755	14342.55
811.085	14325.6
811.414	14272.27
811.744	14191.14
812.073	14238.14
812.403	14169.67
812.732	14118.15
813.061	14130.12
813.39	14002.67
813.719	14011.03
814.049	14086.28
814.378	13941.65
814.707	13881.54
815.036	13884.48
815.365	13799.96
815.693	13707.31
816.022	13714.54
816.351	13661.21
816.68	13596.58
817.008	13617.59
817.337	13469.8
817.665	13500.99
817.994	13568.78
818.322	13532.62
818.651	13378.5
818.979	13384.83
819.307	13432.06
819.636	13418.28
819.964	13262.12
820.292	13295.79
820.62	13310.94
820.948	13217.6
821.276	13265.51
821.604	13252.86
821.932	13272.97
822.259	13284.27
822.587	13279.3
822.915	13238.62
823.243	13252.86
823.57	13192.75
823.898	13242.01
824.225	13109.36
824.553	13199.75
824.88	13191.62
825.207	13275
825.535	13235.68
825.862	13271.84
826.189	13117.27
826.516	13160.88
826.843	13223.03
827.17	13212.86
827.497	13226.42
827.824	13246.76
828.151	13301.44
828.478	13195.91
828.805	13187.55
829.131	13154.56
829.458	13128.79
829.785	13110.26
830.111	13193.65
830.438	13214.21
830.764	13140.54
831.09	13182.13
831.417	13153.65
831.743	13159.07
832.069	13083.14
832.395	13084.95
832.722	13031.17
833.048	13081.79
833.374	13158.4
833.7	13018.51
834.026	13014.67
834.351	13070.49
834.677	12991.62
835.003	13065.07
835.329	12964.5
835.654	12977.38
835.98	12847.9
836.306	12916.14
836.631	12848.57
836.956	12979.87
837.282	12895.13
837.607	12827.56
837.932	12818.97
838.258	12727.45
838.583	12800.89
838.908	12755.24
839.233	12719.99
839.558	12715.47
839.883	12703.72
840.208	12638.18
840.533	12552.99
840.858	12597.06
841.182	12570.62
841.507	12581.91
841.832	12562.03
842.156	12489.71
842.481	12555.25
842.805	12430.51
843.13	12462.6
843.454	12408.13
843.778	12374.69
844.103	12453.33
844.427	12301.7
844.751	12326.1
845.075	12328.59
845.399	12234.13
845.723	12238.65
846.047	12294.24
846.371	12040.01
846.695	12033.45
847.019	12011.31
847.343	11915.49
847.666	11850.63
847.99	11844.99
848.313	11808.6
848.637	11785.33
848.96	11749.85
849.284	11673.69
849.607	11628.95
849.931	11564.31
850.254	11572.45
850.577	11440.7
850.9	11386.92
851.223	11450.65
851.546	11240.93
851.869	11180.37
852.192	11315.73
852.515	11254.04
852.838	11130.2
853.161	11166.13
853.483	11023.54
853.806	11051.33
854.129	11050.88
854.451	10948.06
854.774	10908.29
855.096	10867.38
855.419	10888.85
855.741	10858.12
856.063	10790.78
856.385	10791.68
856.708	10775.18
857.03	10676.88
857.352	10685.69
857.674	10614.51
857.996	10613.61
858.318	10568.86
858.64	10562.31
858.961	10480.05
859.283	10519.14
859.605	10388.75
859.926	10487.73
860.248	10409.09
860.57	10406.38
860.891	10404.35
861.212	10324.57
861.534	10331.35
861.855	10235.76
862.176	10264.91
862.498	10355.31
862.819	10293.84
863.14	10189.66
863.461	10164.13
863.782	10160.74
864.103	10152.37
864.424	10115.09
864.745	10153.05
865.065	10102.66
865.386	10002.55
865.707	10017.46
866.027	10060.4
866.348	9990.12
866.668	9955.77
866.989	10040.74
867.309	9795.1
867.63	9953.51
867.95	9959.16
868.27	9821.54
868.59	9891.14
868.91	9829.67
869.23	9826.96
869.55	9786.73
869.87	9859.73
870.19	9787.41
870.51	9812.5
870.83	9814.98
871.15	9743.12
871.469	9777.02
871.789	9760.52
872.109	9727.53
872.428	9670.58
872.748	9699.5
873.067	9652.73
873.386	9704.25
873.706	9665.38
874.025	9653.63
874.344	9573.18
874.663	9638.49
874.982	9557.36
875.301	9524.37
875.62	9548.1
875.939	9478.72
876.258	9462.67
876.577	9460.87
876.896	9470.58
877.214	9428.1
877.533	9433.75
877.852	9410.7
878.17	9463.58
878.489	9386.07
878.807	9439.4
879.125	9370.25
879.444	9276.24
879.762	9388.1
880.08	9360.3
880.398	9251.83
880.716	9289.8
881.034	9260.65
881.352	9252.06
881.67	9226.07
881.988	9207.77
882.306	9241.21
882.624	9171.16
882.941	9163.47
883.259	9149.24
883.577	9109.69
883.894	9026.53
884.212	8993.76
884.529	9061.33
884.846	9049.8
885.164	8993.76
885.481	8936.36
885.798	8965.29
886.115	8892.07
886.432	8898.62
886.75	8909.24
887.067	8899.53
887.383	8840.77
887.7	8784.95
888.017	8808.91
888.334	8815.69
888.651	8845.29
888.967	8734.56
889.284	8681.68
889.6	8624.5
889.917	8537.5
890.233	8590.16
890.55	8573.21
890.866	8579.99
891.182	8584.05
891.498	8491.85
891.815	8514.23
892.131	8492.76
892.447	8450.95
892.763	8451.18
893.079	8472.42
893.395	8366.88
893.71	8419.99
894.026	8360.11
894.342	8277.62
894.657	8193.56
894.973	8179.77
895.289	8273.33
895.604	8233.1
895.92	8165.76
896.235	8178.87
896.55	8107.46
896.865	8092.32
897.181	8069.04
897.496	8009.83
897.811	8036.27
898.126	8004.86
898.441	7992.88
898.756	7909.04
899.071	7941.36
899.386	7928.48
899.7	7786.11
900.015	7828.82
900.33	7701.82
900.644	7723.06
900.959	7763.06
901.273	7685.77
901.588	7621.37
901.902	7645.32
902.216	7599
902.531	7591.31
902.845	7562.16
903.159	7525.55
903.473	7478.55
903.787	7449.39
904.101	7402.16
904.415	7412.56
904.729	7398.1
905.042	7331.66
905.356	7373.01
905.67	7311.55
905.984	7342.28
906.297	7296.18
906.611	7233.13
906.924	7239.46
907.237	7151.55
907.551	7182.73
907.864	7147.48
908.177	7140.7
908.491	7086.69
908.804	7079.23
909.117	7032
909.43	6989.29
909.743	6941.16
910.056	6969.41
910.368	6950.42
910.681	6914.27
910.994	6827.72
911.307	6873.82
911.619	6773.25
911.932	6855.74
912.244	6752.46
912.557	6720.37
912.869	6722.63
913.181	6703.43
913.494	6632.24
913.806	6649.87
914.118	6627.04
914.43	6594.28
914.742	6581.17
915.054	6497.33
915.366	6470.89
915.678	6473.37
915.99	6399.48
916.302	6377.33
916.613	6357.45
916.925	6321.29
917.236	6323.77
917.548	6282.87
917.859	6280.61
918.171	6218.69
918.482	6176.43
918.794	6212.14
919.105	6182.54
919.416	6143.44
919.727	6117
920.038	6141.86
920.349	6001.97
920.66	6013.27
920.971	5976.21
921.282	6012.37
921.593	5963.56
921.903	5972.6
922.214	5913.39
922.525	5879.27
922.835	5874.75
923.146	5843.34
923.456	5844.01
923.767	5753.85
924.077	5783
924.387	5775.09
924.697	5717.69
925.008	5660.97
925.318	5721.53
925.628	5639.27
925.938	5672.94
926.248	5585.71
926.558	5540.74
926.867	5584.36
927.177	5558.14
927.487	5518.6
927.796	5457.58
928.106	5484.47
928.416	5453.74
928.725	5411.71
929.034	5404.48
929.344	5412.84
929.653	5355.89
929.962	5300.98
930.271	5306.85
930.581	5249.68
930.89	5263.24
931.199	5278.15
931.508	5196.12
931.817	5252.16
932.125	5175.56
932.434	5162
932.743	5122.68
933.051	5117.7
933.36	5111.6
933.669	5042.45
933.977	5042.9
934.286	5003.13
934.594	4978.95
934.902	4955.22
935.21	4973.08
935.519	4919.29
935.827	4966.07
936.135	4918.84
936.443	4831.61
936.751	4847.66
937.059	4871.38
937.367	4825.96
937.674	4788.22
937.982	4785.96
938.29	4779.63
938.597	4793.65
938.905	4708.45
939.213	4700.54
939.52	4653.08
939.827	4640.2
940.135	4647.21
940.442	4612.41
940.749	4582.13
941.056	4624.84
941.363	4533.31
941.67	4548.91
941.977	4497.61
942.284	4493.77
942.591	4489.25
942.898	4477.5
943.205	4478.85
943.511	4421
943.818	4413.77
944.125	4409.93
944.431	4375.58
944.738	4354.11
945.044	4319.53
945.35	4331.51
945.657	4314.56
945.963	4250.61
946.269	4252.42
946.575	4262.81
946.881	4194.56
947.187	4165.64
947.493	4128.8
947.799	4160.44
948.105	4163.83
948.41	4095.36
948.716	4098.52
949.022	4065.53
949.327	4069.82
949.633	4034.34
949.938	4008.81
950.244	4016.49
950.549	3974.46
950.854	3968.36
951.16	3996.38
951.465	3967.68
951.77	3963.16
952.075	3920.9
952.38	3896.04
952.685	3892.43
952.99	3884.06
953.294	3829.15
953.599	3798.64
953.904	3800
954.209	3798.42
954.513	3754.12
954.818	3733.11
955.122	3751.64
955.426	3748.02
955.731	3724.75
956.035	3724.75
956.339	3680.68
956.643	3679.55
956.948	3639.1
957.252	3665.09
957.556	3632.09
957.86	3635.26
958.163	3638.65
958.467	3596.84
958.771	3560.01
959.075	3536.28
959.378	3542.15
959.682	3513.23
959.985	3504.87
960.289	3455.38
960.592	3483.17
960.896	3437.52
961.199	3438.2
961.502	3398.65
961.805	3415.15
962.108	3423.29
962.411	3394.81
962.714	3392.1
963.017	3402.72
963.32	3353.91
963.623	3327.92
963.926	3314.81
964.228	3278.88
964.531	3287.7
964.833	3273.23
965.136	3256.74
965.438	3214.48
965.741	3211.31
966.043	3215.61
966.345	3223.52
966.648	3174.25
966.95	3210.64
967.252	3128.15
967.554	3129.73
967.856	3131.09
968.158	3104.42
968.46	3109.17
968.761	3085.44
969.063	3084.76
969.365	3047.48
969.666	3032.79
969.968	3007.03
970.269	3038.89
970.571	2994.82
970.872	2998.21
971.174	2983.75
971.475	2978.78
971.776	2953.92
972.077	2943.52
972.378	2940.81
972.679	2903.75
972.98	2910.53
973.281	2903.75
973.582	2873.92
973.883	2883.41
974.183	2866.01
974.484	2845.9
974.785	2824.43
975.085	2855.17
975.386	2828.27
975.686	2829.4
975.986	2804.54
976.287	2782.85
976.587	2754.6
976.887	2720.71
977.187	2773.59
977.487	2755.28
977.787	2721.16
978.087	2713.7
978.387	2684.1
978.687	2697.66
978.987	2701.72
979.286	2623.98
979.586	2637.54
979.885	2623.98
980.185	2634.38
980.484	2627.6
980.784	2609.3
981.083	2569.75
981.382	2578.11
981.682	2548.51
981.981	2578.79
982.28	2564.33
982.579	2535.4
982.878	2539.24
983.177	2532.46
983.475	2536.98
983.774	2515.29
984.073	2491.78
984.372	2473.93
984.67	2471.45
984.969	2452.46
985.267	2440.49
985.566	2441.16
985.864	2423.31
986.162	2405.23
986.461	2401.62
986.759	2405.69
987.057	2373.6
987.355	2402.3
987.653	2353.71
987.951	2306.93
988.249	2332.24
988.547	2301.28
988.844	2307.83
989.142	2302.19
989.44	2300.15
989.737	2300.6
990.035	2233.26
990.332	2249.76
990.63	2251.57
990.927	2261.28
991.224	2215.41
991.521	2225.8
991.819	2207.72
992.116	2178.8
992.413	2185.8
992.71	2179.25
993.006	2143.77
993.303	2178.8
993.6	2137.67
993.897	2145.13
994.193	2129.53
994.49	2107.16
994.787	2119.59
995.083	2102.87
995.379	2107.39
995.676	2062.42
995.972	2061.51
996.268	2084.79
996.565	2060.16
996.861	2026.26
997.157	2073.72
997.453	2031.91
997.749	1993.49
998.044	1961.86
998.34	1988.75
998.636	1983.55
998.932	1993.72
999.227	1965.92
999.523	1947.62
999.818	1929.54
1000.114	1954.17
1000.409	1913.04
1000.704	1880.05
1001	1887.51
1001.295	1894.74
1001.59	1913.49
1001.885	1891.12
1002.18	1859.49
1002.475	1865.36
1002.77	1830.33
1003.065	1828.98
1003.359	1805.02
1003.654	1810.22
1003.949	1823.33
1004.243	1802.54
1004.538	1779.94
1004.832	1770.45
1005.127	1770.22
1005.421	1759.6
1005.715	1746.49
1006.009	1723.44
1006.304	1729.54
1006.598	1720.96
1006.892	1727.51
1007.186	1690.45
1007.48	1667.85
1007.773	1709.43
1008.067	1676.21
1008.361	1670.34
1008.655	1649.55
1008.948	1642.99
1009.242	1646.61
1009.535	1634.41
1009.829	1619.94
1010.122	1613.16
1010.415	1617.23
1010.708	1575.2
1011.001	1575.42
1011.295	1575.42
1011.588	1581.53
1011.881	1555.54
1012.173	1566.39
1012.466	1568.87
1012.759	1535.43
1013.052	1514.64
1013.344	1527.97
1013.637	1508.76
1013.93	1483
1014.222	1477.8
1014.514	1449.1
1014.807	1445.03
1015.099	1473.05
1015.391	1429.67
1015.683	1442.32
1015.976	1428.76
1016.268	1412.72
1016.56	1449.78
1016.851	1404.13
1017.143	1408.2
1017.435	1413.85
1017.727	1388.99
1018.018	1395.54
1018.31	1370.23
1018.602	1385.15
1018.893	1372.94
1019.185	1356.9
1019.476	1337.01
1019.767	1310.35
1020.058	1337.69
1020.35	1321.87
1020.641	1311.93
1020.932	1294.3
1021.223	1310.57
1021.514	1279.16
1021.804	1244.13
1022.095	1283.91
1022.386	1259.95
1022.677	1258.37
1022.967	1236.68
1023.258	1245.72
1023.548	1231.93
1023.839	1219.05
1024.129	1182.89
1024.419	1200.29
1024.709	1185.15
1025	1182.89
1025.29	1178.15
1025.58	1172.95
1025.87	1167.98
1026.16	1161.2
1026.449	1167.98
1026.739	1148.54
1027.029	1135.44
1027.319	1115.32
1027.608	1118.49
1027.898	1123.23
1028.187	1092.27
1028.477	1098.6
1028.766	1085.27
1029.055	1085.72
1029.344	1077.13
1029.634	1076.23
1029.923	1089.34
1030.212	1050.69
1030.501	1069.22
1030.79	1053.4
1031.078	1032.61
1031.367	1038.04
1031.656	1043.91
1031.945	1028.55
1032.233	1016.34
1032.522	1027.42
1032.81	994.2
1033.099	989.68
1033.387	992.39
1033.675	981.77
1033.963	983.12
1034.251	987.87
1034.54	960.75
1034.828	967.53
1035.116	944.48
1035.403	932.05
1035.691	953.75
1035.979	961.66
1036.267	946.29
1036.554	928.44
1036.842	908.55
1037.129	887.76
1037.417	905.61
1037.704	901.09
1037.992	920.98
1038.279	905.61
1038.566	880.75
1038.853	880.75
1039.14	880.75
