Data from hue_290_FLMS001491_00002.txt Node
Date: Tue Feb 07 15:52:06 GMT 2017
User: dcchb
Spectrometer: FLMS00149
Trigger mode: 0
Integration Time (sec): 2.000000E-2
Scans to average: 10
Electric dark correction enabled: true
Nonlinearity correction enabled: false
Boxcar width: 0
XAxis mode: Wavelengths
Number of Pixels in Spectrum: 2048
>>>>>Begin Spectral Data<<<<<
341.393	-20.3
341.776	-20.3
342.16	-20.3
342.543	-61.42
342.927	-66.62
343.31	-67.3
343.693	-63.91
344.077	-70.69
344.46	-71.14
344.843	-60.75
345.226	-27.3
345.61	-28.21
345.993	-25.04
346.376	-2.44
346.759	6.82
347.142	61.06
347.525	28.97
347.908	41.85
348.291	79.81
348.674	79.14
349.057	119.14
349.44	138.34
349.823	137.21
350.206	151.68
350.588	180.83
350.971	213.37
351.354	219.02
351.737	248.62
352.119	240.26
352.502	235.97
352.884	258.34
353.267	269.87
353.65	274.39
354.032	306.47
354.414	284.33
354.797	311.45
355.179	303.09
355.562	324.33
355.944	327.04
356.326	307.6
356.709	341.05
357.091	333.59
357.473	349.41
357.855	348.73
358.238	339.69
358.62	324.55
359.002	318.68
359.384	339.24
359.766	337.66
360.148	310.09
360.53	326.59
360.912	338.34
361.294	346.47
361.676	311.67
362.057	323.65
362.439	303.99
362.821	323.65
363.203	330.43
363.584	320.71
363.966	328.85
364.348	325.68
364.729	294.72
365.111	334.5
365.493	330.66
365.874	324.33
366.256	309.64
366.637	316.19
367.019	313.71
367.4	319.36
367.781	304.22
368.163	320.94
368.544	310.54
368.925	330.43
369.306	311.67
369.688	324.78
370.069	298.34
370.45	297.21
370.831	292.46
371.212	283.2
371.593	296.08
371.974	294.72
372.355	311.22
372.736	301.73
373.117	305.8
373.498	316.19
373.879	312.8
374.26	324.78
374.641	306.47
375.021	297.44
375.402	322.97
375.783	315.29
376.163	319.36
376.544	319.13
376.925	302.63
377.305	322.75
377.686	314.84
378.066	314.84
378.447	325.01
378.827	336.76
379.208	324.33
379.588	324.78
379.968	332.91
380.349	343.08
380.729	329.53
381.109	323.88
381.489	340.6
381.87	350.77
382.25	330.2
382.63	329.53
383.01	342.41
383.39	338.11
383.77	321.39
384.15	316.64
384.53	339.69
384.91	351.45
385.29	337.66
385.67	331.56
386.049	352.35
386.429	346.7
386.809	320.94
387.189	346.47
387.568	358.45
387.948	343.31
388.328	345.12
388.707	383.54
389.087	359.58
389.466	372.91
389.846	376.3
390.225	383.31
390.605	365.23
390.984	379.92
391.363	344.67
391.743	384.89
392.122	383.76
392.501	367.49
392.881	383.54
393.26	359.58
393.639	399.35
394.018	366.59
394.397	395.06
394.776	390.54
395.155	405.23
395.534	386.47
395.913	376.98
396.292	367.72
396.671	402.74
397.05	408.85
397.429	377.89
397.808	402.07
398.186	407.72
398.565	391.67
398.944	411.78
399.323	411.78
399.701	413.82
400.08	420.6
400.458	434.61
400.837	420.14
401.215	414.49
401.594	426.02
401.972	444.1
402.351	424.21
402.729	438.22
403.107	429.64
403.486	445
403.864	451.1
404.242	425.79
404.62	442.97
404.999	426.7
405.377	450.43
405.755	447.71
406.133	468.05
406.511	483.87
406.889	507.83
407.267	483.87
407.645	484.55
408.023	481.39
408.401	488.84
408.779	502.85
409.156	497.2
409.534	518.22
409.912	524.32
410.29	524.32
410.667	520.93
411.045	538.33
411.422	541.05
411.8	540.14
412.178	541.72
412.555	553.93
412.933	578.78
413.31	581.27
413.687	568.39
414.065	596.41
414.442	611.78
414.819	599.8
415.197	602.51
415.574	601.16
415.951	639.35
416.328	623.98
416.705	628.27
417.082	640.25
417.46	652.23
417.837	651.78
418.214	682.28
418.591	693.81
418.967	692
419.344	681.15
419.721	710.53
420.098	710.76
420.475	705.33
420.852	703.07
421.228	735.62
421.605	744.2
421.982	732.23
422.358	743.53
422.735	754.6
423.111	760.93
423.488	774.03
423.864	786.24
424.241	800.25
424.617	809.74
424.994	811.77
425.37	833.47
425.746	826.91
426.123	845.22
426.499	827.59
426.875	886.35
427.251	853.35
427.627	870.3
428.003	907.59
428.379	883.41
428.756	910.07
429.132	914.59
429.507	953.24
429.883	954.14
430.259	980.58
430.635	950.3
431.011	993.91
431.387	1011.32
431.763	1023.97
432.138	999.34
432.514	1049.96
432.89	1042.73
433.265	1067.36
433.641	1063.29
434.016	1096.96
434.392	1090.18
434.767	1116.4
435.143	1103.06
435.518	1124.98
435.894	1156.4
436.269	1159.79
436.644	1160.01
437.02	1177.86
437.395	1173.57
437.77	1184.42
438.145	1218.32
438.52	1244.3
438.895	1235.94
439.271	1242.04
439.646	1275.49
440.021	1285.88
440.395	1287.24
440.77	1257.18
441.145	1281.59
441.52	1317.75
441.895	1313.23
442.27	1325.66
442.645	1311.87
443.019	1343.51
443.394	1347.13
443.769	1368.59
444.143	1382.83
444.518	1381.47
444.892	1371.53
445.267	1374.7
445.641	1399.1
446.016	1409.72
446.39	1388.71
446.764	1424.86
447.139	1431.87
447.513	1436.61
447.887	1430.51
448.262	1447.01
448.636	1419.67
449.01	1468.7
449.384	1468.25
449.758	1459.67
450.132	1475.71
450.506	1520.68
450.88	1479.33
451.254	1508.7
451.628	1498.53
452.002	1525.65
452.376	1500.12
452.75	1557.06
453.123	1527.46
453.497	1589.15
453.871	1558.42
454.244	1550.51
454.618	1582.83
454.992	1605.88
455.365	1580.11
455.739	1633.45
456.112	1674.8
456.486	1672.99
456.859	1674.8
457.232	1713.22
457.606	1695.82
457.979	1726.78
458.352	1750.28
458.725	1766.32
459.099	1798.19
459.472	1798.87
459.845	1802.03
460.218	1809.49
460.591	1811.97
460.964	1828.92
461.337	1884.29
461.71	1907.79
462.083	1858.98
462.456	1900.56
462.829	1882.03
463.201	1943.04
463.574	1924.29
463.947	1951.18
464.32	1973.55
464.692	1989.82
465.065	1986.66
465.438	2051.51
465.81	2060.33
466.183	2046.09
466.555	2099.42
466.928	2098.07
467.3	2126.54
467.672	2126.31
468.045	2181.68
468.417	2136.03
468.789	2174.45
469.161	2193.66
469.534	2204.05
469.906	2240.89
470.278	2265.97
470.65	2273.43
471.022	2318.17
471.394	2315.01
471.766	2395.69
472.138	2349.36
472.51	2441.79
472.882	2454.22
473.253	2446.31
473.625	2476.14
473.997	2529.69
474.369	2563.36
474.74	2537.38
475.112	2582.35
475.484	2610.14
475.855	2663.25
476.227	2684.72
476.598	2724.49
476.97	2748.67
477.341	2774.88
477.713	2801.55
478.084	2820.31
478.455	2865.5
478.827	2918.61
479.198	2938.72
479.569	2949.8
479.94	3005.84
480.311	3015.1
480.682	3097.59
481.053	3128.77
481.424	3150.92
481.795	3183.24
482.166	3242.44
482.537	3286.28
482.908	3316.79
483.279	3336.68
483.65	3355.21
484.021	3428.43
484.391	3451.93
484.762	3446.73
485.133	3458.48
485.503	3487.63
485.874	3590.23
486.244	3623.22
486.615	3651.7
486.985	3711.13
487.356	3741.86
487.726	3729.89
488.097	3787.51
488.467	3811.92
488.837	3931.69
489.207	3897.79
489.578	3948.64
489.948	4001.52
490.318	4040.39
490.688	4000.16
491.058	4054.85
491.428	4105.47
491.798	4149.76
492.168	4239.93
492.538	4219.14
492.908	4243.32
493.278	4295.75
493.648	4301.85
494.017	4316.54
494.387	4352.24
494.757	4357.89
495.126	4418.68
495.496	4436.76
495.866	4485.8
496.235	4495.29
496.605	4509.75
496.974	4555.63
497.344	4581.16
497.713	4586.81
498.082	4608.06
498.452	4680.82
498.821	4668.39
499.19	4652.58
499.559	4709.07
499.928	4738.9
500.298	4768.5
500.667	4789.29
501.036	4742.06
501.405	4842.63
501.774	4796.75
502.143	4809.86
502.512	4824.77
502.88	4863.19
503.249	4909.74
503.618	4884.89
503.987	4950.87
504.356	4967.37
504.724	4888.73
505.093	4973.24
505.462	4955.39
505.83	4944.32
506.199	5047.14
506.567	5076.29
506.936	5085.78
507.304	5137.31
507.672	5080.81
508.041	5182.73
508.409	5147.7
508.777	5157.65
509.145	5256.85
509.514	5197.19
509.882	5231.77
510.25	5254.59
510.618	5258.89
510.986	5298.89
511.354	5324.2
511.722	5353.12
512.09	5345.89
512.458	5403.52
512.826	5405.78
513.193	5449.62
513.561	5375.95
513.929	5461.59
514.297	5460.92
514.664	5502.5
515.032	5479.67
515.4	5556.28
515.767	5542.95
516.135	5586.11
516.502	5521.25
516.869	5625.21
517.237	5564.19
517.604	5620.46
517.972	5664.07
518.339	5661.36
518.706	5665.2
519.073	5693.23
519.44	5720.57
519.808	5751.08
520.175	5727.35
520.542	5754.24
520.909	5787.23
521.276	5800.79
521.643	5845.31
522.009	5860.91
522.376	5903.62
522.743	5893.22
523.11	5972.31
523.477	6019.32
523.843	6028.58
524.21	6024.52
524.577	6053.89
524.943	6064.52
525.31	6092.31
525.676	6155.59
526.043	6173.44
526.409	6151.29
526.776	6276.49
527.142	6240.56
527.508	6280.1
527.874	6303.15
528.241	6330.05
528.607	6362.13
528.973	6384.06
529.339	6356.71
529.705	6396.94
530.071	6474
530.437	6540.66
530.803	6533.66
531.169	6597.16
531.535	6562.13
531.901	6560.1
532.267	6614.78
532.632	6545.18
532.998	6669.02
533.364	6639.42
533.73	6719.87
534.095	6760.99
534.461	6722.35
534.826	6724.16
535.192	6760.77
535.557	6810.26
535.923	6806.64
536.288	6822.46
536.653	6852.52
537.019	6797.15
537.384	6820.2
537.749	6908.34
538.114	6960.76
538.479	6991.04
538.845	6946.98
539.21	6927.54
539.575	6996.69
539.94	6968.67
540.305	7023.13
540.67	7032.4
541.034	7058.84
541.399	7078.5
541.764	7124.15
542.129	7181.1
542.494	7118.27
542.858	7172.06
543.223	7176.12
543.587	7228.1
543.952	7248.44
544.316	7217.71
544.681	7252.06
545.045	7339.51
545.41	7353.07
545.774	7365.95
546.138	7372.05
546.503	7403.69
546.867	7367.76
547.231	7427.42
547.595	7442.78
547.959	7416.8
548.324	7487.98
548.688	7537.92
549.052	7464.48
549.416	7479.39
549.779	7544.7
550.143	7545.83
550.507	7644.14
550.871	7600.75
551.235	7600.75
551.599	7624.7
551.962	7669.45
552.326	7630.58
552.689	7682.1
553.053	7671.93
553.417	7719.84
553.78	7791.48
554.143	7733.62
554.507	7803.68
554.87	7755.77
555.234	7859.5
555.597	7792.15
555.96	7869.44
556.323	7849.33
556.686	7876.22
557.05	7973.39
557.413	7926.16
557.776	7960.96
558.139	7995.31
558.502	8031.24
558.865	7964.58
559.228	8023.56
559.59	8073.95
559.953	8020.17
560.316	8118.7
560.679	8093.84
561.041	8190.79
561.404	8217.91
561.767	8242.09
562.129	8216.1
562.492	8317.34
562.854	8221.3
563.217	8275.31
563.579	8264.46
563.941	8377.45
564.304	8470.1
564.666	8390.78
565.028	8406.6
565.39	8450.89
565.753	8536.09
566.115	8506.71
566.477	8555.07
566.839	8616.31
567.201	8640.04
567.563	8672.58
567.925	8680.49
568.287	8715.52
568.648	8721.17
569.01	8723.65
569.372	8789.19
569.734	8840.94
570.095	8917.77
570.457	8940.37
570.819	8923.65
571.18	8915.06
571.542	9039.8
571.903	9037.32
572.265	9101.27
572.626	9085.23
572.987	9148.05
573.349	9157.09
573.71	9167.48
574.071	9286.8
574.432	9232.57
574.794	9353.24
575.155	9307.37
575.516	9380.59
575.877	9462.84
576.238	9418.55
576.599	9543.97
576.96	9550.3
577.32	9596.17
577.681	9635.95
578.042	9687.25
578.403	9786.23
578.763	9814.02
579.124	9911.19
579.485	9991.19
579.845	10024.41
580.206	10097.4
580.566	10097.18
580.927	10131.3
581.287	10263.95
581.648	10275.03
582.008	10463.5
582.368	10430.5
582.728	10600.44
583.089	10587.11
583.449	10740.78
583.809	10879.98
584.169	10935.35
584.529	10964.05
584.889	11145.74
585.249	11177.15
585.609	11282.68
585.969	11465.96
586.329	11465.28
586.688	11682.9
587.048	11707.53
587.408	11841.76
587.768	11865.27
588.127	12072.49
588.487	12202.89
588.846	12381.41
589.206	12484.46
589.565	12611.91
589.925	12776.2
590.284	12781.4
590.643	12955.18
591.003	13160.15
591.362	13322.4
591.721	13443.08
592.08	13513.59
592.44	13738.44
592.799	13773.24
593.158	13983.4
593.517	14102.72
593.876	14161.7
594.235	14319.44
594.593	14422.49
594.952	14619.54
595.311	14707
595.67	14927.33
596.029	15089.59
596.387	15234.44
596.746	15348.34
597.104	15410.48
597.463	15462.69
597.822	15631.95
598.18	15790.36
598.538	15805.95
598.897	16042.78
599.255	16017.7
599.613	16412.49
599.972	16387.41
600.33	16633.96
600.688	16615.42
601.046	16863.1
601.404	17011.57
601.762	17064.23
602.12	17209.76
602.478	17328.17
602.836	17365.01
603.194	17449.3
603.552	17610.88
603.91	17534.95
604.268	17732.01
604.625	17874.6
604.983	17923.64
605.341	17958.44
605.698	18178.77
606.056	18297.64
606.413	18412.44
606.771	18438.88
607.128	18588.03
607.485	18599.33
607.843	18658.76
608.2	18877.96
608.557	18949.6
608.914	18982.37
609.272	19096.26
609.629	19225.75
609.986	19298.52
610.343	19272.98
610.7	19475.01
611.057	19513.65
611.414	19484.05
611.771	19692.63
612.127	19755.68
612.484	19817.15
612.841	19928.11
613.198	19939.86
613.554	20028.89
613.911	20125.39
614.267	20201.77
614.624	20204.48
614.98	20277.25
615.337	20478.37
615.693	20410.13
616.05	20518.15
616.406	20548.65
616.762	20603.79
617.118	20578.03
617.475	20652.15
617.831	20632.95
618.187	20809.89
618.543	20934.41
618.899	21039.04
619.255	20841.98
619.611	20978.25
619.967	21078.58
620.323	21132.14
620.678	21086.49
621.034	21088.53
621.39	21149.09
621.746	21096.21
622.101	21450.55
622.457	21190.67
622.812	21246.94
623.168	21451.68
623.523	21383.43
623.879	21497.33
624.234	21314.06
624.589	21514.73
624.945	21518.8
625.3	21616.2
625.655	21479.48
626.01	21654.61
626.365	21502.08
626.72	21486.71
627.075	21519.93
627.43	21587.72
627.785	21652.58
628.14	21763.54
628.495	21723.54
628.85	21716.99
629.205	21597.89
629.559	21648.51
629.914	21648.74
630.269	21662.3
630.623	21687.83
630.978	21589.76
631.332	21651.22
631.687	21635.63
632.041	21564
632.396	21739.36
632.75	21526.48
633.104	21638.57
633.459	21571
633.813	21590.66
634.167	21527.39
634.521	21514.5
634.875	21578.68
635.229	21562.64
635.583	21406.03
635.937	21422.3
636.291	21516.09
636.645	21521.51
636.999	21553.6
637.352	21437.22
637.706	21326.04
638.06	21473.6
638.413	21436.77
638.767	21395.86
639.121	21356.09
639.474	21347.96
639.828	21376.66
640.181	21308.86
640.534	21361.06
640.888	21279.03
641.241	21197.9
641.594	21251.01
641.947	21354.51
642.301	21222.54
642.654	21246.72
643.007	21394.73
643.36	21325.58
643.713	21188.64
644.066	21458.46
644.419	21271.12
644.771	21170.33
645.124	20909.1
645.477	20905.03
645.83	20738.03
646.182	20642.21
646.535	20608.99
646.888	20654.41
647.24	20632.95
647.593	20659.61
647.945	20637.92
648.298	20543.23
648.65	20484.48
649.002	20498.71
649.355	20570.12
649.707	20577.58
650.059	20670.01
650.411	20927.18
650.763	20939.6
651.115	21182.31
651.467	21138.7
651.819	21121.75
652.171	21019.38
652.523	20999.94
652.875	20986.38
653.227	20975.31
653.578	20984.58
653.93	21059.6
654.282	20966.72
654.633	20899.83
654.985	21069.09
655.337	20958.14
655.688	20966.5
656.039	21105.7
656.391	20949.77
656.742	20978.47
657.094	21029.32
657.445	21091.92
657.796	20982.54
658.147	20908.42
658.498	21013.28
658.849	21176.21
659.2	21013.28
659.551	21068.87
659.902	21112.48
660.253	21124.46
660.604	21109.32
660.955	21040.62
661.306	21153.38
661.656	21053.95
662.007	21081.52
662.358	21158.13
662.708	21087.85
663.059	21086.04
663.409	21109.32
663.76	21134.85
664.11	21155.42
664.461	21174.4
664.811	21166.49
665.161	21194.29
665.511	21163.78
665.862	21131.01
666.212	21155.19
666.562	21105.7
666.912	21083.33
667.262	21097.34
667.612	21137.11
667.962	21135.76
668.312	20998.13
668.662	21171.46
669.011	21067.06
669.361	21138.24
669.711	21035.2
670.06	21097.11
670.41	21045.36
670.76	21066.61
671.109	21146.6
671.459	21012.82
671.808	21003.11
672.157	21020.96
672.507	20824.81
672.856	20930.11
673.205	20964.69
673.554	21095.76
673.904	20895.09
674.253	21065.03
674.602	20935.76
674.951	20706.39
675.3	20548.88
675.649	20918.81
675.998	20877.46
676.346	20897.12
676.695	20928.31
677.044	20712.27
677.393	20846.73
677.741	20806.95
678.09	20776.22
678.438	20707.97
678.787	20717.46
679.135	20730.8
679.484	20547.07
679.832	20702.77
680.181	20644.02
680.529	20558.82
680.877	20565.6
681.225	20417.36
681.573	20651.48
681.922	20486.74
682.27	20377.36
682.618	20317.02
682.966	20341.65
683.314	20450.35
683.661	20325.61
684.009	20314.76
684.357	20281.54
684.705	20216.69
685.053	20185.95
685.4	20124.03
685.748	20079.29
686.095	20093.07
686.443	19941.66
686.79	19944.6
687.138	19985.05
687.485	19952.74
687.832	19925.39
688.18	19946.18
688.527	19747.55
688.874	19701.9
689.221	19611.28
689.568	19639.98
689.915	19570.38
690.262	19470.72
690.609	19408.35
690.956	19312.3
691.303	19416.48
691.65	19278.41
691.997	19206.09
692.344	19085.64
692.69	19105.53
693.037	19261.23
693.383	18914.8
693.73	18988.24
694.077	18935.36
694.423	18866.44
694.769	18795.48
695.116	18802.94
695.462	18671.42
695.808	18757.97
696.155	18645.88
696.501	18570.18
696.847	18446.11
697.193	18436.62
697.539	18404.08
697.885	18283.86
698.231	18271.88
698.577	18105.78
698.923	18148.27
699.269	18071.66
699.614	17980.13
699.96	17873.47
700.306	17880.48
700.651	17794.38
700.997	17765.45
701.342	17703.76
701.688	17699.01
702.033	17645.68
702.379	17637.77
702.724	17452.24
703.069	17590.31
703.415	17395.29
703.76	17384.22
704.105	17273.26
704.45	17295.41
704.795	17093.83
705.14	17137.44
705.485	17125.02
705.83	17009.99
706.175	16985.36
706.52	16917.56
706.865	16873.27
707.209	16858.36
707.554	16756.21
707.899	16809.09
708.243	16772.48
708.588	16744.46
708.932	16524.35
709.277	16495.88
709.621	16532.04
709.966	16408.65
710.31	16474.64
710.654	16353.28
710.998	16267.41
711.342	16287.3
711.687	16303.57
712.031	16206.62
712.375	16163.91
712.719	16227.64
713.063	16111.71
713.407	16164.36
713.75	16067.19
714.094	16076.46
714.438	15994.42
714.782	16001.43
715.125	15967.08
715.469	15985.61
715.812	15986.51
716.156	15772.73
716.499	15785.39
716.843	15830.59
717.186	15681.44
717.53	15789.91
717.873	15795.33
718.216	15740.42
718.559	15655.9
718.902	15584.94
719.246	15594.66
719.589	15420.88
719.932	15428.79
720.275	15485.28
720.617	15472.63
720.96	15452.74
721.303	15420.65
721.646	15422.01
721.989	15388.11
722.331	15545.62
722.674	15359.64
723.016	15404.16
723.359	15356.47
723.701	15437.38
724.044	15312.63
724.386	15261.11
724.729	15274.67
725.071	15189.7
725.413	15197.83
725.755	15223.37
726.097	15200.32
726.439	15031.74
726.782	15163.26
727.124	15184.28
727.465	15085.52
727.807	15182.92
728.149	15077.84
728.491	14996.71
728.833	15098.85
729.175	15079.42
729.516	15035.13
729.858	15000.55
730.199	15012.98
730.541	14953.55
730.882	14930.5
731.224	15062.25
731.565	14914.68
731.906	14998.07
732.248	15059.08
732.589	14947.45
732.93	14834.45
733.271	14920.55
733.612	14986.09
733.953	14935.92
734.294	14893.66
734.635	14866.32
734.976	14930.27
735.317	14792.65
735.658	14859.99
735.999	14872.19
736.339	14876.04
736.68	14873.55
737.021	14943.83
737.361	14834.23
737.702	14873.78
738.042	14886.66
738.383	14855.24
738.723	14979.99
739.063	14866.54
739.404	14923.27
739.744	14932.08
740.084	14843.72
740.424	14918.52
740.764	14944.96
741.104	15042.13
741.444	14855.92
741.784	14956.26
742.124	14903.15
742.464	14894.34
742.804	14918.29
743.143	14935.24
743.483	15006.43
743.823	14876.26
744.162	14963.26
744.502	15119.87
744.841	15083.71
745.181	15138.4
745.52	15035.81
745.86	15159.64
746.199	15224.5
746.538	15147.44
746.877	15343.14
747.216	15361.9
747.556	15365.29
747.895	15443.48
748.234	15439.86
748.573	15412.07
748.911	15506.75
749.25	15571.16
749.589	15659.52
749.928	15726.63
750.267	15802.56
750.605	15726.63
750.944	15940.41
751.283	15864.03
751.621	16080.52
751.96	16117.13
752.298	16187.19
752.636	16235.77
752.975	16266.28
753.313	16420.4
753.651	16556.22
753.989	16612.94
754.327	16668.08
754.666	16693.39
755.004	16952.82
755.342	17039.14
755.679	17135.64
756.017	17168.18
756.355	17414.27
756.693	17407.72
757.031	17594.38
757.368	17502.63
757.706	17680.93
758.044	17754.38
758.381	17903.75
758.719	17994.6
759.056	18173.58
759.394	18269.39
759.731	18250.41
760.068	18379.45
760.405	18498.99
760.743	18613.79
761.08	18733.56
761.417	18749.83
761.754	18847.46
762.091	18995.02
762.428	19061.24
762.765	19120.44
763.102	19314.11
763.438	19405.41
763.775	19474.78
764.112	19411.06
764.449	19661.45
764.785	19695.12
765.122	19774.21
765.458	19687.21
765.795	19882.68
766.131	19962
766.467	20013.3
766.804	19938.5
767.14	20063.7
767.476	20069.35
767.812	20146.86
768.148	20177.14
768.485	20188.21
768.821	20235.89
769.157	20305.95
769.492	20342.33
769.828	20361.09
770.164	20277.02
770.5	20427.98
770.836	20461.65
771.171	20463.23
771.507	20391.14
771.842	20351.37
772.178	20354.08
772.513	20461.65
772.849	20469.11
773.184	20403.12
773.519	20492.84
773.855	20479.73
774.19	20373.07
774.525	20441.09
774.86	20436.12
775.195	20416.68
775.53	20522.44
775.865	20358.83
776.2	20258.94
776.535	20237.25
776.87	20249.45
777.205	20167.65
777.539	20230.47
777.874	20321.99
778.209	20152.96
778.543	20156.35
778.878	19936.92
779.212	20054.66
779.547	20041.32
779.881	20144.6
780.215	19968.56
780.55	20062.11
780.884	19819.18
781.218	19851.5
781.552	19899.86
781.886	19774.66
782.22	19746.64
782.554	19699.19
782.888	19657.83
783.222	19562.92
783.556	19429.59
783.889	19357.27
784.223	19291.29
784.557	19427.33
784.89	19407.89
785.224	19327.67
785.557	19151.86
785.891	19185.98
786.224	19091.52
786.558	19170.39
786.891	18968.81
787.224	18934.46
787.557	18943.5
787.891	18895.82
788.224	18864.18
788.557	18903.5
788.89	18826.21
789.223	18793.9
789.556	18675.26
789.888	18625.54
790.221	18574.7
790.554	18459.44
790.887	18457.18
791.219	18390.97
791.552	18400.91
791.884	18226
792.217	18202.5
792.549	18216.74
792.882	18114.59
793.214	18032.56
793.546	17997.54
793.879	17928.61
794.211	17882.74
794.543	17939.68
794.875	17892.45
795.207	17949.17
795.539	17802.74
795.871	17837.99
796.203	17600.94
796.535	17538.79
796.867	17586.02
797.198	17475.29
797.53	17450.88
797.862	17350.32
798.193	17478.68
798.525	17333.6
798.856	17295.18
799.188	17117.56
799.519	17113.72
799.85	17061.51
800.182	17019.48
800.513	17058.58
800.844	16800.96
801.175	16934.06
801.506	16976.09
801.837	16894.06
802.168	16719.6
802.499	16687.51
802.83	16635.09
803.161	16600.51
803.491	16517.8
803.822	16626.5
804.153	16500.63
804.483	16356.22
804.814	16352.83
805.145	16417.01
805.475	16344.25
805.805	16225.38
806.136	16184.93
806.466	16190.35
806.796	16184.7
807.126	16093.63
807.457	16078.26
807.787	16144.7
808.117	15949.68
808.447	15892.51
808.777	15960.98
809.107	15850.93
809.436	15870.13
809.766	15751.72
810.096	15707.2
810.426	15735.9
810.755	15740.87
811.085	15699.52
811.414	15656.58
811.744	15565.06
812.073	15456.13
812.403	15543.59
812.732	15411.39
813.061	15433.76
813.39	15291.17
813.719	15255.01
814.049	15323.03
814.378	15306.76
814.707	15174.78
815.036	15096.82
815.365	15038.07
815.693	15082.58
816.022	14985.19
816.351	14987.44
816.68	14853.21
817.008	14872.87
817.337	14777.96
817.665	14809.6
817.994	14783.38
818.322	14740.45
818.651	14690.5
818.979	14644.18
819.307	14799.43
819.636	14591.3
819.964	14542.94
820.292	14561.24
820.62	14615.03
820.948	14626.55
821.276	14627
821.604	14521.92
821.932	14563.95
822.259	14632.65
822.587	14524.63
822.915	14451.19
823.243	14494.12
823.57	14431.3
823.898	14519.21
824.225	14444.63
824.553	14477.18
824.88	14517.85
825.207	14550.62
825.535	14475.59
825.862	14492.99
826.189	14429.04
826.516	14528.25
826.843	14561.69
827.17	14526.67
827.497	14599.88
827.824	14566.21
828.151	14565.08
828.478	14552.2
828.805	14636.04
829.131	14549.94
829.458	14508.81
829.785	14439.44
830.111	14443.28
830.438	14563.95
830.764	14457.29
831.09	14507.91
831.417	14411.64
831.743	14478.98
832.069	14436.72
832.395	14380
832.722	14504.29
833.048	14346.33
833.374	14394.24
833.7	14393.56
834.026	14373.9
834.351	14404.64
834.677	14379.1
835.003	14412.77
835.329	14358.99
835.654	14248.93
835.98	14219.1
836.306	14248.48
836.631	14197.18
836.956	14274.47
837.282	14255.49
837.607	14203.96
837.932	14110.18
838.258	14194.92
838.583	14146.11
838.908	14029.05
839.233	14089.39
839.558	14072.89
839.883	13973.01
840.208	14010.97
840.533	13930.3
840.858	14006.91
841.182	14002.84
841.507	13979.34
841.832	13943.18
842.156	13869.51
842.481	13859.11
842.805	13772.34
843.13	13769.85
843.454	13717.87
843.778	13626.58
844.103	13754.93
844.427	13677.65
844.751	13687.82
845.075	13589.97
845.399	13591.55
845.723	13445.56
846.047	13475.17
846.371	13339.58
846.695	13371.44
847.019	13223.65
847.343	13251.45
847.666	13133.03
847.99	13125.12
848.313	13090.77
848.637	12959.93
848.96	12934.84
849.284	12982.75
849.607	12796.54
849.931	12840.83
850.254	12696.43
850.577	12686.94
850.9	12597.9
851.223	12486.04
851.546	12518.58
851.869	12309.1
852.192	12442.2
852.515	12352.94
852.838	12401.98
853.161	12321.53
853.483	12258.93
853.806	12163.34
854.129	12137.35
854.451	12180.97
854.774	12021.2
855.096	12001.53
855.419	11994.53
855.741	11963.57
856.063	11896.23
856.385	11894.87
856.708	11847.64
857.03	11828.43
857.352	11867.53
857.674	11728.32
857.996	11804.25
858.318	11641.09
858.64	11689.45
858.961	11581.66
859.283	11609.68
859.605	11551.6
859.926	11642.45
860.248	11527.42
860.57	11415.79
860.891	11535.56
861.212	11412.4
861.534	11467.54
861.855	11370.82
862.176	11323.36
862.498	11343.7
862.819	11377.14
863.14	11250.37
863.461	11342.79
863.782	11267.77
864.103	11263.93
864.424	11199.52
864.745	11316.35
865.065	11125.4
865.386	11152.74
865.707	11140.09
866.027	11089.69
866.348	11096.93
866.668	11079.07
866.989	11061.67
867.309	10976.02
867.63	11025.06
867.95	11032.75
868.27	10917.95
868.59	10862.36
868.91	10933.31
869.23	10894.22
869.55	10850.83
869.87	10901.45
870.19	10869.14
870.51	10884.28
870.83	10859.87
871.15	10749.14
871.469	10794.79
871.789	10713.21
872.109	10748.46
872.428	10712.76
872.748	10718.86
873.067	10693.55
873.386	10735.81
873.706	10636.6
874.025	10614
874.344	10550.05
874.663	10570.39
874.982	10508.24
875.301	10643.15
875.62	10567
875.939	10511.4
876.258	10522.03
876.577	10470.95
876.896	10453.78
877.214	10451.07
877.533	10416.94
877.852	10489.71
878.17	10432.99
878.489	10395.25
878.807	10343.95
879.125	10328.58
879.444	10256.27
879.762	10324.52
880.08	10324.52
880.398	10237.51
880.716	10242.94
881.034	10224.41
881.352	10228.93
881.67	10208.81
881.988	10149.83
882.306	10158.42
882.624	10120.68
882.941	10078.42
883.259	10074.35
883.577	10079.1
883.894	10058.76
884.212	10004.75
884.529	9951.65
884.846	10008.59
885.164	9937.41
885.481	9920.69
885.798	9930.4
886.115	9861.93
886.432	9878.88
886.75	9825.32
887.067	9804.53
887.383	9762.27
887.7	9725.21
888.017	9730.18
888.334	9718.2
888.651	9716.62
888.967	9644.99
889.284	9626
889.6	9522.96
889.917	9550.98
890.233	9562.73
890.55	9555.95
890.866	9446.8
891.182	9399.12
891.498	9463.3
891.815	9405.44
892.131	9379.68
892.447	9333.81
892.763	9342.17
893.079	9339.01
893.395	9308.95
893.71	9265.56
894.026	9241.38
894.342	9244.55
894.657	9123.19
894.973	9061.73
895.289	9151.21
895.604	9047.04
895.92	9045.91
896.235	9013.59
896.55	9000.26
896.865	8925.46
897.181	8909.19
897.496	8888.85
897.811	8872.35
898.126	8826.02
898.441	8790.32
898.756	8770.66
899.071	8733.82
899.386	8721.39
899.7	8639.36
900.015	8563.43
900.33	8557.11
900.644	8601.62
900.959	8586.94
901.273	8525.24
901.588	8527.28
901.902	8463.32
902.216	8418.13
902.531	8346.72
902.845	8314.4
903.159	8220.62
903.473	8241.86
903.787	8219.26
904.101	8198.7
904.415	8205.7
904.729	8160.51
905.042	8125.93
905.356	8113.73
905.67	8029.21
905.984	8021.07
906.297	8020.85
906.611	7966.16
906.924	7996.67
907.237	7966.61
907.551	7879.84
907.864	7921.64
908.177	7864.02
908.491	7837.8
908.804	7808.88
909.117	7785.6
909.43	7727.52
909.743	7672.38
910.056	7719.61
910.368	7631.48
910.681	7635.32
910.994	7605.04
911.307	7537.47
911.619	7507.64
911.932	7498.6
912.244	7467.64
912.557	7407.08
912.869	7337.25
913.181	7378.15
913.494	7341.54
913.806	7258.61
914.118	7240.98
914.43	7203.92
914.742	7207.99
915.054	7177.71
915.366	7137.93
915.678	7120.53
915.99	7106.97
916.302	7072.85
916.613	7061.1
916.925	6993.3
917.236	6959.18
917.548	6875.34
917.859	6908.11
918.171	6878.51
918.482	6893.19
918.794	6879.64
919.105	6838.05
919.416	6795.57
919.727	6744.27
920.038	6763.25
920.349	6718.96
920.66	6742.01
920.971	6641.9
921.282	6631.96
921.593	6516.03
921.903	6459.99
922.214	6500.66
922.525	6469.7
922.835	6478.29
923.146	6444.62
923.456	6393.32
923.767	6378.41
924.077	6407.78
924.387	6315.81
924.697	6247.79
925.008	6285.75
925.318	6242.36
925.628	6253.44
925.938	6208.92
926.248	6167.11
926.558	6147
926.867	6128.92
927.177	6089.6
927.487	6102.48
927.796	6000.11
928.106	5987
928.416	5957.85
928.725	5940.45
929.034	5942.26
929.344	5935.93
929.653	5928.25
929.962	5849.83
930.271	5866.1
930.581	5822.71
930.89	5789.95
931.199	5805.77
931.508	5697.52
931.817	5692.1
932.125	5672.44
932.434	5698.65
932.743	5629.72
933.051	5585.21
933.36	5620.91
933.669	5526.68
933.977	5523.74
934.286	5549.5
934.594	5531.65
934.902	5454.36
935.21	5469.73
935.519	5453.91
935.827	5375.72
936.135	5383.18
936.443	5350.41
936.751	5328.94
937.059	5325.78
937.367	5285.1
937.674	5267.02
937.982	5237.19
938.29	5216.18
938.597	5182.96
938.905	5123.52
939.213	5159.45
939.52	5077.42
939.827	5100.47
940.135	5128.95
940.442	5064.32
940.749	5035.39
941.056	5018.67
941.363	5019.12
941.67	5034.26
941.977	4932.57
942.284	4905.22
942.591	4905.68
942.898	4911.78
943.205	4850.08
943.511	4834.49
943.818	4841.95
944.125	4782.06
944.431	4786.36
944.738	4775.06
945.044	4730.99
945.35	4750.2
945.657	4618.45
945.963	4652.35
946.269	4682.18
946.575	4682.41
946.881	4616.64
947.187	4580.71
947.493	4560.83
947.799	4585.68
948.105	4540.94
948.41	4503.2
948.716	4484.67
949.022	4485.8
949.327	4488.29
949.633	4403.99
949.938	4403.99
950.244	4399.7
950.549	4389.31
950.854	4343.66
951.16	4360.83
951.465	4304.56
951.77	4319.48
952.075	4283.77
952.38	4259.59
952.685	4266.6
952.99	4210.33
953.294	4232.93
953.599	4195.64
953.904	4156.09
954.209	4124.68
954.513	4148.41
954.818	4116.54
955.122	4145.7
955.426	4070.67
955.731	4067.73
956.035	4070.44
956.339	4042.2
956.643	4005.36
956.948	3996.32
957.252	3978.47
957.556	3967.62
957.86	3934.4
958.163	3917.91
958.467	3930.56
958.771	3910.22
959.075	3880.39
959.378	3889.21
959.682	3836.1
959.985	3808.3
960.289	3819.6
960.592	3807.4
960.896	3790.9
961.199	3751.58
961.502	3752.49
961.805	3729.44
962.108	3688.53
962.411	3688.08
962.714	3704.58
963.017	3670.45
963.32	3691.7
963.623	3646.05
963.926	3626.16
964.228	3635.43
964.531	3596.78
964.833	3593.17
965.136	3568.76
965.438	3522.44
965.741	3566.05
966.043	3513.85
966.345	3509.55
966.648	3485.83
966.95	3500.97
967.252	3460.52
967.554	3439.27
967.856	3418.03
968.158	3402.66
968.46	3347.3
968.761	3370.12
969.063	3374.19
969.365	3329.22
969.666	3349.11
969.968	3309.33
970.269	3323.12
970.571	3283.12
970.872	3284.7
971.174	3270.46
971.475	3222.56
971.776	3215.1
972.077	3211.03
972.378	3192.73
972.679	3193.86
972.98	3169
973.281	3145.5
973.582	3182.11
973.883	3142.78
974.183	3147.53
974.484	3092.62
974.785	3124.03
975.085	3085.38
975.386	3102.33
975.686	3006.52
975.986	3054.43
976.287	3026.18
976.587	3007.65
976.887	2972.85
977.187	2980.75
977.487	2997.7
977.787	2938.04
978.087	2943.24
978.387	2954.99
978.687	2920.42
978.987	2897.14
979.286	2884.94
979.586	2866.41
979.885	2844.94
980.185	2849.68
980.484	2825.28
980.784	2823.7
981.083	2845.17
981.382	2790.25
981.682	2825.96
981.981	2767.2
982.28	2779.63
982.579	2741.44
982.878	2714.32
983.177	2698.05
983.475	2720.2
983.774	2713.42
984.073	2708.67
984.372	2665.28
984.67	2652.63
984.969	2674.55
985.267	2628.22
985.566	2612.4
985.864	2610.6
986.162	2622.57
986.461	2595
986.759	2620.09
987.057	2559.98
987.355	2547.32
987.653	2554.55
987.951	2562.46
988.249	2530.6
988.547	2482.46
988.844	2509.58
989.142	2492.18
989.44	2468.68
989.737	2486.53
990.035	2438.85
990.332	2422.58
990.63	2435.01
990.927	2425.06
991.224	2404.27
991.521	2393.43
991.819	2378.28
992.116	2381.9
992.413	2353.65
992.71	2338.29
993.006	2340.55
993.303	2307.33
993.6	2302.13
993.897	2320.21
994.193	2324.05
994.49	2303.03
994.787	2296.48
995.083	2273.2
995.379	2252.64
995.676	2244.96
995.972	2218.06
996.268	2254.45
996.565	2199.76
996.861	2187.56
997.157	2217.84
997.453	2163.38
997.749	2186.43
998.044	2186.2
998.34	2154.79
998.636	2111.4
998.932	2106.2
999.227	2110.5
999.523	2103.26
999.818	2063.49
1000.114	2091.29
1000.409	2059.65
1000.704	2039.31
1001	2039.76
1001.295	2026.43
1001.59	2012.42
1001.885	2010.61
1002.18	1990.5
1002.475	1990.5
1002.77	1997.73
1003.065	1977.39
1003.359	1943.72
1003.654	1930.84
1003.949	1912.08
1004.243	1946.43
1004.538	1897.39
1004.832	1891.07
1005.127	1907.34
1005.421	1896.49
1005.715	1845.87
1006.009	1848.13
1006.304	1857.85
1006.598	1845.19
1006.892	1809.49
1007.186	1842.48
1007.48	1810.62
1007.773	1806.77
1008.067	1798.19
1008.361	1776.04
1008.655	1771.97
1008.948	1773.33
1009.242	1740.79
1009.535	1755.02
1009.829	1738.98
1010.122	1717.51
1010.415	1703.27
1010.708	1685.87
1011.001	1680.45
1011.295	1684.29
1011.588	1694.24
1011.881	1670.05
1012.173	1660.11
1012.466	1657.4
1012.759	1640.9
1013.052	1625.54
1013.344	1612.88
1013.637	1613.56
1013.93	1563.62
1014.222	1587.8
1014.514	1604.97
1014.807	1569.49
1015.099	1575.59
1015.391	1550.28
1015.683	1516.39
1015.976	1537.86
1016.268	1477.07
1016.56	1517.97
1016.851	1484.52
1017.143	1519.32
1017.435	1464.41
1017.727	1459.44
1018.018	1451.53
1018.31	1451.3
1018.602	1438.42
1018.893	1421.7
1019.185	1438.87
1019.476	1418.99
1019.767	1428.93
1020.058	1397.29
1020.35	1382.15
1020.641	1381.02
1020.932	1376.73
1021.223	1381.25
1021.514	1364.98
1021.804	1350.06
1022.095	1331.31
1022.386	1297.86
1022.677	1338.31
1022.967	1308.26
1023.258	1295.83
1023.548	1295.6
1023.839	1302.38
1024.129	1302.83
1024.419	1242.04
1024.709	1280.01
1025	1256.73
1025.29	1266.9
1025.58	1243.17
1025.87	1229.39
1026.16	1233.91
1026.449	1227.58
1026.739	1212.89
1027.029	1182.38
1027.319	1190.75
1027.608	1190.07
1027.898	1151.88
1028.187	1201.82
1028.477	1158.2
1028.766	1180.8
1029.055	1131.31
1029.344	1133.57
1029.634	1155.49
1029.923	1143.74
1030.212	1115.49
1030.501	1112.56
1030.79	1113.91
1031.078	1116.62
1031.367	1067.58
1031.656	1052.22
1031.945	1090.41
1032.233	1050.64
1032.522	1082.05
1032.81	1061.48
1033.099	1072.33
1033.387	1028.26
1033.675	1026.23
1033.963	1025.33
1034.251	1033.91
1034.54	1006.8
1034.828	1024.42
1035.116	1021.48
1035.403	1026.46
1035.691	1008.15
1035.979	1006.12
1036.267	980.58
1036.554	974.03
1036.842	983.97
1037.129	955.05
1037.417	967.93
1037.704	960.24
1037.992	939.45
1038.279	949.17
1038.566	912.33
1038.853	912.33
1039.14	912.33
