Data from hue_320_FLMS001491_23.txt Node
Date: Mon Feb 06 15:46:58 GMT 2017
User: dcchb
Spectrometer: FLMS00149
Trigger mode: 0
Integration Time (sec): 2.000000E-2
Scans to average: 10
Electric dark correction enabled: true
Nonlinearity correction enabled: false
Boxcar width: 0
XAxis mode: Wavelengths
Number of Pixels in Spectrum: 2048
>>>>>Begin Spectral Data<<<<<
341.393	3.91
341.776	3.91
342.16	3.91
342.543	-50.32
342.927	-62.98
343.31	-77.67
343.693	-90.55
344.077	-62.53
344.46	-55.97
344.843	-44.9
345.226	-41.51
345.61	-13.04
345.993	-2.87
346.376	-8.97
346.759	12.73
347.142	20.86
347.525	39.62
347.908	49.79
348.291	78.71
348.674	85.04
349.057	111.25
349.44	130.69
349.823	145.15
350.206	150.58
350.588	191.03
350.971	194.19
351.354	221.99
351.737	242.1
352.119	236.22
352.502	282.78
352.884	269.67
353.267	276.45
353.65	289.33
354.032	304.47
354.414	279.16
354.797	342.43
355.179	309.44
355.562	302.89
355.944	324.58
356.326	337.46
356.709	327.07
357.091	339.04
357.473	338.37
357.855	328.42
358.238	359.16
358.62	323.9
359.002	327.29
359.384	336.78
359.766	332.94
360.148	334.3
360.53	325.26
360.912	349.44
361.294	328.88
361.676	328.88
362.057	353.06
362.439	333.85
362.821	316.22
363.203	323.68
363.584	326.62
363.966	323.68
364.348	320.51
364.729	313.96
365.111	311.93
365.493	320.74
365.874	327.07
366.256	308.09
366.637	308.31
367.019	310.34
367.4	315.99
367.781	292.04
368.163	318.03
368.544	325.94
368.925	301.08
369.306	308.76
369.688	318.48
370.069	307.18
370.45	303.11
370.831	312.6
371.212	299.05
371.593	304.92
371.974	313.06
372.355	297.46
372.736	300.85
373.117	310.34
373.498	326.62
373.879	291.59
374.26	309.44
374.641	320.97
375.021	322.32
375.402	291.81
375.783	318.25
376.163	317.12
376.544	313.06
376.925	325.26
377.305	319.84
377.686	309.67
378.066	312.83
378.447	333.17
378.827	315.99
379.208	315.77
379.588	327.07
379.968	346.5
380.349	330.68
380.729	325.03
381.109	326.16
381.489	336.56
381.87	346.28
382.25	333.17
382.63	343.34
383.01	332.72
383.39	361.87
383.77	343.79
384.15	337.91
384.53	341.76
384.91	326.16
385.29	339.04
385.67	326.62
386.049	344.92
386.429	370.23
386.809	335.88
387.189	328.88
387.568	331.36
387.948	334.98
388.328	361.19
388.707	355.99
389.087	345.37
389.466	362.77
389.846	337.46
390.225	379.04
390.605	361.64
390.984	366.84
391.363	343.34
391.743	350.8
392.122	369.1
392.501	374.3
392.881	381.98
393.26	374.52
393.639	376.56
394.018	357.12
394.397	363.9
394.776	407.97
395.155	370.68
395.534	379.27
395.913	375.43
396.292	379.04
396.671	377.91
397.05	387.86
397.429	375.88
397.808	381.98
398.186	384.02
398.565	389.21
398.944	385.6
399.323	396.67
399.701	376.78
400.08	410.23
400.458	407.07
400.837	392.38
401.215	416.1
401.594	389.89
401.972	399.83
402.351	407.97
402.729	398.7
403.107	395.09
403.486	405.26
403.864	417.01
404.242	406.61
404.62	437.57
404.999	396.22
405.377	415.88
405.755	422.88
406.133	419.27
406.511	407.29
406.889	430.34
407.267	453.17
407.645	432.83
408.023	420.85
408.401	432.15
408.779	443.22
409.156	448.42
409.534	458.14
409.912	456.33
410.29	459.72
410.667	468.08
411.045	498.59
411.422	501.75
411.8	498.36
412.178	492.26
412.555	480.96
412.933	487.29
413.31	515.54
413.687	551.02
414.065	508.53
414.442	553.95
414.819	520.96
415.197	553.28
415.574	526.38
415.951	546.5
416.328	560.73
416.705	543.79
417.082	557.57
417.46	568.87
417.837	582.2
418.214	565.25
418.591	606.38
418.967	584.24
419.344	622.43
419.721	609.55
420.098	600.05
420.475	600.96
420.852	636.21
421.228	607.06
421.605	657.23
421.982	637.57
422.358	633.95
422.735	674.18
423.111	659.04
423.488	650.67
423.864	655.19
424.241	667.17
424.617	677.57
424.994	693.39
425.37	692.03
425.746	687.28
426.123	698.58
426.499	713.05
426.875	718.47
427.251	732.25
427.627	739.03
428.003	732.03
428.379	724.8
428.756	718.24
429.132	749.2
429.507	788.3
429.883	765.7
430.259	769.09
430.635	788.3
431.011	805.02
431.387	805.93
431.763	814.29
432.138	831.91
432.514	816.09
432.89	844.79
433.265	871.91
433.641	871.23
434.016	870.56
434.392	867.39
434.767	922.08
435.143	901.97
435.518	901.74
435.894	908.07
436.269	922.76
436.644	926.15
437.02	932.25
437.395	913.72
437.77	940.61
438.145	966.15
438.52	950.33
438.895	992.36
439.271	965.69
439.646	989.88
440.021	994.85
440.395	1002.98
440.77	995.75
441.145	1018.35
441.52	1029.2
441.895	1002.76
442.27	1044.79
442.645	1051.57
443.019	1049.53
443.394	1030.55
443.769	1030.33
444.143	1061.96
444.518	1060.61
444.892	1051.12
445.267	1087.5
445.641	1056.09
446.016	1063.77
446.39	1065.58
446.764	1076.43
447.139	1092.47
447.513	1083.66
447.887	1071.23
448.262	1094.73
448.636	1103.32
449.01	1092.25
449.384	1118.46
449.758	1122.98
450.132	1126.82
450.506	1124.11
450.88	1105.13
451.254	1105.58
451.628	1141.74
452.002	1133.83
452.376	1124.11
452.75	1139.48
453.123	1170.89
453.497	1171.11
453.871	1204.33
454.244	1164.11
454.618	1176.99
454.992	1198.01
455.365	1196.88
455.739	1220.15
456.112	1229.42
456.486	1229.19
456.859	1250.21
457.232	1267.38
457.606	1247.04
457.979	1270.09
458.352	1311.22
458.725	1298.57
459.099	1307.15
459.472	1320.04
459.845	1329.98
460.218	1316.19
460.591	1339.02
460.964	1356.65
461.337	1383.31
461.71	1374.27
462.083	1383.09
462.456	1377.89
462.829	1394.61
463.201	1392.8
463.574	1416.08
463.947	1422.86
464.32	1421.95
464.692	1442.29
465.065	1422.41
465.438	1479.13
465.81	1478.45
466.183	1494.49
466.555	1532.01
466.928	1534.72
467.3	1523.42
467.672	1547.15
468.045	1553.02
468.417	1586.24
468.789	1577.2
469.161	1599.35
469.534	1576.07
469.906	1620.59
470.278	1632.57
470.65	1629.63
471.022	1674.38
471.394	1693.13
471.766	1701.72
472.138	1689.07
472.51	1730.19
472.882	1745.34
473.253	1763.41
473.625	1772.68
473.997	1804.99
474.369	1813.36
474.74	1838.44
475.112	1866.69
475.484	1909.85
475.855	1904.65
476.227	1895.16
476.598	1954.14
476.97	1943.97
477.341	1945.33
477.713	1995.95
478.084	1998.44
478.455	2064.65
478.827	2055.61
479.198	2110.98
479.569	2105.55
479.94	2142.39
480.311	2167.7
480.682	2203.63
481.053	2201.14
481.424	2245.89
481.795	2290.86
482.166	2278.65
482.537	2307.35
482.908	2347.58
483.279	2400.46
483.65	2410.4
484.021	2456.96
484.391	2451.31
484.762	2427.8
485.133	2510.97
485.503	2522.26
485.874	2550.96
486.244	2562.26
486.615	2608.14
486.985	2603.62
487.356	2633.9
487.726	2690.62
488.097	2722.94
488.467	2713.22
488.837	2750.96
489.207	2787.57
489.578	2793.44
489.948	2813.33
490.318	2859.2
490.688	2824.18
491.058	2885.87
491.428	2932.42
491.798	2927.68
492.168	2972.87
492.538	2987.11
492.908	3039.54
493.278	3058.97
493.648	3055.58
494.017	3068.92
494.387	3097.84
494.757	3153.66
495.126	3162.02
495.496	3162.47
495.866	3161.57
496.235	3186.2
496.605	3199.53
496.974	3218.97
497.344	3280.66
497.713	3206.77
498.082	3274.33
498.452	3322.02
498.821	3338.06
499.19	3352.75
499.559	3344.39
499.928	3348.01
500.298	3371.73
500.667	3403.6
501.036	3429.58
501.405	3416.93
501.774	3368.57
502.143	3418.06
502.512	3460.09
502.88	3487.21
503.249	3456.93
503.618	3502.58
503.987	3484.27
504.356	3549.36
504.724	3525.63
505.093	3536.02
505.462	3523.37
505.83	3559.98
506.199	3616.25
506.567	3592.29
506.936	3629.81
507.304	3644.27
507.672	3608.56
508.041	3639.97
508.409	3660.31
508.777	3706.87
509.145	3691.72
509.514	3708.22
509.882	3795.68
510.25	3732.85
510.618	3689.92
510.986	3748.22
511.354	3742.12
511.722	3778.28
512.09	3795.23
512.458	3794.32
512.826	3789.58
513.193	3829.57
513.561	3771.72
513.929	3841.1
514.297	3891.95
514.664	3898.73
515.032	3904.15
515.4	3903.92
515.767	3878.61
516.135	3892.85
516.502	3872.96
516.869	3939.85
517.237	3954.32
517.604	3915.67
517.972	3956.12
518.339	3970.36
518.706	4001.32
519.073	3994.77
519.44	4037.48
519.808	4002.23
520.175	4000.19
520.542	4018.95
520.909	4059.4
521.276	4051.26
521.643	4078.83
522.009	4105.5
522.376	4101.43
522.743	4153.86
523.11	4155.44
523.477	4139.17
523.843	4146.4
524.21	4209
524.577	4168.55
524.943	4221.43
525.31	4256
525.676	4288.77
526.043	4318.83
526.409	4308.66
526.776	4339.84
527.142	4345.27
527.508	4359.28
527.874	4409.22
528.241	4429.56
528.607	4422.78
528.973	4474.08
529.339	4478.37
529.705	4529.22
530.071	4482.89
530.437	4573.28
530.803	4576
531.169	4590.23
531.535	4552.27
531.901	4585.71
532.267	4583.9
532.632	4642.43
532.998	4625.71
533.364	4662.77
533.73	4671.36
534.095	4725.82
534.461	4727.18
534.826	4698.93
535.192	4750.68
535.557	4812.37
535.923	4810.34
536.288	4775.09
536.653	4830.23
537.019	4824.8
537.384	4887.4
537.749	4897.57
538.114	4895.31
538.479	4851.69
538.845	4937.79
539.21	4950
539.575	4979.83
539.94	4979.83
540.305	5052.82
540.67	5059.82
541.034	5021.86
541.399	5114.96
541.764	5069.54
542.129	5087.39
542.494	5124
542.858	5172.59
543.223	5160.39
543.587	5213.94
543.952	5205.81
544.316	5195.19
544.681	5261.85
545.045	5269.76
545.41	5283.1
545.774	5322.19
546.138	5312.7
546.503	5377.33
546.867	5335.3
547.231	5381.4
547.595	5399.7
547.959	5420.72
548.324	5467.95
548.688	5474.5
549.052	5507.04
549.416	5487.84
549.779	5505.46
550.143	5555.86
550.507	5569.87
550.871	5602.41
551.235	5584.1
551.599	5661.62
551.962	5660.03
552.326	5613.26
552.689	5699.13
553.053	5721.95
553.417	5679.02
553.78	5782.52
554.143	5704.1
554.507	5766.7
554.87	5705.46
555.234	5826.58
555.597	5756.3
555.96	5827.94
556.323	5815.06
556.686	5830.88
557.05	5827.49
557.413	5887.15
557.776	5882.4
558.139	5871.33
558.502	5990.87
558.865	5973.7
559.228	6038.78
559.59	5984.32
559.953	6040.14
560.316	6048.73
560.679	6058.89
561.041	6046.24
561.404	6104.32
561.767	6161.72
562.129	6112.45
562.492	6165.56
562.854	6215.95
563.217	6114.49
563.579	6213.47
563.941	6262.73
564.304	6236.29
564.666	6268.15
565.028	6322.84
565.39	6336.18
565.753	6383.41
566.115	6394.25
566.477	6366.46
566.839	6342.73
567.201	6409.85
567.563	6467.25
567.925	6537.98
568.287	6479.22
568.648	6496.4
569.01	6612.78
569.372	6546.57
569.734	6543.63
570.095	6657.97
570.457	6660.69
570.819	6666.34
571.18	6669.73
571.542	6755.37
571.903	6761.02
572.265	6810.29
572.626	6873.34
572.987	6862.04
573.349	6869.72
573.71	6942.49
574.071	6956.95
574.432	7007.12
574.794	7121.01
575.155	7103.16
575.516	7211.86
575.877	7233.55
576.238	7295.25
576.599	7380.67
576.96	7400.55
577.32	7403.49
577.681	7584.05
578.042	7588.8
578.403	7742.69
578.763	7728.23
579.124	7914.21
579.485	7970.93
579.845	8055.9
580.206	8134.77
580.566	8236.01
580.927	8375.44
581.287	8425.16
581.648	8549.22
582.008	8708.32
582.368	8758.94
582.728	8952.83
583.089	9145.59
583.449	9236.66
583.809	9432.36
584.169	9579.71
584.529	9668.97
584.889	9888.62
585.249	10068.51
585.609	10225.11
585.969	10408.38
586.329	10583.75
586.688	10843.85
587.048	11056.28
587.408	11243.39
587.768	11418.75
588.127	11659.2
588.487	11869.59
588.846	12202.46
589.206	12388.45
589.565	12612.39
589.925	12857.59
590.284	13121.53
590.643	13378.48
591.003	13741.63
591.362	13946.6
591.721	14192.92
592.08	14497.77
592.44	14738.67
592.799	15113.35
593.158	15276.51
593.517	15567.57
593.876	15859.77
594.235	16020.21
594.593	16378.17
594.952	16758.95
595.311	16903.58
595.67	17349.44
596.029	17709.66
596.387	17973.84
596.746	18361.4
597.104	18475.07
597.463	18868.28
597.822	19234.37
598.18	19317.75
598.538	19650.85
598.897	20099.2
599.255	20205.64
599.613	20736.93
599.972	20870.26
600.33	21134.88
600.688	21405.61
601.046	21780.97
601.404	22023.22
601.762	22205.14
602.12	22759.25
602.478	22934.16
602.836	23272.68
603.194	23365.78
603.552	23658.88
603.91	23886
604.268	24303.39
604.625	24362.59
604.983	24788.12
605.341	24813.2
605.698	25271.27
606.056	25479.17
606.413	25769.34
606.771	26125.94
607.128	26322.09
607.485	26475.08
607.843	26668.07
608.2	26996.65
608.557	27347.6
608.914	27421.5
609.272	27725.9
609.629	28054.7
609.986	28360
610.343	28291.76
610.7	28747.56
611.057	28860.1
611.414	29061.45
611.771	29274.1
612.127	29451.5
612.484	29602.68
612.841	29880.19
613.198	29994.08
613.554	30192.27
613.911	30458.25
614.267	30651.47
614.624	30818.47
614.98	31002.42
615.337	31390.88
615.693	31343.43
616.05	31479.47
616.406	31782.74
616.762	31712.01
617.118	31896.63
617.475	32062.05
617.831	32386.11
618.187	32517.86
618.543	32508.37
618.899	32820.45
619.255	32878.53
619.611	33046.66
619.967	33272.87
620.323	33338.4
620.678	33400.1
621.034	33423.82
621.39	33509.25
621.746	33544.27
622.101	34221.54
622.457	33939.52
622.812	34090.7
623.168	34262.45
623.523	34238.27
623.879	34497.69
624.234	34373.63
624.589	34543.34
624.945	34680.06
625.3	34689.55
625.655	34710.12
626.01	35039.6
626.365	35063.1
626.72	34970.68
627.075	35173.61
627.43	35122.99
627.785	35153.72
628.14	35289.54
628.495	35428.52
628.85	35508.97
629.205	35351.23
629.559	35637.78
629.914	35507.61
630.269	35612.92
630.623	35471.45
630.978	35540.83
631.332	35760.71
631.687	35803.42
632.041	35776.08
632.396	35927.04
632.75	35780.82
633.104	36036.41
633.459	35712.8
633.813	35773.14
634.167	35720.71
634.521	35757.32
634.875	35909.18
635.229	36048.39
635.583	35868.73
635.937	35825.12
636.291	35687.04
636.645	35898.56
636.999	35830.99
637.352	35975.85
637.706	35866.47
638.06	35947.83
638.413	35896.75
638.767	35885.23
639.121	35903.99
639.474	35792.58
639.828	35774.5
640.181	35828.96
640.534	35805.46
640.888	35924.78
641.241	35631.9
641.594	35909.86
641.947	35998.22
642.301	35828.28
642.654	35870.54
643.007	35767.49
643.36	35749.64
643.713	35764.78
644.066	35915.06
644.419	35744.44
644.771	35401.4
645.124	35131.58
645.477	35009.09
645.83	34949.66
646.182	34783.56
646.535	34816.78
646.888	34842.32
647.24	34826.27
647.593	34920.96
647.945	34766.84
648.298	34683.9
648.65	34613.85
649.002	34570.24
649.355	34649.33
649.707	34600.74
650.059	34796.9
650.411	35129.32
650.763	35275.08
651.115	35569.53
651.467	35371.57
651.819	35453.6
652.171	35434.62
652.523	35427.16
652.875	35402.08
653.227	35246.83
653.578	35601.39
653.93	35337.67
654.282	35204.12
654.633	35369.99
654.985	35422.87
655.337	35453.6
655.688	35418.57
656.039	35529.31
656.391	35142.2
656.742	35110.79
657.094	35261.97
657.445	35362.08
657.796	35169.32
658.147	35175.42
658.498	35274.4
658.849	35335.64
659.2	35146.04
659.551	35172.25
659.902	35257.9
660.253	35329.54
660.604	35181.74
660.955	35028.3
661.306	35228.97
661.656	35068.98
662.007	35041.41
662.358	35043.89
662.708	35196.89
663.059	35180.39
663.409	34945.14
663.76	35105.59
664.11	35182.65
664.461	35161.86
664.811	35091.58
665.161	35068.53
665.511	35007.96
665.862	35150.33
666.212	35099.94
666.562	35237.79
666.912	35023.1
667.262	35078.24
667.612	34955.31
667.962	34953.95
668.312	34972.03
668.662	35047.96
669.011	35079.37
669.361	34927.06
669.711	34840.96
670.06	34881.41
670.41	34824.24
670.76	34912.6
671.109	35084.35
671.459	35001.41
671.808	34849.1
672.157	34986.27
672.507	34852.26
672.856	34765.71
673.205	34933.39
673.554	34933.16
673.904	34825.37
674.253	35101.52
674.602	35006.61
674.951	34340.18
675.3	34279.62
675.649	34868.98
675.998	34669.22
676.346	34645.71
676.695	34787.4
677.044	34478.26
677.393	34606.84
677.741	34785.37
678.09	34617.47
678.438	34500.41
678.787	34550.8
679.135	34639.39
679.484	34458.83
679.832	34613.17
680.181	34388.09
680.529	34617.01
680.877	34369.11
681.225	34299.51
681.573	34614.08
681.922	34192.84
682.27	34184.03
682.618	34060.64
682.966	34105.39
683.314	34123.47
683.661	34017.48
684.009	33862.91
684.357	33883.47
684.705	33898.39
685.053	33850.25
685.4	33929.12
685.748	33783.82
686.095	33456.37
686.443	33536.59
686.79	33499.75
687.138	33503.6
687.485	33368.46
687.832	33474.67
688.18	33379.31
688.527	33250.04
688.874	33261.34
689.221	33216.37
689.568	33038.52
689.915	32991.29
690.262	33056.38
690.609	32944.74
690.956	32867.68
691.303	32714.69
691.65	32696.16
691.997	32673.34
692.344	32432.21
692.69	32499.33
693.037	32438.31
693.383	32107.7
693.73	32192.22
694.077	32113.12
694.423	32173.69
694.769	32066.57
695.116	31967.37
695.462	31972.56
695.808	31860.25
696.155	31952
696.501	31685.34
696.847	31532.8
697.193	31405.12
697.539	31465.91
697.885	31371.22
698.231	31247.16
698.577	31205.58
698.923	31172.36
699.269	31044.9
699.614	30801.75
699.96	30910.22
700.306	30931.23
700.651	30695.99
700.997	30631.36
701.342	30622.09
701.688	30611.24
702.033	30459.16
702.379	30411.7
702.724	30354.98
703.069	30399.05
703.415	30078.83
703.76	30122.89
704.105	30131.26
704.45	29937.36
704.795	29962.9
705.14	29732.17
705.485	29787.76
705.83	29625.96
706.175	29717.93
706.52	29518.62
706.865	29380.99
707.209	29525.62
707.554	29440.43
707.899	29460.54
708.243	29285.85
708.588	29169.25
708.932	29086.99
709.277	29112.07
709.621	28936.48
709.966	28805.19
710.31	29039.99
710.654	28667.11
710.998	28666.44
711.342	28728.35
711.687	28675.93
712.031	28521.58
712.375	28438.87
712.719	28477.29
713.063	28386.44
713.407	28399.78
713.75	28269.16
714.094	28131.31
714.438	28092.21
714.782	28132.21
715.125	27924.99
715.469	28120.69
715.812	27886.34
716.156	27749.62
716.499	27910.75
716.843	27911.65
717.186	27609.06
717.53	27741.71
717.873	27704.65
718.216	27654.26
718.559	27555.73
718.902	27344.44
719.246	27442.06
719.589	27370.65
719.932	27309.64
720.275	27236.87
720.617	27266.92
720.96	27156.87
721.303	27169.98
721.646	27169.53
721.989	26943.99
722.331	27049.98
722.674	26970.21
723.016	27041.85
723.359	26906.26
723.701	26908.97
724.044	26788.97
724.386	26619.71
724.729	26832.13
725.071	26664
725.413	26699.26
725.755	26717.79
726.097	26553.5
726.439	26278.02
726.782	26421.07
727.124	26525.47
727.465	26392.37
727.807	26364.8
728.149	26332.94
728.491	26372.03
728.833	26391.02
729.175	26179.72
729.516	26162.77
729.858	26163
730.199	26178.14
730.541	26087.52
730.882	25994.19
731.224	26142.21
731.565	25913.06
731.906	25740.18
732.248	25860.41
732.589	25817.7
732.93	25674.2
733.271	25693.18
733.612	25717.36
733.953	25761.88
734.294	25612.05
734.635	25462.23
734.976	25609.11
735.317	25470.14
735.658	25462.23
735.999	25464.49
736.339	25417.03
736.68	25416.13
737.021	25396.24
737.361	25307.43
737.702	25309.69
738.042	25240.99
738.383	25156.02
738.723	25155.12
739.063	25192.85
739.404	25230.37
739.744	25055.68
740.084	24886.42
740.424	25065.4
740.764	25092.97
741.104	25021.56
741.444	24876.48
741.784	24850.94
742.124	24837.38
742.464	24735.01
742.804	24766.2
743.143	24850.26
743.483	24672.19
743.823	24593.77
744.162	24523.04
744.502	24581.35
744.841	24530.05
745.181	24552.19
745.52	24424.29
745.86	24483.72
746.199	24410.05
746.538	24408.02
746.877	24481.69
747.216	24388.36
747.556	24315.14
747.895	24181.81
748.234	24230.39
748.573	24186.33
748.911	24134.35
749.25	24136.39
749.589	23954.24
749.928	24040.79
750.267	24072.66
750.605	23960.12
750.944	23892.55
751.283	23845.32
751.621	23884.87
751.96	23689.62
752.298	23751.54
752.636	23672.67
752.975	23627.47
753.313	23575.5
753.651	23546.12
753.989	23568.94
754.327	23466.12
754.666	23347.03
755.004	23422.28
755.342	23337.31
755.679	23269.97
756.017	23201.49
756.355	23146.35
756.693	23151.78
757.031	23064.77
757.368	22984.55
757.706	23011.22
758.044	22966.47
758.381	22872.46
758.719	22818.68
759.056	22765.57
759.394	22668.18
759.731	22509.31
760.068	22553.6
760.405	22476.77
760.743	22495.3
761.08	22398.35
761.417	22325.81
761.754	22287.17
762.091	22210.56
762.428	22084.91
762.765	22013.73
763.102	22024.8
763.438	21883.34
763.775	21870.23
764.112	21776.67
764.449	21825.49
764.785	21771.02
765.122	21671.14
765.458	21485.61
765.795	21564.93
766.131	21532.84
766.467	21394.76
766.804	21341.2
767.14	21290.81
767.476	21186.18
767.812	21044.94
768.148	21198.38
768.485	20937.83
768.821	20875.23
769.157	20870.48
769.492	20777.83
769.828	20843.59
770.164	20449.48
770.5	20537.16
770.836	20688.11
771.171	20388.69
771.507	20326.54
771.842	20218.07
772.178	20338.52
772.513	20172.2
772.849	20095.59
773.184	20040
773.519	19950.51
773.855	19891.75
774.19	19861.02
774.525	19779.44
774.86	19708.48
775.195	19666.45
775.53	19512.78
775.865	19399.79
776.2	19448.6
776.535	19191.88
776.87	19207.93
777.205	19184.88
777.539	19206.35
777.874	19117.31
778.209	18901.95
778.543	18866.92
778.878	18746.92
779.212	18773.14
779.547	18603.65
779.881	18741.27
780.215	18504.22
780.55	18564.1
780.884	18414.95
781.218	18515.97
781.552	18430.09
781.886	18207.95
782.22	18229.2
782.554	18092.7
782.888	17946.94
783.222	17999.37
783.556	17906.27
783.889	17851.13
784.223	17748.3
784.557	17669.21
784.89	17698.81
785.224	17632.6
785.557	17473.74
785.891	17447.52
786.224	17512.38
786.558	17402.32
786.891	17269.22
787.224	17238.94
787.557	17129.79
787.891	17053.63
788.224	17100.41
788.557	17089.11
788.89	16973.18
789.223	16929.12
789.556	16778.84
789.888	16750.82
790.221	16690.25
790.554	16472.41
790.887	16689.35
791.219	16522.8
791.552	16461.56
791.884	16383.82
792.217	16393.09
792.549	16238.51
792.882	16185.41
793.214	16196.48
793.546	16157.16
793.879	16039.2
794.211	16000.1
794.543	15968.24
794.875	15909.48
795.207	15985.86
795.539	15845.98
795.871	15840.33
796.203	15735.02
796.535	15659.55
796.867	15573.9
797.198	15539.78
797.53	15535.48
797.862	15408.25
798.193	15494.13
798.525	15297.75
798.856	15362.15
799.188	15240.12
799.519	15207.58
799.85	15093.91
800.182	15075.61
800.513	15146.57
800.844	14993.35
801.175	15014.37
801.506	14970.98
801.837	14917.42
802.168	14877.19
802.499	14732.34
802.83	14707.48
803.161	14634.04
803.491	14615.05
803.822	14605.34
804.153	14585
804.483	14433.36
804.814	14383.42
805.145	14384.33
805.475	14434.27
805.805	14255.29
806.136	14329.41
806.466	14248.96
806.796	14203.99
807.126	14218.91
807.457	14098.91
807.787	14009.87
808.117	14045.8
808.447	13970.32
808.777	14022.3
809.107	13939.37
809.436	13919.25
809.766	13851.68
810.096	13813.04
810.426	13787.05
810.755	13857.33
811.085	13712.48
811.414	13793.61
811.744	13641.97
812.073	13675.42
812.403	13646.04
812.732	13558.81
813.061	13452.37
813.39	13472.71
813.719	13404.24
814.049	13419.83
814.378	13417.12
814.707	13341.87
815.036	13277.01
815.365	13225.26
815.693	13183.45
816.022	13173.96
816.351	13098.48
816.68	13015.1
817.008	13064.59
817.337	12964.7
817.665	12966.06
817.994	13048.77
818.322	13027.07
818.651	12895.55
818.979	12778.94
819.307	12865.5
819.636	12810.13
819.964	12760.64
820.292	12844.93
820.62	12803.8
820.948	12734.43
821.276	12793.63
821.604	12708.21
821.932	12751.15
822.259	12677.48
822.587	12717.02
822.915	12666.4
823.243	12761.99
823.57	12698.95
823.898	12686.29
824.225	12663.01
824.553	12610.59
824.88	12580.53
825.207	12753.41
825.535	12602
825.862	12657.59
826.189	12622.79
826.516	12667.76
826.843	12673.41
827.17	12651.94
827.497	12647.42
827.824	12685.16
828.151	12738.04
828.478	12580.08
828.805	12693.07
829.131	12607.42
829.458	12595.67
829.785	12569.23
830.111	12634.77
830.438	12667.99
830.764	12588.44
831.09	12645.84
831.417	12492.17
831.743	12647.42
832.069	12621.43
832.395	12584.82
832.722	12582.56
833.048	12555.22
833.374	12552.73
833.7	12535.79
834.026	12513.41
834.351	12473.41
834.677	12524.26
835.003	12464.6
835.329	12477.93
835.654	12552.73
835.98	12385.28
836.306	12418.05
836.631	12423.7
836.956	12349.8
837.282	12345.51
837.607	12289.69
837.932	12337.37
838.258	12306.19
838.583	12334.89
838.908	12249.69
839.233	12257.15
839.558	12154.1
839.883	12182.8
840.208	12080.66
840.533	12067.32
840.858	12099.64
841.182	12130.37
841.507	12110.94
841.832	11918.4
842.156	12001.79
842.481	12053.31
842.805	11947.1
843.13	11936.03
843.454	11945.52
843.778	11891.28
844.103	11785.07
844.427	11828.91
844.751	11830.27
845.075	11723.6
845.399	11638.41
845.723	11689.03
846.047	11675.47
846.371	11553.67
846.695	11646.54
847.019	11520.45
847.343	11453.33
847.666	11379.43
847.99	11349.6
848.313	11388.47
848.637	11294.24
848.96	11240.68
849.284	11178.53
849.607	11091.3
849.931	11124.75
850.254	11078.2
850.577	10969.73
850.9	10872.55
851.223	10951.42
851.546	10884.98
851.869	10735.83
852.192	10817.64
852.515	10749.62
852.838	10663.75
853.161	10641.6
853.483	10670.07
853.806	10598.89
854.129	10655.38
854.451	10570.87
854.774	10450.64
855.096	10461.49
855.419	10373.58
855.741	10438.67
856.063	10363.41
856.385	10301.27
856.708	10304.66
857.03	10270.54
857.352	10249.97
857.674	10253.59
857.996	10160.03
858.318	10137.21
858.64	10178.33
858.961	10110.09
859.283	10070.54
859.605	10031.9
859.926	10051.33
860.248	9973.59
860.57	9912.35
860.891	10004.78
861.212	9924.33
861.534	9861.96
861.855	9868.51
862.176	9793.94
862.498	9867.38
862.819	9891.79
863.14	9805.24
863.461	9727.05
863.782	9732.7
864.103	9744.9
864.424	9737.22
864.745	9726.14
865.065	9680.72
865.386	9642.3
865.707	9615.64
866.027	9658.57
866.348	9583.55
866.668	9584.23
866.989	9623.55
867.309	9468.75
867.63	9548.75
867.95	9467.62
868.27	9496.54
868.59	9479.14
868.91	9544.68
869.23	9432.59
869.55	9338.81
869.87	9437.56
870.19	9402.99
870.51	9399.15
870.83	9392.59
871.15	9357.11
871.469	9364.34
871.789	9374.29
872.109	9380.39
872.428	9279.6
872.748	9349.88
873.067	9228.53
873.386	9295.87
873.706	9314.18
874.025	9214.74
874.344	9150.34
874.663	9205.25
874.982	9211.35
875.301	9185.37
875.62	9213.16
875.939	9089.1
876.258	9107.18
876.577	9014.97
876.896	9056.33
877.214	9030.79
877.533	9075.54
877.852	9049.32
878.17	9049.78
878.489	9068.08
878.807	9015.88
879.125	9028.53
879.444	9000.96
879.762	8930.68
880.08	8981.76
880.398	8892.72
880.716	8978.14
881.034	8863.11
881.352	8893.62
881.67	8819.95
881.988	8866.28
882.306	8843.23
882.624	8747.86
882.941	8757.81
883.259	8752.61
883.577	8695.89
883.894	8646.62
884.212	8715.1
884.529	8666.74
884.846	8582.44
885.164	8649.11
885.481	8571.6
885.798	8611.6
886.115	8488.66
886.432	8608.21
886.75	8530.02
887.067	8561.65
887.383	8467.19
887.7	8443.01
888.017	8396.23
888.334	8438.49
888.651	8359.85
888.967	8372.05
889.284	8296.35
889.6	8332.96
889.917	8298.38
890.233	8331.15
890.55	8310.13
890.866	8259.97
891.182	8246.41
891.498	8266.52
891.815	8113.98
892.131	8127.09
892.447	8138.16
892.763	8081.67
893.079	8107.65
893.395	8050.25
893.71	8012.97
894.026	8060.42
894.342	8010.93
894.657	8023.81
894.973	7953.08
895.289	7934.78
895.604	7881.67
895.92	7889.13
896.235	7859.3
896.55	7859.75
896.865	7820.66
897.181	7753.77
897.496	7716.48
897.811	7720.32
898.126	7660.89
898.441	7626.08
898.756	7649.36
899.071	7604.16
899.386	7687.78
899.7	7556.48
900.015	7506.54
900.33	7441.23
900.644	7433.32
900.959	7394.23
901.273	7399.42
901.588	7370.5
901.902	7380.67
902.216	7350.84
902.531	7282.59
902.845	7349.48
903.159	7252.99
903.473	7229.26
903.787	7157.4
904.101	7162.37
904.415	7144.52
904.729	7067.23
905.042	7055.25
905.356	7069.49
905.67	7047.34
905.984	7016.38
906.297	6977.97
906.611	6965.31
906.924	6964.18
907.237	6893
907.551	6903.39
907.864	6849.61
908.177	6844.18
908.491	6811.87
908.804	6788.82
909.117	6765.54
909.43	6724.41
909.743	6650.97
910.056	6694.13
910.368	6629.27
910.681	6552.89
910.994	6637.18
911.307	6597.86
911.619	6524.64
911.932	6533.91
912.244	6474.25
912.557	6518.09
912.869	6422.73
913.181	6417.08
913.494	6407.13
913.806	6353.35
914.118	6395.16
914.43	6282.62
914.742	6211.88
915.054	6253.69
915.366	6229.96
915.678	6168.95
915.99	6191.32
916.302	6160.36
916.613	6102.74
916.925	6109.97
917.236	6084.88
917.548	6049.86
917.859	5998.33
918.171	6010.76
918.482	5957.43
918.794	5948.39
919.105	5920.37
919.416	5891.44
919.727	5877.66
920.038	5853.02
920.349	5817.32
920.66	5827.71
920.971	5777.55
921.282	5812.8
921.593	5682.86
921.903	5702.29
922.214	5722.41
922.525	5628.17
922.835	5661.62
923.146	5549.98
923.456	5593.14
923.767	5578.46
924.077	5520.6
924.387	5519.7
924.697	5525.12
925.008	5477.21
925.318	5492.81
925.628	5441.74
925.938	5435.18
926.248	5370.1
926.558	5348.18
926.867	5359.7
927.177	5348.4
927.487	5267.28
927.796	5272.93
928.106	5233.61
928.416	5270.44
928.725	5212.59
929.034	5209.65
929.344	5186.6
929.653	5151.8
929.962	5113.16
930.271	5100.5
930.581	5053.72
930.89	5081.29
931.199	5040.39
931.508	5038.81
931.817	5017.57
932.125	4956.78
932.434	4978.92
932.743	4934.4
933.051	4879.04
933.36	4883.78
933.669	4830.45
933.977	4835.42
934.286	4821.41
934.594	4782.54
934.902	4743.67
935.21	4772.6
935.519	4737.57
935.827	4744.13
936.135	4678.37
936.443	4662.55
936.751	4645.37
937.059	4645.82
937.367	4622.55
937.674	4631.81
937.982	4605.37
938.29	4571.93
938.597	4583.68
938.905	4491.03
939.213	4510.69
939.52	4444.47
939.827	4532.61
940.135	4414.87
940.442	4392.5
940.749	4423.01
941.056	4435.89
941.363	4368.09
941.67	4380.29
941.977	4348.66
942.284	4329
942.591	4290.35
942.898	4283.35
943.205	4326.06
943.511	4268.43
943.818	4222.56
944.125	4244.93
944.431	4190.02
944.738	4186.18
945.044	4171.49
945.35	4120.19
945.657	4129.91
945.963	4122
946.269	4093.75
946.575	4106.4
946.881	4058.95
947.187	4076.57
947.493	4001.32
947.799	4001.77
948.105	4006.52
948.41	3965.16
948.716	3962.23
949.022	3918.16
949.327	3960.42
949.633	3850.36
949.938	3861.66
950.244	3882.91
950.549	3878.39
950.854	3784.83
951.16	3815.11
951.465	3805.17
951.77	3790.25
952.075	3769.01
952.38	3751.38
952.685	3736.47
952.99	3719.75
953.294	3702.8
953.599	3701.67
953.904	3680.65
954.209	3702.12
954.513	3628.9
954.818	3636.81
955.122	3615.57
955.426	3602.24
955.731	3578.28
956.035	3557.94
956.339	3569.69
956.643	3548.68
956.948	3494.22
957.252	3512.07
957.556	3498.06
957.86	3492.18
958.163	3464.16
958.467	3453.77
958.771	3418.06
959.075	3414.44
959.378	3401.79
959.682	3385.07
959.985	3370.38
960.289	3346.65
960.592	3323.37
960.896	3297.16
961.199	3324.5
961.502	3346.2
961.805	3297.61
962.108	3237.27
962.411	3245.63
962.714	3270.49
963.017	3252.64
963.32	3227.1
963.623	3202.02
963.926	3196.37
964.228	3195.69
964.531	3196.37
964.833	3145.52
965.136	3159.54
965.438	3124.73
965.741	3098.97
966.043	3122.47
966.345	3090.38
966.648	3040.44
966.95	3037.05
967.252	3037.28
967.554	3027.56
967.856	3026.21
968.158	3002.93
968.46	2967.9
968.761	2998.64
969.063	2970.39
969.365	2955.25
969.666	2977.39
969.968	2912.76
970.269	2884.51
970.571	2907.56
970.872	2898.07
971.174	2873.22
971.475	2891.75
971.776	2842.26
972.077	2855.59
972.378	2841.35
972.679	2807
972.98	2790.28
973.281	2796.83
973.582	2774.91
973.883	2780.56
974.183	2765.65
974.484	2731.07
974.785	2730.17
975.085	2698.08
975.386	2750.51
975.686	2701.69
975.986	2704.86
976.287	2681.36
976.587	2665.31
976.887	2646.33
977.187	2674.35
977.487	2660.79
977.787	2624.41
978.087	2611.75
978.387	2606.1
978.687	2578.31
978.987	2590.74
979.286	2549.38
979.586	2544.18
979.885	2557.29
980.185	2515.48
980.484	2501.25
980.784	2510.51
981.083	2506.9
981.382	2453.79
981.682	2504.41
981.981	2440.01
982.28	2474.81
982.579	2437.29
982.878	2425.09
983.177	2435.26
983.475	2411.76
983.774	2385.09
984.073	2372.66
984.372	2347.13
984.67	2378.77
984.969	2398.43
985.267	2359.56
985.566	2327.24
985.864	2311.87
986.162	2331.31
986.461	2324.3
986.759	2279.56
987.057	2286.79
987.355	2257.64
987.653	2285.89
987.951	2238.43
988.249	2234.14
988.547	2255.15
988.844	2233.23
989.142	2239.11
989.44	2217.19
989.737	2210.18
990.035	2226
990.332	2177.19
990.63	2185.32
990.927	2140.35
991.224	2182.84
991.521	2160.69
991.819	2125.66
992.116	2108.26
992.413	2126.12
992.71	2133.8
993.006	2114.82
993.303	2097.19
993.6	2081.37
993.897	2061.03
994.193	2099.22
994.49	2066.23
994.787	2043.63
995.083	2029.62
995.379	2010.87
995.676	2042.28
995.972	1986.23
996.268	1985.78
996.565	1993.01
996.861	1970.64
997.157	1946.46
997.453	1955.27
997.749	1945.78
998.044	1917.76
998.34	1964.31
998.636	1907.59
998.932	1912.34
999.227	1903.52
999.523	1885.67
999.818	1875.05
1000.114	1868.27
1000.409	1863.75
1000.704	1864.43
1001	1840.93
1001.295	1809.29
1001.59	1826.69
1001.885	1829.63
1002.18	1812.23
1002.475	1778.33
1002.77	1774.94
1003.065	1800.93
1003.359	1772.23
1003.654	1770.65
1003.949	1759.57
1004.243	1726.8
1004.538	1716.18
1004.832	1734.49
1005.127	1709.86
1005.421	1705.56
1005.715	1675.05
1006.009	1685
1006.304	1667.37
1006.598	1665.34
1006.892	1679.12
1007.186	1648.39
1007.48	1637.54
1007.773	1598.67
1008.067	1633.47
1008.361	1611.55
1008.655	1587.37
1008.948	1586.24
1009.242	1600.25
1009.535	1571.33
1009.829	1562.52
1010.122	1560.26
1010.415	1542.63
1010.708	1531.33
1011.001	1565.68
1011.295	1499.69
1011.588	1510.99
1011.881	1507.83
1012.173	1489.75
1012.466	1485
1012.759	1452.24
1013.052	1476.64
1013.344	1447.94
1013.637	1457.89
1013.93	1475.29
1014.222	1430.32
1014.514	1443.42
1014.807	1436.42
1015.099	1414.95
1015.391	1425.57
1015.683	1395.97
1015.976	1393.48
1016.268	1376.31
1016.56	1376.76
1016.851	1384.89
1017.143	1364.33
1017.435	1381.5
1017.727	1344.44
1018.018	1334.5
1018.31	1322.3
1018.602	1326.82
1018.893	1313.48
1019.185	1304.67
1019.476	1284.78
1019.767	1335.85
1020.058	1293.6
1020.35	1266.25
1020.641	1256.76
1020.932	1262.18
1021.223	1254.5
1021.514	1269.87
1021.804	1233.03
1022.095	1219.93
1022.386	1218.12
1022.677	1216.54
1022.967	1217.21
1023.258	1201.62
1023.548	1172.92
1023.839	1205.46
1024.129	1183.32
1024.419	1165.01
1024.709	1163.66
1025	1152.36
1025.29	1137.67
1025.58	1141.51
1025.87	1112.58
1026.16	1137.22
1026.449	1109.65
1026.739	1138.35
1027.029	1121.17
1027.319	1087.05
1027.608	1089.53
1027.898	1074.17
1028.187	1078.91
1028.477	1082.98
1028.766	1050.44
1029.055	1059.48
1029.344	1054.28
1029.634	1065.81
1029.923	1025.58
1030.212	1026.26
1030.501	1021.06
1030.79	1011.12
1031.078	1004.34
1031.367	1017.44
1031.656	1011.12
1031.945	996.88
1032.233	972.93
1032.522	1002.76
1032.81	969.54
1033.099	966.15
1033.387	966.82
1033.675	958.92
1033.963	932.7
1034.251	947.62
1034.54	913.72
1034.828	931.57
1035.116	920.72
1035.403	911.91
1035.691	916.66
1035.979	909.2
1036.267	925.47
1036.554	912.81
1036.842	893.83
1037.129	901.52
1037.417	873.72
1037.704	878.01
1037.992	868.52
1038.279	861.06
1038.566	869.65
1038.853	869.65
1039.14	869.65
