Data from hue_200_FLMS001491_00025.txt Node
Date: Tue Feb 07 16:43:03 GMT 2017
User: dcchb
Spectrometer: FLMS00149
Trigger mode: 0
Integration Time (sec): 2.000000E-2
Scans to average: 10
Electric dark correction enabled: true
Nonlinearity correction enabled: false
Boxcar width: 0
XAxis mode: Wavelengths
Number of Pixels in Spectrum: 2048
>>>>>Begin Spectral Data<<<<<
341.393	0.59
341.776	0.59
342.16	0.59
342.543	-74.21
342.927	-76.92
343.31	-85.28
343.693	-70.82
344.077	-67.88
344.46	-69.24
344.843	-48.67
345.226	-51.38
345.61	-28.11
345.993	-19.29
346.376	-0.31
346.759	26.13
347.142	27.49
347.525	36.98
347.908	60.93
348.291	78.11
348.674	105.45
349.057	105.9
349.44	135.73
349.823	137.99
350.206	145.45
350.588	180.48
350.971	193.81
351.354	215.73
351.737	227.71
352.119	239.91
352.502	260.47
352.884	290.08
353.267	286.24
353.65	295.05
354.032	301.6
354.414	316.07
354.797	312
355.179	310.19
355.562	317.2
355.944	323.52
356.326	307.93
356.709	339.57
357.091	324.88
357.473	333.01
357.855	325.78
358.238	338.21
358.62	343.41
359.002	329.62
359.384	346.57
359.766	333.47
360.148	326.23
360.53	324.2
360.912	312.45
361.294	326.46
361.676	328.95
362.057	342.05
362.439	337.99
362.821	316.07
363.203	306.8
363.584	312.45
363.966	313.13
364.348	341.15
364.729	318.32
365.111	309.51
365.493	297.08
365.874	333.92
366.256	297.76
366.637	295.95
367.019	292.56
367.4	295.5
367.781	329.85
368.163	301.6
368.544	301.38
368.925	312.68
369.306	330.75
369.688	329.85
370.069	312.68
370.45	300.02
370.831	298.21
371.212	319.91
371.593	319.23
371.974	303.64
372.355	309.96
372.736	313.81
373.117	306.12
373.498	305.67
373.879	287.82
374.26	301.38
374.641	318.78
375.021	306.35
375.402	319
375.783	316.52
376.163	321.04
376.544	312.9
376.925	306.57
377.305	302.96
377.686	311.32
378.066	335.95
378.447	339.12
378.827	315.16
379.208	319.68
379.588	305.22
379.968	316.29
380.349	329.17
380.729	327.36
381.109	312.45
381.489	337.53
381.87	335.27
382.25	335.73
382.63	333.92
383.01	325.56
383.39	331.88
383.77	330.53
384.15	347.7
384.53	341.6
384.91	347.48
385.29	345.44
385.67	353.58
386.049	346.12
386.429	355.39
386.809	370.75
387.189	352.45
387.568	359.91
387.948	344.09
388.328	352
388.707	335.5
389.087	337.76
389.466	342.96
389.846	359.68
390.225	370.98
390.605	365.56
390.984	349.06
391.363	348.83
391.743	372.33
392.122	382.73
392.501	378.44
392.881	375.5
393.26	385.89
393.639	371.2
394.018	367.36
394.397	393.35
394.776	366.23
395.155	374.82
395.534	375.72
395.913	377.53
396.292	375.72
396.671	379.34
397.05	386.57
397.429	404.2
397.808	392.9
398.186	401.26
398.565	397.64
398.944	400.58
399.323	406.68
399.701	376.63
400.08	389.74
400.458	402.62
400.837	413.92
401.215	432.67
401.594	399.23
401.972	419.11
402.351	436.29
402.729	436.97
403.107	438.1
403.486	421.6
403.864	456.17
404.242	461.6
404.62	431.32
404.999	441.71
405.377	459.34
405.755	457.53
406.133	458.43
406.511	473.58
406.889	453.24
407.267	482.39
407.645	456.17
408.023	495.27
408.401	497.76
408.779	498.21
409.156	521.94
409.534	514.93
409.912	525.55
410.29	525.55
410.667	518.55
411.045	528.26
411.422	547.02
411.8	553.12
412.178	557.64
412.555	567.36
412.933	562.61
413.31	566.91
413.687	614.36
414.065	649.62
414.442	642.84
414.819	630.41
415.197	627.24
415.574	607.58
415.951	667.02
416.328	648.26
416.705	655.49
417.082	679.45
417.46	680.35
417.837	688.48
418.214	704.53
418.591	741.36
418.967	739.56
419.344	708.37
419.721	748.37
420.098	754.7
420.475	767.58
420.852	797.86
421.228	801.93
421.605	776.39
421.982	839.44
422.358	853.23
422.735	823.62
423.111	845.54
423.488	877.63
423.864	885.09
424.241	911.3
424.617	923.73
424.994	928.48
425.37	956.27
425.746	958.76
426.123	967.35
426.499	995.14
426.875	995.82
427.251	1020.68
427.627	1053.45
428.003	1068.81
428.379	1045.76
428.756	1097.97
429.132	1108.59
429.507	1122.6
429.883	1134.8
430.259	1153.56
430.635	1147.46
431.011	1144.29
431.387	1194.46
431.763	1184.29
432.138	1209.15
432.514	1245.53
432.89	1265.19
433.265	1271.07
433.641	1275.36
434.016	1325.98
434.392	1320.78
434.767	1402.59
435.143	1365.53
435.518	1413.44
435.894	1420.67
436.269	1508.58
436.644	1523.04
437.02	1551.96
437.395	1522.36
437.77	1563.94
438.145	1588.12
438.52	1639.65
438.895	1652.98
439.271	1663.83
439.646	1750.83
440.021	1728.68
440.395	1759.42
440.77	1756.48
441.145	1769.59
441.52	1838.74
441.895	1829.7
442.27	1849.81
442.645	1886.65
443.019	1902.24
443.394	1923.48
443.769	1958.06
444.143	1956.25
444.518	1975.91
444.892	1974.55
445.267	2025.17
445.641	2058.62
446.016	2066.75
446.39	2062.91
446.764	2104.27
447.139	2099.07
447.513	2117.37
447.887	2109.92
448.262	2175.23
448.636	2185.62
449.01	2219.97
449.384	2228.56
449.758	2215
450.132	2255.45
450.506	2284.15
450.88	2305.17
451.254	2279.18
451.628	2332.28
452.002	2327.76
452.376	2373.19
452.75	2378.38
453.123	2427.87
453.497	2453.18
453.871	2468.78
454.244	2577.25
454.618	2533.18
454.992	2557.81
455.365	2576.12
455.739	2630.81
456.112	2675.1
456.486	2702.67
456.859	2748.54
457.232	2748.32
457.606	2752.16
457.979	2802.33
458.352	2852.72
458.725	2869.67
459.099	2875.77
459.472	2925.94
459.845	3002.32
460.218	3028.76
460.591	3031.93
460.964	3045.94
461.337	3121.19
461.71	3181.53
462.083	3190.57
462.456	3216.55
462.829	3196.44
463.201	3291.35
463.574	3297
463.947	3372.71
464.32	3446.6
464.692	3405.25
465.065	3473.72
465.438	3501.52
465.81	3551.01
466.183	3590.1
466.555	3621.29
466.928	3675.52
467.3	3683.43
467.672	3748.74
468.045	3841.62
468.417	3847.5
468.789	3884.11
469.161	3946.93
469.534	3896.76
469.906	4085.46
470.278	4082.75
470.65	4120.26
471.022	4231.89
471.394	4246.81
471.766	4280.71
472.138	4362.51
472.51	4431.89
472.882	4477.54
473.253	4525.9
473.625	4601.38
473.997	4704.88
474.369	4694.48
474.74	4784.2
475.112	4852.67
475.484	4955.72
475.855	5021.93
476.227	5068.71
476.598	5171.53
476.97	5186.67
477.341	5348.25
477.713	5378.53
478.084	5398.64
478.455	5553.22
478.827	5608.36
479.198	5738.75
479.569	5702.59
479.94	5911.85
480.311	5942.13
480.682	6000.21
481.053	6155.69
481.424	6284.95
481.795	6294.21
482.166	6377.37
482.537	6432.06
482.908	6587.31
483.279	6635.9
483.65	6687.42
484.021	6888.1
484.391	6875.89
484.762	6961.09
485.133	6985.49
485.503	7050.58
485.874	7211.7
486.244	7238.37
486.615	7371.92
486.985	7406.27
487.356	7618.25
487.726	7661.63
488.097	7717.68
488.467	7834.51
488.837	7936.88
489.207	8010.55
489.578	8042.64
489.948	8206.71
490.318	8307.95
490.688	8274.95
491.058	8413.71
491.428	8532.35
491.798	8525.57
492.168	8707.48
492.538	8710.87
492.908	8832.23
493.278	8862.96
493.648	8909.51
494.017	9004.88
494.387	9045.1
494.757	9125.78
495.126	9222.27
495.496	9220.92
495.866	9204.42
496.235	9316.05
496.605	9388.59
496.974	9390.63
497.344	9465.66
497.713	9504.75
498.082	9609.38
498.452	9616.61
498.821	9664.07
499.19	9667.68
499.559	9695.03
499.928	9744.74
500.298	9725.08
500.667	9894.57
501.036	9908.81
501.405	9951.52
501.774	9980.67
502.143	9947.9
502.512	9918.52
502.88	9989.71
503.249	10086.66
503.618	10054.11
503.987	10139.54
504.356	10173.66
504.724	10136.82
505.093	10196.94
505.462	10180.21
505.83	10214.11
506.199	10272.87
506.567	10378.63
506.936	10365.29
507.304	10453.65
507.672	10487.32
508.041	10473.31
508.409	10567.55
508.777	10560.54
509.145	10572.07
509.514	10535.01
509.882	10593.99
510.25	10556.47
510.618	10570.26
510.986	10635.34
511.354	10698.62
511.722	10686.87
512.09	10754.89
512.458	10735
512.826	10822.91
513.193	10783.59
513.561	10747.66
513.929	10796.24
514.297	10848.22
514.664	10840.08
515.032	10818.16
515.4	10911.49
515.767	10868.78
516.135	10936.8
516.502	10758.28
516.869	10961.66
517.237	10908.55
517.604	10889.8
517.972	11001.89
518.339	10998.95
518.706	11038.04
519.073	10882.34
519.44	11012.51
519.808	11003.69
520.175	10983.58
520.542	11102
520.909	11073.75
521.276	11033.75
521.643	11029.46
522.009	11094.99
522.376	11066.06
522.743	11126.4
523.11	11140.87
523.477	11126.63
523.843	11127.76
524.21	11213.63
524.577	11191.71
524.943	11196.01
525.31	11239.85
525.676	11200.75
526.043	11212.95
526.409	11138.38
526.776	11236.91
527.142	11195.1
527.508	11181.77
527.874	11259.05
528.241	11239.62
528.607	11221.09
528.973	11203.46
529.339	11111.71
529.705	11218.15
530.071	11169.57
530.437	11221.77
530.803	11208.66
531.169	11171.15
531.535	11095.89
531.901	11099.96
532.267	11123.01
532.632	11098.61
532.998	11030.36
533.364	11006.86
533.73	10978.38
534.095	11005.28
534.461	11047.76
534.826	10941.32
535.192	10916.69
535.557	10892.06
535.923	10883.47
536.288	10773.42
536.653	10797.6
537.019	10701.78
537.384	10692.29
537.749	10664.95
538.114	10685.96
538.479	10631.5
538.845	10627.21
539.21	10435.8
539.575	10522.58
539.94	10466.08
540.305	10484.16
540.67	10349.7
541.034	10339.76
541.399	10352.41
541.764	10200.1
542.129	10258.18
542.494	10150.61
542.858	10146.32
543.223	10110.61
543.587	10118.07
543.952	10037.39
544.316	10006.21
544.681	9981.35
545.045	9949.26
545.41	9934.57
545.774	9853.67
546.138	9832.2
546.503	9790.84
546.867	9733.44
547.231	9729.38
547.595	9671.3
547.959	9651.64
548.324	9573.22
548.688	9532.32
549.052	9524.64
549.416	9514.24
549.779	9431.76
550.143	9399.44
550.507	9364.19
550.871	9377.52
551.235	9242.16
551.599	9298.88
551.962	9212.1
552.326	9200.8
552.689	9202.84
553.053	9140.24
553.417	9032.45
553.78	9154.02
554.143	9075.61
554.507	9024.99
554.87	8997.42
555.234	9034.25
555.597	8890.53
555.96	8908.83
556.323	8919.91
556.686	8846.69
557.05	8874.03
557.413	8810.53
557.776	8841.72
558.139	8844.2
558.502	8794.49
558.865	8754.71
559.228	8799.46
559.59	8754.04
559.953	8684.21
560.316	8783.41
560.679	8748.61
561.041	8808.05
561.404	8779.35
561.767	8734.83
562.129	8674.26
562.492	8726.92
562.854	8764.43
563.217	8681.72
563.579	8650.99
563.941	8733.47
564.304	8695.96
564.666	8669.29
565.028	8698.22
565.39	8673.36
565.753	8697.77
566.115	8663.87
566.477	8687.14
566.839	8680.36
567.201	8678.33
567.563	8754.04
567.925	8718.56
568.287	8712
568.648	8725.34
569.01	8664.77
569.372	8747.48
569.734	8676.3
570.095	8710.87
570.457	8757.43
570.819	8715.17
571.18	8721.04
571.542	8717.65
571.903	8796.52
572.265	8750.87
572.626	8711.55
572.987	8762.85
573.349	8777.31
573.71	8707.71
574.071	8735.28
574.432	8778.44
574.794	8840.36
575.155	8801.72
575.516	8743.41
575.877	8792.45
576.238	8686.24
576.599	8811.89
576.96	8808.95
577.32	8709.74
577.681	8796.97
578.042	8853.69
578.403	8811.21
578.763	8754.71
579.124	8837.2
579.485	8813.47
579.845	8844.65
580.206	8784.09
580.566	8790.19
580.927	8798.33
581.287	8828.61
581.648	8795.16
582.008	8808.5
582.368	8754.94
582.728	8844.43
583.089	8839.68
583.449	8799.68
583.809	8828.84
584.169	8747.26
584.529	8736.86
584.889	8833.58
585.249	8756.52
585.609	8772.34
585.969	8816.18
586.329	8784.32
586.688	8760.36
587.048	8775.73
587.408	8733.47
587.768	8735.73
588.127	8732.34
588.487	8674.04
588.846	8794.71
589.206	8701.61
589.565	8691.89
589.925	8705.22
590.284	8702.74
590.643	8701.38
591.003	8722.62
591.362	8722.62
591.721	8759.46
592.08	8731.44
592.44	8727.6
592.799	8702.51
593.158	8675.39
593.517	8659.12
593.876	8641.5
594.235	8630.2
594.593	8634.26
594.952	8685.34
595.311	8619.8
595.67	8620.25
596.029	8720.36
596.387	8679.01
596.746	8674.04
597.104	8657.54
597.463	8668.61
597.822	8709.52
598.18	8609.86
598.538	8653.47
598.897	8678.56
599.255	8621.84
599.613	8703.42
599.972	8646.02
600.33	8641.72
600.688	8596.53
601.046	8664.32
601.404	8656.86
601.762	8653.47
602.12	8667.94
602.478	8649.41
602.836	8697.31
603.194	8629.97
603.552	8605.56
603.91	8610.31
604.268	8627.71
604.625	8629.97
604.983	8642.63
605.341	8553.59
605.698	8579.58
606.056	8600.37
606.413	8640.59
606.771	8603.98
607.128	8629.74
607.485	8605.34
607.843	8566.7
608.2	8693.7
608.557	8682.17
608.914	8694.38
609.272	8627.03
609.629	8671.1
609.986	8686.47
610.343	8622.06
610.7	8715.84
611.057	8615.51
611.414	8671.55
611.771	8655.51
612.127	8670.65
612.484	8708.61
612.841	8768.05
613.198	8685.11
613.554	8708.39
613.911	8762.17
614.267	8706.58
614.624	8762.4
614.98	8760.14
615.337	8752.45
615.693	8736.86
616.05	8787.03
616.406	8813.02
616.762	8744.09
617.118	8773.92
617.475	8811.43
617.831	8775.73
618.187	8789.97
618.543	8826.12
618.899	8875.39
619.255	8782.51
619.611	8763.07
619.967	8825.22
620.323	8867.7
620.678	8814.37
621.034	8804.43
621.39	8824.54
621.746	8806.69
622.101	8925.33
622.457	8855.73
622.812	8851.66
623.168	8753.13
623.523	8776.63
623.879	8829.06
624.234	8762.4
624.589	8852.34
624.945	8856.41
625.3	8852.56
625.655	8866.35
626.01	8770.31
626.365	8801.49
626.72	8798.78
627.075	8790.64
627.43	8801.49
627.785	8786.8
628.14	8782.06
628.495	8798.33
628.85	8799.91
629.205	8763.07
629.559	8785.45
629.914	8767.14
630.269	8748.84
630.623	8708.84
630.978	8676.98
631.332	8706.35
631.687	8720.82
632.041	8657.31
632.396	8713.36
632.75	8735.5
633.104	8602.63
633.459	8681.49
633.813	8603.53
634.167	8661.61
634.521	8609.86
634.875	8610.54
635.229	8648.5
635.583	8561.05
635.937	8609.18
636.291	8583.42
636.645	8545.91
636.999	8569.86
637.352	8570.99
637.706	8515.4
638.06	8537.09
638.413	8479.69
638.767	8482.4
639.121	8488.05
639.474	8462.52
639.828	8486.02
640.181	8485.12
640.534	8485.57
640.888	8472.23
641.241	8413.71
641.594	8496.19
641.947	8414.16
642.301	8358.57
642.654	8490.99
643.007	8454.61
643.36	8395.85
643.713	8361.5
644.066	8393.59
644.419	8368.51
644.771	8336.19
645.124	8337.78
645.477	8257.78
645.83	8197.21
646.182	8157.21
646.535	8163.99
646.888	8175.97
647.24	8112.92
647.593	8206.93
647.945	8134.39
648.298	8100.72
648.65	8068.4
649.002	8065.47
649.355	8114.05
649.707	8080.61
650.059	8090.32
650.411	8269.08
650.763	8259.59
651.115	8340.49
651.467	8349.98
651.819	8290.54
652.171	8331.45
652.523	8247.16
652.875	8315.18
653.227	8306.82
653.578	8286.25
653.93	8331.45
654.282	8279.92
654.633	8226.37
654.985	8318.57
655.337	8261.17
655.688	8294.61
656.039	8312.24
656.391	8215.74
656.742	8269.08
657.094	8317.89
657.445	8239.92
657.796	8360.6
658.147	8323.99
658.498	8278.34
658.849	8274.05
659.2	8309.53
659.551	8307.95
659.902	8305.01
660.253	8322.41
660.604	8277.66
660.955	8273.14
661.306	8305.69
661.656	8321.73
662.007	8354.95
662.358	8387.04
662.708	8378
663.059	8358.11
663.409	8225.46
663.76	8350.2
664.11	8323.76
664.461	8414.16
664.811	8323.31
665.161	8370.77
665.511	8357.21
665.862	8419.13
666.212	8369.64
666.562	8344.55
666.912	8410.77
667.262	8362.63
667.612	8436.76
667.962	8329.19
668.312	8377.32
668.662	8347.27
669.011	8373.71
669.361	8345.91
669.711	8343.88
670.06	8323.54
670.41	8307.04
670.76	8323.99
671.109	8336.87
671.459	8381.62
671.808	8346.59
672.157	8305.23
672.507	8186.37
672.856	8220.04
673.205	8295.52
673.554	8295.06
673.904	8307.04
674.253	8381.39
674.602	8333.71
674.951	8216.65
675.3	8112.92
675.649	8263.65
675.998	8196.76
676.346	8205.12
676.695	8232.92
677.044	8143.43
677.393	8169.19
677.741	8167.16
678.09	8186.59
678.438	8156.76
678.787	8136.2
679.135	8142.3
679.484	8139.59
679.832	8056.43
680.181	8048.29
680.529	8149.53
680.877	8071.57
681.225	8062.08
681.573	8060.72
681.922	8082.64
682.27	8040.83
682.618	8019.37
682.966	7994.06
683.314	7987.28
683.661	7928.97
684.009	7914.06
684.357	7853.04
684.705	7903.66
685.053	7872.7
685.4	7905.7
685.748	7828.86
686.095	7785.47
686.443	7824.34
686.79	7808.3
687.138	7809.65
687.485	7806.26
687.832	7738.69
688.18	7731.46
688.527	7717.68
688.874	7745.7
689.221	7652.14
689.568	7651.69
689.915	7659.6
690.262	7630
690.609	7607.62
690.956	7545.03
691.303	7496.89
691.65	7492.83
691.997	7523.11
692.344	7462.54
692.69	7436.1
693.037	7433.84
693.383	7324.47
693.73	7375.77
694.077	7340.97
694.423	7350.23
694.769	7324.02
695.116	7275.88
695.462	7232.49
695.808	7198.6
696.155	7219.39
696.501	7214.19
696.847	7104.36
697.193	7092.38
697.539	7148.2
697.885	7095.55
698.231	7060.97
698.577	7050.58
698.923	7056
699.269	6952.73
699.614	6937.59
699.96	6883.58
700.306	6925.83
700.651	6885.61
700.997	6825.5
701.342	6826.85
701.688	6856.23
702.033	6796.8
702.379	6791.6
702.724	6748.44
703.069	6741.88
703.415	6717.48
703.76	6701.89
704.105	6703.02
704.45	6621.21
704.795	6602.45
705.14	6627.31
705.485	6617.14
705.83	6547.99
706.175	6553.64
706.52	6516.81
706.865	6499.63
707.209	6468.67
707.554	6423.7
707.899	6497.37
708.243	6423.48
708.588	6384.38
708.932	6386.87
709.277	6391.39
709.621	6378.5
709.966	6284.27
710.31	6380.31
710.654	6276.36
710.998	6248.56
711.342	6300.54
711.687	6287.89
712.031	6206.98
712.375	6183.48
712.719	6217.6
713.063	6206.08
713.407	6211.73
713.75	6168.11
714.094	6190.71
714.438	6169.02
714.782	6186.19
715.125	6102.58
715.469	6172.63
715.812	6108
716.156	6105.29
716.499	6086.08
716.843	6073.2
717.186	6065.97
717.53	6056.93
717.873	6096.93
718.216	6019.87
718.559	6049.7
718.902	5961.34
719.246	5991.17
719.589	5989.59
719.932	5922.7
720.275	5995.69
720.617	5984.62
720.96	5995.69
721.303	5981.23
721.646	5975.58
721.989	5928.35
722.331	5963.37
722.674	5944.39
723.016	5932.19
723.359	5965.63
723.701	5981.9
724.044	5912.08
724.386	5872.53
724.729	5951.17
725.071	5908.01
725.413	5865.98
725.755	5929.02
726.097	5880.21
726.439	5820.55
726.782	5856.94
727.124	5852.64
727.465	5832.98
727.807	5853.09
728.149	5866.2
728.491	5826.2
728.833	5872.98
729.175	5852.64
729.516	5839.08
729.858	5875.02
730.199	5874.34
730.541	5830.27
730.882	5863.04
731.224	5824.62
731.565	5790.5
731.906	5803.38
732.248	5799.76
732.589	5844.96
732.93	5818.07
733.271	5821.46
733.612	5882.25
733.953	5828.91
734.294	5823.94
734.635	5787.11
734.976	5837.95
735.317	5808.58
735.658	5861.23
735.999	5854.45
736.339	5812.87
736.68	5875.24
737.021	5846.54
737.361	5840.67
737.702	5895.58
738.042	5885.86
738.383	5900.33
738.723	5891.51
739.063	5873.43
739.404	5904.62
739.744	5872.98
740.084	5920.21
740.424	5962.24
740.764	5922.7
741.104	5962.24
741.444	5944.39
741.784	6013.32
742.124	5998.4
742.464	5985.97
742.804	6028.01
743.143	6056.03
743.483	6081.56
743.823	6030.94
744.162	6097.61
744.502	6105.52
744.841	6137.61
745.181	6146.42
745.52	6167.21
745.86	6216.02
746.199	6277.49
746.538	6258.73
746.877	6350.93
747.216	6412.18
747.556	6392.52
747.895	6430.48
748.234	6517.94
748.573	6585.28
748.911	6559.74
749.25	6640.19
749.589	6672.06
749.928	6692.39
750.267	6742.79
750.605	6905.5
750.944	6903.24
751.283	6941.65
751.621	7069.33
751.96	7133.51
752.298	7200.4
752.636	7322.43
752.975	7333.06
753.313	7461.41
753.651	7581.86
753.989	7638.58
754.327	7797.68
754.666	7833.16
755.004	7966.03
755.342	8126.93
755.679	8192.02
756.017	8327.83
756.355	8526.92
756.693	8598.11
757.031	8771.89
757.368	8865.22
757.706	8999.68
758.044	9144.99
758.381	9356.96
758.719	9417.29
759.056	9684.18
759.394	9751.52
759.731	9874.46
760.068	10109.25
760.405	10174.11
760.743	10324.16
761.08	10641.67
761.417	10711.27
761.754	10949.91
762.091	11138.38
762.428	11272.39
762.765	11443.23
763.102	11612.49
763.438	11690
763.775	11895.42
764.112	12089.09
764.449	12388.29
764.785	12417.67
765.122	12554.61
765.458	12761.16
765.795	12934.94
766.131	13088.16
766.467	13274.37
766.804	13391.88
767.14	13520.46
767.476	13782.6
767.812	13952.32
768.148	14046.33
768.485	14216.72
768.821	14235.47
769.157	14342.59
769.492	14599.53
769.828	14766.08
770.164	14723.14
770.5	14955.23
770.836	15102.12
771.171	15132.62
771.507	15255.11
771.842	15381.43
772.178	15515.44
772.513	15571.26
772.849	15695.1
773.184	15778.03
773.519	15824.58
773.855	15971.92
774.19	16029.55
774.525	16097.57
774.86	16274.74
775.195	16319.71
775.53	16435.64
775.865	16371.01
776.2	16386.83
776.535	16491.23
776.87	16540.27
777.205	16634.28
777.539	16711.11
777.874	16667.73
778.209	16755.63
778.543	16665.01
778.878	16808.96
779.212	16885.57
779.547	16895.97
779.881	17001.5
780.215	16976.87
780.55	17060.94
780.884	17076.53
781.218	17061.16
781.552	17128.5
781.886	17177.09
782.22	17077.21
782.554	17050.99
782.888	17065.46
783.222	17002.63
783.556	17046.7
783.889	17039.24
784.223	17017.32
784.557	17117.66
784.89	17140.71
785.224	17067.72
785.557	17102.74
785.891	17107.04
786.224	17100.93
786.558	17018.22
786.891	16993.14
787.224	17028.39
787.557	17051.9
787.891	17034.72
788.224	17011.22
788.557	17005.12
788.89	17027.72
789.223	16970.77
789.556	16930.54
789.888	16988.4
790.221	16882.86
790.554	16820.49
790.887	16807.16
791.219	16890.09
791.552	16836.53
791.884	16744.11
792.217	16781.39
792.549	16652.58
792.882	16632.47
793.214	16653.04
793.546	16627.27
793.879	16497.33
794.211	16467.05
794.543	16631.79
794.875	16494.4
795.207	16622.98
795.539	16621.17
795.871	16491.23
796.203	16354.74
796.535	16322.2
796.867	16355.87
797.198	16257.79
797.53	16312.71
797.862	16223.22
798.193	16203.56
798.525	16093.73
798.856	16122.43
799.188	16080.85
799.519	15969.66
799.85	15982.55
800.182	15985.71
800.513	16034.97
800.844	15906.62
801.175	15906.16
801.506	15927.63
801.837	15837.92
802.168	15830.46
802.499	15786.84
802.83	15778.03
803.161	15731.7
803.491	15680.86
803.822	15727.41
804.153	15647.41
804.483	15496.46
804.814	15544.14
805.145	15555.21
805.475	15463.69
805.805	15514.54
806.136	15411.26
806.466	15367.65
806.796	15352.73
807.126	15322.45
807.457	15319.29
807.787	15279.51
808.117	15216.46
808.447	15124.26
808.777	15199.52
809.107	15101.67
809.436	15074.77
809.766	15129.01
810.096	14999.29
810.426	15030.48
810.755	14994.32
811.085	14954.32
811.414	14918.39
811.744	14831.39
812.073	14802.24
812.403	14892.86
812.732	14841.11
813.061	14771.96
813.39	14692.86
813.719	14690.15
814.049	14744.61
814.378	14679.3
814.707	14589.59
815.036	14665.52
815.365	14597.95
815.693	14504.39
816.022	14497.39
816.351	14431.85
816.68	14329.48
817.008	14407.45
817.337	14364.74
817.665	14274.12
817.994	14350.95
818.322	14310.5
818.651	14304.85
818.979	14128.81
819.307	14300.1
819.636	14270.73
819.964	14112.99
820.292	14120
820.62	14276.15
820.948	14182.37
821.276	14189.82
821.604	14184.18
821.932	14222.82
822.259	14221.24
822.587	14121.35
822.915	14122.48
823.243	14180.11
823.57	14136.49
823.898	14176.49
824.225	14118.64
824.553	14131.07
824.88	14103.95
825.207	14135.36
825.535	14142.59
825.862	14204.06
826.189	14080
826.516	14128.58
826.843	14246.77
827.17	14240.22
827.497	14183.95
827.824	14218.07
828.151	14244.06
828.478	14219.65
828.805	14172.2
829.131	14303.27
829.458	14180.79
829.785	14096.95
830.111	14293.1
830.438	14214.91
830.764	14277.51
831.09	14253.55
831.417	14110.5
831.743	14191.41
832.069	14249.48
832.395	14116.83
832.722	14197.96
833.048	14158.19
833.374	14160.45
833.7	14032.77
834.026	14198.86
834.351	14166.77
834.677	14122.03
835.003	14191.18
835.329	14124.29
835.654	14076.61
835.98	13988.7
836.306	14042.71
836.631	13983.05
836.956	14011.3
837.282	14066.89
837.607	14006.78
837.932	13915.03
838.258	14002.71
838.583	13840.23
838.908	13847.69
839.233	13896.27
839.558	13949.15
839.883	13809.72
840.208	13777.41
840.533	13708.03
840.858	13799.78
841.182	13732.66
841.507	13676.17
841.832	13691.76
842.156	13670.74
842.481	13706.9
842.805	13620.35
843.13	13581.25
843.454	13477.53
843.778	13481.82
844.103	13521.59
844.427	13493.8
844.751	13414.7
845.075	13337.19
845.399	13360.69
845.723	13240.25
846.047	13306.01
846.371	13170.64
846.695	13213.35
847.019	13133.36
847.343	13005
847.666	12900.82
847.99	12906.47
848.313	12885.23
848.637	12789.64
848.96	12805.68
849.284	12813.36
849.607	12660.15
849.931	12647.04
850.254	12606.82
850.577	12511.22
850.9	12434.84
851.223	12407.95
851.546	12416.99
851.869	12335.41
852.192	12297.67
852.515	12293.83
852.838	12200.05
853.161	12219.03
853.483	12090.44
853.806	12085.93
854.129	12029.66
854.451	11958.02
854.774	11964.35
855.096	11940.62
855.419	11885.03
855.741	11869.21
856.063	11811.81
856.385	11818.59
856.708	11679.61
857.03	11611.14
857.352	11664.92
857.674	11666.95
857.996	11519.16
858.318	11486.84
858.64	11553.06
858.961	11497.24
859.283	11463.34
859.605	11363.68
859.926	11468.09
860.248	11321.43
860.57	11304.7
860.891	11312.16
861.212	11286.17
861.534	11245.04
861.855	11245.04
862.176	11229.22
862.498	11239.39
862.819	11154.42
863.14	11206.17
863.461	11110.81
863.782	11088.44
864.103	11080.98
864.424	11090.92
864.745	11107.65
865.065	11035.56
865.386	10968.44
865.707	10961.66
866.027	11008.44
866.348	10920.53
866.668	11004.6
866.989	10895.45
867.309	10802.12
867.63	10894.54
867.95	10835.56
868.27	10816.58
868.59	10791.72
868.91	10791.95
869.23	10757.82
869.55	10759.41
869.87	10782.91
870.19	10680.54
870.51	10777.03
870.83	10811.61
871.15	10690.48
871.469	10724.38
871.789	10688.45
872.109	10662.69
872.428	10640.31
872.748	10652.52
873.067	10625.85
873.386	10650.71
873.706	10616.36
874.025	10623.59
874.344	10512.41
874.663	10469.24
874.982	10489.13
875.301	10485.29
875.62	10483.26
875.939	10450.26
876.258	10456.82
876.577	10354.9
876.896	10423.82
877.214	10305.86
877.533	10369.13
877.852	10293.43
878.17	10398.51
878.489	10299.76
878.807	10300.66
879.125	10262.7
879.444	10241.23
879.762	10218.4
880.08	10222.47
880.398	10168.91
880.716	10214.56
881.034	10168.46
881.352	10117.39
881.67	10111.29
881.988	10133.43
882.306	10058.63
882.624	10114.23
882.941	10055.02
883.259	9957.85
883.577	9988.58
883.894	9908.36
884.212	9908.13
884.529	9939.99
884.846	9853.67
885.164	9917.62
885.481	9785.42
885.798	9858.87
886.115	9780
886.432	9788.58
886.75	9742.26
887.067	9715.59
887.383	9770.73
887.7	9661.13
888.017	9703.16
888.334	9613.45
888.651	9682.37
888.967	9582.04
889.284	9548.36
889.6	9516.05
889.917	9484.86
890.233	9472.89
890.55	9407.35
890.866	9439.22
891.182	9350.86
891.498	9395.37
891.815	9345.43
892.131	9296.62
892.447	9334.59
892.763	9249.84
893.079	9185.21
893.395	9109.51
893.71	9202.61
894.026	9165.32
894.342	9107.92
894.657	9083.52
894.973	9065.89
895.289	9019.11
895.604	9034.03
895.92	8945.89
896.235	8922.84
896.55	8900.25
896.865	8868.16
897.181	8855.05
897.496	8850.76
897.811	8875.84
898.126	8813.92
898.441	8721.04
898.756	8773.92
899.071	8621.84
899.386	8648.73
899.7	8602.63
900.015	8565.11
900.33	8454.61
900.644	8508.17
900.959	8455.51
901.273	8423.65
901.588	8409.19
901.902	8348.4
902.216	8261.84
902.531	8361.73
902.845	8269.98
903.159	8224.11
903.473	8251.68
903.787	8187.04
904.101	8099.82
904.415	8153.83
904.729	8136.88
905.042	7981.4
905.356	8086.71
905.67	7983.89
905.984	7959.71
906.297	7986.82
906.611	7863.44
906.924	7941.85
907.237	7876.32
907.551	7845.81
907.864	7774.17
908.177	7772.37
908.491	7741.41
908.804	7729.2
909.117	7651.92
909.43	7631.58
909.743	7567.17
910.056	7569.43
910.368	7532.37
910.681	7541.41
910.994	7477.91
911.307	7440.17
911.619	7402.43
911.932	7439.49
912.244	7362.89
912.557	7298.71
912.869	7278.59
913.181	7215.77
913.494	7259.39
913.806	7160.86
914.118	7148.65
914.43	7137.58
914.742	7135.32
915.054	7099.62
915.366	7092.84
915.678	7057.81
915.99	7006.28
916.302	6969.45
916.613	6890.13
916.925	6981.43
917.236	6925.83
917.548	6834.76
917.859	6860.75
918.171	6818.04
918.482	6775.78
918.794	6762
919.105	6729.46
919.416	6731.04
919.727	6650.36
920.038	6660.08
920.349	6591.61
920.66	6609.01
920.971	6552.06
921.282	6569.23
921.593	6545.28
921.903	6520.87
922.214	6436.58
922.525	6407.43
922.835	6430.93
923.146	6330.82
923.456	6357.49
923.767	6316.36
924.077	6324.72
924.387	6307.55
924.697	6186.19
925.008	6202.69
925.318	6157.95
925.628	6197.27
925.938	6142.35
926.248	6155.01
926.558	6124.27
926.867	6064.84
927.177	6073.43
927.487	6025.97
927.796	5995.46
928.106	5963.6
928.416	5955.24
928.725	5929.02
929.034	5887.22
929.344	5882.92
929.653	5858.07
929.962	5826.88
930.271	5808.58
930.581	5767.9
930.89	5743.49
931.199	5726.32
931.508	5750.05
931.817	5749.14
932.125	5690.39
932.434	5700.1
932.743	5645.42
933.051	5614.68
933.36	5604.74
933.669	5539.66
933.977	5553.22
934.286	5532.43
934.594	5512.54
934.902	5425.99
935.21	5458.75
935.519	5478.87
935.827	5429.15
936.135	5390.28
936.443	5324.75
936.751	5265.77
937.059	5306.89
937.367	5294.24
937.674	5250.85
937.982	5233
938.29	5291.53
938.597	5222.38
938.905	5171.76
939.213	5155.94
939.52	5115.26
939.827	5159.1
940.135	5104.64
940.442	5040.01
940.749	5033.23
941.056	5028.71
941.363	5016.05
941.67	4973.8
941.977	4945.55
942.284	4866.23
942.591	4925.66
942.898	4928.6
943.205	4872.78
943.511	4868.94
943.818	4887.47
944.125	4795.72
944.431	4814.03
944.738	4810.18
945.044	4763.86
945.35	4760.69
945.657	4679.11
945.963	4645.44
946.269	4633.69
946.575	4686.12
946.881	4606.35
947.187	4604.54
947.493	4570.64
947.799	4566.8
948.105	4569.96
948.41	4521.38
948.716	4561.83
949.022	4445.9
949.327	4499.23
949.633	4452.23
949.938	4457.2
950.244	4421.49
950.549	4442.06
950.854	4404.77
951.16	4352.34
951.465	4352.57
951.77	4321.61
952.075	4268.05
952.38	4260.37
952.685	4273.48
952.99	4240.03
953.294	4241.16
953.599	4221.73
953.904	4188.73
954.209	4173.82
954.513	4157.55
954.818	4127.26
955.122	4115.74
955.426	4084.1
955.731	4098.79
956.035	4096.3
956.339	4081.16
956.643	4031.67
956.948	4010.43
957.252	3991.67
957.556	3964.78
957.86	4009.98
958.163	3916.87
958.467	3886.59
958.771	3939.7
959.075	3896.99
959.378	3908.51
959.682	3883.88
959.985	3837.55
960.289	3845.24
960.592	3805.46
960.896	3773.15
961.199	3790.78
961.502	3823.77
961.805	3762.08
962.108	3720.5
962.411	3776.77
962.714	3713.49
963.017	3714.17
963.32	3708.74
963.623	3632.14
963.926	3648.41
964.228	3597.79
964.531	3656.99
964.833	3605.7
965.136	3572.93
965.438	3565.92
965.741	3567.96
966.043	3588.07
966.345	3516.21
966.648	3501.74
966.95	3515.53
967.252	3481.41
967.554	3465.13
967.856	3444.8
968.158	3418.13
968.46	3410.9
968.761	3420.39
969.063	3399.37
969.365	3410
969.666	3376.78
969.968	3339.49
970.269	3306.72
970.571	3320.51
970.872	3289.32
971.174	3285.48
971.475	3289.77
971.776	3294.07
972.077	3218.36
972.378	3223.79
972.679	3222.43
972.98	3193.28
973.281	3192.6
973.582	3157.35
973.883	3185.59
974.183	3133.62
974.484	3114.41
974.785	3092.49
975.085	3137.23
975.386	3100.62
975.686	3065.6
975.986	3046.39
976.287	3085.03
976.587	3031.7
976.887	3031.7
977.187	3002.32
977.487	3003.45
977.787	2980.85
978.087	2949.22
978.387	2946.28
978.687	2957.58
978.987	2955.54
979.286	2954.87
979.586	2902.89
979.885	2909.9
980.185	2864.7
980.484	2851.59
980.784	2858.15
981.083	2819.05
981.382	2815.43
981.682	2810.91
981.981	2826.06
982.28	2797.58
982.579	2791.03
982.878	2774.98
983.177	2772.5
983.475	2737.47
983.774	2731.37
984.073	2713.97
984.372	2687.3
984.67	2694.53
984.969	2694.99
985.267	2674.65
985.566	2623.35
985.864	2650.02
986.162	2615.21
986.461	2610.24
986.759	2611.82
987.057	2574.31
987.355	2557.59
987.653	2579.51
987.951	2564.59
988.249	2534.09
988.547	2532.73
988.844	2504.71
989.142	2540.19
989.44	2506.74
989.737	2508.78
990.035	2465.39
990.332	2465.84
990.63	2467.65
990.927	2459.74
991.224	2427.87
991.521	2428.55
991.819	2419.06
992.116	2389.46
992.413	2374.54
992.71	2379.06
993.006	2359.85
993.303	2348.78
993.6	2370.93
993.897	2342.9
994.193	2306.75
994.49	2304.49
994.787	2292.51
995.083	2279.18
995.379	2239.4
995.676	2241.66
995.972	2246.64
996.268	2231.95
996.565	2225.85
996.861	2193.3
997.157	2235.11
997.453	2190.59
997.749	2183.13
998.044	2168.45
998.34	2171.38
998.636	2169.58
998.932	2129.58
999.227	2126.86
999.523	2111.5
999.818	2132.06
1000.114	2082.8
1000.409	2085.28
1000.704	2060.65
1001	2100.88
1001.295	2061.78
1001.59	2073.76
1001.885	2057.49
1002.18	2008.9
1002.475	2017.26
1002.77	1985.85
1003.065	1985.17
1003.359	1999.64
1003.654	2018.62
1003.949	1940.43
1004.243	1920.32
1004.538	1948.34
1004.832	1923.93
1005.127	1916.93
1005.421	1911.5
1005.715	1886.42
1006.009	1885.06
1006.304	1879.19
1006.598	1841.67
1006.892	1864.5
1007.186	1830.6
1007.48	1832.86
1007.773	1775.46
1008.067	1814.78
1008.361	1796.25
1008.655	1810.26
1008.948	1769.59
1009.242	1760.32
1009.535	1733.2
1009.829	1740.21
1010.122	1758.51
1010.415	1767.33
1010.708	1715.12
1011.001	1712.86
1011.295	1695.24
1011.588	1702.02
1011.881	1650.95
1012.173	1661.11
1012.466	1653.21
1012.759	1669.93
1013.052	1638.06
1013.344	1641.91
1013.637	1611.17
1013.93	1626.99
1014.222	1612.75
1014.514	1605.52
1014.807	1551.74
1015.099	1563.94
1015.391	1594.22
1015.683	1534.79
1015.976	1564.62
1016.268	1551.29
1016.56	1553.55
1016.851	1520.33
1017.143	1498.18
1017.435	1510.16
1017.727	1493.66
1018.018	1489.82
1018.31	1448.24
1018.602	1462.02
1018.893	1473.1
1019.185	1439.65
1019.476	1450.05
1019.767	1439.2
1020.058	1396.26
1020.35	1410.95
1020.641	1387.9
1020.932	1391.52
1021.223	1376.15
1021.514	1375.02
1021.804	1348.81
1022.095	1358.98
1022.386	1356.26
1022.677	1358.3
1022.967	1349.48
1023.258	1352.87
1023.548	1318.75
1023.839	1305.87
1024.129	1326.21
1024.419	1277.62
1024.709	1273.33
1025	1268.81
1025.29	1259.32
1025.58	1247.11
1025.87	1235.59
1026.16	1232.65
1026.449	1232.2
1026.739	1243.27
1027.029	1198.53
1027.319	1196.72
1027.608	1190.62
1027.898	1197.17
1028.187	1201.24
1028.477	1180.22
1028.766	1183.16
1029.055	1177.96
1029.344	1169.38
1029.634	1142.03
1029.923	1143.84
1030.212	1134.8
1030.501	1117.4
1030.79	1121.02
1031.078	1089.83
1031.367	1092.54
1031.656	1076.95
1031.945	1084.86
1032.233	1090.06
1032.522	1070.4
1032.81	1063.62
1033.099	1051.41
1033.387	1056.61
1033.675	1071.53
1033.963	1032.66
1034.251	1047.8
1034.54	1019.78
1034.828	1007.57
1035.116	1017.97
1035.403	1028.59
1035.691	1008.48
1035.979	993.56
1036.267	986.56
1036.554	986.56
1036.842	979.78
1037.129	964.41
1037.417	973.45
1037.704	965.54
1037.992	938.65
1038.279	931.19
1038.566	950.85
1038.853	950.85
1039.14	950.85
