Data from hue_90_FLMS001491_31.txt Node
Date: Mon Feb 06 15:25:02 GMT 2017
User: dcchb
Spectrometer: FLMS00149
Trigger mode: 0
Integration Time (sec): 2.000000E-2
Scans to average: 10
Electric dark correction enabled: true
Nonlinearity correction enabled: false
Boxcar width: 0
XAxis mode: Wavelengths
Number of Pixels in Spectrum: 2048
>>>>>Begin Spectral Data<<<<<
341.393	-5.11
341.776	-5.11
342.16	-5.11
342.543	-35.62
342.927	-58.9
343.31	-68.39
343.693	-73.81
344.077	-73.36
344.46	-62.29
344.843	-53.93
345.226	-32.46
345.61	-41.95
345.993	-27.71
346.376	-6.92
346.759	14.1
347.142	44.38
347.525	32.17
347.908	52.74
348.291	86.41
348.674	84.15
349.057	126.86
349.44	118.73
349.823	133.87
350.206	179.52
350.588	176.35
350.971	198.05
351.354	219.51
351.737	256.12
352.119	249.12
352.502	270.59
352.884	273.52
353.267	284.6
353.65	277.59
354.032	280.98
354.414	307.65
354.797	293.41
355.179	322.11
355.562	344.93
355.944	317.82
356.326	339.06
356.709	340.19
357.091	359.17
357.473	344.71
357.855	357.59
358.238	344.71
358.62	345.39
359.002	347.65
359.384	329.79
359.766	342.22
360.148	352.17
360.53	336.12
360.912	356.46
361.294	339.06
361.676	341.77
362.057	358.04
362.439	334.09
362.821	326.18
363.203	323.92
363.584	342.9
363.966	325.5
364.348	335.22
364.729	338.15
365.111	312.39
365.493	313.3
365.874	312.84
366.256	322.79
366.637	339.28
367.019	313.3
367.4	308.55
367.781	329.34
368.163	322.11
368.544	323.92
368.925	323.47
369.306	306.07
369.688	317.14
370.069	334.99
370.45	324.14
370.831	324.82
371.212	320.98
371.593	310.13
371.974	302.45
372.355	328.21
372.736	332.05
373.117	325.95
373.498	337.48
373.879	328.21
374.26	328.44
374.641	327.53
375.021	310.59
375.402	339.74
375.783	326.86
376.163	333.41
376.544	339.51
376.925	333.41
377.305	338.83
377.686	339.51
378.066	326.63
378.447	335.44
378.827	348.32
379.208	329.79
379.588	363.69
379.968	337.03
380.349	327.76
380.729	355.56
381.109	346.29
381.489	353.3
381.87	346.74
382.25	318.27
382.63	357.59
383.01	351.49
383.39	356.91
383.77	364.59
384.15	359.85
384.53	381.54
384.91	360.75
385.29	369.79
385.67	370.02
386.049	357.82
386.429	355.56
386.809	381.09
387.189	366.63
387.568	380.87
387.948	367.53
388.328	398.04
388.707	361.66
389.087	391.71
389.466	381.54
389.846	374.31
390.225	389.23
390.605	380.87
390.984	382.45
391.363	396.46
391.743	385.16
392.122	407.31
392.501	390.58
392.881	409.57
393.26	396.46
393.639	388.55
394.018	413.63
394.397	423.58
394.776	416.34
395.155	412.28
395.534	399.17
395.913	418.38
396.292	417.93
396.671	407.76
397.05	420.86
397.429	410.02
397.808	430.36
398.186	396.68
398.565	409.11
398.944	424.03
399.323	434.2
399.701	403.92
400.08	405.95
400.458	422.45
400.837	444.14
401.215	431.94
401.594	429.68
401.972	418.15
402.351	416.57
402.729	434.2
403.107	462.9
403.486	446.4
403.864	443.24
404.242	468.32
404.62	443.46
404.999	451.37
405.377	463.8
405.755	454.31
406.133	471.26
406.511	493.18
406.889	454.99
407.267	454.99
407.645	477.13
408.023	477.81
408.401	475.78
408.779	483.01
409.156	499.28
409.534	513.52
409.912	482.56
410.29	509.9
410.667	519.62
411.045	528.66
411.422	498.83
411.8	508.77
412.178	501.99
412.555	525.04
412.933	556
413.31	528.21
413.687	522.33
414.065	512.84
414.442	551.26
414.819	542.67
415.197	557.81
415.574	570.24
415.951	528.88
416.328	558.26
416.705	584.7
417.082	562.56
417.46	577.7
417.837	582.22
418.214	560.75
418.591	584.48
418.967	577.24
419.344	585.61
419.721	577.7
420.098	592.84
420.475	620.41
420.852	577.47
421.228	597.58
421.605	616.79
421.982	612.72
422.358	618.83
422.735	619.5
423.111	612.27
423.488	657.24
423.864	652.5
424.241	648.2
424.617	640.75
424.994	648.43
425.37	638.71
425.746	653.4
426.123	678.48
426.499	667.86
426.875	671.03
427.251	692.72
427.627	700.86
428.003	712.61
428.379	696.11
428.756	711.7
429.132	724.59
429.507	715.09
429.883	723.46
430.259	749.22
430.635	747.41
431.011	750.12
431.387	763.23
431.763	755.55
432.138	771.36
432.514	797.35
432.89	789.22
433.265	787.63
433.641	800.74
434.016	800.29
434.392	823.57
434.767	793.74
435.143	823.79
435.518	833.51
435.894	857.69
436.269	818.37
436.644	865.6
437.02	848.2
437.395	855.2
437.77	880.74
438.145	903.79
438.52	915.77
438.895	928.42
439.271	913.73
439.646	924.13
440.021	937.69
440.395	941.3
440.77	945.6
441.145	959.61
441.52	977.91
441.895	950.57
442.27	956.9
442.645	985.37
443.019	991.25
443.394	962.09
443.769	978.36
444.143	998.93
444.518	1014.07
444.892	1025.37
445.267	1046.61
445.641	1004.35
446.016	1028.31
446.39	1037.57
446.764	1047.97
447.139	1026.95
447.513	1057.01
447.887	1080.28
448.262	1074.41
448.636	1070.11
449.01	1098.36
449.384	1095.65
449.758	1124.35
450.132	1104.91
450.506	1140.17
450.88	1113.73
451.254	1129.77
451.628	1148.98
452.002	1161.64
452.376	1160.51
452.75	1159.15
453.123	1169.09
453.497	1194.18
453.871	1224.46
454.244	1240.28
454.618	1237.34
454.992	1256.55
455.365	1265.81
455.739	1295.19
456.112	1292.25
456.486	1312.37
456.859	1325.93
457.232	1343.55
457.606	1355.3
457.979	1332.25
458.352	1392.59
458.725	1407.51
459.099	1411.12
459.472	1434.4
459.845	1463.1
460.218	1478.24
460.591	1443.44
460.964	1488.41
461.337	1521.4
461.71	1584.68
462.083	1572.47
462.456	1600.95
462.829	1617.22
463.201	1614.28
463.574	1613.15
463.947	1642.75
464.32	1666.71
464.692	1715.97
465.065	1726.37
465.438	1752.81
465.81	1812.24
466.183	1776.08
466.555	1822.41
466.928	1865.35
467.3	1901.05
467.672	1894.72
468.045	1988.51
468.417	1958.9
468.789	1991.22
469.161	2030.09
469.534	2061.95
469.906	2094.49
470.278	2132.23
470.65	2137.66
471.022	2233.47
471.394	2291.1
471.766	2320.7
472.138	2320.48
472.51	2435.95
472.882	2437.99
473.253	2494.26
473.625	2480.47
473.997	2604.54
474.369	2635.27
474.74	2681.82
475.112	2761.59
475.484	2820.35
475.855	2913.68
476.227	2957.3
476.598	3063.73
476.97	3124.07
477.341	3186.22
477.713	3284.29
478.084	3330.17
478.455	3448.36
478.827	3471.18
479.198	3600.44
479.569	3670.95
479.94	3806.76
480.311	3867.1
480.682	3994.56
481.053	4109.81
481.424	4212.86
481.795	4331.72
482.166	4439.29
482.537	4551.6
482.908	4704.59
483.279	4806.29
483.65	4935.55
484.021	5113.85
484.391	5215.99
484.762	5308.87
485.133	5443.11
485.503	5596.77
485.874	5731.69
486.244	5912.02
486.615	6100.49
486.985	6172.13
487.356	6345.91
487.726	6495.73
488.097	6650.76
488.467	6816.85
488.837	7078.54
489.207	7207.13
489.578	7380.91
489.948	7495.71
490.318	7707.68
490.688	7814.12
491.058	8005.07
491.428	8187.67
491.798	8348.79
492.168	8597.37
492.538	8686.41
492.908	8884.6
493.278	9000.98
493.648	9178.6
494.017	9387.41
494.387	9537.01
494.757	9714.18
495.126	9904.46
495.496	9936.77
495.866	10102.87
496.235	10376.54
496.605	10436.65
496.974	10679.58
497.344	10764.77
497.713	10959.12
498.082	11056.29
498.452	11245.44
498.821	11289.28
499.19	11444.53
499.559	11566.11
499.928	11779.89
500.298	11842.49
500.667	12094.68
501.036	12114.12
501.405	12249.93
501.774	12342.13
502.143	12475.69
502.512	12608.34
502.88	12715.91
503.249	12833.87
503.618	12903.7
503.987	13002.45
504.356	13112.51
504.724	13273.18
505.093	13209
505.462	13378.04
505.83	13498.71
506.199	13594.3
506.567	13864.13
506.936	13829.78
507.304	14072.71
507.672	14095.99
508.041	14093.73
508.409	14208.07
508.777	14344.57
509.145	14441.74
509.514	14489.65
509.882	14594.05
510.25	14670.21
510.618	14662.98
510.986	14789.98
511.354	14957.43
511.722	14995.4
512.09	15190.42
512.458	15031.55
512.826	15277.42
513.193	15350.87
513.561	15320.81
513.929	15474.25
514.297	15531.43
514.664	15615.04
515.032	15643.52
515.4	15670.63
515.767	15779.33
516.135	15827.69
516.502	15732.1
516.869	16086.67
517.237	15962.83
517.604	15907.69
517.972	16084.86
518.339	16094.58
518.706	16058.42
519.073	16135.71
519.44	16131.19
519.808	16327.79
520.175	16344.29
520.542	16471.29
520.909	16539.08
521.276	16564.39
521.643	16602.36
522.009	16632.87
522.376	16692.53
522.743	16659.31
523.11	16855.23
523.477	16958.06
523.843	16946.08
524.21	17092.97
524.577	17058.85
524.943	17160.09
525.31	17130.71
525.676	17262.91
526.043	17192.63
526.409	17229.91
526.776	17440.08
527.142	17317.14
527.508	17380.64
527.874	17491.83
528.241	17578.38
528.607	17415.22
528.973	17593.75
529.339	17569.57
529.705	17572.73
530.071	17587.42
530.437	17649.34
530.803	17644.14
531.169	17756.23
531.535	17605.95
531.901	17621.77
532.267	17733.63
532.632	17661.77
532.998	17647.08
533.364	17695.44
533.73	17587.42
534.095	17716.46
534.461	17685.5
534.826	17676.23
535.192	17626.29
535.557	17730.69
535.923	17572.5
536.288	17644.59
536.653	17612.73
537.019	17561.2
537.384	17530.92
537.749	17639.39
538.114	17560.98
538.479	17505.61
538.845	17537.02
539.21	17391.72
539.575	17398.72
539.94	17417.03
540.305	17405.5
540.67	17294.09
541.034	17369.35
541.399	17295.9
541.764	17337.03
542.129	17304.49
542.494	17127.09
542.858	17216.81
543.223	17111.05
543.587	17177.71
543.952	17088
544.316	17120.54
544.681	17030.37
545.045	17003.25
545.41	17029.69
545.774	16910.6
546.138	16841.68
546.503	16926.42
546.867	16887.32
547.231	16925.29
547.595	16717.84
547.959	16770.72
548.324	16785.63
548.688	16711.96
549.052	16754.9
549.416	16669.02
549.779	16640.33
550.143	16646.43
550.507	16648.69
550.871	16587.9
551.235	16552.19
551.599	16574.79
551.962	16501.12
552.326	16571.17
552.689	16546.32
553.053	16451.63
553.417	16459.54
553.78	16533.21
554.143	16427.22
554.507	16415.02
554.87	16319.2
555.234	16382.7
555.597	16326.89
555.96	16244.4
556.323	16337.96
556.686	16273.33
557.05	16388.58
557.413	16272.88
557.776	16297.96
558.139	16377.73
558.502	16370.5
558.865	16314.01
559.228	16462.48
559.59	16343.16
559.953	16303.61
560.316	16422.48
560.679	16320.33
561.041	16389.71
561.404	16452.31
561.767	16443.72
562.129	16410.27
562.492	16562.81
562.854	16374.34
563.217	16348.13
563.579	16421.57
563.941	16439.43
564.304	16520.55
564.666	16564.17
565.028	16519.65
565.39	16585.19
565.753	16579.99
566.115	16681.45
566.477	16623.15
566.839	16664.96
567.201	16646.88
567.563	16698.85
567.925	16808
568.287	16796.93
568.648	16734.56
569.01	16745.86
569.372	16883.93
569.734	16723.03
570.095	16887.78
570.457	16866.53
570.819	16846.65
571.18	16816.37
571.542	16918.96
571.903	16930.04
572.265	16950.15
572.626	16940.2
572.987	17059.52
573.349	17025.4
573.71	17007.32
574.071	17091.84
574.432	17064.72
574.794	17242.8
575.155	17122.35
575.516	17035.57
575.877	17205.96
576.238	17138.39
576.599	17240.99
576.96	17166.19
577.32	17066.75
577.681	17193.3
578.042	17302.91
578.403	17177.03
578.763	17186.98
579.124	17218.39
579.485	17267.2
579.845	17296.81
580.206	17292.96
580.566	17236.47
580.927	17278.73
581.287	17253.87
581.648	17172.97
582.008	17279.63
582.368	17229.69
582.728	17282.57
583.089	17122.35
583.449	17203.7
583.809	17226.3
584.169	17229.91
584.529	17200.08
584.889	17327.76
585.249	17174.77
585.609	17146.75
585.969	17275.56
586.329	17170.48
586.688	17192.18
587.048	17179.07
587.408	17172.97
587.768	17099.07
588.127	17115.79
588.487	16943.14
588.846	17115.34
589.206	17009.36
589.565	17088
589.925	17206.64
590.284	17046.87
590.643	17064.95
591.003	17126.19
591.362	17203.7
591.721	17062.69
592.08	17008.68
592.44	17081.44
592.799	17109.24
593.158	17095.91
593.517	16977.94
593.876	16979.07
594.235	17059.07
594.593	16945.63
594.952	17084.83
595.311	16959.64
595.67	16939.07
596.029	17008.68
596.387	17020.2
596.746	17047.09
597.104	16924.39
597.463	16949.7
597.822	17033.54
598.18	16946.31
598.538	16947.21
598.897	17004.61
599.255	16900.21
599.613	17087.32
599.972	16968
600.33	17021.56
600.688	16954.89
601.046	17064.72
601.404	17089.58
601.762	16991.05
602.12	17042.8
602.478	16993.08
602.836	17055.68
603.194	16959.41
603.552	16993.54
603.91	16905.85
604.268	17014.55
604.625	16986.08
604.983	17086.19
605.341	16916.93
605.698	16972.97
606.056	17034.21
606.413	16968.23
606.771	17063.36
607.128	17023.59
607.485	16950.83
607.843	16965.74
608.2	16999.86
608.557	17142.46
608.914	16997.83
609.272	17047.32
609.629	17131.16
609.986	17280.53
610.343	17094.78
610.7	17243.7
611.057	17177.03
611.414	17149.69
611.771	17143.59
612.127	17237.82
612.484	17247.99
612.841	17303.81
613.198	17285.28
613.554	17234.66
613.911	17331.83
614.267	17327.09
614.624	17349.46
614.98	17300.87
615.337	17389.01
615.693	17350.36
616.05	17378.61
616.406	17400.08
616.762	17325.5
617.118	17324.15
617.475	17398.72
617.831	17374.09
618.187	17421.32
618.543	17500.42
618.899	17523.92
619.255	17485.27
619.611	17487.08
619.967	17451.83
620.323	17586.97
620.678	17505.16
621.034	17411.38
621.39	17558.95
621.746	17441.66
622.101	17585.61
622.457	17507.65
622.812	17641.2
623.168	17589
623.523	17492.28
623.879	17546.52
624.234	17492.96
624.589	17506.74
624.945	17544.03
625.3	17609.79
625.655	17560.75
626.01	17573.63
626.365	17550.13
626.72	17523.24
627.075	17463.13
627.43	17589.68
627.785	17507.87
628.14	17513.52
628.495	17532.05
628.85	17509.68
629.205	17429.01
629.559	17575.22
629.914	17480.76
630.269	17519.17
630.623	17448.21
630.978	17394.43
631.332	17467.42
631.687	17464.03
632.041	17337.03
632.396	17481.88
632.75	17309.91
633.104	17442.79
633.459	17242.57
633.813	17277.37
634.167	17283.02
634.521	17188.56
634.875	17272.85
635.229	17270.14
635.583	17163.25
635.937	17120.99
636.291	17138.62
636.645	17121.22
636.999	17123.02
637.352	17200.99
637.706	17047.55
638.06	17088.9
638.413	17021.78
638.767	17056.59
639.121	17082.57
639.474	16955.35
639.828	16931.84
640.181	16969.81
640.534	16969.36
640.888	16913.31
641.241	16872.86
641.594	16886.19
641.947	16937.04
642.301	16838.51
642.654	16913.76
643.007	16755.8
643.36	16793.54
643.713	16766.88
644.066	16799.42
644.419	16694.11
644.771	16610.27
645.124	16541.34
645.477	16500.22
645.83	16456.15
646.182	16301.58
646.535	16271.52
646.888	16288.7
647.24	16228.13
647.593	16207.79
647.945	16197.62
648.298	16161.24
648.65	16172.09
649.002	16141.13
649.355	16260.22
649.707	16222.94
650.059	16227.68
650.411	16436.94
650.763	16404.85
651.115	16573.66
651.467	16674.22
651.819	16558.29
652.171	16547.67
652.523	16532.53
652.875	16529.14
653.227	16547.22
653.578	16552.64
653.93	16521.68
654.282	16460.89
654.633	16479.2
654.985	16485.53
655.337	16416.15
655.688	16502.25
656.039	16535.92
656.391	16377.73
656.742	16412.99
657.094	16491.18
657.445	16559.2
657.796	16439.43
658.147	16453.66
658.498	16435.36
658.849	16521.68
659.2	16479.88
659.551	16456.15
659.902	16501.35
660.253	16420.9
660.604	16473.78
660.955	16427.9
661.306	16485.98
661.656	16482.82
662.007	16464.06
662.358	16485.98
662.708	16506.54
663.059	16529.14
663.409	16396.72
663.76	16460.22
664.11	16610.95
664.461	16462.93
664.811	16508.35
665.161	16493.21
665.511	16421.35
665.862	16531.4
666.212	16575.69
666.562	16552.19
666.912	16575.69
667.262	16552.19
667.612	16471.29
667.962	16506.32
668.312	16562.59
668.662	16588.58
669.011	16489.37
669.361	16553.55
669.711	16559.88
670.06	16441.46
670.41	16392.42
670.76	16465.41
671.109	16584.96
671.459	16482.36
671.808	16409.37
672.157	16571.4
672.507	16406.43
672.856	16381.57
673.205	16392.65
673.554	16384.06
673.904	16379.77
674.253	16512.19
674.602	16365.08
674.951	16070.85
675.3	16107.91
675.649	16272.2
675.998	16260.67
676.346	16310.62
676.695	16388.81
677.044	16290.96
677.393	16200.34
677.741	16385.87
678.09	16227
678.438	16180.68
678.787	16205.76
679.135	16256.15
679.484	16088.02
679.832	16124.18
680.181	16042.83
680.529	16056.16
680.877	15981.59
681.225	16003.73
681.573	16158.08
681.922	16025.43
682.27	16000.34
682.618	15899.78
682.966	15866.33
683.314	15861.36
683.661	15734.13
684.009	15715.83
684.357	15798.31
684.705	15807.8
685.053	15697.53
685.4	15708.6
685.748	15554.93
686.095	15565.33
686.443	15505.21
686.79	15421.6
687.138	15467.47
687.485	15528.26
687.832	15401.49
688.18	15469.96
688.527	15347.93
688.874	15348.38
689.221	15173.02
689.568	15240.59
689.915	15190.65
690.262	15128.27
690.609	15122.17
690.956	15032.01
691.303	15082.63
691.65	15059.8
691.997	14962.86
692.344	14850.99
692.69	14826.81
693.037	14716.99
693.383	14678.12
693.73	14779.36
694.077	14614.16
694.423	14597.44
694.769	14514.05
695.116	14556.31
695.462	14520.38
695.808	14421.85
696.155	14485.35
696.501	14388.41
696.847	14328.97
697.193	14186.38
697.539	14134.18
697.885	14106.61
698.231	14016.67
698.577	14048.3
698.923	14063.22
699.269	13988.64
699.614	13907.29
699.96	13880.85
700.306	13823.9
700.651	13829.55
700.997	13722.66
701.342	13705.26
701.688	13617.35
702.033	13522.44
702.379	13601.76
702.724	13453.52
703.069	13470.47
703.415	13374.42
703.76	13417.36
704.105	13206.74
704.45	13353.86
704.795	13220.08
705.14	13195.67
705.485	13126.29
705.83	13048.33
706.175	13164.26
706.52	13069.35
706.865	12960.87
707.209	13001.55
707.554	12957.94
707.899	12905.51
708.243	12856.92
708.588	12762.46
708.932	12701.67
709.277	12734.67
709.621	12779.18
709.966	12705.97
710.31	12735.12
710.654	12562.24
710.998	12663.93
711.342	12588
711.687	12539.87
712.031	12574.22
712.375	12422.81
712.719	12479.76
713.063	12451.73
713.407	12459.64
713.75	12397.5
714.094	12376.93
714.438	12346.43
714.782	12411.74
715.125	12261.46
715.469	12261.46
715.812	12220.55
716.156	12171.97
716.499	12187.11
716.843	12187.79
717.186	12075.47
717.53	12108.69
717.873	12159.09
718.216	12108.47
718.559	12136.04
718.902	12032.76
719.246	12050.39
719.589	11992.09
719.932	11941.92
720.275	12006.77
720.617	11949.83
720.96	11906.21
721.303	11899.66
721.646	11873.67
721.989	11817.63
722.331	11862.82
722.674	11836.16
723.016	11849.49
723.359	11838.64
723.701	11821.02
724.044	11846.55
724.386	11630.06
724.729	11703.73
725.071	11713.22
725.413	11677.07
725.755	11717.52
726.097	11658.08
726.439	11641.81
726.782	11606.11
727.124	11703.28
727.465	11590.06
727.807	11620.57
728.149	11673.45
728.491	11619.44
728.833	11654.24
729.175	11586.67
729.516	11558.88
729.858	11594.36
730.199	11600.46
730.541	11603.85
730.882	11566.33
731.224	11567.69
731.565	11521.14
731.906	11602.94
732.248	11565.43
732.589	11456.73
732.93	11491.99
733.271	11487.24
733.612	11448.15
733.953	11601.81
734.294	11455.15
734.635	11440.01
734.976	11459.22
735.317	11427.81
735.658	11515.04
735.999	11507.35
736.339	11502.16
736.68	11575.6
737.021	11533.57
737.361	11491.76
737.702	11523.85
738.042	11505.77
738.383	11560.23
738.723	11511.19
739.063	11509.61
739.404	11549.39
739.744	11513.68
740.084	11529.73
740.424	11571.31
740.764	11474.36
741.104	11602.27
741.444	11520.46
741.784	11535.83
742.124	11626.67
742.464	11626.9
742.804	11587.12
743.143	11627.12
743.483	11678.87
743.823	11720.45
744.162	11708.03
744.502	11719.78
744.841	11706.67
745.181	11822.6
745.52	11767.01
745.86	11908.92
746.199	11832.32
746.538	11945.08
746.877	12064.63
747.216	12087
747.556	12080.67
747.895	12152.53
748.234	12242.7
748.573	12305.3
748.911	12346.43
749.25	12437.5
749.589	12487.67
749.928	12580.09
750.267	12603.6
750.605	12736.25
750.944	12770.14
751.283	12899.41
751.621	13060.76
751.96	13015.79
752.298	13191.6
752.636	13217.82
752.975	13344.82
753.313	13515.21
753.651	13557.69
753.989	13698.48
754.327	13778.25
754.666	13975.76
755.004	14091.69
755.342	14293.04
755.679	14381.18
756.017	14386.83
756.355	14650.77
756.693	14845.57
757.031	14914.95
757.368	15108.16
757.706	15337.08
758.044	15399.68
758.381	15640.35
758.719	15742.04
759.056	15912.66
759.394	16126.67
759.731	16146.1
760.068	16480.1
760.405	16697.27
760.743	16668.35
761.08	17100.88
761.417	17100.65
761.754	17329.57
762.091	17509
762.428	17700.64
762.765	17827.64
763.102	18106.5
763.438	18109.21
763.775	18391.92
764.112	18582.65
764.449	18726.37
764.785	18927.27
765.122	19063.54
765.458	19193.7
765.795	19355.51
766.131	19529.74
766.467	19596.63
766.804	19786.91
767.14	19930.18
767.476	20092.21
767.812	20242.26
768.148	20373.79
768.485	20484.07
768.821	20596.61
769.157	20757.28
769.492	20895.13
769.828	20962.25
770.164	20976.03
770.5	21172.64
770.836	21264.84
771.171	21317.49
771.507	21506.86
771.842	21450.82
772.178	21570.59
772.513	21752.06
772.849	21899.85
773.184	21860.75
773.519	21965.16
773.855	21953.86
774.19	21954.76
774.525	22106.85
774.86	22256.67
775.195	22272.95
775.53	22291.02
775.865	22291.7
776.2	22251.93
776.535	22146.85
776.87	22402.21
777.205	22410.57
777.539	22528.98
777.874	22551.58
778.209	22410.79
778.543	22539.61
778.878	22401.3
779.212	22475.88
779.547	22510.45
779.881	22596.55
780.215	22531.47
780.55	22552.03
780.884	22566.27
781.218	22502.54
781.552	22577.34
781.886	22603.78
782.22	22495.54
782.554	22563.79
782.888	22364.69
783.222	22377.35
783.556	22361.98
783.889	22364.92
784.223	22225.49
784.557	22212.61
784.89	22451.47
785.224	22195.66
785.557	22171.71
785.891	22298.71
786.224	22213.29
786.558	22229.78
786.891	22064.14
787.224	21994.31
787.557	21975.78
787.891	21887.19
788.224	21971.71
788.557	22036.79
788.89	22069.79
789.223	21934.65
789.556	21842.22
789.888	21829.79
790.221	21802.22
790.554	21584.6
790.887	21763.13
791.219	21653.3
791.552	21558.16
791.884	21600.42
792.217	21489.24
792.549	21490.82
792.882	21400.65
793.214	21254.44
793.546	21418.96
793.879	21160.66
794.211	21136.48
794.543	21228.45
794.875	21246.31
795.207	21279.98
795.539	21113.43
795.871	21054.67
796.203	20854.9
796.535	20861.23
796.867	20739.43
797.198	20800.22
797.53	20741.46
797.862	20578.75
798.193	20584.4
798.525	20537.85
798.856	20615.14
799.188	20440
799.519	20369.49
799.85	20252.89
800.182	20289.04
800.513	20263.96
800.844	20132.66
801.175	20267.8
801.506	20293.56
801.837	20136.05
802.168	20089.5
802.499	19971.99
802.83	19924.98
803.161	19926.11
803.491	19906.91
803.822	19905.78
804.153	19729.74
804.483	19644.99
804.814	19599.34
805.145	19564.77
805.475	19540.81
805.805	19483.87
806.136	19386.69
806.466	19471.21
806.796	19416.52
807.126	19247.94
807.457	19307.37
807.787	19313.48
808.117	19164.55
808.447	19150.09
808.777	19114.16
809.107	19034.16
809.436	19021.51
809.766	18947.38
810.096	18863.09
810.426	18949.64
810.755	18950.32
811.085	18900.38
811.414	18739.93
811.744	18685.7
812.073	18671.01
812.403	18740.16
812.732	18463.33
813.061	18608.41
813.39	18471.24
813.719	18464.46
814.049	18516.89
814.378	18455.87
814.707	18348.98
815.036	18320.28
815.365	18221.98
815.693	18207.74
816.022	18250.68
816.351	18146.05
816.68	17987.86
817.008	18139.49
817.337	18024.47
817.665	17897.24
817.994	17911.93
818.322	17963.91
818.651	17842.1
818.979	17710.35
819.307	17912.38
819.636	17812.5
819.964	17694.76
820.292	17751.48
820.62	17825.38
820.948	17761.88
821.276	17807.07
821.604	17728.21
821.932	17684.59
822.259	17795.55
822.587	17810.24
822.915	17728.43
823.243	17834.87
823.57	17669.45
823.898	17727.98
824.225	17610.24
824.553	17554.65
824.88	17670.58
825.207	17705.83
825.535	17630.13
825.862	17627.87
826.189	17579.06
826.516	17715.1
826.843	17814.76
827.17	17743.35
827.497	17753.97
827.824	17679.62
828.151	17791.26
828.478	17630.13
828.805	17782.44
829.131	17723.69
829.458	17627.64
829.785	17615.89
830.111	17617.02
830.438	17748.54
830.764	17705.83
831.09	17629.68
831.417	17618.83
831.743	17705.61
832.069	17689.34
832.395	17613.63
832.722	17614.76
833.048	17499.74
833.374	17652.5
833.7	17575.89
834.026	17523.69
834.351	17563.92
834.677	17468.33
835.003	17583.13
835.329	17571.83
835.654	17528.89
835.98	17391.27
836.306	17441.43
836.631	17364.15
836.956	17402.57
837.282	17407.31
837.607	17237.6
837.932	17368.44
838.258	17293.87
838.583	17279.4
838.908	17265.62
839.233	17231.95
839.558	17233.08
839.883	17084.16
840.208	17048.68
840.533	17111.73
840.858	17030.82
841.182	17120.76
841.507	17036.7
841.832	16957.15
842.156	16921.22
842.481	16892.3
842.805	16817.04
843.13	16854.33
843.454	16766.65
843.778	16678.97
844.103	16681
844.427	16638.74
844.751	16642.13
845.075	16575.02
845.399	16587.45
845.723	16420.9
846.047	16550.61
846.371	16397.17
846.695	16424.96
847.019	16200.34
847.343	16241.92
847.666	16094.58
847.99	16023.39
848.313	15991.08
848.637	15819.1
848.96	15926.22
849.284	15841.02
849.607	15783.62
849.931	15594.48
850.254	15563.74
850.577	15459.34
850.9	15332.11
851.223	15415.27
851.546	15293.47
851.869	15312.22
852.192	15282.85
852.515	15143.19
852.838	15083.08
853.161	15062.97
853.483	15025.45
853.806	14937.32
854.129	14938.68
854.451	14906.36
854.774	14809.86
855.096	14744.1
855.419	14676.99
855.741	14622.98
856.063	14587.05
856.385	14511.12
856.708	14476.09
857.03	14493.04
857.352	14466.15
857.674	14424.56
857.996	14338.24
858.318	14286.71
858.64	14265.25
858.961	14156.77
859.283	14255.3
859.605	14068.42
859.926	14114.74
860.248	14071.58
860.57	14031.81
860.891	14022.77
861.212	13955.65
861.534	13901.19
861.855	13884.24
862.176	13833.85
862.498	13938.7
862.819	13861.87
863.14	13817.12
863.461	13752.27
863.782	13713.4
864.103	13647.41
864.424	13721.76
864.745	13792.49
865.065	13562.21
865.386	13557.02
865.707	13562.21
866.027	13568.99
866.348	13508.88
866.668	13534.19
866.989	13453.97
867.309	13429.34
867.63	13424.59
867.95	13441.99
868.27	13294.2
868.59	13380.3
868.91	13376
869.23	13291.03
869.55	13210.36
869.87	13332.62
870.19	13353.18
870.51	13310.92
870.83	13232.28
871.15	13160.42
871.469	13106.63
871.789	13213.07
872.109	13186.18
872.428	13082.23
872.748	13237.25
873.067	13115.9
873.386	13141.43
873.706	13023.25
874.025	13103.02
874.344	13022.79
874.663	13020.76
874.982	12940.31
875.301	12938.28
875.62	12907.09
875.939	12897.6
876.258	12933.3
876.577	12775.12
876.896	12753.42
877.214	12804.27
877.533	12713.42
877.852	12839.3
878.17	12717.94
878.489	12818.05
878.807	12682.69
879.125	12642.69
879.444	12668.9
879.762	12615.8
880.08	12621.22
880.398	12588.45
880.716	12602.24
881.034	12503.26
881.352	12517.27
881.67	12486.54
881.988	12416.26
882.306	12459.64
882.624	12406.54
882.941	12283.15
883.259	12316.82
883.577	12257.62
883.894	12273.89
884.212	12241.12
884.529	12258.29
884.846	12238.63
885.164	12149.14
885.481	12048.58
885.798	12071.63
886.115	12021.46
886.432	12014.91
886.75	12035.25
887.067	12032.76
887.383	11819.21
887.7	11965.19
888.017	11892.88
888.334	11834.35
888.651	11802.03
888.967	11734.47
889.284	11706.44
889.6	11721.13
889.917	11600.23
890.233	11648.37
890.55	11631.87
890.866	11585.32
891.182	11573.57
891.498	11493.12
891.815	11533.11
892.131	11471.87
892.447	11430.97
892.763	11356.17
893.079	11334.48
893.395	11340.8
893.71	11261.26
894.026	11259.68
894.342	11185.55
894.657	11127.25
894.973	11186.23
895.289	11178.55
895.604	11110.53
895.92	10999.12
896.235	10939.68
896.55	11003.86
896.865	10932
897.181	10924.09
897.496	10882.96
897.811	10850.19
898.126	10794.38
898.441	10739.01
898.756	10681.39
899.071	10698.79
899.386	10693.59
899.7	10623.53
900.015	10528.4
900.33	10445.01
900.644	10508.06
900.959	10468.96
901.273	10425.12
901.588	10321.62
901.902	10320.27
902.216	10262.41
902.531	10266.71
902.845	10175.86
903.159	10151.23
903.473	10131.12
903.787	10128.63
904.101	10076.66
904.415	9938.81
904.729	9970.67
905.042	9884.34
905.356	9861.07
905.67	9840.73
905.984	9808.64
906.297	9777.91
906.611	9738.81
906.924	9682.77
907.237	9678.7
907.551	9701.52
907.864	9524.81
908.177	9586.5
908.491	9489.1
908.804	9473.51
909.117	9382.21
909.43	9337.24
909.743	9360.29
910.056	9243.01
910.368	9290.91
910.681	9175.44
910.994	9215.89
911.307	9163.23
911.619	9006.4
911.932	9146.06
912.244	8991.26
912.557	9033.52
912.869	8960.3
913.181	8866.52
913.494	8900.64
913.806	8835.56
914.118	8793.98
914.43	8738.84
914.742	8864.03
915.054	8735.45
915.366	8701.55
915.678	8593.76
915.99	8590.82
916.302	8564.15
916.613	8526.41
916.925	8480.09
917.236	8482.57
917.548	8376.14
917.859	8387.89
918.171	8394.44
918.482	8346.76
918.794	8320.32
919.105	8301.34
919.416	8209.36
919.727	8208.91
920.038	8215.69
920.349	8126.2
920.66	8085.97
920.971	8065.41
921.282	8024.96
921.593	7904.74
921.903	7929.37
922.214	7924.85
922.525	7870.39
922.835	7869.03
923.146	7792.2
923.456	7795.36
923.767	7791.74
924.077	7754.91
924.387	7718.75
924.697	7685.53
925.008	7683.72
925.318	7602.82
925.628	7511.3
925.938	7604.18
926.248	7437.86
926.558	7458.42
926.867	7376.61
927.177	7496.16
927.487	7393.56
927.796	7342.26
928.106	7316.28
928.416	7279.67
928.725	7230.86
929.034	7236.05
929.344	7224.98
929.653	7170.97
929.962	7164.19
930.271	7130.07
930.581	7076.73
930.89	7052.55
931.199	7062.95
931.508	6949.73
931.817	6996.06
932.125	6961.71
932.434	6920.13
932.743	6848.04
933.051	6792
933.36	6708.38
933.669	6716.29
933.977	6776.18
934.286	6706.8
934.594	6697.08
934.902	6621.61
935.21	6604.43
935.519	6689.17
935.827	6600.59
936.135	6557.88
936.443	6515.62
936.751	6478.78
937.059	6475.62
937.367	6415.28
937.674	6372.12
937.982	6383.19
938.29	6318.34
938.597	6324.21
938.905	6296.19
939.213	6243.08
939.52	6217.77
939.827	6261.16
940.135	6258.45
940.442	6085.35
940.749	6132.58
941.056	6126.93
941.363	6049.64
941.67	6053.48
941.977	6019.81
942.284	5941.62
942.591	5984.56
942.898	5946.37
943.205	5926.48
943.511	5875.18
943.818	5885.35
944.125	5826.15
944.431	5825.24
944.738	5787.5
945.044	5803.77
945.35	5754.74
945.657	5688.97
945.963	5705.7
946.269	5649.2
946.575	5628.41
946.881	5569.43
947.187	5627.73
947.493	5527.17
947.799	5549.09
948.105	5542.31
948.41	5479.04
948.716	5482.65
949.022	5466.83
949.327	5477.45
949.633	5388.87
949.938	5397
950.244	5385.93
950.549	5309.1
950.854	5306.39
951.16	5263.22
951.465	5284.92
951.77	5285.82
952.075	5188.87
952.38	5240.4
952.685	5218.25
952.99	5148.42
953.294	5151.36
953.599	5111.36
953.904	5105.04
954.209	5067.75
954.513	5066.39
954.818	5060.06
955.122	5036.34
955.426	4987.3
955.731	4953.85
956.035	4894.87
956.339	4914.76
956.643	4885.38
956.948	4871.82
957.252	4873.18
957.556	4861.88
957.86	4815.33
958.163	4784.14
958.467	4773.29
958.771	4733.07
959.075	4735.33
959.378	4737.14
959.682	4700.53
959.985	4642.9
960.289	4616.46
960.592	4634.31
960.896	4601.77
961.199	4599.29
961.502	4537.37
961.805	4567.65
962.108	4552.51
962.411	4531.72
962.714	4489.23
963.017	4482.68
963.32	4479.97
963.623	4447.2
963.926	4425.05
964.228	4365.39
964.531	4377.6
964.833	4371.27
965.136	4332.85
965.438	4361.78
965.741	4306.19
966.043	4270.03
966.345	4261.89
966.648	4201.56
966.95	4209.01
967.252	4224.61
967.554	4180.54
967.856	4188.68
968.158	4126.53
968.46	4126.53
968.761	4073.2
969.063	4111.62
969.365	4065.06
969.666	4076.36
969.968	4011.73
970.269	4002.92
970.571	3962.01
970.872	3952.98
971.174	3955.01
971.475	3931.51
971.776	3953.65
972.077	3919.76
972.378	3920.21
972.679	3870.04
972.98	3886.31
973.281	3865.29
973.582	3824.84
973.883	3825.97
974.183	3772.64
974.484	3781
974.785	3726.77
975.085	3734.68
975.386	3692.64
975.686	3712.3
975.986	3733.09
976.287	3691.06
976.587	3634.11
976.887	3655.58
977.187	3592.98
977.487	3634.57
977.787	3569.48
978.087	3594.57
978.387	3533.55
978.687	3523.83
978.987	3521.12
979.286	3439.77
979.586	3491.74
979.885	3453.1
980.185	3436.15
980.484	3453.55
980.784	3396.38
981.083	3393.22
981.382	3400.22
981.682	3386.44
981.981	3398.41
982.28	3354.35
982.579	3294.46
982.878	3289.04
983.177	3307.79
983.475	3276.83
983.774	3240.9
984.073	3255.37
984.372	3232.09
984.67	3258.3
984.969	3216.72
985.267	3224.18
985.566	3165.65
985.864	3171.53
986.162	3134.24
986.461	3132.21
986.759	3135.6
987.057	3106.9
987.355	3105.09
987.653	3108.48
987.951	3092.21
988.249	3051.53
988.547	3050.85
988.844	3035.94
989.142	3022.38
989.44	3023.06
989.737	2997.29
990.035	2958.88
990.332	2979.89
990.63	2945.32
990.927	2927.24
991.224	2903.96
991.521	2899.44
991.819	2906.67
992.116	2845.89
992.413	2824.19
992.71	2838.65
993.006	2828.26
993.303	2857.41
993.6	2810.41
993.897	2763.63
994.193	2798.88
994.49	2753.91
994.787	2764.76
995.083	2722.73
995.379	2697.87
995.676	2684.31
995.972	2702.84
996.268	2687.02
996.565	2679.79
996.861	2634.14
997.157	2646.12
997.453	2631.2
997.749	2637.98
998.044	2605.67
998.34	2592.11
998.636	2532.45
998.932	2579.45
999.227	2535.16
999.523	2527.7
999.818	2535.61
1000.114	2494.03
1000.409	2510.98
1000.704	2484.09
1001	2506.91
1001.295	2425.33
1001.59	2423.52
1001.885	2461.71
1002.18	2401.15
1002.475	2375.84
1002.77	2374.03
1003.065	2374.94
1003.359	2364.99
1003.654	2357.99
1003.949	2327.26
1004.243	2335.84
1004.538	2277.09
1004.832	2301.04
1005.127	2279.35
1005.421	2261.49
1005.715	2217.2
1006.009	2248.61
1006.304	2248.84
1006.598	2230.31
1006.892	2181.04
1007.186	2207.71
1007.48	2167.71
1007.773	2191.67
1008.067	2141.27
1008.361	2156.64
1008.655	2171.33
1008.948	2135.17
1009.242	2115.51
1009.535	2093.82
1009.829	2066.7
1010.122	2061.05
1010.415	2065.12
1010.708	2047.49
1011.001	2043.65
1011.295	2051.33
1011.588	2038.22
1011.881	1958.45
1012.173	1952.58
1012.466	1988.96
1012.759	1966.81
1013.052	1967.72
1013.344	1956.19
1013.637	1949.19
1013.93	1904.22
1014.222	1911.45
1014.514	1928.4
1014.807	1853.6
1015.099	1879.58
1015.391	1871.67
1015.683	1818.57
1015.976	1851.79
1016.268	1820.6
1016.56	1815.63
1016.851	1804.33
1017.143	1807.95
1017.435	1760.49
1017.727	1766.37
1018.018	1760.04
1018.31	1724.79
1018.602	1731.56
1018.893	1735.86
1019.185	1691.79
1019.476	1695.41
1019.767	1719.36
1020.058	1679.36
1020.35	1656.54
1020.641	1656.76
1020.932	1646.37
1021.223	1615.18
1021.514	1621.29
1021.804	1616.77
1022.095	1607.73
1022.386	1583.77
1022.677	1591.23
1022.967	1572.02
1023.258	1547.39
1023.548	1516.66
1023.839	1533.38
1024.129	1509.88
1024.419	1507.16
1024.709	1503.1
1025	1490.89
1025.29	1497.45
1025.58	1464.68
1025.87	1438.01
1026.16	1424.23
1026.449	1440.05
1026.739	1439.37
1027.029	1402.53
1027.319	1408.64
1027.608	1402.08
1027.898	1369.54
1028.187	1382.2
1028.477	1381.29
1028.766	1352.59
1029.055	1342.87
1029.344	1338.58
1029.634	1346.04
1029.923	1314.63
1030.212	1317.11
1030.501	1316.89
1030.79	1298.36
1031.078	1292.48
1031.367	1287.96
1031.656	1280.96
1031.945	1278.47
1032.233	1263.1
1032.522	1263.1
1032.81	1229.88
1033.099	1257.68
1033.387	1222.43
1033.675	1223.56
1033.963	1210.9
1034.251	1223.33
1034.54	1174.74
1034.828	1172.71
1035.116	1154.86
1035.403	1179.49
1035.691	1181.52
1035.979	1115.08
1036.267	1136.33
1036.554	1142.2
1036.842	1128.64
1037.129	1125.7
1037.417	1110.56
1037.704	1083.67
1037.992	1097.91
1038.279	1106.72
1038.566	1057.91
1038.853	1057.91
1039.14	1057.91
