Data from hue_200_FLMS001491_00067.txt Node
Date: Tue Feb 07 16:43:47 GMT 2017
User: dcchb
Spectrometer: FLMS00149
Trigger mode: 0
Integration Time (sec): 2.000000E-2
Scans to average: 10
Electric dark correction enabled: true
Nonlinearity correction enabled: false
Boxcar width: 0
XAxis mode: Wavelengths
Number of Pixels in Spectrum: 2048
>>>>>Begin Spectral Data<<<<<
341.393	-30.93
341.776	-30.93
342.16	-30.93
342.543	-57.82
342.927	-72.51
343.31	-77.26
343.693	-67.77
344.077	-84.04
344.46	-63.02
344.843	-43.36
345.226	-38.84
345.61	-28.22
345.993	-16.47
346.376	-10.14
346.759	3.42
347.142	39.58
347.525	50.42
347.908	58.33
348.291	70.31
348.674	100.59
349.057	106.47
349.44	118.67
349.823	146.69
350.206	145.56
350.588	187.37
350.971	218.1
351.354	229.4
351.737	224.88
352.119	255.84
352.502	256.52
352.884	269.17
353.267	271.21
353.65	270.76
354.032	292
354.414	294.94
354.797	317.08
355.179	323.64
355.562	329.51
355.944	315.05
356.326	315.27
356.709	327.7
357.091	330.42
357.473	328.83
357.855	322.73
358.238	317.76
358.62	332.9
359.002	345.33
359.384	330.42
359.766	340.58
360.148	338.55
360.53	315.73
360.912	341.71
361.294	330.87
361.676	331.32
362.057	323.41
362.439	336.52
362.821	339.68
363.203	337.87
363.584	306.91
363.966	333.8
364.348	328.83
364.729	323.41
365.111	321.83
365.493	317.76
365.874	327.7
366.256	331.77
366.637	314.14
367.019	309.17
367.4	323.64
367.781	303.75
368.163	341.26
368.544	318.21
368.925	308.95
369.306	326.57
369.688	318.21
370.069	320.25
370.45	325.22
370.831	313.47
371.212	309.85
371.593	320.02
371.974	304.43
372.355	310.08
372.736	340.36
373.117	310.75
373.498	328.38
373.879	299
374.26	303.07
374.641	297.42
375.021	319.57
375.402	325.9
375.783	341.71
376.163	325.44
376.544	321.38
376.925	331.77
377.305	332
377.686	319.79
378.066	322.73
378.447	315.05
378.827	334.93
379.208	332.45
379.588	339.91
379.968	346.91
380.349	338.55
380.729	355.05
381.109	331.77
381.489	360.24
381.87	369.96
382.25	355.05
382.63	360.7
383.01	358.66
383.39	363.18
383.77	351.88
384.15	364.31
384.53	359.34
384.91	347.59
385.29	361.15
385.67	354.14
386.049	346.46
386.429	353.47
386.809	374.93
387.189	364.09
387.568	351.43
387.948	368.38
388.328	379.91
388.707	367.7
389.087	358.66
389.466	378.55
389.846	357.98
390.225	386.91
390.605	374.93
390.984	392.33
391.363	370.19
391.743	386.91
392.122	416.06
392.501	393.01
392.881	385.78
393.26	396.18
393.639	379.23
394.018	391.66
394.397	389.85
394.776	399.57
395.155	407.7
395.534	399.11
395.913	388.94
396.292	405.67
396.671	401.37
397.05	408.15
397.429	421.49
397.808	415.38
398.186	420.13
398.565	423.29
398.944	412.22
399.323	425.33
399.701	438.43
400.08	427.81
400.458	450.86
400.837	439.11
401.215	457.19
401.594	484.08
401.972	460.36
402.351	450.64
402.729	450.19
403.107	460.13
403.486	459.45
403.864	469.39
404.242	476.63
404.62	482.05
404.999	473.69
405.377	482.95
405.755	482.73
406.133	493.57
406.511	509.17
406.889	516.17
407.267	516.17
407.645	519.56
408.023	524.08
408.401	528.6
408.779	546.68
409.156	543.06
409.534	544.19
409.912	547.13
410.29	579
410.667	586
411.045	595.27
411.422	601.82
411.8	585.1
412.178	626.68
412.555	638.43
412.933	651.31
413.31	656.06
413.687	666.23
414.065	669.62
414.442	679.33
414.819	682.95
415.197	687.02
415.574	696.96
415.951	712.33
416.328	726.56
416.705	716.62
417.082	741.25
417.46	758.88
417.837	774.92
418.214	781.48
418.591	806.56
418.967	794.81
419.344	801.59
419.721	812.44
420.098	836.16
420.475	850.85
420.852	852.89
421.228	890.17
421.605	886.78
421.982	900.12
422.358	920.91
422.735	964.75
423.111	941.02
423.488	967.46
423.864	993.9
424.241	1025.99
424.617	1006.78
424.994	1016.72
425.37	1063.5
425.746	1058.31
426.123	1087.46
426.499	1082.03
426.875	1121.58
427.251	1147.12
427.627	1160
428.003	1176.49
428.379	1165.42
428.756	1180.11
429.132	1202.93
429.507	1210.17
429.883	1258.53
430.259	1257.62
430.635	1257.85
431.011	1260.79
431.387	1287.45
431.763	1353.21
432.138	1356.6
432.514	1360.44
432.89	1367.22
433.265	1400.44
433.641	1469.82
434.016	1445.41
434.392	1502.59
434.767	1534.45
435.143	1505.53
435.518	1571.96
435.894	1557.28
436.269	1631.4
436.644	1674.33
437.02	1640.89
437.395	1704.62
437.77	1744.16
438.145	1779.64
438.52	1795.69
438.895	1845.18
439.271	1838.62
439.646	1869.36
440.021	1917.72
440.395	1902.35
440.77	1904.84
441.145	1958.39
441.52	2000.43
441.895	2030.71
442.27	2058.73
442.645	2046.53
443.019	2121.1
443.394	2096.24
443.769	2142.12
444.143	2124.49
444.518	2190.93
444.892	2179.18
445.267	2192.96
445.641	2191.61
446.016	2258.27
446.39	2275.22
446.764	2309.35
447.139	2289.46
447.513	2370.81
447.887	2312.28
448.262	2373.53
448.636	2366.97
449.01	2428.66
449.384	2441.55
449.758	2461.43
450.132	2499.62
450.506	2489.91
450.88	2497.59
451.254	2507.53
451.628	2599.73
452.002	2604.03
452.376	2582.33
452.75	2652.39
453.123	2651.26
453.497	2686.29
453.871	2715.21
454.244	2766.06
454.618	2794.08
454.992	2825.04
455.365	2817.13
455.739	2919.5
456.112	2946.62
456.486	2959.05
456.859	2990.01
457.232	3054.64
457.606	3036.56
457.979	3083.79
458.352	3148.87
458.725	3188.19
459.099	3216.21
459.472	3209.66
459.845	3284.01
460.218	3313.16
460.591	3361.07
460.964	3372.37
461.337	3425.7
461.71	3506.83
462.083	3571.91
462.456	3507.28
462.829	3582.08
463.201	3632.93
463.574	3617.56
463.947	3697.33
464.32	3775.75
464.692	3788.4
465.065	3822.3
465.438	3881.06
465.81	3928.74
466.183	4004.22
466.555	4105.01
466.928	4096.42
467.3	4126.02
467.672	4150.2
468.045	4263.42
468.417	4293.47
468.789	4319.01
469.161	4366.24
469.534	4441.49
469.906	4532.56
470.278	4502.73
470.65	4608.49
471.022	4636.06
471.394	4782.73
471.766	4782.73
472.138	4870.86
472.51	4969.39
472.882	4983.4
473.253	5095.71
473.625	5133.45
473.997	5243.05
474.369	5272.88
474.74	5297.74
475.112	5440.34
475.484	5529.6
475.855	5601.24
476.227	5704.51
476.598	5780.44
476.97	5730.73
477.341	5942.7
477.713	5957.16
478.084	6042.58
478.455	6233.08
478.827	6222.01
479.198	6425.17
479.569	6437.6
479.94	6597.14
480.311	6621.55
480.682	6772.28
481.053	6939.96
481.424	6971.37
481.795	7056.11
482.166	7199.16
482.537	7316.9
482.908	7456.78
483.279	7460.85
483.65	7607.51
484.021	7744.23
484.391	7794.85
484.762	7896.32
485.133	7897
485.503	8012.47
485.874	8180.6
486.244	8218.57
486.615	8436.19
486.985	8456.3
487.356	8630.08
487.726	8645.9
488.097	8794.83
488.467	8876.86
488.837	9016.97
489.207	9128.6
489.578	9240.92
489.948	9365.66
490.318	9417.86
490.688	9410.18
491.058	9560.68
491.428	9683.39
491.798	9800.9
492.168	9956.83
492.538	9936.49
492.908	9955.47
493.278	10205.41
493.648	10196.6
494.017	10303.49
494.387	10390.94
494.757	10430.26
495.126	10524.95
495.496	10569.92
495.866	10669.58
496.235	10736.47
496.605	10780.76
496.974	10801.55
497.344	10900.31
497.713	11006.07
498.082	10983.92
498.452	11125.61
498.821	11167.87
499.19	11082
499.559	11218.04
499.928	11267.3
500.298	11285.38
500.667	11365.15
501.036	11399.95
501.405	11444.25
501.774	11484.7
502.143	11550.01
502.512	11566.96
502.88	11668.87
503.249	11649.44
503.618	11738.93
503.987	11729.66
504.356	11807.63
504.724	11821.86
505.093	11863.22
505.462	11896.44
505.83	11884.69
506.199	11927.62
506.567	12078.58
506.936	12108.18
507.304	12138.47
507.672	12120.61
508.041	12163.78
508.409	12308.86
508.777	12296.88
509.145	12371.45
509.514	12357.9
509.882	12460.94
510.25	12373.94
510.618	12469.08
510.986	12420.72
511.354	12538.91
511.722	12593.82
512.09	12673.82
512.458	12721.5
512.826	12699.58
513.193	12733.93
513.561	12702.29
513.929	12735.51
514.297	12849.63
514.664	12921.27
515.032	12751.11
515.4	12932.34
515.767	12918.56
516.135	12893.25
516.502	12914.49
516.869	12925.79
517.237	13016.41
517.604	12885.79
517.972	12970.53
518.339	13089.63
518.706	13041.04
519.073	13008.05
519.44	13147.25
519.808	13224.99
520.175	13102.51
520.542	13230.41
520.909	13243.52
521.276	13265.67
521.643	13311.99
522.009	13363.97
522.376	13351.54
522.743	13330.53
523.11	13402.84
523.477	13478.09
523.843	13474.93
524.21	13536.62
524.577	13594.93
524.943	13579.78
525.31	13522.61
525.676	13613
526.043	13650.29
526.409	13679.22
526.776	13757.18
527.142	13608.71
527.508	13701.59
527.874	13680.12
528.241	13711.31
528.607	13662.95
528.973	13745.2
529.339	13741.14
529.705	13789.72
530.071	13698.88
530.437	13712.66
530.803	13775.03
531.169	13687.35
531.535	13638.54
531.901	13634.7
532.267	13642.16
532.632	13699.78
532.998	13707.24
533.364	13630.4
533.73	13710.85
534.095	13714.92
534.461	13591.76
534.826	13584.76
535.192	13589.73
535.557	13616.17
535.923	13621.59
536.288	13548.15
536.653	13517.64
537.019	13388.6
537.384	13390.86
537.749	13324.65
538.114	13367.13
538.479	13360.13
538.845	13304.76
539.21	13181.83
539.575	13151.77
539.94	13206.69
540.305	13149.96
540.67	13072.45
541.034	13190.87
541.399	13148.16
541.764	13042.62
542.129	13096.18
542.494	12982.51
542.858	13027.03
543.223	12896.86
543.587	12979.12
543.952	12812.12
544.316	12840.37
544.681	12800.6
545.045	12763.31
545.41	12786.58
545.774	12750.88
546.138	12698.68
546.503	12581.84
546.867	12570.55
547.231	12563.31
547.595	12474.28
547.959	12452.58
548.324	12366.93
548.688	12380.49
549.052	12296.65
549.416	12345.47
549.779	12245.13
550.143	12239.03
550.507	12267.5
550.871	12239.03
551.235	12143.89
551.599	12114.29
551.962	12120.61
552.326	12085.13
552.689	12058.47
553.053	11930.56
553.417	11890.79
553.78	12000.62
554.143	11848.3
554.507	11938.25
554.87	11851.02
555.234	11949.32
555.597	11818.47
555.96	11772.83
556.323	11830
556.686	11744.13
557.05	11801.75
557.413	11735.99
557.776	11684.47
558.139	11756.78
558.502	11727.4
558.865	11699.83
559.228	11732.38
559.59	11678.37
559.953	11659.38
560.316	11699.61
560.679	11705.71
561.041	11722.43
561.404	11623.68
561.767	11697.35
562.129	11652.6
562.492	11703.68
562.854	11643.56
563.217	11618.03
563.579	11678.82
563.941	11647.63
564.304	11690.57
564.666	11706.61
565.028	11644.47
565.39	11639.5
565.753	11670.68
566.115	11710.23
566.477	11757.91
566.839	11720.85
567.201	11781.87
567.563	11727.4
567.925	11782.54
568.287	11794.29
568.648	11752.26
569.01	11815.54
569.372	11862.32
569.734	11764.01
570.095	11860.28
570.457	11862.32
570.819	11899.83
571.18	11811.47
571.542	11864.58
571.903	11851.92
572.265	11878.81
572.626	11820.51
572.987	11877.23
573.349	11889.89
573.71	12013.5
574.071	11973.27
574.432	11923.78
574.794	12003.33
575.155	11957
575.516	11898.7
575.877	12046.04
576.238	12034.29
576.599	12051.69
576.96	12023.67
577.32	12044.23
577.681	12043.1
578.042	12022.76
578.403	12034.97
578.763	11985.93
579.124	12012.82
579.485	12105.02
579.845	12109.54
580.206	12020.5
580.566	11975.08
580.927	12052.59
581.287	12042.88
581.648	12033.16
582.008	12136.88
582.368	12010.11
582.728	12036.1
583.089	12055.76
583.449	12017.57
583.809	11943.89
584.169	12047.62
584.529	12024.8
584.889	12114.74
585.249	11952.71
585.609	11941.86
585.969	11991.13
586.329	11934.86
586.688	11963.78
587.048	11904.35
587.408	12005.59
587.768	11923.56
588.127	11989.77
588.487	11929.43
588.846	11961.75
589.206	11909.55
589.565	11913.16
589.925	11919.49
590.284	11898.25
590.643	11924.46
591.003	11910.45
591.362	11864.8
591.721	11926.49
592.08	11814.86
592.44	11876.78
592.799	11870
593.158	11893.05
593.517	11891.02
593.876	11859.83
594.235	11776.22
594.593	11905.93
594.952	11842.43
595.311	11794.29
595.67	11822.09
596.029	11852.82
596.387	11889.21
596.746	11877.46
597.104	11829.1
597.463	11816.67
597.822	11793.39
598.18	11774.63
598.538	11792.71
598.897	11837.91
599.255	11766.95
599.613	11915.87
599.972	11800.17
600.33	11784.35
600.688	11707.29
601.046	11788.19
601.404	11866.61
601.762	11875.2
602.12	11811.92
602.478	11871.81
602.836	11863.9
603.194	11770.11
603.552	11868.42
603.91	11713.62
604.268	11846.04
604.625	11728.76
604.983	11776.67
605.341	11723.79
605.698	11747.97
606.056	11869.77
606.413	11715.88
606.771	11792.49
607.128	11880.85
607.485	11848.98
607.843	11776.22
608.2	11878.36
608.557	11916.78
608.914	11834.97
609.272	11887.63
609.629	11862.99
609.986	11942.54
610.343	11894.18
610.7	12031.35
611.057	11919.49
611.414	11933.95
611.771	11942.09
612.127	12005.59
612.484	12011.46
612.841	11998.13
613.198	11962.88
613.554	11890.56
613.911	12062.54
614.267	12012.59
614.624	11952.93
614.98	12005.36
615.337	12035.19
615.693	12036.77
616.05	11954.29
616.406	12029.54
616.762	11924.23
617.118	12043.33
617.475	11997.45
617.831	12053.95
618.187	12102.99
618.543	12006.27
618.899	12129.88
619.255	12108.64
619.611	12090.33
619.967	12100.73
620.323	12123.78
620.678	12127.62
621.034	12065.47
621.39	12063.67
621.746	12024.8
622.101	12217.11
622.457	12079.71
622.812	12021.63
623.168	12133.04
623.523	12117
623.879	12185.92
624.234	12083.55
624.589	12196.77
624.945	12099.15
625.3	12108.18
625.655	12099.15
626.01	12038.13
626.365	12137.34
626.72	12084.23
627.075	12067.28
627.43	12039.94
627.785	12018.92
628.14	12013.95
628.495	12114.74
628.85	12090.11
629.205	11939.15
629.559	12085.36
629.914	12015.76
630.269	11970.56
630.623	11964.01
630.978	11893.05
631.332	11961.52
631.687	11960.62
632.041	11891.92
632.396	11946.61
632.75	11881.75
633.104	11923.56
633.459	11817.12
633.813	11815.76
634.167	11852.6
634.521	11785.03
634.875	11788.87
635.229	11810.57
635.583	11712.94
635.937	11681.53
636.291	11723.34
636.645	11693.05
636.999	11637.01
637.352	11690.57
637.706	11681.3
638.06	11718.36
638.413	11606.73
638.767	11633.85
639.121	11629.55
639.474	11574.64
639.828	11566.96
640.181	11626.39
640.534	11633.85
640.888	11531.48
641.241	11490.12
641.594	11514.75
641.947	11505.26
642.301	11523.79
642.654	11599.05
643.007	11582.55
643.36	11508.2
643.713	11459.84
644.066	11419.39
644.419	11443.34
644.771	11405.15
645.124	11326.51
645.477	11228.21
645.83	11214.65
646.182	11143.46
646.535	11111.15
646.888	11098.72
647.24	11078.16
647.593	11080.41
647.945	11056.01
648.298	11063.24
648.65	10991.15
649.002	10961.32
649.355	11044.48
649.707	11038.38
650.059	11118.61
650.411	11172.39
650.763	11257.59
651.115	11286.74
651.467	11293.29
651.819	11228.21
652.171	11274.53
652.523	11353.85
652.875	11356.34
653.227	11254.87
653.578	11314.31
653.93	11330.35
654.282	11213.29
654.633	11264.59
654.985	11306.17
655.337	11260.75
655.688	11360.86
656.039	11338.49
656.391	11203.12
656.742	11291.71
657.094	11289.45
657.445	11262.78
657.796	11262.56
658.147	11265.27
658.498	11339.84
658.849	11266.17
659.2	11262.33
659.551	11223.69
659.902	11287.87
660.253	11315.89
660.604	11373.97
660.955	11307.98
661.306	11344.14
661.656	11331.93
662.007	11331.71
662.358	11302.33
662.708	11260.52
663.059	11363.35
663.409	11230.92
663.76	11298.04
664.11	11280.86
664.461	11367.41
664.811	11307.08
665.161	11320.86
665.511	11308.88
665.862	11279.05
666.212	11386.62
666.562	11375.55
666.912	11286.29
667.262	11312.73
667.612	11292.84
667.962	11284.93
668.312	11273.63
668.662	11407.86
669.011	11293.52
669.361	11304.59
669.711	11261.43
670.06	11297.58
670.41	11229.56
670.76	11198.38
671.109	11277.47
671.459	11235.89
671.808	11242.9
672.157	11188.43
672.507	11151.83
672.856	11196.8
673.205	11187.3
673.554	11213.74
673.904	11119.96
674.253	11215.78
674.602	11166.29
674.951	10987.54
675.3	10999.97
675.649	11110.24
675.998	11075.67
676.346	11112.73
676.695	11106.63
677.044	11051.72
677.393	11113.86
677.741	11066.4
678.09	11103.92
678.438	11062.56
678.787	11054.43
679.135	11054.2
679.484	10956.8
679.832	10975.56
680.181	10888.33
680.529	10950.7
680.877	10941.44
681.225	10934.43
681.573	10916.8
681.922	10823.25
682.27	10748.22
682.618	10855.79
682.966	10881.78
683.314	10867.09
683.661	10735.57
684.009	10752.06
684.357	10841.33
684.705	10696.24
685.053	10652.18
685.4	10652.4
685.748	10625.96
686.095	10558.62
686.443	10531.05
686.79	10536.7
687.138	10557.94
687.485	10484.95
687.832	10505.51
688.18	10459.19
688.527	10435.69
688.874	10387.55
689.221	10376.7
689.568	10330.83
689.915	10336.03
690.262	10306.65
690.609	10346.2
690.956	10188.23
691.303	10199.99
691.65	10158.86
691.997	10190.49
692.344	10176.03
692.69	10001.57
693.037	10045.87
693.383	10033.44
693.73	10007.9
694.077	9993.21
694.423	9892.42
694.769	9916.83
695.116	9873.67
695.462	9804.97
695.808	9798.87
696.155	9839.77
696.501	9680.68
696.847	9689.49
697.193	9657.63
697.539	9598.87
697.885	9556.84
698.231	9512.09
698.577	9551.42
698.923	9499.89
699.269	9494.24
699.614	9449.72
699.96	9332.21
700.306	9356.17
700.651	9325.43
700.997	9276.85
701.342	9178.54
701.688	9237.07
702.033	9196.62
702.379	9179.67
702.724	9133.57
703.069	9243.4
703.415	9072.78
703.76	9055.16
704.105	9089.05
704.45	8996.85
704.795	8962.5
705.14	8943.52
705.485	8941.49
705.83	8850.42
706.175	8881.6
706.52	8802.06
706.865	8786.92
707.209	8782.17
707.554	8699.91
707.899	8756.18
708.243	8640.25
708.588	8710.99
708.932	8590.99
709.277	8659.01
709.621	8596.64
709.966	8507.15
710.31	8543.53
710.654	8475.51
710.998	8551.89
711.342	8507.15
711.687	8483.65
712.031	8396.64
712.375	8409.3
712.719	8443.65
713.063	8353.93
713.407	8394.38
713.75	8360.94
714.094	8419.47
714.438	8369.3
714.782	8299.92
715.125	8256.08
715.469	8302.63
715.812	8274.61
716.156	8197.55
716.499	8193.49
716.843	8266.7
717.186	8147.16
717.53	8217.89
717.873	8207.5
718.216	8194.16
718.559	8124.11
718.902	8105.35
719.246	8059.48
719.589	8029.87
719.932	8050.21
720.275	8016.77
720.617	8052.47
720.96	8031
721.303	8017.9
721.646	8002.98
721.989	7966.15
722.331	8035.52
722.674	7991
723.016	8001.85
723.359	7976.32
723.701	7986.94
724.044	7949.42
724.386	7905.58
724.729	7924.11
725.071	7902.65
725.413	7959.59
725.755	7930.22
726.097	7855.41
726.439	7875.53
726.782	7903.1
727.124	7858.13
727.465	7893.61
727.807	7887.96
728.149	7880.5
728.491	7845.92
728.833	7864.91
729.175	7873.49
729.516	7846.83
729.858	7807.28
730.199	7909.2
730.541	7835.75
730.882	7833.04
731.224	7823.1
731.565	7811.8
731.906	7876.66
732.248	7833.95
732.589	7788.52
732.93	7830.1
733.271	7794.4
733.612	7794.4
733.953	7831.69
734.294	7812.7
734.635	7852.48
734.976	7805.47
735.317	7776.32
735.658	7805.25
735.999	7782.2
736.339	7766.15
736.68	7873.95
737.021	7806.83
737.361	7785.36
737.702	7885.92
738.042	7802.99
738.383	7841.18
738.723	7801.63
739.063	7854.29
739.404	7910.55
739.744	7807.73
740.084	7884.34
740.424	7858.8
740.764	7864.91
741.104	7973.6
741.444	7928.63
741.784	7891.57
742.124	7922.76
742.464	7960.5
742.804	7944.45
743.143	7939.93
743.483	8036.2
743.823	7972.02
744.162	7971.34
744.502	8074.17
744.841	8074.62
745.181	8118.91
745.52	8148.74
745.86	8141.06
746.199	8208.4
746.538	8290.21
746.877	8234.16
747.216	8303.31
747.556	8356.19
747.895	8468.28
748.234	8420.37
748.573	8516.64
748.911	8496.75
749.25	8664.66
749.589	8657.2
749.928	8765.67
750.267	8854.48
750.605	8889.74
750.944	8904.88
751.283	9031.66
751.621	9096.96
751.96	9164.08
752.298	9236.85
752.636	9381.7
752.975	9519.78
753.313	9580.34
753.651	9696.95
753.989	9715.93
754.327	9843.39
754.666	9921.58
755.004	10126.77
755.342	10224.39
755.679	10317.05
756.017	10493.76
756.355	10664.61
756.693	10724.04
757.031	10950.25
757.368	10979.63
757.706	11192.05
758.044	11284.93
758.381	11568.99
758.719	11690.57
759.056	11852.15
759.394	12031.12
759.731	12195.87
760.068	12347.73
760.405	12521.73
760.743	12605.8
761.08	12889.86
761.417	13051.44
761.754	13171.66
762.091	13384.99
762.428	13561.71
762.765	13751.98
763.102	13907.01
763.438	14020.9
763.775	14229.71
764.112	14469.03
764.449	14625.63
764.785	14870.15
765.122	14949.47
765.458	15053.87
765.795	15311.26
766.131	15446.4
766.467	15664.25
766.804	15783.79
767.14	15845.49
767.476	16111.02
767.812	16296.77
768.148	16446.6
768.485	16424.68
768.821	16522.53
769.157	16817.21
769.492	16973.82
769.828	17067.6
770.164	17121.39
770.5	17223.08
770.836	17360.02
771.171	17501.94
771.507	17586.23
771.842	17654.71
772.178	17830.97
772.513	17934.92
772.849	17953.23
773.184	18163.62
773.519	18191.87
773.855	18273.67
774.19	18392.09
774.525	18342.14
774.86	18613.1
775.195	18703.72
775.53	18665.3
775.865	18779.65
776.2	18774
776.535	18738.97
776.87	18840.21
777.205	18950.94
777.539	18855.58
777.874	19028.45
778.209	19024.61
778.543	19106.42
778.878	19043.37
779.212	19072.52
779.547	19182.8
779.881	19243.59
780.215	19144.16
780.55	19242.01
780.884	19252.63
781.218	19251.5
781.552	19405.39
781.886	19256.7
782.22	19290.37
782.554	19321.78
782.888	19158.85
783.222	19203.82
783.556	19169.47
783.889	19134.89
784.223	19034.56
784.557	19118.85
784.89	19260.54
785.224	19151.39
785.557	19122.69
785.891	19151.62
786.224	19063.93
786.558	19233.42
786.891	19038.62
787.224	19009.25
787.557	19030.71
787.891	19098.28
788.224	19061.22
788.557	19147.77
788.89	19075.01
789.223	19111.39
789.556	19098.74
789.888	18979.42
790.221	18929.02
790.554	18822.36
790.887	18870.04
791.219	18798.63
791.552	18763.15
791.884	18799.53
792.217	18719.08
792.549	18681.8
792.882	18643.38
793.214	18668.01
793.546	18666.43
793.879	18539.2
794.211	18517.51
794.543	18613.32
794.875	18495.59
795.207	18578.52
795.539	18443.39
795.871	18430.73
796.203	18288.59
796.535	18284.29
796.867	18222.15
797.198	18257.85
797.53	18279.1
797.862	18019.67
798.193	18161.81
798.525	18040.01
798.856	18117.97
799.188	17852.67
799.519	17935.38
799.85	17727.92
800.182	17797.75
800.513	17847.69
800.844	17639.34
801.175	17783.74
801.506	17761.82
801.837	17695.16
802.168	17675.72
802.499	17556.18
802.83	17512.79
803.161	17531.09
803.491	17442.51
803.822	17438.67
804.153	17424.88
804.483	17392.57
804.814	17263.08
805.145	17275.05
805.475	17265.34
805.805	17223.98
806.136	17252.68
806.466	17227.15
806.796	17201.16
807.126	17057.66
807.457	17021.28
807.787	17011.11
808.117	17019.69
808.447	16854.73
808.777	16916.65
809.107	16871.22
809.436	16733.6
809.766	16771.11
810.096	16784.9
810.426	16696.54
810.755	16679.14
811.085	16652.7
811.414	16668.06
811.744	16561.17
812.073	16531.34
812.403	16505.58
812.732	16506.03
813.061	16435.08
813.39	16318.92
813.719	16342.88
814.049	16374.06
814.378	16289.54
814.707	16302.65
815.036	16291.8
815.365	16163.67
815.693	16021.53
816.022	16066.95
816.351	16070.34
816.68	15946.28
817.008	16085.03
817.337	15840.06
817.665	15925.94
817.994	15939.72
818.322	15820.86
818.651	15789.44
818.979	15817.01
819.307	15847.52
819.636	15813.17
819.964	15713.06
820.292	15821.08
820.62	15859.95
820.948	15752.38
821.276	15741.54
821.604	15653.4
821.932	15683.68
822.259	15808.88
822.587	15621.99
822.915	15763.23
823.243	15745.83
823.57	15716.45
823.898	15719.16
824.225	15618.15
824.553	15675.77
824.88	15699.5
825.207	15754.87
825.535	15720.07
825.862	15745.15
826.189	15725.94
826.516	15851.81
826.843	15783.34
827.17	15759.16
827.497	15768.43
827.824	15804.58
828.151	15808.43
828.478	15778.6
828.805	15814.75
829.131	15852.72
829.458	15770.46
829.785	15704.25
830.111	15724.36
830.438	15808.65
830.764	15803.91
831.09	15772.95
831.417	15609.79
831.743	15763.23
832.069	15750.35
832.395	15637.81
832.722	15687.3
833.048	15660.63
833.374	15695.43
833.7	15607.98
834.026	15612.95
834.351	15640.52
834.677	15572.27
835.003	15681.42
835.329	15623.57
835.654	15616.57
835.98	15455.22
836.306	15565.72
836.631	15538.15
836.956	15604.36
837.282	15564.82
837.607	15573.18
837.932	15407.76
838.258	15424.03
838.583	15437.36
838.908	15260.19
839.233	15404.37
839.558	15374.54
839.883	15216.8
840.208	15298.38
840.533	15240.53
840.858	15259.06
841.182	15190.36
841.507	15208.44
841.832	15196.46
842.156	15030.37
842.481	15093.64
842.805	15135.45
843.13	15071.5
843.454	15082.57
843.778	14940.43
844.103	14884.16
844.427	14870.15
844.751	14902.01
845.075	14806.42
845.399	14770.94
845.723	14673.31
846.047	14658.85
846.371	14589.25
846.695	14589.48
847.019	14483.72
847.343	14408.01
847.666	14412.98
847.99	14355.13
848.313	14317.84
848.637	14175.47
848.96	14165.31
849.284	14140.22
849.607	14039.89
849.931	14057.96
850.254	13836.95
850.577	13893.67
850.9	13748.59
851.223	13751.76
851.546	13624.53
851.869	13615.94
852.192	13648.48
852.515	13554.7
852.838	13475.83
853.161	13452.56
853.483	13320.81
853.806	13276.29
854.129	13311.99
854.451	13284.65
854.774	13242.84
855.096	13219.79
855.419	13104.09
855.741	13071.1
856.063	12974.15
856.385	12987.26
856.708	12928.05
857.03	12928.73
857.352	12963.76
857.674	12959.01
857.996	12796.3
858.318	12762.4
858.64	12742.07
858.961	12711.33
859.283	12689.19
859.605	12573.93
859.926	12679.02
860.248	12627.72
860.57	12574.39
860.891	12538.68
861.212	12448.51
861.534	12515.86
861.855	12392.47
862.176	12401.96
862.498	12369.19
862.819	12392.47
863.14	12285.58
863.461	12324.9
863.782	12356.09
864.103	12313.15
864.424	12214.4
864.745	12237.67
865.065	12161.97
865.386	12178.01
865.707	12095.53
866.027	12146.15
866.348	12114.96
866.668	12095.53
866.989	12108.86
867.309	12019.6
867.63	12057.11
867.95	12113.83
868.27	11891.92
868.59	11952.48
868.91	11895.99
869.23	11925.59
869.55	11813.73
869.87	11920.17
870.19	11913.16
870.51	11915.65
870.83	11908.64
871.15	11765.59
871.469	11717.01
871.789	11849.66
872.109	11777.57
872.428	11685.82
872.748	11728.31
873.067	11713.17
873.386	11662.32
873.706	11663
874.025	11620.29
874.344	11639.95
874.663	11653.51
874.982	11589.33
875.301	11608.54
875.62	11573.74
875.939	11581.64
876.258	11543.45
876.577	11499.39
876.896	11443.57
877.214	11417.36
877.533	11414.64
877.852	11396.56
878.17	11443.57
878.489	11389.79
878.807	11386.17
879.125	11291.71
879.444	11298.71
879.762	11265.49
880.08	11312.05
880.398	11193.86
880.716	11262.33
881.034	11239.28
881.352	11319.73
881.67	11206.51
881.988	11243.35
882.306	11064.37
882.624	11071.6
882.941	11013.52
883.259	10962.45
883.577	11049.46
883.894	11014.2
884.212	11044.26
884.529	10953.64
884.846	10932.62
885.164	10857.6
885.481	10867.09
885.798	10872.96
886.115	10812.85
886.432	10806.3
886.75	10800.2
887.067	10816.02
887.383	10789.35
887.7	10723.81
888.017	10649.24
888.334	10672.06
888.651	10637.71
888.967	10620.31
889.284	10516.81
889.6	10565.4
889.917	10453.76
890.233	10447.89
890.55	10398.4
890.866	10424.84
891.182	10404.73
891.498	10309.36
891.815	10312.3
892.131	10305.75
892.447	10255.35
892.763	10287.22
893.079	10170.61
893.395	10139.65
893.71	10115.47
894.026	10128.58
894.342	10048.35
894.657	9985.75
894.973	10016.49
895.289	10018.52
895.604	9871.63
895.92	9809.04
896.235	9858.53
896.55	9868.7
896.865	9835.93
897.181	9712.09
897.496	9748.7
897.811	9761.58
898.126	9714.8
898.441	9641.36
898.756	9602.94
899.071	9590.28
899.386	9505.09
899.7	9447.69
900.015	9452.44
900.33	9291.99
900.644	9385.09
900.959	9414.92
901.273	9301.93
901.588	9314.13
901.902	9228.26
902.216	9196.17
902.531	9163.4
902.845	9155.95
903.159	9071.43
903.473	9042.73
903.787	9012.45
904.101	9061.03
904.415	9024.65
904.729	8962.73
905.042	8867.14
905.356	8854.71
905.67	8826.91
905.984	8875.95
906.297	8778.78
906.611	8741.27
906.924	8746.46
907.237	8721.83
907.551	8675.73
907.864	8567.03
908.177	8538.56
908.491	8546.7
908.804	8459.47
909.117	8477.55
909.43	8422.63
909.743	8336.98
910.056	8342.86
910.368	8302.63
910.681	8311.9
910.994	8292.24
911.307	8158.01
911.619	8189.19
911.932	8187.38
912.244	8126.82
912.557	8107.61
912.869	8071.91
913.181	7985.81
913.494	8002.3
913.806	7946.26
914.118	7951.91
914.43	7873.27
914.742	7882.31
915.054	7833.27
915.366	7783.55
915.678	7729.54
915.99	7780.61
916.302	7661.97
916.613	7661.3
916.925	7605.25
917.236	7613.61
917.548	7600.96
917.859	7588.08
918.171	7502.66
918.482	7468.98
918.794	7407.74
919.105	7447.52
919.416	7351.93
919.727	7298.14
920.038	7314.64
920.349	7254.98
920.66	7296.11
920.971	7277.58
921.282	7177.92
921.593	7150.8
921.903	7137.24
922.214	7112.84
922.525	7071.48
922.835	7054.08
923.146	7025.38
923.456	7027.64
923.767	7006.4
924.077	6941.31
924.387	6886.4
924.697	6829.68
925.008	6851.15
925.318	6817.48
925.628	6768.66
925.938	6737.93
926.248	6750.59
926.558	6716.01
926.867	6647.09
927.177	6614.77
927.487	6627.88
927.796	6528.67
928.106	6553.3
928.416	6532.96
928.725	6481.89
929.034	6499.74
929.344	6483.7
929.653	6466.3
929.962	6405.06
930.271	6356.92
930.581	6368
930.89	6346.08
931.199	6289.81
931.508	6277.38
931.817	6278.96
932.125	6321.9
932.434	6205.51
932.743	6144.73
933.051	6119.19
933.36	6158.74
933.669	6119.19
933.977	6091.39
934.286	6055.01
934.594	6052.75
934.902	5976.37
935.21	5968.68
935.519	5955.8
935.827	5939.53
936.135	5902.7
936.443	5855.92
936.751	5837.84
937.059	5828.8
937.367	5776.83
937.674	5821.57
937.982	5761.91
938.29	5676.49
938.597	5731.18
938.905	5658.18
939.213	5619.77
939.52	5612.08
939.827	5647.11
940.135	5641.69
940.442	5558.53
940.749	5598.75
941.056	5589.26
941.363	5427.23
941.67	5457.29
941.977	5439.43
942.284	5391.3
942.591	5395.82
942.898	5382.49
943.205	5335.48
943.511	5345.42
943.818	5282.38
944.125	5287.12
944.431	5292.54
944.738	5262.26
945.044	5246.9
945.35	5184.98
945.657	5163.51
945.963	5112.44
946.269	5097.07
946.575	5105.2
946.881	5089.39
947.187	5071.31
947.493	5048.94
947.799	5008.26
948.105	4974.59
948.41	4948.15
948.716	4994.47
949.022	4939.79
949.327	4922.38
949.633	4843.74
949.938	4902.72
950.244	4879.67
950.549	4823.63
950.854	4817.08
951.16	4774.59
951.465	4748.15
951.77	4756.51
952.075	4699.57
952.38	4727.81
952.685	4716.06
952.99	4676.74
953.294	4668.38
953.599	4640.36
953.904	4575.73
954.209	4592.22
954.513	4575.5
954.818	4541.83
955.122	4553.58
955.426	4523.98
955.731	4519.68
956.035	4459.57
956.339	4467.03
956.643	4438.33
956.948	4420.93
957.252	4381.61
957.556	4353.13
957.86	4356.75
958.163	4335.73
958.467	4304.1
958.771	4281.5
959.075	4309.07
959.378	4217.09
959.682	4250.54
959.985	4201.73
960.289	4203.08
960.592	4208.51
960.896	4167.38
961.199	4170.09
961.502	4143.65
961.805	4119.02
962.108	4098
962.411	4076.31
962.714	4047.83
963.017	4031.11
963.32	4043.76
963.623	3985.69
963.926	3981.84
964.228	3978.45
964.531	3968.29
964.833	3945.91
965.136	3905.24
965.438	3885.8
965.741	3875.63
966.043	3865.92
966.345	3866.82
966.648	3859.14
966.95	3822.75
967.252	3797.89
967.554	3792.47
967.856	3743.21
968.158	3777.33
968.46	3780.27
968.761	3704.11
969.063	3696.65
969.365	3684.23
969.666	3704.34
969.968	3658.24
970.269	3658.01
970.571	3644.68
970.872	3618.69
971.174	3569.88
971.475	3575.75
971.776	3589.54
972.077	3531.46
972.378	3519.26
972.679	3532.14
972.98	3493.27
973.281	3507.96
973.582	3464.57
973.883	3473.61
974.183	3483.55
974.484	3414.18
974.785	3443.33
975.085	3392.48
975.386	3427.96
975.686	3366.49
975.986	3364.23
976.287	3368.75
976.587	3299.38
976.887	3283.11
977.187	3316.1
977.487	3275.2
977.787	3279.49
978.087	3242.65
978.387	3221.86
978.687	3216.21
978.987	3224.35
979.286	3213.96
979.586	3187.97
979.885	3195.42
980.185	3153.17
980.484	3156.78
980.784	3143.45
981.083	3079.95
981.382	3106.39
981.682	3096.22
981.981	3060.06
982.28	3013.73
982.579	3032.49
982.878	3046.73
983.177	3001.76
983.475	3022.55
983.774	2999.95
984.073	2958.37
984.372	2944.58
984.67	2954.3
984.969	2960.4
985.267	2929.22
985.566	2862.55
985.864	2893.29
986.162	2873.4
986.461	2859.61
986.759	2842.67
987.057	2792.27
987.355	2794.08
987.653	2832.5
987.951	2797.92
988.249	2782.1
988.547	2800.86
988.844	2771.48
989.142	2769.22
989.44	2724.25
989.737	2716.12
990.035	2729
990.332	2692.61
990.63	2663.46
990.927	2665.49
991.224	2678.83
991.521	2644.25
991.819	2623.69
992.116	2618.26
992.413	2651.94
992.71	2597.7
993.006	2565.61
993.303	2569.45
993.6	2570.13
993.897	2578.94
994.193	2500.53
994.49	2520.87
994.787	2462.11
995.083	2512.05
995.379	2483.8
995.676	2467.53
995.972	2461.66
996.268	2426.86
996.565	2454.65
996.861	2444.26
997.157	2399.29
997.453	2402.45
997.749	2375.78
998.044	2392.51
998.34	2358.61
998.636	2382.34
998.932	2310.93
999.227	2322.45
999.523	2304.83
999.818	2298.05
1000.114	2295.11
1000.409	2274.09
1000.704	2264.15
1001	2248.1
1001.295	2242.91
1001.59	2232.51
1001.885	2234.55
1002.18	2197.94
1002.475	2192.74
1002.77	2164.94
1003.065	2169.24
1003.359	2152.51
1003.654	2136.47
1003.949	2114.55
1004.243	2100.09
1004.538	2108.45
1004.832	2085.85
1005.127	2070.26
1005.421	2055.34
1005.715	2066.87
1006.009	2021.44
1006.304	2049.01
1006.598	2006.53
1006.892	2005.85
1007.186	2010.37
1007.48	1970.6
1007.773	1973.76
1008.067	1942.12
1008.361	1936.7
1008.655	1936.47
1008.948	1938.06
1009.242	1909.58
1009.535	1885.4
1009.829	1914.1
1010.122	1873.43
1010.415	1897.83
1010.708	1846.76
1011.001	1863.48
1011.295	1836.59
1011.588	1865.29
1011.881	1819.42
1012.173	1773.09
1012.466	1803.82
1012.759	1761.79
1013.052	1770.15
1013.344	1763.82
1013.637	1734.9
1013.93	1735.35
1014.222	1740.55
1014.514	1721.56
1014.807	1699.87
1015.099	1730.83
1015.391	1681.79
1015.683	1694.9
1015.976	1685.41
1016.268	1623.49
1016.56	1664.62
1016.851	1660.32
1017.143	1640.66
1017.435	1625.75
1017.727	1603.38
1018.018	1621.68
1018.31	1620.1
1018.602	1591.17
1018.893	1575.13
1019.185	1575.81
1019.476	1525.64
1019.767	1528.8
1020.058	1508.01
1020.35	1523.15
1020.641	1508.92
1020.932	1517.05
1021.223	1504.4
1021.514	1494
1021.804	1472.53
1022.095	1448.13
1022.386	1465.07
1022.677	1442.25
1022.967	1427.34
1023.258	1423.95
1023.548	1424.62
1023.839	1402.03
1024.129	1392.99
1024.419	1393.89
1024.709	1391.86
1025	1359.09
1025.29	1385.75
1025.58	1363.61
1025.87	1312.54
1026.16	1293.33
1026.449	1303.5
1026.739	1301.46
1027.029	1306.21
1027.319	1338.3
1027.608	1320.45
1027.898	1280.9
1028.187	1286.1
1028.477	1260.33
1028.766	1271.86
1029.055	1264.63
1029.344	1257.85
1029.634	1240.22
1029.923	1216.27
1030.212	1221.24
1030.501	1214.23
1030.79	1204.06
1031.078	1191.18
1031.367	1162.48
1031.656	1158.42
1031.945	1207
1032.233	1159.32
1032.522	1197.96
1032.81	1137.63
1033.099	1161.35
1033.387	1168.59
1033.675	1132.65
1033.963	1107.8
1034.251	1134.01
1034.54	1140.11
1034.828	1115.93
1035.116	1103.73
1035.403	1081.36
1035.691	1051.53
1035.979	1057.18
1036.267	1072.99
1036.554	1045.88
1036.842	1037.97
1037.129	1034.13
1037.417	1047.46
1037.704	1045.2
1037.992	1015.14
1038.279	1019.66
1038.566	999.78
1038.853	999.78
1039.14	999.78
