Data from hue_310_FLMS001491_40.txt Node
Date: Mon Feb 06 15:49:37 GMT 2017
User: dcchb
Spectrometer: FLMS00149
Trigger mode: 0
Integration Time (sec): 2.000000E-2
Scans to average: 10
Electric dark correction enabled: true
Nonlinearity correction enabled: false
Boxcar width: 0
XAxis mode: Wavelengths
Number of Pixels in Spectrum: 2048
>>>>>Begin Spectral Data<<<<<
341.393	-6.61
341.776	-6.61
342.16	-6.61
342.543	-61.3
342.927	-67.4
343.31	-71.24
343.693	-70.11
344.077	-61.52
344.46	-75.08
344.843	-52.71
345.226	-22.43
345.61	-43.45
345.993	-18.59
346.376	11.69
346.759	0.4
347.142	43.78
347.525	40.85
347.908	58.7
348.291	65.03
348.674	108.87
349.057	85.82
349.44	131.47
349.823	138.24
350.206	154.74
350.588	180.5
350.971	217.11
351.354	226.15
351.737	262.54
352.119	248.98
352.502	264.12
352.884	279.26
353.267	267.06
353.65	291.01
354.032	289.43
354.414	312.7
354.797	298.69
355.179	295.75
355.562	307.51
355.944	326.26
356.326	320.16
356.709	334.62
357.091	336.66
357.473	355.87
357.855	339.14
358.238	341.86
358.62	343.44
359.002	348.86
359.384	347.96
359.766	322.42
360.148	341.63
360.53	352.02
360.912	326.94
361.294	339.6
361.676	335.98
362.057	328.97
362.439	327.62
362.821	338.24
363.203	327.84
363.584	315.19
363.966	319.94
364.348	317
364.729	311.12
365.111	306.6
365.493	317
365.874	329.2
366.256	308.41
366.637	314.51
367.019	313.61
367.4	326.26
367.781	322.19
368.163	296.88
368.544	318.35
368.925	302.53
369.306	321.52
369.688	289.65
370.069	332.14
370.45	305.47
370.831	319.03
371.212	313.83
371.593	311.35
371.974	295.98
372.355	323.55
372.736	310.67
373.117	332.82
373.498	329.43
373.879	306.6
374.26	287.62
374.641	307.51
375.021	311.35
375.402	316.32
375.783	311.35
376.163	331.01
376.544	333.27
376.925	325.81
377.305	318.13
377.686	328.97
378.066	333.04
378.447	314.06
378.827	332.14
379.208	339.14
379.588	321.29
379.968	347.28
380.349	332.82
380.729	333.49
381.109	324.91
381.489	326.26
381.87	321.52
382.25	325.58
382.63	336.43
383.01	336.66
383.39	330.78
383.77	333.49
384.15	338.47
384.53	354.28
384.91	347.96
385.29	335.98
385.67	347.05
386.049	354.74
386.429	332.82
386.809	346.38
387.189	343.21
387.568	360.16
387.948	349.99
388.328	358.8
388.707	350.89
389.087	362.65
389.466	356.09
389.846	373.72
390.225	345.7
390.605	358.8
390.984	352.93
391.363	352.93
391.743	376.43
392.122	374.17
392.501	360.39
392.881	384.34
393.26	378.46
393.639	379.14
394.018	373.49
394.397	356.77
394.776	362.19
395.155	379.14
395.534	375.98
395.913	358.35
396.292	401.06
396.671	375.53
397.05	376.43
397.429	391.12
397.808	394.74
398.186	386.37
398.565	406.71
398.944	391.57
399.323	382.08
399.701	401.06
400.08	389.76
400.458	412.81
400.837	425.7
401.215	385.02
401.594	410.33
401.972	411.68
402.351	406.03
402.729	421.4
403.107	427.5
403.486	419.82
403.864	408.52
404.242	422.53
404.62	414.4
404.999	438.12
405.377	443.1
405.755	462.53
406.133	430.67
406.511	424.11
406.889	438.8
407.267	437.67
407.645	447.39
408.023	451.01
408.401	449.88
408.779	479.7
409.156	446.49
409.534	467.73
409.912	456.88
410.29	508.63
410.667	478.12
411.045	492.59
411.422	503.21
411.8	503.89
412.178	526.03
412.555	526.71
412.933	491.91
413.31	520.16
413.687	533.26
414.065	535.97
414.442	545.01
414.819	532.58
415.197	564
415.574	550.44
415.951	559.93
416.328	569.65
416.705	598.57
417.082	585.24
417.46	577.33
417.837	592.02
418.214	609.64
418.591	647.61
418.967	626.14
419.344	632.47
419.721	644.67
420.098	636.08
420.475	651.45
420.852	642.41
421.228	654.84
421.605	660.49
421.982	672.02
422.358	708.17
422.735	685.8
423.111	697.33
423.488	692.13
423.864	700.26
424.241	731.68
424.617	731.68
424.994	723.09
425.37	714.73
425.746	758.12
426.123	767.38
426.499	774.39
426.875	785.91
427.251	786.36
427.627	783.65
428.003	796.76
428.379	817.78
428.756	808.74
429.132	832.69
429.507	848.28
429.883	832.69
430.259	855.06
430.635	854.38
431.011	859.81
431.387	897.32
431.763	869.98
432.138	880.6
432.514	927.6
432.89	915.17
433.265	920.15
433.641	941.39
434.016	988.84
434.392	985.45
434.767	976.87
435.143	953.14
435.518	1002.18
435.894	998.34
436.269	1033.81
436.644	1032.23
437.02	1036.75
437.395	1033.14
437.77	1055.73
438.145	1047.83
438.52	1090.54
438.895	1086.02
439.271	1048.28
439.646	1087.82
440.021	1110.87
440.395	1096.64
440.77	1103.42
441.145	1100.25
441.52	1140.7
441.895	1133.47
442.27	1143.19
442.645	1147.48
443.019	1144.32
443.394	1154.94
443.769	1159.91
444.143	1161.04
444.518	1172.79
444.892	1177.77
445.267	1146.81
445.641	1186.8
446.016	1164.88
446.39	1194.94
446.764	1202.85
447.139	1196.97
447.513	1212.34
447.887	1208.73
448.262	1215.05
448.636	1185.22
449.01	1217.99
449.384	1220.25
449.758	1224.77
450.132	1226.58
450.506	1253.02
450.88	1236.3
451.254	1234.94
451.628	1245.33
452.002	1264.09
452.376	1248.05
452.75	1303.86
453.123	1279.91
453.497	1293.02
453.871	1279.68
454.244	1309.29
454.618	1307.03
454.992	1317.87
455.365	1326.24
455.739	1340.93
456.112	1347.03
456.486	1332.11
456.859	1365.56
457.232	1367.59
457.606	1393.81
457.979	1360.81
458.352	1405.78
458.725	1420.47
459.099	1405.56
459.472	1434.48
459.845	1474.03
460.218	1451.66
460.591	1446.46
460.964	1447.14
461.337	1461.37
461.71	1486.46
462.083	1526.68
462.456	1493.46
462.829	1533.24
463.201	1519.9
463.574	1556.51
463.947	1535.5
464.32	1567.81
464.692	1586.12
465.065	1569.62
465.438	1571.43
465.81	1633.8
466.183	1630.64
466.555	1641.03
466.928	1655.27
467.3	1640.8
467.672	1660.92
468.045	1678.54
468.417	1690.52
468.789	1710.63
469.161	1749.95
469.534	1733.23
469.906	1752.21
470.278	1761.48
470.65	1798.99
471.022	1787.47
471.394	1813.91
471.766	1813.68
472.138	1823.4
472.51	1821.59
472.882	1872.44
473.253	1914.47
473.625	1934.58
473.997	1932.55
474.369	1937.75
474.74	1927.8
475.112	1946.56
475.484	1968.71
475.855	2033.56
476.227	2032.88
476.598	2071.98
476.97	2072.88
477.341	2100
477.713	2127.8
478.084	2115.82
478.455	2172.99
478.827	2196.04
479.198	2236.95
479.569	2223.39
479.94	2288.7
480.311	2291.41
480.682	2345.42
481.053	2334.12
481.424	2354.68
481.795	2386.55
482.166	2400.56
482.537	2418.41
482.908	2422.25
483.279	2430.39
483.65	2503.38
484.021	2517.62
484.391	2530.27
484.762	2562.14
485.133	2549.26
485.503	2557.16
485.874	2629.03
486.244	2642.36
486.615	2678.74
486.985	2673.09
487.356	2721
487.726	2752.87
488.097	2775.24
488.467	2784.05
488.837	2808.68
489.207	2848.23
489.578	2869.7
489.948	2893.65
490.318	2919.87
490.688	2944.27
491.058	2961.45
491.428	3003.03
491.798	3041.9
492.168	3054.55
492.538	3071.28
492.908	3068.56
493.278	3100.65
493.648	3108.56
494.017	3149.47
494.387	3135
494.757	3173.87
495.126	3190.82
495.496	3223.59
495.866	3236.69
496.235	3243.47
496.605	3273.53
496.974	3249.58
497.344	3283.02
497.713	3291.16
498.082	3271.95
498.452	3320.99
498.821	3335.22
499.19	3355.11
499.559	3398.5
499.928	3362.34
500.298	3434.2
500.667	3435.11
501.036	3415.67
501.405	3406.18
501.774	3438.5
502.143	3513.75
502.512	3456.8
502.88	3503.13
503.249	3527.08
503.618	3510.59
503.987	3509.68
504.356	3511.26
504.724	3551.49
505.093	3492.28
505.462	3572.28
505.83	3556.23
506.199	3589
506.567	3634.88
506.936	3594.88
507.304	3627.19
507.672	3593.52
508.041	3632.16
508.409	3664.71
508.777	3664.71
509.145	3660.64
509.514	3716.68
509.882	3724.59
510.25	3767.75
510.618	3741.99
510.986	3724.37
511.354	3754.87
511.722	3791.26
512.09	3777.92
512.458	3767.3
512.826	3826.28
513.193	3837.13
513.561	3796.68
513.929	3824.48
514.297	3811.14
514.664	3856.11
515.032	3847.53
515.4	3837.58
515.767	3886.85
516.135	3927.98
516.502	3866.73
516.869	3946.05
517.237	3962.55
517.604	3898.37
517.972	3937.47
518.339	3974.75
518.706	3936.79
519.073	3968.65
519.44	3991.25
519.808	4014.53
520.175	3956.45
520.542	4012.95
520.909	4030.57
521.276	4033.96
521.643	4041.65
522.009	4014.53
522.376	4087.52
522.743	4087.07
523.11	4124.81
523.477	4160.74
523.843	4131.13
524.21	4141.53
524.577	4179.72
524.943	4144.69
525.31	4260.17
525.676	4220.17
526.043	4257.23
526.409	4267.18
526.776	4303.33
527.142	4248.19
527.508	4293.16
527.874	4330.9
528.241	4359.38
528.607	4381.07
528.973	4418.81
529.339	4405.7
529.705	4430.56
530.071	4468.98
530.437	4464.46
530.803	4470.79
531.169	4550.56
531.535	4506.27
531.901	4537.68
532.267	4554.17
532.632	4516.21
532.998	4607.51
533.364	4620.39
533.73	4616.32
534.095	4692.93
534.461	4684.57
534.826	4725.47
535.192	4639.14
535.557	4738.8
535.923	4711.46
536.288	4710.55
536.653	4791.68
537.019	4810.66
537.384	4813.83
537.749	4864.45
538.114	4847.5
538.479	4816.31
538.845	4910.32
539.21	4824.68
539.575	4888.4
539.94	4902.64
540.305	4973.6
540.67	4974.95
541.034	4965.24
541.399	4986.03
541.764	5032.13
542.129	5064.9
542.494	5082.52
542.858	5091.34
543.223	5155.74
543.587	5133.59
543.952	5150.77
544.316	5153.48
544.681	5173.82
545.045	5201.16
545.41	5200.71
545.774	5255.62
546.138	5280.71
546.503	5261.27
546.867	5300.14
547.231	5350.76
547.595	5328.62
547.959	5408.39
548.324	5355.73
548.688	5373.36
549.052	5426.69
549.416	5408.16
549.779	5420.82
550.143	5492.23
550.507	5469.63
550.871	5475.73
551.235	5459.91
551.599	5531.78
551.962	5512.11
552.326	5566.58
552.689	5589.63
553.053	5522.96
553.417	5524.32
553.78	5660.59
554.143	5632.56
554.507	5623.07
554.87	5685.67
555.234	5779
555.597	5729.28
555.96	5743.52
556.323	5706.23
556.686	5750.07
557.05	5787.81
557.413	5797.98
557.776	5781.71
558.139	5799.34
558.502	5843.63
558.865	5824.88
559.228	5908.49
559.59	5876.85
559.953	5871.43
560.316	5965.21
560.679	5962.5
561.041	5987.81
561.404	6026.9
561.767	6011.76
562.129	6042.27
562.492	6116.84
562.854	6026.45
563.217	6094.92
563.579	6101.7
563.941	6075.04
564.304	6128.37
564.666	6161.82
565.028	6140.57
565.39	6203.85
565.753	6207.46
566.115	6240.68
566.477	6255.82
566.839	6291.3
567.201	6317.97
567.563	6321.59
567.925	6376.95
568.287	6339.66
568.648	6402.04
569.01	6423.28
569.372	6458.53
569.734	6479.1
570.095	6523.16
570.457	6512.99
570.819	6534.01
571.18	6533.11
571.542	6587.34
571.903	6632.99
572.265	6672.08
572.626	6724.51
572.987	6673.89
573.349	6810.39
573.71	6781.91
574.071	6886.54
574.432	6912.98
574.794	6997.27
575.155	6964.96
575.516	7013.54
575.877	7045.63
576.238	7141.68
576.599	7191.84
576.96	7311.39
577.32	7339.19
577.681	7385.06
578.042	7452.63
578.403	7544.6
578.763	7602.91
579.124	7736.46
579.485	7861.43
579.845	7922.22
580.206	8039.96
580.566	8052.61
580.927	8232.95
581.287	8388.2
581.648	8497.12
582.008	8590.45
582.368	8733.95
582.728	8841.74
583.089	8975.53
583.449	9144.56
583.809	9344.56
584.169	9468.85
584.529	9592.01
584.889	9830.42
585.249	9933.47
585.609	10180.47
585.969	10360.8
586.329	10557.86
586.688	10813.44
587.048	11040.78
587.408	11175.92
587.768	11360.55
588.127	11633.99
588.487	11821.78
588.846	12101.77
589.206	12332.27
589.565	12576.79
589.925	12812.94
590.284	13072.82
590.643	13392.59
591.003	13649.98
591.362	13933.59
591.721	14206.12
592.08	14432.11
592.44	14773.57
592.799	15076.84
593.158	15271.18
593.517	15584.84
593.876	15850.37
594.235	16122.46
594.593	16357.48
594.952	16748.88
595.311	16899.84
595.67	17343.67
596.029	17669.99
596.387	18021.84
596.746	18238.79
597.104	18531.21
597.463	18820.24
597.822	19147.91
598.18	19415.48
598.538	19623.61
598.897	20095.91
599.255	20188.34
599.613	20908.09
599.972	20908.77
600.33	21274.41
600.688	21411.81
601.046	21848.41
601.404	22162.3
601.762	22391.22
602.12	22783.98
602.478	23028.49
602.836	23182.84
603.194	23424.19
603.552	23753.67
603.91	23953.44
604.268	24370.38
604.625	24571.95
604.983	24769.01
605.341	24954.77
605.698	25425.72
606.056	25559.95
606.413	25775.08
606.771	26152.02
607.128	26400.83
607.485	26487.61
607.843	26689.86
608.2	27109.51
608.557	27333.01
608.914	27444.42
609.272	27771.87
609.629	28020.22
609.986	28230.84
610.343	28377.5
610.7	28772.07
611.057	28777.94
611.414	28962.8
611.771	29302.45
612.127	29530.01
612.484	29685.94
612.841	29888.42
613.198	29911.7
613.554	30183.33
613.911	30337.45
614.267	30595.07
614.624	30823.77
614.98	30931.11
615.337	31180.14
615.693	31354.83
616.05	31457.87
616.406	31643.86
616.762	31708.94
617.118	31950.29
617.475	31957.52
617.831	32296.72
618.187	32405.65
618.543	32575.81
618.899	32817.61
619.255	32841.34
619.611	33031.39
619.967	33254.44
620.323	33400.42
620.678	33227.54
621.034	33347.32
621.39	33641.09
621.746	33668.21
622.101	34057.58
622.457	33948.2
622.812	34006.28
623.168	34208.31
623.523	34245.6
623.879	34502.09
624.234	34269.55
624.589	34478.58
624.945	34649.88
625.3	34675.42
625.655	34774.62
626.01	34878.12
626.365	34870.67
626.72	34955.41
627.075	35107.04
627.43	34987.72
627.785	35020.94
628.14	35126.48
628.495	35429.75
628.85	35167.38
629.205	35299.81
629.559	35482.63
629.914	35367.15
630.269	35588.61
630.623	35454.15
630.978	35411.44
631.332	35654.37
631.687	35744.77
632.041	35690.3
632.396	35739.57
632.75	35629.06
633.104	35794.93
633.459	35469.97
633.813	35636.29
634.167	35691.43
634.521	35638.55
634.875	35733.69
635.229	35728.5
635.583	35683.3
635.937	35784.09
636.291	35651.21
636.645	35770.98
636.999	35715.16
637.352	35828.38
637.706	35695.05
638.06	35956.29
638.413	35812.11
638.767	35673.36
639.121	35744.54
639.474	35648.05
639.828	35711.77
640.181	35569.18
640.534	35723.98
640.888	35618.89
641.241	35626.13
641.594	35615.5
641.947	35710.42
642.301	35588.84
642.654	35707.03
643.007	35601.04
643.36	35563.53
643.713	35584.09
644.066	35798.1
644.419	35628.61
644.771	35387.94
645.124	35088.06
645.477	35050.1
645.83	34782.31
646.182	34818.69
646.535	34485.14
646.888	34834.28
647.24	34475.65
647.593	34693.49
647.945	34776.2
648.298	34494.63
648.65	34502.09
649.002	34386.61
649.355	34622.54
649.707	34484.46
650.059	34731.69
650.411	35039.47
650.763	35004.9
651.115	35328.51
651.467	35307.72
651.819	35446.92
652.171	35206.48
652.523	35203.76
652.875	35234.05
653.227	35039.25
653.578	35272.01
653.93	35254.84
654.282	35136.42
654.633	35051.9
654.985	35182.97
655.337	34991.34
655.688	35108.17
656.039	35333.03
656.391	34992.47
656.742	35014.39
657.094	35094.84
657.445	35203.31
657.796	34956.76
658.147	35072.02
658.498	34988.85
658.849	35100.49
659.2	35019.14
659.551	34956.09
659.902	35062.3
660.253	35064.11
660.604	35098
660.955	34893.26
661.306	35120.6
661.656	35002.64
662.007	35082.64
662.358	34831.34
662.708	34965.58
663.059	34924.45
663.409	34857.33
663.76	34879.25
664.11	34916.54
664.461	35043.54
664.811	34974.17
665.161	34992.47
665.511	34818.01
665.862	34923.77
666.212	34954.96
666.562	35020.27
666.912	34867.05
667.262	34845.58
667.612	34920.61
667.962	34845.58
668.312	34792.02
668.662	34988.18
669.011	34908.18
669.361	34788.41
669.711	34901.4
670.06	34872.47
670.41	34615.76
670.76	34821.4
671.109	34844.23
671.459	34744.11
671.808	34808.07
672.157	34792.02
672.507	34607.62
672.856	34543.44
673.205	34575.08
673.554	34766.49
673.904	34620.73
674.253	34686.49
674.602	34616.43
674.951	34191.36
675.3	33873.86
675.649	34496.66
675.998	34484.91
676.346	34504.35
676.695	34624.57
677.044	34246.5
677.393	34465.7
677.741	34493.73
678.09	34359.94
678.438	34356.33
678.787	34512.03
679.135	34423.22
679.484	34004.02
679.832	34366.05
680.181	34005.6
680.529	34263.45
680.877	34113.62
681.225	33999.05
681.573	34284.92
681.922	34067.3
682.27	33937.36
682.618	33963.12
682.966	33907.98
683.314	33963.12
683.661	33894.19
684.009	33790.92
684.357	33643.58
684.705	33459.4
685.053	33703.46
685.4	33559.74
685.748	33339.41
686.095	33380.53
686.443	33317.94
686.79	33272.06
687.138	33413.3
687.485	33451.49
687.832	33235.91
688.18	33162.69
688.527	33125.4
688.874	33044.95
689.221	32969.92
689.568	32961.79
689.915	32892.64
690.262	32957.04
690.609	32809.93
690.956	32582.82
691.303	32639.54
691.65	32488.35
691.997	32483.38
692.344	32228.02
692.69	32285.65
693.037	32248.14
693.383	31897.86
693.73	32174.46
694.077	31902.16
694.423	32017.86
694.769	31812.89
695.116	31686.79
695.462	31698.77
695.808	31417.42
696.155	31610.86
696.501	31313.92
696.847	31444.99
697.193	31251.78
697.539	31224.66
697.885	31166.13
698.231	31050.65
698.577	31015.63
698.923	30902.18
699.269	30874.61
699.614	30661.96
699.96	30605.24
700.306	30663.54
700.651	30542.42
700.997	30363.89
701.342	30244.8
701.688	30302.88
702.033	30200.73
702.379	30256.55
702.724	30053.39
703.069	30247.06
703.415	29742.66
703.76	29874.64
704.105	29792.15
704.45	29749.9
704.795	29567.53
705.14	29551.26
705.485	29584.02
705.83	29483.69
706.175	29464.03
706.52	29377.48
706.865	29247.99
707.209	29137.71
707.554	29035.34
707.899	29172.28
708.243	29022.91
708.588	29026.3
708.932	28887.77
709.277	28811.16
709.621	28866.76
709.966	28611.39
710.31	28794.89
710.654	28504.96
710.998	28579.76
711.342	28529.36
711.687	28406.88
712.031	28319.88
712.375	28208.47
712.719	28201.91
713.063	28106.1
713.407	28271.74
713.75	28119.2
714.094	28166.21
714.438	27999.21
714.782	27901.81
715.125	27851.19
715.469	27909.72
715.812	27734.13
716.156	27591.76
716.499	27587.92
716.843	27698.2
717.186	27469.28
717.53	27579.33
717.873	27724.64
718.216	27438.32
718.559	27414.59
718.902	27200.58
719.246	27279.45
719.589	27181.38
719.932	27077.88
720.275	27212.79
720.617	26994.71
720.96	26972.57
721.303	26976.18
721.646	27099.12
721.989	26855.06
722.331	26912.91
722.674	26819.35
723.016	26812.57
723.359	26684.21
723.701	26652.58
724.044	26643.54
724.386	26434.95
724.729	26551.34
725.071	26474.05
725.413	26429.08
725.755	26458
726.097	26349.53
726.439	26361.28
726.782	26197.22
727.124	26313.15
727.465	26170.1
727.807	26210.33
728.149	26116.09
728.491	26103.44
728.833	26078.81
729.175	26094.4
729.516	25927.62
729.858	25860.28
730.199	25928.53
730.541	25933.95
730.882	25839.49
731.224	25900.96
731.565	25701.19
731.906	25677.01
732.248	25791.58
732.589	25477.92
732.93	25467.52
733.271	25504.36
733.612	25502.1
733.953	25585.94
734.294	25304.36
734.635	25455.55
734.976	25562.89
735.317	25358.15
735.658	25210.81
735.999	25325.38
736.339	25232.95
736.68	25342.78
737.021	25271.82
737.361	25098.04
737.702	25258.26
738.042	25131.26
738.383	24948.67
738.723	25077.02
739.063	24926.97
739.404	24969.23
739.744	25005.16
740.084	24835.67
740.424	24850.82
740.764	24766.75
741.104	24833.64
741.444	24690.59
741.784	24644.72
742.124	24668
742.464	24710.93
742.804	24630.03
743.143	24485.63
743.483	24460.32
743.823	24454.22
744.162	24420.32
744.502	24357.27
744.841	24356.82
745.181	24400.43
745.52	24220.55
745.86	24199.99
746.199	24216.03
746.538	24168.57
746.877	24220.32
747.216	24196.14
747.556	24052.87
747.895	24098.97
748.234	23988.92
748.573	23961.35
748.911	24000.67
749.25	24050.61
749.589	23823.95
749.928	23833.22
750.267	23837.96
750.605	23775.14
750.944	23724.07
751.283	23620.79
751.621	23633.22
751.96	23469.83
752.298	23537.86
752.636	23455.82
752.975	23354.81
753.313	23342.83
753.651	23454.47
753.989	23176.96
754.327	23267.35
754.666	23217.19
755.004	23021.94
755.342	23183.51
755.679	23129.28
756.017	22981.94
756.355	23056.06
756.693	22859.91
757.031	22920.7
757.368	22889.74
757.706	22794.37
758.044	22738.1
758.381	22764.99
758.719	22557.09
759.056	22695.62
759.394	22439.13
759.731	22454.95
760.068	22412.01
760.405	22279.13
760.743	22296.76
761.08	22299.24
761.417	22105.12
761.754	22037.56
762.091	22036.2
762.428	21995.52
762.765	21786.94
763.102	21899.93
763.438	21713.27
763.775	21676.89
764.112	21634.85
764.449	21745.36
764.785	21539.94
765.122	21380.4
765.458	21162.1
765.795	21267.41
766.131	21281.42
766.467	21168.88
766.804	21069.45
767.14	20897.7
767.476	20990.58
767.812	20884.14
768.148	20915.78
768.485	20838.72
768.821	20647.76
769.157	20581.1
769.492	20626.97
769.828	20535.45
770.164	20344.27
770.5	20318.96
770.836	20253.87
771.171	20216.36
771.507	20151.73
771.842	20053.43
772.178	19974.79
772.513	19974.79
772.849	19880.55
773.184	19892.53
773.519	19884.39
773.855	19735.7
774.19	19646.66
774.525	19591.97
774.86	19618.86
775.195	19461.8
775.53	19425.2
775.865	19327.57
776.2	19279.21
776.535	19177.29
776.87	19011.87
777.205	18882.16
777.539	18967.81
777.874	18966.68
778.209	18752.67
778.543	18729.17
778.878	18616.63
779.212	18662.96
779.547	18554.48
779.881	18576.63
780.215	18388.61
780.55	18365.34
780.884	18256.86
781.218	18291.44
781.552	18298.45
781.886	18125.79
782.22	18095.29
782.554	18018.68
782.888	17889.87
783.222	17775.3
783.556	17701.4
783.889	17697.56
784.223	17562.87
784.557	17506.83
784.89	17591.35
785.224	17442.42
785.557	17317.91
785.891	17279.72
786.224	17304.35
786.558	17215.76
786.891	17134.41
787.224	16990.23
787.557	17041.53
787.891	16978.93
788.224	16978.93
788.557	16884.25
788.89	16850.8
789.223	16796.11
789.556	16621.2
789.888	16574.2
790.221	16529.45
790.554	16404.26
790.887	16509.57
791.219	16296.92
791.552	16298.05
791.884	16220.08
792.217	16158.39
792.549	16149.12
792.882	16045.85
793.214	16038.84
793.546	16016.7
793.879	15841.56
794.211	15809.25
794.543	15867.77
794.875	15711.17
795.207	15855.12
795.539	15652.64
795.871	15719.53
796.203	15537.61
796.535	15491.06
796.867	15368.8
797.198	15367.9
797.53	15349.82
797.862	15290.61
798.193	15302.37
798.525	15275.47
798.856	15208.81
799.188	15002.94
799.519	14993
799.85	14838.88
800.182	14953.67
800.513	14958.65
800.844	14775.83
801.175	14930.85
801.506	14865.77
801.837	14762.04
802.168	14727.24
802.499	14644.98
802.83	14611.76
803.161	14617.86
803.491	14568.6
803.822	14520.69
804.153	14458.55
804.483	14380.58
804.814	14270.75
805.145	14334.26
805.475	14289.96
805.805	14177.2
806.136	14167.48
806.466	14146.92
806.796	14100.59
807.126	14003.64
807.457	13969.52
807.787	14007.03
808.117	13882.52
808.447	13892.46
808.777	13898.34
809.107	13877.54
809.436	13780.37
809.766	13812.46
810.096	13713.03
810.426	13644.56
810.755	13719.58
811.085	13653.37
811.414	13656.99
811.744	13517.55
812.073	13391.91
812.403	13495.41
812.732	13292.7
813.061	13362.98
813.39	13327.28
813.719	13338.8
814.049	13371.34
814.378	13271.01
814.707	13191.46
815.036	13190.33
815.365	13108.07
815.693	13048.64
816.022	13089.77
816.351	12943.56
816.68	12953.5
817.008	12927.29
817.337	12798.48
817.665	12764.81
817.994	12898.14
818.322	12866.27
818.651	12764.81
818.979	12761.87
819.307	12811.81
819.636	12694.3
819.964	12678.48
820.292	12694.98
820.62	12710.34
820.948	12656.56
821.276	12607.52
821.604	12601.65
821.932	12647.52
822.259	12691.59
822.587	12614.3
822.915	12564.81
823.243	12685.71
823.57	12594.19
823.898	12568.65
824.225	12583.12
824.553	12498.82
824.88	12516.68
825.207	12570.46
825.535	12473.06
825.862	12628.54
826.189	12527.98
826.516	12598.48
826.843	12588.77
827.17	12625.6
827.497	12573.62
827.824	12524.81
828.151	12616.11
828.478	12565.94
828.805	12512.16
829.131	12558.94
829.458	12524.13
829.785	12444.59
830.111	12517.35
830.438	12544.92
830.764	12489.56
831.09	12612.04
831.417	12485.72
831.743	12474.87
832.069	12567.52
832.395	12416.57
832.722	12485.72
833.048	12424.48
833.374	12457.24
833.7	12437.58
834.026	12450.01
834.351	12420.18
834.677	12346.96
835.003	12464.25
835.329	12376.34
835.654	12408.43
835.98	12295.44
836.306	12353.52
836.631	12252.73
836.956	12295.21
837.282	12344.7
837.607	12223.12
837.932	12227.42
838.258	12160.08
838.583	12136.35
838.908	12120.3
839.233	12163.69
839.558	12116.01
839.883	11981.78
840.208	12077.37
840.533	12036.01
840.858	12020.87
841.182	12062
841.507	12049.12
841.832	11936.35
842.156	11894.32
842.481	11911.27
842.805	11900.87
843.13	11775.45
843.454	11839.18
843.778	11771.39
844.103	11770.93
844.427	11669.24
844.751	11680.54
845.075	11690.26
845.399	11626.3
845.723	11608
846.047	11591.73
846.371	11463.37
846.695	11497.72
847.019	11430.6
847.343	11422.24
847.666	11299.76
847.99	11278.29
848.313	11287.1
848.637	11169.59
848.96	11165.53
849.284	11126.2
849.607	11033.1
849.931	11019.77
850.254	10927.34
850.577	10891.41
850.9	10859.32
851.223	10789.94
851.546	10849.6
851.869	10780
852.192	10835.82
852.515	10616.39
852.838	10548.82
853.161	10582.94
853.483	10593.11
853.806	10524.19
854.129	10477.41
854.451	10380.46
854.774	10379.11
855.096	10362.38
855.419	10409.84
855.741	10300.46
856.063	10283.06
856.385	10270.18
856.708	10134.59
857.03	10151.54
857.352	10148.15
857.674	10150.19
857.996	10097.98
858.318	10086.68
858.64	10071.54
858.961	9973.92
859.283	9913.36
859.605	9956.07
859.926	9945.9
860.248	9878.55
860.57	9914.26
860.891	9836.97
861.212	9806.69
861.534	9750.2
861.855	9696.64
862.176	9762.4
862.498	9779.35
862.819	9724.21
863.14	9720.82
863.461	9645.57
863.782	9614.38
864.103	9640.59
864.424	9643.31
864.745	9630.88
865.065	9584.32
865.386	9553.82
865.707	9495.06
866.027	9568.51
866.348	9519.69
866.668	9474.04
866.989	9522.63
867.309	9467.04
867.63	9421.62
867.95	9413.71
868.27	9342.75
868.59	9440.83
868.91	9404.89
869.23	9399.24
869.55	9306.82
869.87	9335.97
870.19	9298.46
870.51	9292.58
870.83	9297.1
871.15	9220.04
871.469	9256.88
871.789	9256.2
872.109	9225.01
872.428	9225.69
872.748	9194.28
873.067	9184.56
873.386	9213.26
873.706	9192.92
874.025	9098.91
874.344	9103.43
874.663	9109.99
874.982	9109.08
875.301	9100.04
875.62	8997.67
875.939	9045.13
876.258	9020.5
876.577	9034.28
876.896	8969.65
877.214	8948.63
877.533	8941.18
877.852	8966.71
878.17	9000.84
878.489	8948.63
878.807	8932.59
879.125	8907.05
879.444	8896.66
879.762	8816.66
880.08	8869.31
880.398	8795.64
880.716	8773.72
881.034	8723.33
881.352	8782.31
881.67	8735.53
881.988	8751.8
882.306	8764.01
882.624	8731.47
882.941	8655.54
883.259	8708.64
883.577	8613.28
883.894	8626.38
884.212	8619.6
884.529	8561.3
884.846	8561.07
885.164	8543
885.481	8534.86
885.798	8477.01
886.115	8416.45
886.432	8469.55
886.75	8387.52
887.067	8472.94
887.383	8374.41
887.7	8378.71
888.017	8390.46
888.334	8353.17
888.651	8311.14
888.967	8311.82
889.284	8307.97
889.6	8306.39
889.917	8189.33
890.233	8185.94
890.55	8095.55
890.866	8140.29
891.182	8168.99
891.498	8140.52
891.815	8081.99
892.131	8053.52
892.447	7988.43
892.763	7953.41
893.079	8046.51
893.395	7968.55
893.71	7961.09
894.026	7988.21
894.342	7888.55
894.657	7793.64
894.973	7829.79
895.289	7830.02
895.604	7809.91
895.92	7811.49
896.235	7711.15
896.55	7804.94
896.865	7778.04
897.181	7691.27
897.496	7694.2
897.811	7611.49
898.126	7617.37
898.441	7574.89
898.756	7575.11
899.071	7536.92
899.386	7506.19
899.7	7481.33
900.015	7437.49
900.33	7369.02
900.644	7362.24
900.959	7351.39
901.273	7321.11
901.588	7283.37
901.902	7292.41
902.216	7291.5
902.531	7213.99
902.845	7187.1
903.159	7215.8
903.473	7107.33
903.787	7099.19
904.101	7057.16
904.415	7064.84
904.729	7019.87
905.042	7016.71
905.356	6977.16
905.67	6936.71
905.984	7007.89
906.297	6950.04
906.611	6884.73
906.924	6907.11
907.237	6835.02
907.551	6810.16
907.864	6789.82
908.177	6771.97
908.491	6762.25
908.804	6724.74
909.117	6646.55
909.43	6630.73
909.743	6627.34
910.056	6622.14
910.368	6649.94
910.681	6563.84
910.994	6482.26
911.307	6501.69
911.619	6482.94
911.932	6515.93
912.244	6417.63
912.557	6409.49
912.869	6324.3
913.181	6308.25
913.494	6367.91
913.806	6258.08
914.118	6276.84
914.43	6244.07
914.742	6197.29
915.054	6176.96
915.366	6213.34
915.678	6130.18
915.99	6125.43
916.302	6069.61
916.613	6020.58
916.925	6067.81
917.236	6045.43
917.548	6006.11
917.859	5956.4
918.171	5955.27
918.482	5995.94
918.794	5870.98
919.105	5888.83
919.416	5852.9
919.727	5836.4
920.038	5758.21
920.349	5791.66
920.66	5748.04
920.971	5702.84
921.282	5721.15
921.593	5603.86
921.903	5675.95
922.214	5648.38
922.525	5595.28
922.835	5559.8
923.146	5573.36
923.456	5528.84
923.767	5522.51
924.077	5504.88
924.387	5449.97
924.697	5419.91
925.008	5468.73
925.318	5448.39
925.628	5406.13
925.938	5401.61
926.248	5330.88
926.558	5300.14
926.867	5294.04
927.177	5265.34
927.487	5242.29
927.796	5246.81
928.106	5169.75
928.416	5208.62
928.725	5149.19
929.034	5160.26
929.344	5114.16
929.653	5182.86
929.962	5070.32
930.271	4985.8
930.581	5026.25
930.89	4988.74
931.199	4975.18
931.508	5032.35
931.817	4958.23
932.125	4958.91
932.434	4899.7
932.743	4883.43
933.051	4833.04
933.36	4845.01
933.669	4791.91
933.977	4796.88
934.286	4786.03
934.594	4795.3
934.902	4710.78
935.21	4695.41
935.519	4704.23
935.827	4692.48
936.135	4630.1
936.443	4593.72
936.751	4619.26
937.059	4589.88
937.367	4612.7
937.674	4590.56
937.982	4560.73
938.29	4558.47
938.597	4507.85
938.905	4436.21
939.213	4478.92
939.52	4442.76
939.827	4423.78
940.135	4436.66
940.442	4355.08
940.749	4348.53
941.056	4397.12
941.363	4334.74
941.67	4340.62
941.977	4302.2
942.284	4285.03
942.591	4243
942.898	4251.58
943.205	4255.65
943.511	4170
943.818	4227.4
944.125	4147.86
944.431	4167.07
944.738	4131.81
945.044	4159.16
945.35	4112.6
945.657	4091.14
945.963	4074.64
946.269	4048.42
946.575	4033.74
946.881	4032.83
947.187	4012.72
947.493	4014.3
947.799	3982.66
948.105	3986.05
948.41	3899.95
948.716	3887.98
949.022	3900.63
949.327	3883.01
949.633	3873.51
949.938	3895.21
950.244	3848.88
950.549	3830.8
950.854	3830.35
951.16	3786.96
951.465	3733.18
951.77	3712.16
952.075	3750.81
952.38	3710.35
952.685	3702.67
952.99	3667.42
953.294	3681.88
953.599	3638.72
953.904	3649.34
954.209	3585.61
954.513	3588.78
954.818	3584.26
955.122	3558.95
955.426	3580.41
955.731	3526.86
956.035	3531.15
956.339	3483.47
956.643	3489.34
956.948	3492.28
957.252	3455.22
957.556	3446.18
957.86	3469.46
958.163	3414.77
958.467	3435.33
958.771	3391.72
959.075	3383.81
959.378	3365.96
959.682	3382.91
959.985	3353.3
960.289	3334.55
960.592	3285.51
960.896	3304.49
961.199	3269.01
961.502	3256.13
961.805	3247.99
962.108	3213.87
962.411	3268.33
962.714	3184.04
963.017	3197.6
963.32	3182.01
963.623	3185.17
963.926	3194.89
964.228	3168.67
964.531	3146.98
964.833	3094.55
965.136	3127.32
965.438	3081.22
965.741	3099.97
966.043	3066.08
966.345	3061.56
966.648	3048.45
966.95	3051.61
967.252	2994.67
967.554	3031.95
967.856	2990.37
968.158	2987.66
968.46	2988.11
968.761	2937.95
969.063	2926.65
969.365	2941.79
969.666	2899.98
969.968	2881.9
970.269	2896.14
970.571	2887.33
970.872	2851.39
971.174	2878.51
971.475	2848.46
971.776	2842.81
972.077	2793.54
972.378	2824.05
972.679	2804.39
972.98	2777.27
973.281	2772.98
973.582	2761.68
973.883	2727.78
974.183	2751.06
974.484	2743.37
974.785	2696.37
975.085	2720.55
975.386	2699.76
975.686	2685.3
975.986	2662.02
976.287	2709.7
976.587	2649.59
976.887	2632.42
977.187	2629.7
977.487	2610.5
977.787	2578.63
978.087	2572.31
978.387	2555.58
978.687	2604.39
978.987	2505.41
979.286	2535.24
979.586	2525.3
979.885	2527.11
980.185	2476.26
980.484	2487.56
980.784	2504.74
981.083	2494.34
981.382	2457.28
981.682	2440.56
981.981	2419.77
982.28	2412.99
982.579	2431.97
982.878	2397.85
983.177	2378.86
983.475	2415.7
983.774	2403.72
984.073	2352.88
984.372	2360.33
984.67	2357.17
984.969	2342.93
985.267	2345.87
985.566	2336.38
985.864	2303.84
986.162	2325.98
986.461	2265.42
986.759	2281.47
987.057	2240.79
987.355	2243.5
987.653	2216.16
987.951	2235.14
988.249	2226.55
988.547	2251.86
988.844	2190.85
989.142	2199.89
989.44	2185.2
989.737	2175.71
990.035	2171.86
990.332	2183.61
990.63	2170.73
990.927	2143.16
991.224	2142.94
991.521	2120.34
991.819	2101.36
992.116	2117.63
992.413	2114.24
992.71	2091.87
993.006	2053
993.303	2044.64
993.6	2066.78
993.897	2064.07
994.193	2058.19
994.49	2041.92
994.787	2008.93
995.083	2015.48
995.379	2010.51
995.676	2003.28
995.972	2011.64
996.268	1975.03
996.565	1956.73
996.861	1945.2
997.157	1962.6
997.453	1927.58
997.749	1907.01
998.044	1918.09
998.34	1921.7
998.636	1884.87
998.932	1900.91
999.227	1864.08
999.523	1854.58
999.818	1836.96
1000.114	1840.35
1000.409	1829.95
1000.704	1806.22
1001	1821.59
1001.295	1817.07
1001.59	1817.75
1001.885	1792.44
1002.18	1777.98
1002.475	1768.03
1002.77	1774.81
1003.065	1754.7
1003.359	1753.34
1003.654	1742.72
1003.949	1748.15
1004.243	1721.03
1004.538	1716.96
1004.832	1698.66
1005.127	1714.02
1005.421	1704.08
1005.715	1690.29
1006.009	1662.5
1006.304	1662.72
1006.598	1620.69
1006.892	1636.51
1007.186	1606.45
1007.48	1633.35
1007.773	1615.27
1008.067	1618.43
1008.361	1582.73
1008.655	1578.21
1008.948	1599.68
1009.242	1580.24
1009.535	1558.77
1009.829	1549.73
1010.122	1535.5
1010.415	1538.43
1010.708	1528.04
1011.001	1542.73
1011.295	1497.76
1011.588	1503.18
1011.881	1486.46
1012.173	1478.32
1012.466	1466.35
1012.759	1491.43
1013.052	1477.19
1013.344	1465.22
1013.637	1435.84
1013.93	1436.52
1014.222	1457.31
1014.514	1448.94
1014.807	1412.11
1015.099	1416.63
1015.391	1412.79
1015.683	1410.53
1015.976	1401.71
1016.268	1382.05
1016.56	1371.88
1016.851	1335.73
1017.143	1336.18
1017.435	1371.88
1017.727	1352.45
1018.018	1327.14
1018.31	1317.87
1018.602	1308.61
1018.893	1303.41
1019.185	1280.59
1019.476	1270.42
1019.767	1320.13
1020.058	1252.57
1020.35	1268.84
1020.641	1246.92
1020.932	1260.7
1021.223	1225.45
1021.514	1234.94
1021.804	1224.54
1022.095	1212.57
1022.386	1201.04
1022.677	1179.8
1022.967	1183.19
1023.258	1182.06
1023.548	1186.8
1023.839	1188.39
1024.129	1164.88
1024.419	1140.93
1024.709	1131.21
1025	1145.45
1025.29	1137.99
1025.58	1107.26
1025.87	1127.15
1026.16	1110.65
1026.449	1106.58
1026.739	1086.92
1027.029	1074.04
1027.319	1083.08
1027.608	1079.46
1027.898	1055.73
1028.187	1089.41
1028.477	1042.63
1028.766	1063.64
1029.055	1050.09
1029.344	1045.11
1029.634	1045.11
1029.923	1021.39
1030.212	995.62
1030.501	1029.75
1030.79	1008.28
1031.078	1004.66
1031.367	1005.79
1031.656	996.53
1031.945	995.4
1032.233	963.08
1032.522	962.63
1032.81	967.6
1033.099	978.67
1033.387	964.21
1033.675	964.66
1033.963	941.84
1034.251	936.87
1034.54	933.03
1034.828	931.44
1035.116	912.91
1035.403	935.29
1035.691	926.02
1035.979	906.81
1036.267	910.2
1036.554	908.85
1036.842	894.16
1037.129	886.93
1037.417	897.32
1037.704	905.91
1037.992	857.55
1038.279	865.91
1038.566	854.61
1038.853	854.61
1039.14	854.61
