Data from hue_260_FLMS001491_00089.txt Node
Date: Tue Feb 07 15:59:43 GMT 2017
User: dcchb
Spectrometer: FLMS00149
Trigger mode: 0
Integration Time (sec): 2.000000E-2
Scans to average: 10
Electric dark correction enabled: true
Nonlinearity correction enabled: false
Boxcar width: 0
XAxis mode: Wavelengths
Number of Pixels in Spectrum: 2048
>>>>>Begin Spectral Data<<<<<
341.393	-16.77
341.776	-16.77
342.16	-16.77
342.543	-44.79
342.927	-73.26
343.31	-77.33
343.693	-72.81
344.077	-51.79
344.46	-65.13
344.843	-29.19
345.226	-41.17
345.61	-26.93
345.993	-3.66
346.376	-12.47
346.759	10.58
347.142	26.17
347.525	26.85
347.908	58.94
348.291	71.14
348.674	62.1
349.057	124.7
349.44	133.06
349.823	121.08
350.206	154.76
350.588	183.46
350.971	204.02
351.354	204.25
351.737	237.69
352.119	245.6
352.502	250.8
352.884	251.02
353.267	271.59
353.65	292.38
354.032	285.6
354.414	291.48
354.797	307.29
355.179	307.97
355.562	303.45
355.944	332.38
356.326	317.46
356.709	317.69
357.091	336.45
357.473	344.81
357.855	349.1
358.238	349.78
358.62	317.24
359.002	343.45
359.384	332.15
359.766	316.33
360.148	317.46
360.53	334.64
360.912	336.45
361.294	328.99
361.676	328.54
362.057	318.37
362.439	320.4
362.821	330.57
363.203	305.26
363.584	304.58
363.966	316.33
364.348	323.56
364.729	299.38
365.111	319.95
365.493	317.01
365.874	297.35
366.256	317.24
366.637	283.79
367.019	305.71
367.4	306.39
367.781	289.44
368.163	316.11
368.544	308.2
368.925	294.64
369.306	304.58
369.688	315.88
370.069	312.72
370.45	311.14
370.831	327.41
371.212	299.61
371.593	309.33
371.974	312.04
372.355	328.99
372.736	308.2
373.117	313.62
373.498	308.42
373.879	286.05
374.26	276.11
374.641	305.26
375.021	305.49
375.402	296.45
375.783	303.9
376.163	320.4
376.544	299.84
376.925	319.72
377.305	311.81
377.686	300.06
378.066	295.32
378.447	331.02
378.827	316.33
379.208	316.33
379.588	325.15
379.968	304.36
380.349	316.11
380.729	337.8
381.109	333.96
381.489	329.89
381.87	302.77
382.25	313.85
382.63	318.37
383.01	331.47
383.39	334.64
383.77	327.86
384.15	341.87
384.53	334.64
384.91	335.77
385.29	353.62
385.67	343.23
386.049	346.62
386.429	348.2
386.809	345.26
387.189	357.24
387.568	355.2
387.948	353.62
388.328	342.1
388.707	364.24
389.087	368.99
389.466	371.02
389.846	350.68
390.225	340.74
390.605	348.88
390.984	354.75
391.363	341.64
391.743	378.93
392.122	360.4
392.501	363.11
392.881	373.51
393.26	371.02
393.639	371.25
394.018	372.15
394.397	368.54
394.776	372.15
395.155	377.8
395.534	385.03
395.913	371.02
396.292	387.29
396.671	384.13
397.05	385.71
397.429	378.03
397.808	382.09
398.186	392.49
398.565	402.66
398.944	400.63
399.323	387.52
399.701	404.24
400.08	395.88
400.458	407.18
400.837	413.51
401.215	405.6
401.594	421.19
401.972	397.46
402.351	427.29
402.729	402.21
403.107	415.54
403.486	414.41
403.864	451.02
404.242	442.88
404.62	436.33
404.999	426.84
405.377	446.95
405.755	448.76
406.133	450.12
406.511	434.07
406.889	457.35
407.267	482.43
407.645	464.8
408.023	467.74
408.401	484.01
408.779	467.74
409.156	499.83
409.534	511.13
409.912	489.21
410.29	518.81
410.667	527.63
411.045	520.4
411.422	524.46
411.8	516.1
412.178	502.77
412.555	546.38
412.933	539.15
413.31	564.01
413.687	554.29
414.065	563.56
414.442	581.64
414.819	585.25
415.197	609.43
415.574	622.31
415.951	612.14
416.328	608.98
416.705	612.37
417.082	616.44
417.46	651.01
417.837	661.41
418.214	677.91
418.591	656.89
418.967	642.65
419.344	655.99
419.721	647.62
420.098	682.88
420.475	687.62
420.852	708.64
421.228	703.89
421.605	693.72
421.982	716.32
422.358	726.94
422.735	736.44
423.111	751.12
423.488	771.46
423.864	781.18
424.241	796.32
424.617	806.04
424.994	795.19
425.37	827.51
425.746	851.23
426.123	840.61
426.499	845.81
426.875	848.52
427.251	875.41
427.627	918.35
428.003	910.67
428.379	881.06
428.756	865.7
429.132	926.71
429.507	926.94
429.883	973.94
430.259	951.12
430.635	945.24
431.011	985.24
431.387	994.96
431.763	979.82
432.138	1002.19
432.514	1038.8
432.89	1036.77
433.265	1064.11
433.641	1074.96
434.016	1094.84
434.392	1099.59
434.767	1114.96
435.143	1129.19
435.518	1151.79
435.894	1181.85
436.269	1176.88
436.644	1226.59
437.02	1239.25
437.395	1244.22
437.77	1265.46
438.145	1269.53
438.52	1286.48
438.895	1308.85
439.271	1319.02
439.646	1329.87
440.021	1358.57
440.395	1383.42
440.77	1363.76
441.145	1392.69
441.52	1431.11
441.895	1408.96
442.27	1444.44
442.645	1416.87
443.019	1443.99
443.394	1473.59
443.769	1471.11
444.143	1499.81
444.518	1538.9
444.892	1524.44
445.267	1522.86
445.641	1567.6
446.016	1541.39
446.39	1553.59
446.764	1577.32
447.139	1582.97
447.513	1603.98
447.887	1588.84
448.262	1626.81
448.636	1632.46
449.01	1662.06
449.384	1659.58
449.758	1641.95
450.132	1672.46
450.506	1680.37
450.88	1710.65
451.254	1712
451.628	1722.85
452.002	1744.77
452.376	1769.4
452.75	1789.29
453.123	1796.29
453.497	1808.05
453.871	1853.92
454.244	1866.12
454.618	1881.72
454.992	1882.39
455.365	1921.94
455.739	1969.62
456.112	1942.96
456.486	1962.17
456.859	1996.97
457.232	2020.92
457.606	1997.19
457.979	2030.41
458.352	2084.2
458.725	2083.29
459.099	2106.34
459.472	2153.57
459.845	2167.81
460.218	2152.67
460.591	2179.56
460.964	2208.04
461.337	2233.8
461.71	2293.68
462.083	2291.2
462.456	2307.69
462.829	2328.26
463.201	2358.99
463.574	2360.57
463.947	2407.58
464.32	2436.28
464.692	2445.32
465.065	2474.02
465.438	2502.49
465.81	2513.79
466.183	2579.55
466.555	2588.59
466.928	2601.92
467.3	2656.38
467.672	2684.18
468.045	2724.18
468.417	2730.28
468.789	2726.21
469.161	2770.73
469.534	2850.96
469.906	2876.27
470.278	2881.92
470.65	2890.28
471.022	2940.9
471.394	2994
471.766	3001.23
472.138	3029.48
472.51	3077.16
472.882	3119.88
473.253	3158.97
473.625	3186.77
473.997	3230.16
474.369	3319.64
474.74	3320.55
475.112	3351.96
475.484	3424.73
475.855	3470.15
476.227	3482.35
476.598	3577.72
476.97	3621.33
477.341	3650.26
477.713	3723.93
478.084	3755.11
478.455	3813.87
478.827	3836.01
479.198	3941.77
479.569	3941.77
479.94	4012.96
480.311	4063.81
480.682	4116.23
481.053	4183.8
481.424	4265.16
481.795	4297.25
482.166	4347.64
482.537	4342.44
482.908	4486.85
483.279	4496.11
483.65	4594.19
484.021	4693.39
484.391	4668.76
484.762	4726.61
485.133	4768.19
485.503	4829.66
485.874	4896.55
486.244	4955.53
486.615	5046.83
486.985	5082.08
487.356	5185.13
487.726	5256.99
488.097	5313.72
488.467	5320.27
488.837	5398.46
489.207	5422.41
489.578	5454.73
489.948	5532.02
490.318	5583.09
490.688	5624.89
491.058	5713.71
491.428	5794.16
491.798	5759.58
492.168	5929.97
492.538	5911.89
492.908	5950.31
493.278	6029.63
493.648	6017.65
494.017	6075.96
494.387	6107.37
494.757	6159.8
495.126	6222.62
495.496	6203.41
495.866	6278.44
496.235	6350.07
496.605	6320.92
496.974	6391.88
497.344	6412.9
497.713	6458.54
498.082	6511.42
498.452	6527.7
498.821	6508.26
499.19	6550.52
499.559	6593.91
499.928	6654.47
500.298	6697.18
500.667	6722.49
501.036	6737.63
501.405	6800.68
501.774	6789.61
502.143	6901.25
502.512	6880.91
502.88	6929.04
503.249	6924.52
503.618	6968.81
503.987	6932.2
504.356	7015.59
504.724	6988.02
505.093	7024.63
505.462	7023.28
505.83	7020.34
506.199	7081.35
506.567	7180.11
506.936	7177.4
507.304	7214.68
507.672	7244.51
508.041	7254.46
508.409	7270.73
508.777	7313.21
509.145	7355.92
509.514	7362.7
509.882	7414
510.25	7398.86
510.618	7397.28
510.986	7431.17
511.354	7532.41
511.722	7514.79
512.09	7577.84
512.458	7538.74
512.826	7618.74
513.193	7554.11
513.561	7529.48
513.929	7648.12
514.297	7661.68
514.664	7666.42
515.032	7687.44
515.4	7735.12
515.767	7742.13
516.135	7741.67
516.502	7689.47
516.869	7820.09
517.237	7804.5
517.604	7813.09
517.972	7800.2
518.339	7839.53
518.706	7803.59
519.073	7880.2
519.44	7900.31
519.808	7913.2
520.175	7907.09
520.542	7979.18
520.909	7962.91
521.276	7971.73
521.643	8019.18
522.009	8099.41
522.376	8050.14
522.743	8094.43
523.11	8111.16
523.477	8189.57
523.843	8150.7
524.21	8140.08
524.577	8196.58
524.943	8240.19
525.31	8271.15
525.676	8316.12
526.043	8326.29
526.409	8286.75
526.776	8359.74
527.142	8417.59
527.508	8401.54
527.874	8451.71
528.241	8490.13
528.607	8476.12
528.973	8469.11
529.339	8487.64
529.705	8471.15
530.071	8543.69
530.437	8516.8
530.803	8545.27
531.169	8504.37
531.535	8514.99
531.901	8540.75
532.267	8574.42
532.632	8527.19
532.998	8593.4
533.364	8633.18
533.73	8627.08
534.095	8648.32
534.461	8668.2
534.826	8714.3
535.192	8662.55
535.557	8703.23
535.923	8628.43
536.288	8575.1
536.653	8685.15
537.019	8580.07
537.384	8667.75
537.749	8631.37
538.114	8633.63
538.479	8640.63
538.845	8669.33
539.21	8653.06
539.575	8640.86
539.94	8588.88
540.305	8654.87
540.67	8627.75
541.034	8589.56
541.399	8648.09
541.764	8607.41
542.129	8600.41
542.494	8574.2
542.858	8608.77
543.223	8592.73
543.587	8625.72
543.952	8606.06
544.316	8590.92
544.681	8592.95
545.045	8611.93
545.41	8652.16
545.774	8631.82
546.138	8592.27
546.503	8654.87
546.867	8668.88
547.231	8636.79
547.595	8594.53
547.959	8592.95
548.324	8556.34
548.688	8591.14
549.052	8574.65
549.416	8565.38
549.779	8530.58
550.143	8576.23
550.507	8574.65
550.871	8587.98
551.235	8451.03
551.599	8548.66
551.962	8570.35
552.326	8620.97
552.689	8597.25
553.053	8514.76
553.417	8514.99
553.78	8631.37
554.143	8484.71
554.507	8543.69
554.87	8569.9
555.234	8616.68
555.597	8546.63
555.96	8535.55
556.323	8662.55
556.686	8616.68
557.05	8701.65
557.413	8630.47
557.776	8601.09
558.139	8669.11
558.502	8674.98
558.865	8663.46
559.228	8680.63
559.59	8672.72
559.953	8711.82
560.316	8813.96
560.679	8739.16
561.041	8740.74
561.404	8751.82
561.767	8823.68
562.129	8747.75
562.492	8877.46
562.854	8824.81
563.217	8775.55
563.579	8885.6
563.941	8856.45
564.304	8863.45
564.666	8974.86
565.028	8936.22
565.39	8949.1
565.753	9004.92
566.115	8972.15
566.477	9042.43
566.839	9027.29
567.201	9135.54
567.563	9067.52
567.925	9215.76
568.287	9121.3
568.648	9180.06
569.01	9229.32
569.372	9260.73
569.734	9124.92
570.095	9249.43
570.457	9304.8
570.819	9266.15
571.18	9342.99
571.542	9366.27
571.903	9346.83
572.265	9300.05
572.626	9360.62
572.987	9361.07
573.349	9427.96
573.71	9490.78
574.071	9509.31
574.432	9483.55
574.794	9556.77
575.155	9532.81
575.516	9547.73
575.877	9595.86
576.238	9602.87
576.599	9678.57
576.96	9671.79
577.32	9633.6
577.681	9747.72
578.042	9782.75
578.403	9687.39
578.763	9780.04
579.124	9753.6
579.485	9840.83
579.845	9883.99
580.206	9787.04
580.566	9847.38
580.927	9878.12
581.287	9921.73
581.648	9843.54
582.008	9950.2
582.368	9926.25
582.728	9921.73
583.089	9983.65
583.449	9918.57
583.809	9967.61
584.169	10090.31
584.529	9979.36
584.889	10071.33
585.249	10049.18
585.609	10017.55
585.969	10093.25
586.329	10116.08
586.688	10118.56
587.048	10126.7
587.408	10038.56
587.768	10153.14
588.127	10135.06
588.487	10180.93
588.846	10207.82
589.206	10150.43
589.565	10160.59
589.925	10239.24
590.284	10229.07
590.643	10199.24
591.003	10287.82
591.362	10212.8
591.721	10299.8
592.08	10330.31
592.44	10330.08
592.799	10347.26
593.158	10280.59
593.517	10304.77
593.876	10403.75
594.235	10342.96
594.593	10328.73
594.952	10345.67
595.311	10293.92
595.67	10386.58
596.029	10427.25
596.387	10413.92
596.746	10498.44
597.104	10373.7
597.463	10408.05
597.822	10491.43
598.18	10449.17
598.538	10354.49
598.897	10421.38
599.255	10392.68
599.613	10492.79
599.972	10476.74
600.33	10497.31
600.688	10503.86
601.046	10478.55
601.404	10578.89
601.762	10588.83
602.12	10561.26
602.478	10623.63
602.836	10578.21
603.194	10502.28
603.552	10551.77
603.91	10525.78
604.268	10596.29
604.625	10521.26
604.983	10587.7
605.341	10520.58
605.698	10568.72
606.056	10584.76
606.413	10574.59
606.771	10651.2
607.128	10611.88
607.485	10623.63
607.843	10614.82
608.2	10669.06
608.557	10638.32
608.914	10617.76
609.272	10637.42
609.629	10751.99
609.986	10703.63
610.343	10671.54
610.7	10763.97
611.057	10781.6
611.414	10776.4
611.771	10700.92
612.127	10812.1
612.484	10862.04
612.841	10766
613.198	10824.98
613.554	10777.3
613.911	10837.64
614.267	10808.26
614.624	10785.66
614.98	10841.03
615.337	10895.94
615.693	10867.02
616.05	10886.9
616.406	10951.08
616.762	10871.54
617.118	10828.83
617.475	10861.59
617.831	10914.25
618.187	10862.04
618.543	10963.29
618.899	10972.78
619.255	10907.92
619.611	10979.1
619.967	11009.39
620.323	10925.77
620.678	10964.42
621.034	11008.48
621.39	10941.14
621.746	10948.37
622.101	11106.78
622.457	10955.15
622.812	10940.23
623.168	10999.22
623.523	10997.41
623.879	11003.96
624.234	10924.64
624.589	10961.25
624.945	11016.17
625.3	10963.51
625.655	10988.6
626.01	10984.08
626.365	10994.24
626.72	10957.41
627.075	10899.56
627.43	10960.35
627.785	10950.86
628.14	10970.97
628.495	10936.62
628.85	10926.45
629.205	10905.21
629.559	10970.52
629.914	10879.67
630.269	10896.62
630.623	10883.51
630.978	10881.71
631.332	10945.66
631.687	10863.17
632.041	10849.62
632.396	10851.42
632.75	10834.25
633.104	10886.68
633.459	10777.53
633.813	10748.38
634.167	10827.92
634.521	10737.08
634.875	10777.3
635.229	10715.38
635.583	10700.24
635.937	10670.19
636.291	10703.41
636.645	10664.76
636.999	10711.99
637.352	10696.4
637.706	10635.61
638.06	10622.73
638.413	10572.79
638.767	10546.12
639.121	10513.58
639.474	10537.76
639.828	10490.76
640.181	10535.27
640.534	10481.72
640.888	10535.95
641.241	10439.46
641.594	10463.19
641.947	10527.82
642.301	10550.19
642.654	10510.19
643.007	10457.31
643.36	10522.17
643.713	10476.74
644.066	10509.06
644.419	10501.38
644.771	10392
645.124	10259.12
645.477	10319.23
645.83	10227.94
646.182	10132.12
646.535	10104.78
646.888	10096.87
647.24	10005.57
647.593	10107.71
647.945	9996.76
648.298	10019.81
648.65	10060.03
649.002	9960.15
649.355	10067.26
649.707	10083.08
650.059	10091.22
650.411	10264.32
650.763	10232.68
651.115	10319.91
651.467	10316.75
651.819	10363.53
652.171	10278.33
652.523	10302.06
652.875	10283.3
653.227	10267.48
653.578	10300.48
653.93	10281.95
654.282	10216.19
654.633	10200.59
654.985	10263.42
655.337	10294.38
655.688	10196.75
656.039	10305.22
656.391	10217.54
656.742	10226.81
657.094	10243.08
657.445	10307.71
657.796	10218.67
658.147	10193.81
658.498	10240.82
658.849	10241.72
659.2	10224.55
659.551	10206.69
659.902	10276.07
660.253	10254.15
660.604	10267.71
660.955	10220.03
661.306	10234.72
661.656	10224.1
662.007	10241.5
662.358	10240.82
662.708	10262.06
663.059	10242.63
663.409	10135.28
663.76	10319.23
664.11	10298.22
664.461	10314.71
664.811	10235.62
665.161	10260.93
665.511	10213.7
665.862	10244.89
666.212	10285.11
666.562	10239.91
666.912	10290.08
667.262	10225.23
667.612	10153.14
667.962	10232
668.312	10278.33
668.662	10201.95
669.011	10133.25
669.361	10232.46
669.711	10185.9
670.06	10160.14
670.41	10126.47
670.76	10196.3
671.109	10186.81
671.459	10148.84
671.808	10152.23
672.157	10106.13
672.507	10111.56
672.856	10128.5
673.205	10151.1
673.554	10108.17
673.904	10083.31
674.253	10105.23
674.602	10112.01
674.951	9938.23
675.3	9920.83
675.649	10034.95
675.998	10046.7
676.346	10046.47
676.695	10057.09
677.044	9978.9
677.393	10023.2
677.741	10027.72
678.09	9990.66
678.438	10031.11
678.787	9995.85
679.135	9999.69
679.484	9894.39
679.832	9911.11
680.181	9925.57
680.529	9929.19
680.877	9895.29
681.225	9839.25
681.573	9933.93
681.922	9914.27
682.27	9805.35
682.618	9851.22
682.966	9800.15
683.314	9818.91
683.661	9776.2
684.009	9691.23
684.357	9732.36
684.705	9726.48
685.053	9654.39
685.4	9715.18
685.748	9721.06
686.095	9663.88
686.443	9596.99
686.79	9621.17
687.138	9600.16
687.485	9607.39
687.832	9481.06
688.18	9524.9
688.527	9454.85
688.874	9434.51
689.221	9488.97
689.568	9354.06
689.915	9390.67
690.262	9356.32
690.609	9319.03
690.956	9302.09
691.303	9310.67
691.65	9246.95
691.997	9189.32
692.344	9142.99
692.69	9204.69
693.037	9177.8
693.383	9084.24
693.73	9030.45
694.077	9056.89
694.423	9039.49
694.769	9047.63
695.116	8936.45
695.462	8967.63
695.808	8853.51
696.155	8905.49
696.501	8852.83
696.847	8839.5
697.193	8747.07
697.539	8715.89
697.885	8790.23
698.231	8692.16
698.577	8691.93
698.923	8694.19
699.269	8649.67
699.614	8580.97
699.96	8527.87
700.306	8573.29
700.651	8515.44
700.997	8470.47
701.342	8423.24
701.688	8467.53
702.033	8441.09
702.379	8363.35
702.724	8316.12
703.069	8357.03
703.415	8202.68
703.76	8261.44
704.105	8284.26
704.45	8299.17
704.795	8166.97
705.14	8230.02
705.485	8160.87
705.83	8147.09
706.175	8117.03
706.52	8091.04
706.865	8032.97
707.209	8052.18
707.554	8014.89
707.899	8041.1
708.243	7954.78
708.588	7976.02
708.932	7910.03
709.277	7932.63
709.621	7947.09
709.966	7856.93
710.31	7889.69
710.654	7793.88
710.998	7815.35
711.342	7823.25
711.687	7801.56
712.031	7749.36
712.375	7669.13
712.719	7647.44
713.063	7679.08
713.407	7715.23
713.75	7672.3
714.094	7655.35
714.438	7628.23
714.782	7658.97
715.125	7606.54
715.469	7628.01
715.812	7556.82
716.156	7524.05
716.499	7540.78
716.843	7537.61
717.186	7506.88
717.53	7532.87
717.873	7509.59
718.216	7505.52
718.559	7365.87
718.902	7477.95
719.246	7423.72
719.589	7421.46
719.932	7376.71
720.275	7380.33
720.617	7425.3
720.96	7352.31
721.303	7376.71
721.646	7403.6
721.989	7314.57
722.331	7360.22
722.674	7335.58
723.016	7343.04
723.359	7281.8
723.701	7338.52
724.044	7284.96
724.386	7289.26
724.729	7233.89
725.071	7265.3
725.413	7264.17
725.755	7237.06
726.097	7205.19
726.439	7209.94
726.782	7222.14
727.124	7223.95
727.465	7201.8
727.807	7223.5
728.149	7165.87
728.491	7208.13
728.833	7188.24
729.175	7161.58
729.516	7158.19
729.858	7149.6
730.199	7141.01
730.541	7156.61
730.882	7160
731.224	7172.2
731.565	7146.89
731.906	7107.57
732.248	7163.16
732.589	7127
732.93	7122.48
733.271	7197.28
733.612	7181.01
733.953	7115.48
734.294	7054.46
734.635	7139.66
734.976	7131.75
735.317	7073.9
735.658	7136.95
735.999	7066.66
736.339	7115.93
736.68	7127
737.021	7115.7
737.361	7113.89
737.702	7184.4
738.042	7146.89
738.383	7089.71
738.723	7088.36
739.063	7096.27
739.404	7128.13
739.744	7083.84
740.084	7122.71
740.424	7177.4
740.764	7149.15
741.104	7208.36
741.444	7166.32
741.784	7142.14
742.124	7213.33
742.464	7202.25
742.804	7200.9
743.143	7216.27
743.483	7203.16
743.823	7210.84
744.162	7223.04
744.502	7233.67
744.841	7289.71
745.181	7342.82
745.52	7319.77
745.86	7355.7
746.199	7409.03
746.538	7397.05
746.877	7456.71
747.216	7530.83
747.556	7507.1
747.895	7537.16
748.234	7578.52
748.573	7580.32
748.911	7663.94
749.25	7727.66
749.589	7696.7
749.928	7758.85
750.267	7772.63
750.605	7874.55
750.944	7985.51
751.283	7935.34
751.621	7990.48
751.96	8071.16
752.298	8183.25
752.636	8249.91
752.975	8241.1
753.313	8272.96
753.651	8429.57
753.989	8499.4
754.327	8558.83
754.666	8653.74
755.004	8748.2
755.342	8802.66
755.679	8953.85
756.017	8987.97
756.355	9120.17
756.693	9170.56
757.031	9341.18
757.368	9409.65
757.706	9531.46
758.044	9643.09
758.381	9756.99
758.719	9877.44
759.056	10006.93
759.394	10101.39
759.731	10147.94
760.068	10313.58
760.405	10440.59
760.743	10577.31
761.08	10723.29
761.417	10801.48
761.754	10918.54
762.091	11081.47
762.428	11066.33
762.765	11203.73
763.102	11416.38
763.438	11482.59
763.775	11572.99
764.112	11681.01
764.449	11877.61
764.785	11998.74
765.122	12043.93
765.458	12111.5
765.795	12209.35
766.131	12424.04
766.467	12539.97
766.804	12627.65
767.14	12726.85
767.476	12862.44
767.812	12948.77
768.148	13033.51
768.485	13054.53
768.821	13177.01
769.157	13299.72
769.492	13411.13
769.828	13511.69
770.164	13490.45
770.5	13646.83
770.836	13692.48
771.171	13730.44
771.507	13795.3
771.842	13765.25
772.178	13963.21
772.513	13960.49
772.849	14058.35
773.184	14202.3
773.519	14192.8
773.855	14186.03
774.19	14234.16
774.525	14335.17
774.86	14339.47
775.195	14407.71
775.53	14448.84
775.865	14410.2
776.2	14385.79
776.535	14374.49
776.87	14487.03
777.205	14491.33
777.539	14459.92
777.874	14575.85
778.209	14606.81
778.543	14509.18
778.878	14489.97
779.212	14625.34
779.547	14562.06
779.881	14624.66
780.215	14656.75
780.55	14699.46
780.884	14735.62
781.218	14724.99
781.552	14712.79
781.886	14664.66
782.22	14707.82
782.554	14646.13
782.888	14619.69
783.222	14550.99
783.556	14589.4
783.889	14579.91
784.223	14538.56
784.557	14451.56
784.89	14620.82
785.224	14624.66
785.557	14516.19
785.891	14534.49
786.224	14557.54
786.558	14473.93
786.891	14384.89
787.224	14382.18
787.557	14373.82
787.891	14394.38
788.224	14363.42
788.557	14330.65
788.89	14379.24
789.223	14415.17
789.556	14282.29
789.888	14309.64
790.221	14289.75
790.554	14166.59
790.887	14230.54
791.219	14114.61
791.552	14112.58
791.884	14176.99
792.217	14092.69
792.549	14012.7
792.882	14042.3
793.214	13937.44
793.546	13975.18
793.879	13926.37
794.211	13910.33
794.543	13949.2
794.875	13856.77
795.207	13946.03
795.539	13839.14
795.871	13856.77
796.203	13675.53
796.535	13725.25
796.867	13644.57
797.198	13643.67
797.53	13668.75
797.862	13583.1
798.193	13692.03
798.525	13546.27
798.856	13551.69
799.188	13395.76
799.519	13403.9
799.85	13319.61
800.182	13441.64
800.513	13395.76
800.844	13264.47
801.175	13369.55
801.506	13292.94
801.837	13233.06
802.168	13253.17
802.499	13226.05
802.83	13083
803.161	13099.05
803.491	13053.63
803.822	13147.86
804.153	13031.03
804.483	12972.27
804.814	13009.11
805.145	13027.64
805.475	12878.49
805.805	12855.89
806.136	12870.58
806.466	12829
806.796	12812.95
807.126	12750.81
807.457	12762.56
807.787	12714.43
808.117	12666.97
808.447	12574.09
808.777	12664.94
809.107	12593.52
809.436	12570.93
809.766	12522.34
810.096	12534.09
810.426	12435.11
810.755	12508.1
811.085	12490.93
811.414	12421.78
811.744	12293.19
812.073	12307.2
812.403	12266.3
812.732	12305.17
813.061	12277.83
813.39	12246.42
813.719	12178.17
814.049	12228.56
814.378	12216.81
814.707	12155.8
815.036	12136.81
815.365	12029.02
815.693	11989.92
816.022	12034.9
816.351	12014.11
816.68	11876.03
817.008	11880.32
817.337	11936.82
817.665	11808.91
817.994	11923.71
818.322	11843.71
818.651	11857.72
818.979	11791.74
819.307	11837.84
819.636	11725.07
819.964	11751.51
820.292	11729.14
820.62	11773.43
820.948	11706.99
821.276	11792.87
821.604	11634.91
821.932	11754.22
822.259	11662.7
822.587	11759.65
822.915	11708.8
823.243	11714.45
823.57	11703.38
823.898	11722.81
824.225	11684.4
824.553	11704.28
824.88	11740.67
825.207	11780.66
825.535	11671.29
825.862	11778.86
826.189	11692.08
826.516	11785.18
826.843	11723.94
827.17	11784.73
827.497	11756.94
827.824	11765.75
828.151	11688.24
828.478	11669.03
828.805	11765.07
829.131	11747.45
829.458	11699.31
829.785	11630.61
830.111	11653.89
830.438	11779.99
830.764	11715.81
831.09	11769.37
831.417	11662.48
831.743	11753.09
832.069	11729.37
832.395	11605.75
832.722	11752.19
833.048	11622.7
833.374	11682.59
833.7	11656.83
834.026	11591.52
834.351	11646.88
834.677	11636.26
835.003	11629.93
835.329	11651.63
835.654	11601.46
835.98	11571.63
836.306	11554.23
836.631	11549.26
836.956	11561.24
837.282	11602.59
837.607	11508.36
837.932	11489.83
838.258	11487.57
838.583	11434.91
838.908	11474.91
839.233	11436.04
839.558	11407.12
839.883	11370.28
840.208	11338.64
840.533	11357.63
840.858	11320.56
841.182	11342.26
841.507	11397.4
841.832	11213.67
842.156	11198.99
842.481	11285.99
842.805	11200.79
843.13	11180
843.454	11182.49
843.778	11163.96
844.103	11087.8
844.427	11098.65
844.751	11100.23
845.075	11152.43
845.399	11022.04
845.723	10926.22
846.047	11052.55
846.371	10958.99
846.695	10827.7
847.019	10708.83
847.343	10755.38
847.666	10685.78
847.99	10663.41
848.313	10637.64
848.637	10604.2
848.96	10589.51
849.284	10525.56
849.607	10455.73
849.931	10401.04
850.254	10417.99
850.577	10320.36
850.9	10285.34
851.223	10268.84
851.546	10160.14
851.869	10144.55
852.192	10152.23
852.515	10115.4
852.838	10051.9
853.161	10095.74
853.483	10018.68
853.806	9934.39
854.129	9955.4
854.451	9935.06
854.774	9825.91
855.096	9841.96
855.419	9832.92
855.741	9826.59
856.063	9743.88
856.385	9746.37
856.708	9638.12
857.03	9604.9
857.352	9684.45
857.674	9594.73
857.996	9560.16
858.318	9510.44
858.64	9548.63
858.961	9557.67
859.283	9465.25
859.605	9486.04
859.926	9537.11
860.248	9445.36
860.57	9345.02
860.891	9376.21
861.212	9360.62
861.534	9353.61
861.855	9288.98
862.176	9357.23
862.498	9313.84
862.819	9277.91
863.14	9237
863.461	9250.79
863.782	9181.41
864.103	9210.11
864.424	9176.89
864.745	9180.96
865.065	9119.49
865.386	9130.79
865.707	9082.88
866.027	9122.43
866.348	9048.53
866.668	9058.7
866.989	8994.98
867.309	9021.42
867.63	9016.9
867.95	9034.07
868.27	9013.96
868.59	8980.74
868.91	8986.61
869.23	8900.51
869.55	8848.76
869.87	8934.86
870.19	8931.02
870.51	8861.65
870.83	8853.06
871.15	8790.23
871.469	8849.44
871.789	8813.06
872.109	8848.99
872.428	8770.12
872.748	8823.45
873.067	8805.6
873.386	8808.99
873.706	8732.84
874.025	8655.32
874.344	8720.41
874.663	8754.53
874.982	8679.96
875.301	8637.47
875.62	8666.62
875.939	8612.39
876.258	8621.88
876.577	8521.09
876.896	8595.89
877.214	8575.1
877.533	8562.9
877.852	8549.11
878.17	8554.76
878.489	8541.43
878.807	8539.39
879.125	8551.82
879.444	8504.59
879.762	8439.74
880.08	8460.53
880.398	8402.67
880.716	8421.88
881.034	8467.53
881.352	8439.28
881.67	8424.82
881.988	8396.12
882.306	8370.81
882.624	8283.58
882.941	8283.13
883.259	8251.04
883.577	8251.72
883.894	8276.35
884.212	8267.76
884.529	8233.41
884.846	8137.6
885.164	8185.73
885.481	8157.94
885.798	8136.24
886.115	8088.33
886.432	8115.9
886.75	8051.27
887.067	8014.89
887.383	8050.37
887.7	8014.21
888.017	8032.29
888.334	7997.71
888.651	7997.94
888.967	7941.22
889.284	7871.84
889.6	7851.95
889.917	7790.26
890.233	7887.89
890.55	7847.43
890.866	7818.28
891.182	7797.94
891.498	7765.18
891.815	7753.2
892.131	7688.8
892.447	7731.51
892.763	7617.16
893.079	7590.27
893.395	7609.93
893.71	7626.2
894.026	7630.94
894.342	7588.68
894.657	7506.43
894.973	7509.82
895.289	7458.74
895.604	7456.26
895.92	7432.53
896.235	7348.46
896.55	7389.82
896.865	7337.84
897.181	7301.46
897.496	7386.2
897.811	7281.35
898.126	7294.91
898.441	7223.04
898.756	7167
899.071	7124.74
899.386	7147.79
899.7	7171.52
900.015	7074.8
900.33	7019.21
900.644	6948.7
900.959	7018.3
901.273	6990.73
901.588	6988.02
901.902	6930.17
902.216	6895.14
902.531	6909.83
902.845	6833.45
903.159	6763.85
903.473	6737.18
903.787	6763.62
904.101	6724.53
904.415	6804.52
904.729	6716.84
905.042	6652.44
905.356	6642.27
905.67	6605.66
905.984	6594.59
906.297	6542.61
906.611	6545.1
906.924	6540.35
907.237	6513.68
907.551	6535.15
907.864	6484.98
908.177	6455.61
908.491	6398.21
908.804	6377.42
909.117	6361.37
909.43	6329.51
909.743	6305.1
910.056	6276.4
910.368	6304.2
910.681	6247.93
910.994	6252.22
911.307	6217.87
911.619	6145.78
911.932	6182.39
912.244	6107.14
912.557	6091.77
912.869	6089.52
913.181	5991.21
913.494	6003.64
913.806	5981.95
914.118	5993.7
914.43	6000.03
914.742	5988.5
915.054	5914.83
915.366	5880.25
915.678	5901.05
915.99	5862.4
916.302	5807.94
916.613	5797.09
916.925	5782.18
917.236	5758.22
917.548	5670.32
917.859	5694.27
918.171	5651.11
918.482	5659.7
918.794	5567.72
919.105	5623.99
919.416	5549.64
919.727	5590.77
920.038	5518.46
920.349	5521.85
920.66	5454.96
920.971	5468.29
921.282	5435.07
921.593	5417.67
921.903	5374.73
922.214	5371.79
922.525	5337.22
922.835	5313.49
923.146	5316.2
923.456	5308.97
923.767	5278.46
924.077	5262.87
924.387	5249.09
924.697	5207.5
925.008	5199.14
925.318	5133.83
925.628	5167.05
925.938	5155.75
926.248	5093.16
926.558	5087.96
926.867	5106.72
927.177	5035.76
927.487	5071.01
927.796	4984.01
928.106	5005.7
928.416	4990.11
928.725	4932.94
929.034	4920.73
929.344	4917.12
929.653	4869.89
929.962	4858.36
930.271	4841.41
930.581	4820.17
930.89	4803.67
931.199	4755.54
931.508	4768.87
931.817	4783.33
932.125	4756.67
932.434	4702.21
932.743	4678.93
933.051	4674.41
933.36	4621.98
933.669	4635.32
933.977	4640.06
934.286	4609.55
934.594	4551.7
934.902	4524.58
935.21	4499.5
935.519	4504.47
935.827	4507.64
936.135	4467.18
936.443	4440.07
936.751	4460.63
937.059	4437.81
937.367	4398.26
937.674	4400.07
937.982	4393.29
938.29	4401.2
938.597	4357.13
938.905	4332.5
939.213	4299.51
939.52	4245.95
939.827	4322.78
940.135	4271.48
940.442	4274.65
940.749	4220.19
941.056	4176.57
941.363	4166.4
941.67	4155.78
941.977	4163.01
942.284	4100.19
942.591	4078.95
942.898	4107.87
943.205	4002.56
943.511	4033.98
943.818	4042.11
944.125	3978.16
944.431	3989.23
944.738	4029.23
945.044	3949.23
945.35	3949.01
945.657	3937.93
945.963	3929.57
946.269	3946.29
946.575	3877.82
946.881	3878.95
947.187	3872.85
947.493	3838.27
947.799	3855.9
948.105	3800.54
948.41	3798.73
948.716	3778.16
949.022	3764.38
949.327	3732.06
949.633	3694.1
949.938	3725.74
950.244	3705.62
950.549	3637.38
950.854	3629.01
951.16	3681.89
951.465	3642.35
951.77	3629.01
952.075	3594.67
952.38	3614.1
952.685	3542.46
952.99	3525.06
953.294	3524.61
953.599	3530.94
953.904	3533.88
954.209	3497.72
954.513	3480.32
954.818	3468.12
955.122	3459.3
955.426	3437.83
955.731	3430.6
956.035	3371.17
956.339	3369.13
956.643	3415.46
956.948	3392.86
957.252	3349.02
957.556	3345.63
957.86	3344.95
958.163	3321.23
958.467	3312.64
958.771	3267.89
959.075	3297.5
959.378	3243.26
959.682	3248.01
959.985	3220.44
960.289	3208.01
960.592	3197.16
960.896	3209.82
961.199	3202.36
961.502	3163.72
961.805	3159.42
962.108	3126.43
962.411	3142.25
962.714	3098.86
963.017	3088.46
963.32	3080.1
963.623	3109.71
963.926	3047.11
964.228	3032.65
964.531	3080.33
964.833	3009.14
965.136	3024.74
965.438	2980.22
965.741	2976.6
966.043	2982.48
966.345	2947.45
966.648	2930.5
966.95	2966.43
967.252	2960.78
967.554	2898.41
967.856	2897.96
968.158	2907.68
968.46	2842.37
968.761	2874.23
969.063	2843.27
969.365	2820.45
969.666	2843.5
969.968	2794.01
970.269	2807.79
970.571	2798.08
970.872	2756.27
971.174	2763.95
971.475	2726.44
971.776	2755.14
972.077	2712.65
972.378	2714.69
972.679	2731.64
972.98	2715.82
973.281	2696.61
973.582	2694.58
973.883	2666.1
974.183	2660
974.484	2645.31
974.785	2611.87
975.085	2628.82
975.386	2602.83
975.686	2626.78
975.986	2599.66
976.287	2556.05
976.587	2509.04
976.887	2516.73
977.187	2543.17
977.487	2558.08
977.787	2500
978.087	2509.27
978.387	2509.72
978.687	2502.49
978.987	2469.72
979.286	2453.45
979.586	2478.31
979.885	2426.33
980.185	2421.36
980.484	2429.5
980.784	2394.7
981.083	2404.64
981.382	2350.4
981.682	2379.33
981.981	2344.53
982.28	2366.68
982.579	2355.6
982.878	2364.64
983.177	2303.63
983.475	2302.27
983.774	2340.69
984.073	2300.46
984.372	2254.14
984.67	2260.92
984.969	2289.39
985.267	2273.8
985.566	2240.35
985.864	2215.49
986.162	2218.2
986.461	2192.22
986.759	2208.49
987.057	2168.26
987.355	2172.78
987.653	2182.27
987.951	2180.92
988.249	2149.28
988.547	2141.14
988.844	2148.83
989.142	2131.43
989.44	2116.51
989.737	2117.87
990.035	2091.43
990.332	2078.77
990.63	2059.34
990.927	2083.97
991.224	2083.52
991.521	2046.91
991.819	2054.59
992.116	2051.43
992.413	2038.32
992.71	2013.69
993.006	2013.46
993.303	2007.14
993.6	1988.61
993.897	2001.94
994.193	1972.56
994.49	1950.87
994.787	1950.41
995.083	1958.1
995.379	1944.99
995.676	1918.55
995.972	1909.96
996.268	1900.02
996.565	1922.62
996.861	1899.12
997.157	1876.97
997.453	1846.69
997.749	1862.96
998.044	1859.8
998.34	1849.17
998.636	1844.2
998.932	1839.68
999.227	1859.8
999.523	1821.15
999.818	1763.75
1000.114	1777.99
1000.409	1750.42
1000.704	1775.28
1001	1764.88
1001.295	1724.43
1001.59	1771.44
1001.885	1738.44
1002.18	1727.82
1002.475	1697.09
1002.77	1727.82
1003.065	1688.27
1003.359	1696.41
1003.654	1700.48
1003.949	1661.61
1004.243	1652.12
1004.538	1673.36
1004.832	1640.14
1005.127	1654.6
1005.421	1643.3
1005.715	1594.04
1006.009	1593.81
1006.304	1583.42
1006.598	1602.85
1006.892	1580.48
1007.186	1579.13
1007.48	1570.31
1007.773	1552.46
1008.067	1546.58
1008.361	1529.41
1008.655	1520.37
1008.948	1530.76
1009.242	1520.37
1009.535	1496.87
1009.829	1502.29
1010.122	1458.9
1010.415	1451.44
1010.708	1499.81
1011.001	1481.27
1011.295	1425
1011.588	1429.98
1011.881	1446.25
1012.173	1440.15
1012.466	1440.37
1012.759	1423.2
1013.052	1405.12
1013.344	1408.73
1013.637	1396.98
1013.93	1388.17
1014.222	1367.38
1014.514	1358.79
1014.807	1365.8
1015.099	1364.22
1015.391	1326.25
1015.683	1307.27
1015.976	1315.86
1016.268	1320.83
1016.56	1314.95
1016.851	1298.45
1017.143	1322.41
1017.435	1292.13
1017.727	1320.6
1018.018	1280.83
1018.31	1241.96
1018.602	1272.69
1018.893	1274.27
1019.185	1253.48
1019.476	1219.36
1019.767	1238.12
1020.058	1235.41
1020.35	1218.91
1020.641	1210.77
1020.932	1209.87
1021.223	1196.76
1021.514	1171.68
1021.804	1160.83
1022.095	1145.69
1022.386	1172.58
1022.677	1164.45
1022.967	1177.55
1023.258	1152.02
1023.548	1145.24
1023.839	1129.87
1024.129	1144.56
1024.419	1144.11
1024.709	1134.17
1025	1088.06
1025.29	1067.05
1025.58	1069.31
1025.87	1091.23
1026.16	1083.09
1026.449	1069.53
1026.739	1080.38
1027.029	1072.92
1027.319	1070.21
1027.608	1055.07
1027.898	1032.7
1028.187	1031.79
1028.477	1049.65
1028.766	1023.89
1029.055	1034.73
1029.344	1008.29
1029.634	1006.94
1029.923	997.9
1030.212	978.91
1030.501	973.94
1030.79	989.31
1031.078	966.26
1031.367	976.88
1031.656	969.88
1031.945	961.29
1032.233	962.42
1032.522	948.18
1032.81	950.89
1033.099	933.49
1033.387	919.71
1033.675	919.71
1033.963	915.41
1034.251	933.04
1034.54	902.76
1034.828	871.57
1035.116	896.21
1035.403	874.06
1035.691	883.1
1035.979	878.13
1036.267	876.77
1036.554	885.13
1036.842	848.97
1037.129	842.2
1037.417	862.08
1037.704	841.52
1037.992	846.72
1038.279	822.76
1038.566	836.77
1038.853	836.77
1039.14	836.77
