Data from hue_270_FLMS001491_00005.txt Node
Date: Tue Feb 07 15:56:41 GMT 2017
User: dcchb
Spectrometer: FLMS00149
Trigger mode: 0
Integration Time (sec): 2.000000E-2
Scans to average: 10
Electric dark correction enabled: true
Nonlinearity correction enabled: false
Boxcar width: 0
XAxis mode: Wavelengths
Number of Pixels in Spectrum: 2048
>>>>>Begin Spectral Data<<<<<
341.393	-13.09
341.776	-13.09
342.16	-13.09
342.543	-46.76
342.927	-48.12
343.31	-75.92
343.693	-75.01
344.077	-67.55
344.46	-66.2
344.843	-60.78
345.226	-36.82
345.61	-22.81
345.993	-15.58
346.376	-0.66
346.759	4.08
347.142	31.2
347.525	41.82
347.908	51.99
348.291	85.44
348.674	105.1
349.057	101.71
349.44	126.11
349.823	147.81
350.206	169.95
350.588	199.78
350.971	197.07
351.354	223.74
351.737	236.84
352.119	236.84
352.502	261.48
352.884	263.96
353.267	280.23
353.65	298.54
354.032	296.28
354.414	316.16
354.797	301.25
355.179	314.13
355.562	311.87
355.944	329.72
356.326	340.57
356.709	361.81
357.091	334.24
357.473	342.38
357.855	333.79
358.238	348.48
358.62	328.37
359.002	348.25
359.384	348.25
359.766	328.82
360.148	332.43
360.53	341.02
360.912	317.75
361.294	323.4
361.676	341.47
362.057	359.1
362.439	317.75
362.821	347.58
363.203	342.83
363.584	323.62
363.966	332.66
364.348	310.74
364.729	322.27
365.111	315.49
365.493	317.97
365.874	328.82
366.256	315.26
366.637	300.12
367.019	304.86
367.4	309.84
367.781	320.91
368.163	329.27
368.544	309.84
368.925	319.33
369.306	341.7
369.688	317.52
370.069	324.3
370.45	323.17
370.831	298.31
371.212	300.57
371.593	303.96
371.974	299.44
372.355	313
372.736	310.74
373.117	325.66
373.498	325.2
373.879	318.88
374.26	320.46
374.641	305.09
375.021	311.87
375.402	341.02
375.783	307.58
376.163	317.52
376.544	343.73
376.925	321.14
377.305	337.18
377.686	305.54
378.066	324.75
378.447	341.93
378.827	321.59
379.208	340.34
379.588	322.72
379.968	315.03
380.349	348.03
380.729	333.11
381.109	345.09
381.489	340.12
381.87	336.5
382.25	349.61
382.63	353
383.01	347.58
383.39	356.16
383.77	340.34
384.15	340.34
384.53	342.15
384.91	360
385.29	356.84
385.67	356.16
386.049	372.89
386.429	352.77
386.809	354.81
387.189	370.63
387.568	366.56
387.948	367.91
388.328	377.86
388.707	376.28
389.087	359.55
389.466	368.82
389.846	360.23
390.225	362.04
390.605	375.37
390.984	366.56
391.363	356.61
391.743	370.17
392.122	387.12
392.501	375.82
392.881	363.62
393.26	372.89
393.639	368.82
394.018	366.78
394.397	384.18
394.776	391.19
395.155	388.03
395.534	386.22
395.913	387.8
396.292	395.71
396.671	388.48
397.05	402.72
397.429	409.49
397.808	386.67
398.186	406.33
398.565	408.59
398.944	392.32
399.323	412.43
399.701	418.76
400.08	416.73
400.458	440.23
400.837	424.41
401.215	417.18
401.594	437.97
401.972	414.01
402.351	434.13
402.729	437.29
403.107	429.38
403.486	452.66
403.864	420.79
404.242	429.38
404.62	435.48
404.999	444.97
405.377	446.78
405.755	471.87
406.133	468.93
406.511	457.18
406.889	471.19
407.267	490.85
407.645	485.43
408.023	481.81
408.401	520
408.779	491.3
409.156	502.15
409.534	487.91
409.912	485.65
410.29	527.23
410.667	541.92
411.045	543.73
411.422	529.94
411.8	539.89
412.178	556.84
412.555	545.31
412.933	562.49
413.31	568.59
413.687	572.2
414.065	572.2
414.442	578.3
414.819	584.18
415.197	611.07
415.574	611.07
415.951	607
416.328	620.11
416.705	601.58
417.082	614.46
417.46	628.47
417.837	641.58
418.214	667.57
418.591	656.27
418.967	644.52
419.344	662.14
419.721	658.3
420.098	685.65
420.475	689.04
420.852	699.43
421.228	686.78
421.605	712.99
421.982	715.93
422.358	741.69
422.735	735.36
423.111	767.9
423.488	771.29
423.864	796.83
424.241	771.97
424.617	788.92
424.994	800.22
425.37	803.61
425.746	828.47
426.123	837.96
426.499	844.29
426.875	827.56
427.251	847.45
427.627	850.39
428.003	891.74
428.379	894.68
428.756	881.8
429.132	896.04
429.507	936.49
429.883	935.36
430.259	924.74
430.635	948.24
431.011	962.7
431.387	988.69
431.763	973.55
432.138	1014
432.514	987.78
432.89	1015.35
433.265	1056.71
433.641	1058.29
434.016	1052.19
434.392	1089.25
434.767	1103.49
435.143	1118.4
435.518	1146.42
435.894	1145.75
436.269	1167.67
436.644	1173.32
437.02	1195.91
437.395	1175.58
437.77	1245.63
438.145	1232.52
438.52	1261
438.895	1268.91
439.271	1256.03
439.646	1304.39
440.021	1322.69
440.395	1346.42
440.77	1330.83
441.145	1357.27
441.52	1409.24
441.895	1367.44
442.27	1429.13
442.645	1394.55
443.019	1396.81
443.394	1411.05
443.769	1455.34
444.143	1450.82
444.518	1459.18
444.892	1442.24
445.267	1456.47
445.641	1478.39
446.016	1481.33
446.39	1519.75
446.764	1514.32
447.139	1511.39
447.513	1561.33
447.887	1543.7
448.262	1554.55
448.636	1579.86
449.01	1556.58
449.384	1584.61
449.758	1593.42
450.132	1601.55
450.506	1602.46
450.88	1641.1
451.254	1602.01
451.628	1662.57
452.002	1628.45
452.376	1663.25
452.75	1697.14
453.123	1730.36
453.497	1714.32
453.871	1744.15
454.244	1774.43
454.618	1774.2
454.992	1792.06
455.365	1789.35
455.739	1828.44
456.112	1846.97
456.486	1860.3
456.859	1864.15
457.232	1895.11
457.606	1899.17
457.979	1931.04
458.352	1890.13
458.725	1960.64
459.099	1986.4
459.472	2039.96
459.845	2059.85
460.218	2029.57
460.591	2051.49
460.964	2057.36
461.337	2100.3
461.71	2129
462.083	2171.03
462.456	2147.75
462.829	2152.27
463.201	2198.6
463.574	2219.39
463.947	2239.28
464.32	2267.07
464.692	2288.09
465.065	2292.61
465.438	2328.09
465.81	2332.83
466.183	2382.55
466.555	2415.09
466.928	2449.89
467.3	2413.51
467.672	2445.15
468.045	2534.18
468.417	2486.28
468.789	2531.47
469.161	2551.81
469.534	2578.48
469.906	2644.46
470.278	2672.94
470.65	2680.4
471.022	2700.96
471.394	2708.42
471.766	2761.07
472.138	2792.26
472.51	2844.23
472.882	2877.9
473.253	2907.73
473.625	2936.66
473.997	3024.79
474.369	2999.48
474.74	3033.61
475.112	3086.71
475.484	3117.67
475.855	3168.29
476.227	3189.08
476.598	3202.87
476.97	3274.73
477.341	3338.91
477.713	3350.21
478.084	3322.64
478.455	3434.73
478.827	3483.76
479.198	3546.81
479.569	3537.55
479.94	3632.46
480.311	3653.93
480.682	3733.7
481.053	3763.98
481.424	3828.61
481.795	3873.81
482.166	3899.8
482.537	3910.19
482.908	3964.2
483.279	4024.54
483.65	4073.58
484.021	4178.66
484.391	4235.83
484.762	4229.51
485.133	4206.46
485.503	4305.89
485.874	4406.9
486.244	4393.34
486.615	4468.82
486.985	4532.32
487.356	4562.38
487.726	4594.24
488.097	4672.21
488.467	4659.1
488.837	4736.84
489.207	4807.8
489.578	4889.83
489.948	4887.8
490.318	4952.2
490.688	4963.05
491.058	4959.66
491.428	5058.19
491.798	5125.3
492.168	5212.53
492.538	5211.63
492.908	5225.41
493.278	5302.02
493.648	5332.98
494.017	5393.77
494.387	5362.58
494.757	5404.17
495.126	5510.38
495.496	5539.08
495.866	5558.74
496.235	5575.46
496.605	5633.99
496.974	5703.37
497.344	5693.65
497.713	5716.02
498.082	5735.68
498.452	5746.3
498.821	5816.58
499.19	5820.65
499.559	5856.58
499.928	5873.53
500.298	5858.84
500.667	5960.54
501.036	5899.07
501.405	5939.52
501.774	5976.35
502.143	6001.66
502.512	6058.39
502.88	6069.91
503.249	6007.77
503.618	6107.42
503.987	6138.38
504.356	6115.33
504.724	6136.12
505.093	6215.67
505.462	6195.56
505.83	6260.19
506.199	6276.91
506.567	6337.47
506.936	6318.49
507.304	6333.18
507.672	6346.29
508.041	6332.28
508.409	6431.03
508.777	6446.17
509.145	6488.88
509.514	6431.94
509.882	6506.74
510.25	6463.8
510.618	6536.57
510.986	6504.93
511.354	6554.42
511.722	6593.74
512.09	6632.61
512.458	6675.77
512.826	6680.97
513.193	6667.64
513.561	6684.13
513.929	6671.93
514.297	6780.85
514.664	6757.58
515.032	6784.24
515.4	6788.54
515.767	6819.72
516.135	6806.16
516.502	6770.01
516.869	6928.42
517.237	6862.66
517.604	6882.77
517.972	6900.4
518.339	6905.6
518.706	6949.89
519.073	6955.09
519.44	6924.58
519.808	6997.8
520.175	6982.43
520.542	7040.73
520.909	7018.36
521.276	7011.81
521.643	7102.65
522.009	7080.28
522.376	7153.72
522.743	7140.62
523.11	7218.81
523.477	7276.88
523.843	7262.65
524.21	7338.58
524.577	7327.96
524.943	7334.51
525.31	7377.67
525.676	7420.84
526.043	7499.25
526.409	7425.13
526.776	7481.85
527.142	7512.36
527.508	7539.48
527.874	7588.29
528.241	7602.98
528.607	7631.23
528.973	7616.99
529.339	7654.73
529.705	7696.76
530.071	7694.95
530.437	7649.3
530.803	7746.93
531.169	7767.95
531.535	7772.92
531.901	7710.77
532.267	7809.3
532.632	7823.31
532.998	7832.35
533.364	7887.72
533.73	7850.2
534.095	7911.22
534.461	7896.08
534.826	7976.08
535.192	7908.28
535.557	7992.35
535.923	7953.25
536.288	7973.14
536.653	7956.19
537.019	7932.01
537.384	7979.47
537.749	8010.88
538.114	7987.6
538.479	7999.13
538.845	8020.82
539.21	8044.1
539.575	8051.78
539.94	7997.32
540.305	8083.87
540.67	8034.61
541.034	8073.7
541.399	8090.65
541.764	8122.74
542.129	8143.98
542.494	8113.7
542.858	8157.99
543.223	8157.99
543.587	8196.63
543.952	8156.18
544.316	8205.9
544.681	8185.79
545.045	8188.5
545.41	8207.93
545.774	8268.5
546.138	8191.66
546.503	8259.23
546.867	8229.18
547.231	8284.77
547.595	8317.54
547.959	8339.46
548.324	8259.01
548.688	8362.51
549.052	8294.26
549.416	8331.32
549.779	8327.25
550.143	8345.56
550.507	8314.15
550.871	8319.12
551.235	8345.33
551.599	8368.61
551.962	8381.04
552.326	8403.18
552.689	8443.41
553.053	8416.06
553.417	8497.42
553.78	8540.13
554.143	8454.26
554.507	8482.5
554.87	8489.51
555.234	8578.09
555.597	8505.33
555.96	8537.42
556.323	8602.95
556.686	8552.56
557.05	8597.98
557.413	8577.19
557.776	8606.57
558.139	8620.8
558.502	8679.33
558.865	8676.62
559.228	8749.61
559.59	8800.69
559.953	8758.88
560.316	8814.47
560.679	8787.58
561.041	8874.36
561.404	8908.71
561.767	8911.64
562.129	8891.98
562.492	9030.06
562.854	9017.4
563.217	8978.54
563.579	9035.26
563.941	9090.62
564.304	9097.85
564.666	9061.47
565.028	9113.67
565.39	9202.71
565.753	9152.32
566.115	9235.48
566.477	9259.66
566.839	9247.45
567.201	9359.99
567.563	9321.35
567.925	9398.86
568.287	9422.59
568.648	9390.73
569.01	9417.62
569.372	9580.33
569.734	9481.35
570.095	9568.35
570.457	9610.16
570.819	9571.51
571.18	9643.15
571.542	9626.88
571.903	9711.62
572.265	9720.21
572.626	9746.42
572.987	9752.3
573.349	9798.4
573.71	9844.05
574.071	9868.23
574.432	9896.93
574.794	9950.94
575.155	10019.64
575.516	9959.98
575.877	9993.2
576.238	10006.53
576.599	10124.95
576.96	10072.52
577.32	10120.65
577.681	10173.31
578.042	10161.1
578.403	10238.61
578.763	10223.02
579.124	10267.31
579.485	10338.5
579.845	10385.05
580.206	10363.13
580.566	10411.94
580.927	10385.05
581.287	10451.04
581.648	10444.26
582.008	10560.64
582.368	10491.72
582.728	10500.08
583.089	10538.72
583.449	10562.9
583.809	10554.31
584.169	10602.9
584.529	10668.43
584.889	10745.95
585.249	10717.92
585.609	10672.95
585.969	10790.01
586.329	10806.28
586.688	10781.88
587.048	10807.19
587.408	10796.34
587.768	10772.16
588.127	10851.48
588.487	10931.7
588.846	11013.74
589.206	10922.21
589.565	10963.79
589.925	10960.18
590.284	10924.7
590.643	11028.42
591.003	11063.68
591.362	11176.22
591.721	11168.31
592.08	11106.84
592.44	11157.69
592.799	11161.08
593.158	11224.13
593.517	11196.33
593.876	11240.4
594.235	11274.75
594.593	11263.22
594.952	11331.92
595.311	11337.8
595.67	11336.21
596.029	11403.78
596.387	11373.73
596.746	11415.76
597.104	11387.29
597.463	11340.51
597.822	11456.89
598.18	11455.08
598.538	11520.84
598.897	11476.55
599.255	11436.1
599.613	11592.48
599.972	11516.1
600.33	11578.69
600.688	11463.89
601.046	11542.31
601.404	11623.21
601.762	11650.78
602.12	11653.72
602.478	11602.19
602.836	11650.33
603.194	11604.23
603.552	11686.49
603.91	11573.27
604.268	11663.44
604.625	11638.8
604.983	11582.99
605.341	11647.62
605.698	11644.23
606.056	11739.59
606.413	11693.94
606.771	11828.86
607.128	11749.08
607.485	11732.59
607.843	11732.59
608.2	11851.45
608.557	11863.21
608.914	11857.1
609.272	11835.18
609.629	11924.22
609.986	11909.31
610.343	11885.35
610.7	11919.93
611.057	11868.63
611.414	11945.46
611.771	11962.19
612.127	11971
612.484	11964.9
612.841	11968.51
613.198	11972.35
613.554	12033.37
613.911	12016.42
614.267	11999.25
614.624	11990.21
614.98	12049.64
615.337	12009.64
615.693	12067.72
616.05	12128.96
616.406	12128.73
616.762	12033.6
617.118	12134.61
617.475	12076.31
617.831	12160.15
618.187	12136.42
618.543	12136.64
618.899	12167.15
619.255	12159.02
619.611	12191.78
619.967	12200.82
620.323	12176.64
620.678	12176.64
621.034	12181.16
621.39	12139.81
621.746	12187.49
622.101	12268.17
622.457	12260.03
622.812	12227.49
623.168	12224.1
623.523	12243.76
623.879	12237.88
624.234	12214.83
624.589	12199.47
624.945	12227.04
625.3	12138.23
625.655	12258.9
626.01	12281.95
626.365	12255.96
626.72	12184.55
627.075	12257.54
627.43	12230.43
627.785	12169.64
628.14	12191.11
628.495	12164.21
628.85	12169.19
629.205	12161.5
629.559	12211.44
629.914	12109.98
630.269	12153.14
630.623	12180.03
630.978	12170.09
631.332	12142.75
631.687	12217.77
632.041	12088.28
632.396	12189.75
632.75	12075.4
633.104	12069.75
633.459	11955.41
633.813	12035.86
634.167	12067.95
634.521	11995.63
634.875	11957.89
635.229	11937.78
635.583	11866.14
635.937	11995.4
636.291	11910.21
636.645	11963.32
636.999	11885.35
637.352	11950.89
637.706	11726.03
638.06	11910.66
638.413	11822.53
638.767	11822.3
639.121	11863.43
639.474	11738.91
639.828	11778.91
640.181	11773.94
640.534	11901.85
640.888	11716.09
641.241	11679.71
641.594	11709.08
641.947	11721.97
642.301	11648.3
642.654	11722.19
643.007	11726.03
643.36	11737.56
643.713	11622.08
644.066	11725.58
644.419	11620.73
644.771	11496.21
645.124	11463.89
645.477	11451.24
645.83	11426.38
646.182	11331.02
646.535	11339.6
646.888	11365.59
647.24	11203.11
647.593	11293.5
647.945	11279.04
648.298	11180.29
648.65	11238.36
649.002	11225.93
649.355	11271.58
649.707	11278.59
650.059	11322.2
650.411	11493.72
650.763	11465.25
651.115	11519.26
651.467	11531.46
651.819	11541.18
652.171	11513.38
652.523	11476.32
652.875	11507.73
653.227	11384.35
653.578	11559.03
653.93	11468.87
654.282	11416.89
654.633	11456.89
654.985	11377.12
655.337	11421.86
655.688	11438.81
656.039	11493.5
656.391	11398.36
656.742	11421.63
657.094	11347.74
657.445	11468.87
657.796	11399.71
658.147	11446.94
658.498	11371.69
658.849	11385.25
659.2	11429.32
659.551	11359.49
659.902	11366.27
660.253	11427.28
660.604	11443.1
660.955	11395.42
661.306	11432.71
661.656	11430.45
662.007	11458.47
662.358	11551.57
662.708	11486.49
663.059	11450.79
663.409	11332.37
663.76	11456.89
664.11	11475.19
664.461	11499.15
664.811	11432.48
665.161	11412.37
665.511	11393.16
665.862	11396.78
666.212	11451.24
666.562	11527.17
666.912	11412.37
667.262	11467.96
667.612	11502.76
667.962	11443.33
668.312	11456.66
668.662	11446.94
669.011	11421.86
669.361	11363.11
669.711	11372.37
670.06	11426.38
670.41	11348.64
670.76	11331.47
671.109	11376.66
671.459	11377.79
671.808	11359.04
672.157	11382.54
672.507	11279.04
672.856	11326.5
673.205	11307.29
673.554	11392.03
673.904	11336.44
674.253	11443.78
674.602	11288.3
674.951	11159.72
675.3	11065.71
675.649	11222.77
675.998	11269.55
676.346	11273.84
676.695	11252.15
677.044	11186.84
677.393	11126.28
677.741	11187.74
678.09	11282.2
678.438	11142.77
678.787	11123.56
679.135	11159.04
679.484	11056.67
679.832	11119.04
680.181	11007.63
680.529	11067.07
680.877	11052.83
681.225	11060.29
681.573	11060.29
681.922	10964.47
682.27	10927.64
682.618	10958.6
682.966	10899.16
683.314	10958.6
683.661	10923.79
684.009	10841.76
684.357	10861.88
684.705	10884.02
685.053	10860.75
685.4	10872.95
685.748	10808.54
686.095	10771.26
686.443	10741.65
686.79	10670.02
687.138	10670.02
687.485	10710.92
687.832	10594.31
688.18	10629.11
688.527	10661.43
688.874	10620.3
689.221	10566.74
689.568	10471.6
689.915	10427.76
690.262	10477.7
690.609	10439.51
690.956	10383.92
691.303	10358.84
691.65	10304.15
691.997	10308.22
692.344	10240.42
692.69	10213.3
693.037	10258.73
693.383	10116.58
693.73	10212.85
694.077	10074.33
694.423	10048.56
694.769	10045.17
695.116	10020.32
695.462	10026.42
695.808	9935.57
696.155	9975.8
696.501	9912.52
696.847	9860.77
697.193	9835.01
697.539	9763.6
697.885	9802.02
698.231	9767.67
698.577	9727.89
698.923	9772.19
699.269	9672.08
699.614	9556.82
699.96	9538.07
700.306	9534.45
700.651	9484.96
700.997	9495.58
701.342	9458.97
701.688	9454.45
702.033	9407.22
702.379	9382.14
702.724	9349.82
703.069	9381.24
703.415	9295.14
703.76	9259.88
704.105	9303.05
704.45	9204.29
704.795	9151.41
705.14	9079.55
705.485	9130.85
705.83	9029.16
706.175	9104.63
706.52	9067.12
706.865	8995.03
707.209	8963.85
707.554	8906.67
707.899	8924.53
708.243	8927.91
708.588	8864.64
708.932	8833
709.277	8851.76
709.621	8838.2
709.966	8792.78
710.31	8826.9
710.654	8648.83
710.998	8683.18
711.342	8712.78
711.687	8716.4
712.031	8713.68
712.375	8579
712.719	8601.82
713.063	8611.77
713.407	8666.45
713.75	8563.4
714.094	8639.11
714.438	8562.95
714.782	8556.17
715.125	8535.61
715.469	8554.14
715.812	8505.55
716.156	8454.71
716.499	8493.35
716.843	8416.97
717.186	8424.65
717.53	8396.86
717.873	8430.75
718.216	8427.14
718.559	8373.13
718.902	8293.13
719.246	8327.48
719.589	8332.9
719.932	8301.94
720.275	8309.85
720.617	8332.9
720.96	8249.74
721.303	8235.05
721.646	8339.23
721.989	8251.77
722.331	8273.92
722.674	8192.57
723.016	8240.7
723.359	8215.17
723.701	8202.96
724.044	8145.34
724.386	8174.94
724.729	8195.96
725.071	8164.77
725.413	8124.55
725.755	8167.48
726.097	8083.42
726.439	8107.37
726.782	8109.63
727.124	8123.87
727.465	8101.5
727.807	8100.37
728.149	8066.47
728.491	8093.81
728.833	8075.73
729.175	7995.51
729.516	8014.27
729.858	8033.02
730.199	8060.82
730.541	8025.11
730.882	7997.32
731.224	8028.5
731.565	8047.03
731.906	8004.1
732.248	8051.33
732.589	7997.32
732.93	8013.36
733.271	8004.55
733.612	8009.52
733.953	8009.97
734.294	7969.3
734.635	7967.26
734.976	8043.87
735.317	7959.13
735.658	7953.03
735.999	7940.82
736.339	7921.61
736.68	8000.93
737.021	7956.19
737.361	7955.06
737.702	7996.64
738.042	7995.51
738.383	7997.77
738.723	7982.63
739.063	7967.71
739.404	8027.6
739.744	7985.79
740.084	7999.58
740.424	7962.29
740.764	7962.29
741.104	8037.54
741.444	7951.44
741.784	8011.78
742.124	8020.59
742.464	8059.24
742.804	8023.76
743.143	8038.22
743.483	8080.93
743.823	8012.23
744.162	8086.36
744.502	8067.37
744.841	8087.71
745.181	8150.31
745.52	8152.79
745.86	8148.5
746.199	8203.87
746.538	8269.18
746.877	8349.4
747.216	8355.27
747.556	8402.96
747.895	8391.21
748.234	8319.12
748.573	8459.68
748.911	8478.66
749.25	8510.07
749.589	8571.09
749.928	8623.97
750.267	8709.84
750.605	8739.9
750.944	8749.84
751.283	8858.54
751.621	8977.41
751.96	9016.5
752.298	9027.8
752.636	9165.42
752.975	9198.64
753.313	9236.38
753.651	9425.3
753.989	9422.14
754.327	9625.07
754.666	9601.34
755.004	9735.13
755.342	9867.78
755.679	9956.59
756.017	10053.54
756.355	10137.15
756.693	10198.62
757.031	10360.42
757.368	10454.43
757.706	10553.63
758.044	10719.28
758.381	10858.49
758.719	11001.98
759.056	11131.02
759.394	11275.42
759.731	11352.94
760.068	11525.36
760.405	11741.4
760.743	11784.56
761.08	11852.58
761.417	12077.44
761.754	12181.16
762.091	12311.55
762.428	12498.22
762.765	12631.32
763.102	12831.99
763.438	12908.6
763.775	13049.39
764.112	13236.73
764.449	13402.83
764.785	13485.54
765.122	13563.95
765.458	13752.19
765.795	13881.46
766.131	14115.12
766.467	14102.92
766.804	14259.98
767.14	14340.88
767.476	14677.59
767.812	14662
768.148	14831.49
768.485	14966.63
768.821	15007.98
769.157	15178.37
769.492	15318.03
769.828	15496.33
770.164	15400.97
770.5	15618.13
770.836	15709.21
771.171	15706.49
771.507	15793.05
771.842	15929.54
772.178	16006.15
772.513	16167.5
772.849	16204.56
773.184	16260.6
773.519	16441.16
773.855	16450.43
774.19	16455.17
774.525	16546.02
774.86	16735.39
775.195	16712.34
775.53	16781.04
775.865	16769.29
776.2	16813.13
776.535	16806.35
776.87	16838.89
777.205	16880.93
777.539	16926.57
777.874	17011.32
778.209	17061.03
778.543	17114.37
778.878	17084.08
779.212	17171.09
779.547	17123.41
779.881	17265.1
780.215	17203.63
780.55	17341.25
780.884	17199.56
781.218	17240.92
781.552	17420.12
781.886	17353.46
782.22	17300.8
782.554	17394.13
782.888	17215.15
783.222	17177.19
783.556	17144.65
783.889	17197.08
784.223	17122.95
784.557	17068.27
784.89	17249.96
785.224	17145.33
785.557	17082.95
785.891	17189.62
786.224	17150.52
786.558	17225.78
786.891	17053.35
787.224	17065.78
787.557	16969.29
787.891	17088.6
788.224	17143.29
788.557	17194.59
788.89	17151.65
789.223	17053.13
789.556	17013.8
789.888	17030.98
790.221	16993.24
790.554	16919.34
790.887	16883.41
791.219	16866.24
791.552	16901.49
791.884	16734.72
792.217	16852.23
792.549	16767.03
792.882	16705.11
793.214	16645.45
793.546	16678.9
793.879	16612.68
794.211	16505.79
794.543	16607.04
794.875	16544.21
795.207	16602.74
795.539	16565.45
795.871	16599.35
796.203	16404.1
796.535	16327.72
796.867	16414.27
797.198	16324.78
797.53	16338.57
797.862	16181.51
798.193	16299.7
798.525	16049.08
798.856	16160.95
799.188	16045.92
799.519	15971.35
799.85	15905.13
800.182	16031.23
800.513	15897
800.844	15747.62
801.175	15944.45
801.506	15872.82
801.837	15764.8
802.168	15737
802.499	15758.7
802.83	15636.89
803.161	15650
803.491	15666.04
803.822	15692.48
804.153	15547.18
804.483	15542.66
804.814	15412.26
805.145	15407.29
805.475	15566.61
805.805	15443.68
806.136	15347.86
806.466	15407.97
806.796	15356.67
807.126	15174.08
807.457	15205.49
807.787	15192.38
808.117	15163.46
808.447	15160.97
808.777	15178.37
809.107	14975.67
809.436	15096.34
809.766	15120.52
810.096	15086.4
810.426	14947.42
810.755	14930.02
811.085	14915.1
811.414	14900.41
811.744	14788.55
812.073	14857.7
812.403	14753.98
812.732	14807.08
813.061	14769.8
813.39	14631.49
813.719	14600.99
814.049	14699.29
814.378	14609.35
814.707	14550.82
815.036	14479.63
815.365	14495.45
815.693	14388.79
816.022	14409.35
816.351	14442.12
816.68	14310.37
817.008	14357.38
817.337	14180.66
817.665	14255.46
817.994	14280.32
818.322	14275.57
818.651	14144.5
818.979	14076.71
819.307	14179.3
819.636	14103.82
819.964	14113.32
820.292	14112.64
820.62	14059.08
820.948	14066.76
821.276	14180.66
821.604	14024.73
821.932	14092.52
822.259	14137.72
822.587	14032.41
822.915	14079.19
823.243	14161.45
823.57	14038.29
823.898	14110.83
824.225	13923.04
824.553	14069.7
824.88	13979.76
825.207	14092.3
825.535	13981.79
825.862	14090.94
826.189	14051.17
826.516	14121.45
826.843	14179.3
827.17	14127.78
827.497	14113.09
827.824	14132.75
828.151	14227.21
828.478	14132.07
828.805	14261.11
829.131	14052.3
829.458	14153.54
829.785	14048.68
830.111	14107.67
830.438	14157.83
830.764	14079.42
831.09	14070.83
831.417	13990.61
831.743	14047.55
832.069	14157.61
832.395	14010.95
832.722	14109.93
833.048	14033.32
833.374	14016.59
833.7	13910.38
834.026	13964.84
834.351	13958.52
834.677	13995.13
835.003	13914
835.329	14004.84
835.654	13911.29
835.98	13884.17
836.306	13899.99
836.631	13874.9
836.956	13925.3
837.282	13981.57
837.607	13803.04
837.932	13767.56
838.258	13784.06
838.583	13766.21
838.908	13698.19
839.233	13726.88
839.558	13768.01
839.883	13648.69
840.208	13644.18
840.533	13632.65
840.858	13670.62
841.182	13608.24
841.507	13587.45
841.832	13492.99
842.156	13497.51
842.481	13524.18
842.805	13492.09
843.13	13432.2
843.454	13432.66
843.778	13316.27
844.103	13318.76
844.427	13270.17
844.751	13342.71
845.075	13254.13
845.399	13255.94
845.723	13050.52
846.047	13144.53
846.371	13059.56
846.695	13074.7
847.019	13014.36
847.343	12918.77
847.666	12851.2
847.99	12837.19
848.313	12796.97
848.637	12669.74
848.96	12586.58
849.284	12594.26
849.607	12578.44
849.931	12463.19
850.254	12424.55
850.577	12401.04
850.9	12294.15
851.223	12290.09
851.546	12211.22
851.869	12131.67
852.192	12170.32
852.515	12072.92
852.838	11978.46
853.161	12034.5
853.483	12074.27
853.806	11973.94
854.129	11940.72
854.451	11889.87
854.774	11826.6
855.096	11784.34
855.419	11769.65
855.741	11831.57
856.063	11652.59
856.385	11613.72
856.708	11575.08
857.03	11575.08
857.352	11528.75
857.674	11534.63
857.996	11415.53
858.318	11382.31
858.64	11424.12
858.961	11381.41
859.283	11359.49
859.605	11223
859.926	11278.14
860.248	11339.38
860.57	11223.45
860.891	11252.37
861.212	11219.15
861.534	11216.67
861.855	11081.98
862.176	11092.38
862.498	11123.11
862.819	11079.72
863.14	11051.47
863.461	10989.33
863.782	10952.49
864.103	11044.24
864.424	10938.26
864.745	10982.32
865.065	10958.6
865.386	10903
865.707	10883.8
866.027	10865.27
866.348	10835.44
866.668	10836.57
866.989	10851.71
867.309	10756.79
867.63	10794.53
867.95	10776
868.27	10694.65
868.59	10714.99
868.91	10653.52
869.23	10648.32
869.55	10667.08
869.87	10720.86
870.19	10604.48
870.51	10616.91
870.83	10605.38
871.15	10597.48
871.469	10531.49
871.789	10615.55
872.109	10504.6
872.428	10471.38
872.748	10516.12
873.067	10463.02
873.386	10518.16
873.706	10449.46
874.025	10352.96
874.344	10345.28
874.663	10427.99
874.982	10402.45
875.301	10402.45
875.62	10378.27
875.939	10321.32
876.258	10298.05
876.577	10240.42
876.896	10286.98
877.214	10199.29
877.533	10259.41
877.852	10228.9
878.17	10241.55
878.489	10272.51
878.807	10196.36
879.125	10193.64
879.444	10180.76
879.762	10063.25
880.08	10163.14
880.398	10070.26
880.716	9984.84
881.034	10018.73
881.352	10027.32
881.67	9999.3
881.988	9926.08
882.306	9897.61
882.624	9895.57
882.941	9849.25
883.259	9882.47
883.577	9816.93
883.894	9811.51
884.212	9745.75
884.529	9805.63
884.846	9813.54
885.164	9704.17
885.481	9675.92
885.798	9680.89
886.115	9605.86
886.432	9610.38
886.75	9565.41
887.067	9559.99
887.383	9555.92
887.7	9578.52
888.017	9562.25
888.334	9507.33
888.651	9496.94
888.967	9472.99
889.284	9415.59
889.6	9428.01
889.917	9322.03
890.233	9379.2
890.55	9291.75
890.866	9342.14
891.182	9273.44
891.498	9238.42
891.815	9221.47
892.131	9200
892.447	9145.31
892.763	9097.18
893.079	9150.51
893.395	9167.46
893.71	9053.79
894.026	9047.91
894.342	9016.73
894.657	8962.26
894.973	8861.93
895.289	8900.57
895.604	8913.23
895.92	8842.72
896.235	8814.02
896.55	8780.8
896.865	8773.79
897.181	8808.37
897.496	8665.1
897.811	8660.13
898.126	8673.01
898.441	8597.08
898.756	8569.96
899.071	8497.42
899.386	8595.72
899.7	8489.06
900.015	8496.06
900.33	8408.61
900.644	8376.52
900.959	8405.89
901.273	8365.44
901.588	8295.84
901.902	8288.61
902.216	8230.08
902.531	8235.28
902.845	8207.26
903.159	8113.7
903.473	8107.6
903.787	8056.75
904.101	7972.23
904.415	7996.41
904.729	7936.08
905.042	7921.16
905.356	7973.14
905.67	7913.93
905.984	7891.33
906.297	7890.65
906.611	7758.68
906.924	7773.14
907.237	7720.26
907.551	7732.47
907.864	7692.92
908.177	7645.91
908.491	7615.18
908.804	7593.49
909.117	7564.11
909.43	7513.71
909.743	7525.92
910.056	7491.34
910.368	7422.19
910.681	7392.14
910.994	7407.05
911.307	7339.71
911.619	7296.77
911.932	7280.5
912.244	7233.72
912.557	7238.92
912.869	7139.94
913.181	7172.71
913.494	7143.78
913.806	7068.3
914.118	7047.29
914.43	7034.63
914.742	7011.36
915.054	7002.77
915.366	6975.65
915.678	6909.44
915.99	6920.74
916.302	6843.68
916.613	6834.64
916.925	6786.05
917.236	6791.7
917.548	6775.66
917.859	6756.9
918.171	6675.54
918.482	6712.83
918.794	6628.31
919.105	6596.45
919.416	6574.08
919.727	6564.59
920.038	6616.11
920.349	6563.91
920.66	6487.53
920.971	6450.47
921.282	6442.78
921.593	6391.94
921.903	6391.71
922.214	6391.71
922.525	6320.3
922.835	6318.04
923.146	6271.26
923.456	6281.43
923.767	6204.37
924.077	6263.58
924.387	6168.44
924.697	6146.75
925.008	6103.58
925.318	6101.77
925.628	6102.45
925.938	6056.58
926.248	6072.85
926.558	6038.05
926.867	5955.56
927.177	5966.41
927.487	5896.81
927.796	5925.28
928.106	5930.03
928.416	5907.2
928.725	5852.29
929.034	5845.06
929.344	5867.43
929.653	5786.3
929.962	5723.25
930.271	5766.42
930.581	5699.3
930.89	5654.78
931.199	5674.67
931.508	5651.84
931.817	5610.04
932.125	5608
932.434	5591.05
932.743	5538.63
933.051	5521.9
933.36	5516.25
933.669	5452.53
933.977	5465.63
934.286	5417.72
934.594	5461.34
934.902	5349.48
935.21	5355.13
935.519	5371.17
935.827	5288.69
936.135	5283.27
936.443	5209.59
936.751	5233.77
937.059	5242.81
937.367	5195.36
937.674	5238.75
937.982	5168.92
938.29	5188.8
938.597	5155.36
938.905	5099.54
939.213	5002.37
939.52	5045.08
939.827	5056.15
940.135	5011.41
940.442	4997.85
940.749	4985.65
941.056	4966.89
941.363	4929.6
941.67	4889.15
941.977	4907
942.284	4868.13
942.591	4861.36
942.898	4843.05
943.205	4787.68
943.511	4824.75
943.818	4737.06
944.125	4765.54
944.431	4713.34
944.738	4750.62
945.044	4646.22
945.35	4702.72
945.657	4634.92
945.963	4598.76
946.269	4607.58
946.575	4560.57
946.881	4594.02
947.187	4585.66
947.493	4488.26
947.799	4555.83
948.105	4480.57
948.41	4464.53
948.716	4472.66
949.022	4456.62
949.327	4460.91
949.633	4328.49
949.938	4349.05
950.244	4373.91
950.549	4334.36
950.854	4332.33
951.16	4317.64
951.465	4283.52
951.77	4234.25
952.075	4232.22
952.38	4236.51
952.685	4197.19
952.99	4159.9
953.294	4143.18
953.599	4140.92
953.904	4114.71
954.209	4080.58
954.513	4110.19
954.818	4126.01
955.122	4032
955.426	4037.2
955.731	4058.89
956.035	4005.11
956.339	3971.21
956.643	3940.02
956.948	3934.37
957.252	3944.54
957.556	3900.25
957.86	3926.69
958.163	3909.06
958.467	3896.63
958.771	3886.69
959.075	3837.43
959.378	3799.91
959.682	3831.55
959.985	3812.34
960.289	3741.38
960.592	3744.77
960.896	3717.43
961.199	3779.12
961.502	3716.75
961.805	3683.99
962.108	3690.31
962.411	3674.95
962.714	3660.03
963.017	3640.37
963.32	3613.25
963.623	3610.31
963.926	3592.46
964.228	3584.78
964.531	3581.16
964.833	3571.9
965.136	3526.02
965.438	3500.04
965.741	3455.29
966.043	3505.68
966.345	3489.41
966.648	3439.92
966.95	3481.05
967.252	3436.08
967.554	3370.55
967.856	3434.95
968.158	3378.68
968.46	3407.61
968.761	3339.59
969.063	3336.88
969.365	3320.38
969.666	3322.41
969.968	3321.96
970.269	3252.58
970.571	3272.47
970.872	3272.92
971.174	3225.69
971.475	3218.46
971.776	3205.58
972.077	3202.64
972.378	3153.6
972.679	3169.42
972.98	3161.06
973.281	3131.46
973.582	3153.83
973.883	3150.44
974.183	3133.94
974.484	3095.3
974.785	3071.8
975.085	3041.06
975.386	3054.62
975.686	3038.13
975.986	3022.99
976.287	3032.93
976.587	2989.09
976.887	3028.41
977.187	2974.4
977.487	2931.01
977.787	2936.89
978.087	2939.15
978.387	2938.02
978.687	2871.58
978.987	2854.63
979.286	2872.93
979.586	2896.89
979.885	2853.05
980.185	2816.66
980.484	2838.81
980.784	2796.78
981.083	2786.83
981.382	2778.92
981.682	2780.96
981.981	2749.09
982.28	2749.77
982.579	2717.46
982.878	2726.04
983.177	2692.37
983.475	2670.9
983.774	2667.06
984.073	2650.34
984.372	2627.74
984.67	2649.66
984.969	2628.19
985.267	2619.15
985.566	2608.99
985.864	2587.74
986.162	2608.08
986.461	2581.64
986.759	2592.04
987.057	2553.17
987.355	2536.9
987.653	2526.73
987.951	2502.55
988.249	2508.65
988.547	2481.76
988.844	2455.09
989.142	2500.74
989.44	2420.06
989.737	2437.69
990.035	2421.87
990.332	2439.27
990.63	2394.3
990.927	2399.5
991.224	2406.73
991.521	2376.22
991.819	2399.73
992.116	2375.32
992.413	2334.87
992.71	2344.36
993.006	2317.69
993.303	2339.39
993.6	2296.9
993.897	2331.03
994.193	2318.15
994.49	2270.46
994.787	2258.03
995.083	2259.39
995.379	2230.24
995.676	2242.67
995.972	2225.04
996.268	2214.65
996.565	2210.13
996.861	2173.52
997.157	2187.75
997.453	2173.06
997.749	2145.72
998.044	2113.18
998.34	2090.81
998.636	2139.17
998.932	2134.2
999.227	2106.63
999.523	2105.72
999.818	2119.96
1000.114	2072.95
1000.409	2056.01
1000.704	2080.64
1001	2065.95
1001.295	2019.85
1001.59	2034.99
1001.885	2003.8
1002.18	2030.92
1002.475	1975.78
1002.77	1950.25
1003.065	1985.72
1003.359	1932.84
1003.654	1913.18
1003.949	1913.86
1004.243	1903.24
1004.538	1915.22
1004.832	1893.07
1005.127	1891.49
1005.421	1896.46
1005.715	1859.17
1006.009	1865.95
1006.304	1855.33
1006.598	1816.01
1006.892	1802.68
1007.186	1790.02
1007.48	1792.51
1007.773	1784.6
1008.067	1775.11
1008.361	1753.19
1008.655	1764.04
1008.948	1747.09
1009.242	1735.56
1009.535	1756.13
1009.829	1725.39
1010.122	1694.66
1010.415	1688.78
1010.708	1690.82
1011.001	1654.66
1011.295	1679.74
1011.588	1672.96
1011.881	1668.67
1012.173	1652.63
1012.466	1636.58
1012.759	1630.48
1013.052	1634.32
1013.344	1621.89
1013.637	1592.29
1013.93	1596.13
1014.222	1578.05
1014.514	1563.14
1014.807	1557.71
1015.099	1554.78
1015.391	1541.89
1015.683	1523.82
1015.976	1498.28
1016.268	1517.49
1016.56	1515.45
1016.851	1492.63
1017.143	1508.68
1017.435	1499.18
1017.727	1479.07
1018.018	1477.49
1018.31	1457.83
1018.602	1443.82
1018.893	1427.32
1019.185	1426.87
1019.476	1404.72
1019.767	1416.93
1020.058	1399.3
1020.35	1377.15
1020.641	1377.83
1020.932	1391.62
1021.223	1357.49
1021.514	1332.86
1021.804	1333.54
1022.095	1358.85
1022.386	1354.33
1022.677	1339.41
1022.967	1304.39
1023.258	1310.71
1023.548	1318.4
1023.839	1269.81
1024.129	1285.63
1024.419	1282.92
1024.709	1270.49
1025	1249.47
1025.29	1234.11
1025.58	1228
1025.87	1230.26
1026.16	1214.67
1026.449	1231.39
1026.739	1222.81
1027.029	1200.89
1027.319	1178.51
1027.608	1183.71
1027.898	1188.23
1028.187	1189.14
1028.477	1142.81
1028.766	1162.02
1029.055	1154.11
1029.344	1148.91
1029.634	1117.27
1029.923	1116.82
1030.212	1144.39
1030.501	1130.38
1030.79	1086.99
1031.078	1064.84
1031.367	1102.13
1031.656	1079.99
1031.945	1061.46
1032.233	1074.79
1032.522	1078.63
1032.81	1048.57
1033.099	1058.97
1033.387	1051.29
1033.675	1026.2
1033.963	1037.73
1034.251	1027.56
1034.54	1010.61
1034.828	1014.22
1035.116	1015.81
1035.403	1011.06
1035.691	1000.67
1035.979	986.43
1036.267	983.94
1036.554	952.98
1036.842	973.32
1037.129	962.02
1037.417	960.67
1037.704	962.7
1037.992	942.81
1038.279	938.75
1038.566	941.01
1038.853	941.01
1039.14	941.01
