Data from hue_20_FLMS001491_61.txt Node
Date: Mon Feb 06 15:34:27 GMT 2017
User: dcchb
Spectrometer: FLMS00149
Trigger mode: 0
Integration Time (sec): 2.000000E-2
Scans to average: 10
Electric dark correction enabled: true
Nonlinearity correction enabled: false
Boxcar width: 0
XAxis mode: Wavelengths
Number of Pixels in Spectrum: 2048
>>>>>Begin Spectral Data<<<<<
341.393	-1.12
341.776	-1.12
342.16	-1.12
342.543	-58.52
342.927	-49.48
343.31	-81.57
343.693	-61.91
344.077	-67.1
344.46	-56.03
344.843	-65.52
345.226	-36.82
345.61	-27.1
345.993	-12.19
346.376	-19.87
346.759	13.12
347.142	20.8
347.525	45.89
347.908	69.16
348.291	80.24
348.674	101.71
349.057	97.19
349.44	102.84
349.823	129.28
350.206	178.99
350.588	215.83
350.971	195.72
351.354	223.51
351.737	227.8
352.119	241.14
352.502	268.93
352.884	264.19
353.267	261.7
353.65	307.8
354.032	279.78
354.414	321.36
354.797	317.97
355.179	319.55
355.562	325.88
355.944	333.79
356.326	353
356.709	325.66
357.091	322.49
357.473	366.11
357.855	359.78
358.238	348.03
358.62	329.95
359.002	329.95
359.384	345.77
359.766	357.29
360.148	338.76
360.53	333.79
360.912	314.36
361.294	338.31
361.676	344.64
362.057	343.06
362.439	327.92
362.821	330.4
363.203	333.79
363.584	331.76
363.966	293.34
364.348	337.18
364.729	323.62
365.111	327.46
365.493	331.76
365.874	327.24
366.256	332.89
366.637	321.59
367.019	324.98
367.4	327.24
367.781	298.31
368.163	291.76
368.544	299.89
368.925	325.2
369.306	320.91
369.688	315.49
370.069	331.76
370.45	320.68
370.831	305.54
371.212	326.11
371.593	307.12
371.974	298.54
372.355	299.22
372.736	340.57
373.117	284.3
373.498	308.03
373.879	306.45
374.26	294.24
374.641	319.1
375.021	306.22
375.402	313.68
375.783	318.42
376.163	331.53
376.544	332.89
376.925	316.62
377.305	330.63
377.686	317.97
378.066	322.94
378.447	346.9
378.827	338.31
379.208	320.46
379.588	329.72
379.968	332.21
380.349	343.73
380.729	341.47
381.109	366.11
381.489	340.12
381.87	327.01
382.25	354.13
382.63	330.85
383.01	341.93
383.39	328.37
383.77	344.86
384.15	331.08
384.53	339.89
384.91	327.46
385.29	357.52
385.67	344.41
386.049	346.22
386.429	329.95
386.809	336.73
387.189	353.45
387.568	346.45
387.948	357.52
388.328	357.29
388.707	346.45
389.087	345.77
389.466	336.28
389.846	370.17
390.225	348.93
390.605	343.28
390.984	369.5
391.363	347.12
391.743	378.76
392.122	341.7
392.501	365.2
392.881	390.74
393.26	378.99
393.639	368.59
394.018	362.94
394.397	375.82
394.776	389.16
395.155	392.77
395.534	372.43
395.913	378.08
396.292	371.98
396.671	384.86
397.05	381.02
397.429	399.55
397.808	385.31
398.186	376.28
398.565	372.89
398.944	379.89
399.323	389.83
399.701	384.64
400.08	390.74
400.458	388.03
400.837	395.48
401.215	405.65
401.594	392.09
401.972	396.61
402.351	400.23
402.729	406.33
403.107	419.66
403.486	419.44
403.864	428.7
404.242	398.87
404.62	406.78
404.999	404.3
405.377	419.21
405.755	435.71
406.133	421.7
406.511	399.33
406.889	407.24
407.267	395.94
407.645	426.22
408.023	417.63
408.401	407.24
408.779	416.27
409.156	441.13
409.534	429.38
409.912	416.73
410.29	447.23
410.667	441.58
411.045	449.04
411.422	451.98
411.8	431.87
412.178	468.93
412.555	437.06
412.933	434.35
413.31	437.52
413.687	456.05
414.065	464.18
414.442	469.83
414.819	451.98
415.197	465.99
415.574	469.15
415.951	464.41
416.328	468.7
416.705	458.31
417.082	492.66
417.46	469.15
417.837	491.75
418.214	488.14
418.591	511.41
418.967	494.46
419.344	498.31
419.721	507.8
420.098	483.84
420.475	501.7
420.852	508.48
421.228	524.07
421.605	493.79
421.982	504.41
422.358	514.8
422.735	491.53
423.111	498.08
423.488	508.93
423.864	495.14
424.241	529.04
424.617	540.11
424.994	539.66
425.37	540.34
425.746	552.77
426.123	545.54
426.499	557.29
426.875	514.58
427.251	540.56
427.627	573.78
428.003	550.51
428.379	565.2
428.756	570.62
429.132	568.36
429.507	576.27
429.883	576.5
430.259	592.09
430.635	585.99
431.011	586.21
431.387	594.8
431.763	601.58
432.138	602.03
432.514	621.24
432.89	604.29
433.265	584.18
433.641	624.63
434.016	625.08
434.392	670.73
434.767	637.96
435.143	637.06
435.518	639.09
435.894	663.27
436.269	666.89
436.644	655.14
437.02	666.66
437.395	665.08
437.77	660.56
438.145	667.12
438.52	688.13
438.895	690.84
439.271	684.52
439.646	682.93
440.021	709.37
440.395	673.44
440.77	695.82
441.145	704.18
441.52	692.65
441.895	728.36
442.27	722.71
442.645	731.52
443.019	712.09
443.394	695.36
443.769	712.76
444.143	726.32
444.518	738.53
444.892	743.27
445.267	720.22
445.641	744.85
446.016	732.65
446.39	753.44
446.764	756.15
447.139	753.89
447.513	764.06
447.887	778.07
448.262	780.56
448.636	783.95
449.01	782.59
449.384	780.78
449.758	791.63
450.132	801.8
450.506	814
450.88	785.98
451.254	824.85
451.628	830.5
452.002	822.37
452.376	827.79
452.75	843.16
453.123	828.69
453.497	853.55
453.871	819.43
454.244	862.59
454.618	841.8
454.992	851.52
455.365	890.84
455.739	891.52
456.112	922.7
456.486	882.25
456.859	915.24
457.232	929.26
457.606	929.93
457.979	931.06
458.352	925.87
458.725	951.63
459.099	958.86
459.472	958.63
459.845	970.61
460.218	995.47
460.591	997.28
460.964	995.24
461.337	1008.35
461.71	1022.36
462.083	1039.31
462.456	1039.99
462.829	1042.7
463.201	1062.59
463.574	1071.85
463.947	1049.93
464.32	1101.23
464.692	1085.18
465.065	1118.85
465.438	1116.59
465.81	1130.15
466.183	1148.91
466.555	1155.46
466.928	1158.4
467.3	1173.54
467.672	1213.32
468.045	1209.47
468.417	1250.15
468.789	1227.33
469.161	1236.37
469.534	1259.87
469.906	1274.78
470.278	1312.3
470.65	1328.34
471.022	1359.98
471.394	1374.67
471.766	1335.8
472.138	1358.17
472.51	1417.6
472.882	1412.18
473.253	1434.33
473.625	1440.43
473.997	1477.72
474.369	1517.49
474.74	1501.9
475.112	1545.96
475.484	1531.95
475.855	1598.62
476.227	1594.1
476.598	1663.93
476.97	1671.38
477.341	1705.05
477.713	1698.27
478.084	1743.25
478.455	1787.54
478.827	1780.08
479.198	1852.39
479.569	1851.72
479.94	1919.29
480.311	1930.81
480.682	1986.4
481.053	1993.18
481.424	2033.63
481.795	2120.86
482.166	2064.59
482.537	2140.07
482.908	2186.62
483.279	2220.52
483.65	2245.38
484.021	2278.37
484.391	2321.99
484.762	2366.96
485.133	2366.51
485.503	2399.27
485.874	2484.47
486.244	2477.69
486.615	2566.95
486.985	2599.72
487.356	2635.65
487.726	2680.17
488.097	2710.9
488.467	2759.04
488.837	2780.05
489.207	2815.99
489.578	2882.42
489.948	2918.13
490.318	2950.9
490.688	2996.77
491.058	3028.86
491.428	3065.24
491.798	3115.41
492.168	3147.95
492.538	3182.53
492.908	3234.73
493.278	3269.08
493.648	3298.91
494.017	3316.99
494.387	3332.81
494.757	3421.85
495.126	3459.36
495.496	3421.62
495.866	3432.01
496.235	3504.1
496.605	3538
496.974	3575.51
497.344	3632.24
497.713	3622.07
498.082	3662.52
498.452	3693.25
498.821	3696.64
499.19	3747.71
499.559	3792.46
499.928	3812.12
500.298	3818.9
500.667	3846.01
501.036	3867.48
501.405	3878.33
501.774	3922.85
502.143	3946.13
502.512	3963.75
502.88	4026.12
503.249	4052.34
503.618	4060.25
503.987	4021.38
504.356	4030.64
504.724	4094.6
505.093	4091.88
505.462	4123.07
505.83	4187.93
506.199	4204.42
506.567	4238.55
506.936	4232.22
507.304	4243.29
507.672	4253.24
508.041	4293.91
508.409	4328.71
508.777	4379.33
509.145	4356.74
509.514	4330.52
509.882	4485.77
510.25	4446.9
510.618	4435.15
510.986	4470.63
511.354	4516.05
511.722	4547.01
512.09	4566.9
512.458	4552.66
512.826	4603.28
513.193	4645.77
513.561	4627.92
513.929	4668.59
514.297	4730.29
514.664	4748.14
515.032	4675.6
515.4	4757.86
515.767	4801.47
516.135	4787.01
516.502	4770.96
516.869	4857.29
517.237	4864.07
517.604	4834.69
517.972	4871.07
518.339	4876.04
518.706	4911.75
519.073	4940.68
519.44	4954.91
519.808	4988.58
520.175	4977.51
520.542	5041.69
520.909	5099.32
521.276	5109.26
521.643	5163.04
522.009	5155.36
522.376	5211.63
522.743	5191.29
523.11	5216.37
523.477	5235.13
523.843	5296.6
524.21	5318.97
524.577	5411.85
524.943	5361
525.31	5429.25
525.676	5453.88
526.043	5455.01
526.409	5477.61
526.776	5498.4
527.142	5561
527.508	5556.7
527.874	5633.76
528.241	5652.97
528.607	5650.04
528.973	5664.5
529.339	5700.43
529.705	5743.82
530.071	5766.19
530.437	5837.37
530.803	5805.74
531.169	5853.87
531.535	5869.24
531.901	5852.97
532.267	5903.59
532.632	5976.35
532.998	6005.51
533.364	5966.41
533.73	6024.26
534.095	6088.89
534.461	6103.36
534.826	6174.54
535.192	6130.7
535.557	6163.02
535.923	6176.8
536.288	6205.27
536.653	6190.36
537.019	6247.08
537.384	6331.6
537.749	6303.8
538.114	6354.65
538.479	6315.78
538.845	6410.69
539.21	6353.75
539.575	6398.72
539.94	6471.48
540.305	6479.84
540.67	6482.1
541.034	6508.09
541.399	6536.79
541.764	6569.33
542.129	6532.05
542.494	6623.57
542.858	6650.01
543.223	6642.33
543.587	6700.4
543.952	6742.89
544.316	6687.75
544.681	6720.52
545.045	6793.73
545.41	6845.26
545.774	6834.18
546.138	6798.93
546.503	6911.92
546.867	6875.54
547.231	6936.78
547.595	6927.52
547.959	7001.64
548.324	6957.12
548.688	7010.23
549.052	7019.94
549.416	7080.96
549.779	7086.83
550.143	7095.87
550.507	7142.88
550.871	7140.39
551.235	7219.71
551.599	7230.11
551.962	7267.85
552.326	7258.81
552.689	7301.29
553.053	7242.54
553.417	7303.1
553.78	7360.95
554.143	7383.55
554.507	7477.56
554.87	7404.34
555.234	7532.02
555.597	7498.35
555.96	7456.54
556.323	7566.82
556.686	7530.66
557.05	7585.58
557.413	7583.09
557.776	7624.9
558.139	7713.26
558.502	7724.1
558.865	7743.77
559.228	7748.51
559.59	7806.36
559.953	7771.56
560.316	7941.27
560.679	7852.69
561.041	7882.74
561.404	7965
561.767	8011.1
562.129	7929.3
562.492	7967.71
562.854	8011.1
563.217	8024.44
563.579	8074.83
563.941	8158.22
564.304	8131.78
564.666	8213.36
565.028	8249.51
565.39	8262.85
565.753	8285.67
566.115	8317.31
566.477	8355.95
566.839	8362.73
567.201	8401.6
567.563	8427.36
567.925	8535.16
568.287	8502.16
568.648	8556.4
569.01	8516.85
569.372	8634.59
569.734	8584.42
570.095	8654.7
570.457	8689.5
570.819	8731.99
571.18	8729.95
571.542	8778.99
571.903	8815.38
572.265	8822.16
572.626	8899.44
572.987	8920.46
573.349	8995.48
573.71	9017.63
574.071	9060.57
574.432	9051.53
574.794	9220.34
575.155	9189.6
575.516	9213.33
575.877	9327
576.238	9406.09
576.599	9525.87
576.96	9512.76
577.32	9587.56
577.681	9619.2
578.042	9764.28
578.403	9675.01
578.763	9785.29
579.124	9962.92
579.485	10053.08
579.845	10063.25
580.206	10191.38
580.566	10264.38
580.927	10352.06
581.287	10500.3
581.648	10492.62
582.008	10753.63
582.368	10783.46
582.728	10896.68
583.089	11074.75
583.449	11217.35
583.809	11303.67
584.169	11502.08
584.529	11637.9
584.889	11817.56
585.249	11882.87
585.609	12021.17
585.969	12314.49
586.329	12347.94
586.688	12653.92
587.048	12893.46
587.408	12943.18
587.768	13222.27
588.127	13448.93
588.487	13522.14
588.846	13894.34
589.206	13988.57
589.565	14272.63
589.925	14563.02
590.284	14816.57
590.643	14964.14
591.003	15278.93
591.362	15483
591.721	15670.34
592.08	15969.54
592.44	16219.47
592.799	16443.88
593.158	16737.43
593.517	16974.03
593.876	17334.93
594.235	17496.96
594.593	17785.76
594.952	18142.36
595.311	18264.84
595.67	18638.85
596.029	18978.5
596.387	19385.27
596.746	19598.59
597.104	19736.9
597.463	19978.02
597.822	20492.36
598.18	20503.43
598.538	20915.17
598.897	21340.02
599.255	21469.51
599.613	22089.15
599.972	22118.3
600.33	22427.22
600.688	22604.84
601.046	23010.48
601.404	23278.27
601.762	23468.55
602.12	23982.89
602.478	24160.73
602.836	24400.05
603.194	24540.84
603.552	24925.23
603.91	25101.73
604.268	25409.97
604.625	25589.62
604.983	26008.37
605.341	26107.12
605.698	26498.07
606.056	26771.74
606.413	26923.83
606.771	27152.07
607.128	27510.03
607.485	27602.68
607.843	27963.57
608.2	28273.17
608.557	28557.46
608.914	28757.22
609.272	28970.1
609.629	29246.7
609.986	29501.84
610.343	29568.73
610.7	30001.94
611.057	30006.68
611.414	30256.62
611.771	30363.74
612.127	30876.49
612.484	31016.6
612.841	31110.61
613.198	31378.4
613.554	31497.04
613.911	31783.59
614.267	31909.68
614.624	31986.52
614.98	32233.06
615.337	32523.9
615.693	32501.08
616.05	32621.3
616.406	32988.75
616.762	33003.44
617.118	33219.03
617.475	33405.69
617.831	33560.94
618.187	33755.28
618.543	33878.45
618.899	34204.76
619.255	34217.42
619.611	34403.86
619.967	34556.62
620.323	34746.45
620.678	34716.16
621.034	34654.7
621.39	34802.26
621.746	34934.24
622.101	35423.49
622.457	35124.06
622.812	35350.72
623.168	35633.43
623.523	35533.77
623.879	35908.22
624.234	35714.56
624.589	35898.96
624.945	36158.39
625.3	36169.23
625.655	36224.82
626.01	36165.16
626.365	36326.74
626.72	36346.86
627.075	36387.98
627.43	36450.36
627.785	36482.44
628.14	36616.68
628.495	36759.27
628.85	36702.78
629.205	36580.52
629.559	36971.47
629.914	36731.7
630.269	36865.49
630.623	36750.01
630.978	36881.08
631.332	37004.92
631.687	37135.08
632.041	36948.87
632.396	37053.96
632.75	36906.39
633.104	37047.63
633.459	36931.02
633.813	36961.75
634.167	37061.86
634.521	37074.75
634.875	37178.7
635.229	37128.3
635.583	36968.53
635.937	37077.46
636.291	37092.6
636.645	37080.4
636.999	37106.84
637.352	37267.51
637.706	37092.37
638.06	37165.36
638.413	37190.45
638.767	36947.52
639.121	37191.13
639.474	36960.85
639.828	37035.88
640.181	37035.65
640.534	37143.44
640.888	37057.34
641.241	36801.76
641.594	37036.55
641.947	36992.26
642.301	36965.37
642.654	37081.52
643.007	37037.68
643.36	36913.39
643.713	36859.61
644.066	37108.19
644.419	36882.89
644.771	36638.6
645.124	36258.5
645.477	36259.63
645.83	36065.28
646.182	35991.16
646.535	35884.49
646.888	36067.31
647.24	35888.79
647.593	36020.08
647.945	35975.57
648.298	35858.05
648.65	35769.7
649.002	35715.01
649.355	35825.29
649.707	35758.62
650.059	35938.05
650.411	36393.86
650.763	36364.03
651.115	36632.27
651.467	36612.38
651.819	36593.4
652.171	36557.02
652.523	36623.68
652.875	36438.38
653.227	36220.98
653.578	36676.34
653.93	36428.66
654.282	36296.46
654.633	36343.69
654.985	36418.27
655.337	36507.08
655.688	36399.51
656.039	36500.3
656.391	36313.64
656.742	36332.84
657.094	36378.94
657.445	36522.22
657.796	36245.16
658.147	36338.95
658.498	36209.01
658.849	36347.98
659.2	36303.01
659.551	36208.1
659.902	36378.94
660.253	36249.91
660.604	36245.39
660.955	36091.49
661.306	36250.13
661.656	36131.27
662.007	36159.97
662.358	36274.77
662.708	36183.02
663.059	36088.1
663.409	35803.14
663.76	36326.97
664.11	36307.76
664.461	36205.84
664.811	36284.03
665.161	36227.54
665.511	36146.41
665.862	36223.47
666.212	36256.69
666.562	36246.97
666.912	36111.83
667.262	36157.71
667.612	36209.46
667.962	36149.35
668.312	36182.34
668.662	36196.12
669.011	36076.58
669.361	36044.49
669.711	35971.27
670.06	36053.53
670.41	35913.87
670.76	35926.75
671.109	35973.53
671.459	36117.71
671.808	35971.95
672.157	36164.94
672.507	35817.83
672.856	35790.03
673.205	35826.64
673.554	36059.18
673.904	35786.42
674.253	36036.35
674.602	35809.69
674.951	35392.53
675.3	35197.28
675.649	35856.7
675.998	35668.91
676.346	35700.54
676.695	35793.42
677.044	35467.1
677.393	35753.42
677.741	35687.66
678.09	35727.44
678.438	35491.28
678.787	35698.06
679.135	35651.51
679.484	35405.18
679.832	35582.58
680.181	35273.89
680.529	35436.14
680.877	35515.24
681.225	35381.23
681.573	35476.6
681.922	35285.41
682.27	35098.3
682.618	35098.07
682.966	35112.54
683.314	35152.08
683.661	35002.26
684.009	34868.02
684.357	34860.11
684.705	34834.58
685.053	34856.5
685.4	34710.51
685.748	34649.5
686.095	34671.19
686.443	34504.87
686.79	34443.85
687.138	34583.74
687.485	34499.22
687.832	34376.29
688.18	34448.15
688.527	34224.65
688.874	34172
689.221	34166.12
689.568	33998.44
689.915	34029.85
690.262	34021.04
690.609	33882.29
690.956	33812.91
691.303	33788.05
691.65	33488.85
691.997	33547.15
692.344	33347.84
692.69	33368.85
693.037	33341.06
693.383	33148.75
693.73	33214.06
694.077	33029.65
694.423	32938.36
694.769	32871.24
695.116	32758.25
695.462	32785.37
695.808	32734.07
696.155	32648.42
696.501	32480.97
696.847	32549.67
697.193	32216.79
697.539	32432.38
697.885	32199.85
698.231	32151.49
698.577	32104.93
698.923	32054.54
699.269	31842.11
699.614	31778.61
699.96	31678.28
700.306	31632.4
700.651	31629.01
700.997	31489.58
701.342	31507.66
701.688	31406.19
702.033	31329.13
702.379	31291.17
702.724	31232.41
703.069	31182.25
703.415	30897.51
703.76	31083.94
704.105	30977.96
704.45	30867.9
704.795	30672.2
705.14	30647.12
705.485	30532.09
705.83	30413
706.175	30404.41
706.52	30221.82
706.865	30339.33
707.209	30212.1
707.554	30138.66
707.899	30225.21
708.243	29943.18
708.588	30020.24
708.932	29738.44
709.277	29725.79
709.621	29768.72
709.966	29507.03
710.31	29502.74
710.654	29390.88
710.998	29360.6
711.342	29444.44
711.687	29411.67
712.031	29214.39
712.375	29096.65
712.719	29151.79
713.063	29143.2
713.407	29283.09
713.75	28872.93
714.094	28958.57
714.438	28914.96
714.782	29066.59
715.125	28700.28
715.469	28843.32
715.812	28642.88
716.156	28537.57
716.499	28564.69
716.843	28691.24
717.186	28408.98
717.53	28474.29
717.873	28573.95
718.216	28379.83
718.559	28261.42
718.902	28131.7
719.246	28135.32
719.589	28185.71
719.932	28063.68
720.275	27983.01
720.617	27830.02
720.96	27868.89
721.303	27782.79
721.646	27926.74
721.989	27672.28
722.331	27722
722.674	27736.46
723.016	27687.65
723.359	27579.18
723.701	27709.12
724.044	27453.53
724.386	27305.06
724.729	27482
725.071	27319.07
725.413	27332.4
725.755	27352.74
726.097	27122.92
726.439	27206.3
726.782	27126.98
727.124	27164.72
727.465	27136.25
727.807	26981
728.149	27053.31
728.491	26995.46
728.833	26910.94
729.175	26837.27
729.516	26761.34
729.858	26782.81
730.199	26694
730.541	26618.98
730.882	26621.69
731.224	26764.28
731.565	26549.82
731.906	26555.02
732.248	26607
732.589	26405.87
732.93	26374.69
733.271	26345.08
733.612	26305.76
733.953	26368.59
734.294	26203.84
734.635	26178.53
734.976	26195.48
735.317	26115.94
735.658	26089.5
735.999	26121.14
736.339	26081.14
736.68	26133.11
737.021	26016.96
737.361	25903.74
737.702	26125.43
738.042	25900.8
738.383	25887.47
738.723	25901.93
739.063	25773.35
739.404	25891.54
739.744	25771.09
740.084	25615.84
740.424	25721.82
740.764	25595.05
741.104	25750.07
741.444	25609.96
741.784	25476.63
742.124	25533.58
742.464	25483.64
742.804	25349.63
743.143	25420.36
743.483	25377.65
743.823	25211.55
744.162	25265.56
744.502	25371.78
744.841	25294.94
745.181	25269.41
745.52	25146.92
745.86	25347.6
746.199	25155.74
746.538	25113.93
746.877	25211.1
747.216	25025.12
747.556	25064.89
747.895	25032.35
748.234	24888.63
748.573	24929.08
748.911	24863.32
749.25	24789.42
749.589	24732.02
749.928	24856.54
750.267	24795.75
750.605	24659.93
750.944	24622.87
751.283	24487.73
751.621	24675.75
751.96	24454.06
752.298	24478.24
752.636	24369.77
752.975	24337.23
753.313	24251.35
753.651	24367.51
753.989	24286.38
754.327	24184.24
754.666	24156.22
755.004	24055.2
755.342	24150.57
755.679	24063.56
756.017	23956.67
756.355	24009.78
756.693	23841.42
757.031	23978.59
757.368	23700.63
757.706	23721.42
758.044	23601.88
758.381	23812.72
758.719	23565.72
759.056	23580.41
759.394	23511.94
759.731	23406.86
760.068	23346.74
760.405	23283.24
760.743	23239.63
761.08	23239.18
761.417	23052.29
761.754	23116.92
762.091	22982.69
762.428	22983.59
762.765	22838.51
763.102	22849.58
763.438	22788.12
763.775	22744.5
764.112	22678.97
764.449	22699.3
764.785	22606.88
765.122	22401.46
765.458	22275.36
765.795	22278.3
766.131	22254.57
766.467	22202.14
766.804	22133.9
767.14	22057.06
767.476	22115.59
767.812	21876.5
768.148	21940.68
768.485	21898.2
768.821	21653.68
769.157	21725.32
769.492	21459.56
769.828	21612.1
770.164	21318.32
770.5	21341.6
770.836	21295.95
771.171	21224.31
771.507	21184.32
771.842	20973.25
772.178	20945.23
772.513	20974.38
772.849	20822.52
773.184	20711.33
773.519	20733.48
773.855	20611.45
774.19	20547.04
774.525	20527.84
774.86	20423.21
775.195	20414.17
775.53	20339.14
775.865	20196.09
776.2	20077.68
776.535	19827.52
776.87	19855.99
777.205	19971.47
777.539	19912.03
777.874	19920.85
778.209	19675.65
778.543	19640.18
778.878	19558.82
779.212	19522.66
779.547	19371.03
779.881	19370.13
780.215	19296.91
780.55	19271.15
780.884	19227.08
781.218	19142.11
781.552	19187.53
781.886	19086.07
782.22	18894.66
782.554	18895.34
782.888	18751.39
783.222	18678.62
783.556	18618.51
783.889	18604.27
784.223	18356.37
784.557	18368.8
784.89	18358.4
785.224	18256.48
785.557	18152.98
785.891	18132.19
786.224	18047
786.558	18075.7
786.891	17926.1
787.224	17823.95
787.557	17775.59
787.891	17728.81
788.224	17782.37
788.557	17718.64
788.89	17660.11
789.223	17671.87
789.556	17443.4
789.888	17389.61
790.221	17301.48
790.554	17338.32
790.887	17213.8
791.219	17146
791.552	17096.97
791.884	17128.83
792.217	16918.89
792.549	16974.48
792.882	16896.07
793.214	16699.01
793.546	16769.52
793.879	16664.89
794.211	16567.26
794.543	16675.96
794.875	16487.26
795.207	16625.79
795.539	16358.45
795.871	16535.62
796.203	16276.65
796.535	16289.53
796.867	16249.98
797.198	16121.85
797.53	16087.05
797.862	16084.34
798.193	16136.54
798.525	15915.98
798.856	15886.6
799.188	15721.63
799.519	15836.21
799.85	15677.79
800.182	15684.12
800.513	15631.92
800.844	15513.5
801.175	15556.44
801.506	15576.78
801.837	15430.57
802.168	15453.17
802.499	15361.19
802.83	15256.79
803.161	15239.39
803.491	15247.3
803.822	15177.24
804.153	15084.36
804.483	15048.43
804.814	15078.04
805.145	14922.33
805.475	14897.93
805.805	14853.18
806.136	14902
806.466	14856.12
806.796	14819.29
807.126	14716.01
807.457	14667.2
807.787	14706.52
808.117	14670.59
808.447	14460.42
808.777	14662.68
809.107	14540.42
809.436	14433.31
809.766	14533.42
810.096	14399.86
810.426	14310.6
810.755	14292.97
811.085	14282.12
811.414	14285.74
811.744	14175.91
812.073	14270.6
812.403	14160.77
812.732	14086.88
813.061	14064.05
813.39	13891.63
813.719	14017.95
814.049	14040.77
814.378	13884.17
814.707	13862.7
815.036	13758.52
815.365	13664.51
815.693	13644.63
816.022	13636.72
816.351	13647.56
816.68	13543.61
817.008	13702.7
817.337	13503.39
817.665	13498.19
817.994	13469.49
818.322	13480.11
818.651	13443.73
818.979	13380
819.307	13430.85
819.636	13366.67
819.964	13236.73
820.292	13292.32
820.62	13296.16
820.948	13270.4
821.276	13256.39
821.604	13235.15
821.932	13228.82
822.259	13228.82
822.587	13175.26
822.915	13129.84
823.243	13189.05
823.57	13123.51
823.898	13179.1
824.225	13135.04
824.553	13180.23
824.88	13166
825.207	13127.8
825.535	13131.19
825.862	13139.33
826.189	13168.48
826.516	13149.95
826.843	13213.45
827.17	13220.01
827.497	13208.93
827.824	13188.82
828.151	13200.8
828.478	13187.69
828.805	13159.89
829.131	13054.59
829.458	13129.16
829.785	13052.1
830.111	13111.53
830.438	13167.58
830.764	13184.98
831.09	13140.01
831.417	13013.23
831.743	13129.39
832.069	13148.14
832.395	13045.55
832.722	13048.94
833.048	13059.11
833.374	13115.15
833.7	12947.24
834.026	13013.46
834.351	12979.56
834.677	12937.3
835.003	12996.51
835.329	12992.89
835.654	12894.59
835.98	12903.18
836.306	12935.49
836.631	12914.7
836.956	12884.87
837.282	12928.49
837.607	12794.71
837.932	12846.68
838.258	12782.05
838.583	12815.72
838.908	12682.62
839.233	12749.06
839.558	12690.53
839.883	12592.68
840.208	12617.54
840.533	12603.98
840.858	12586.8
841.182	12560.14
841.507	12590.42
841.832	12564.66
842.156	12508.84
842.481	12497.54
842.805	12385
843.13	12430.2
843.454	12433.13
843.778	12389.97
844.103	12416.64
844.427	12306.36
844.751	12234.95
845.075	12348.39
845.399	12197.21
845.723	12158.56
846.047	12168.28
846.371	12006.03
846.695	12060.26
847.019	11932.36
847.343	11927.84
847.666	11843.54
847.99	11781.85
848.313	11817.56
848.637	11713.6
848.96	11744.34
849.284	11780.72
849.607	11577.34
849.931	11584.12
850.254	11513.84
850.577	11454.4
850.9	11361.98
851.223	11366.04
851.546	11267.29
851.869	11209.21
852.192	11315.42
852.515	11112.26
852.838	11090.8
853.161	11104.58
853.483	10989.56
853.806	11044.92
854.129	11024.81
854.451	10983.23
854.774	10879.95
855.096	10854.42
855.419	10881.54
855.741	10827.53
856.063	10762.22
856.385	10777.36
856.708	10677.02
857.03	10751.14
857.352	10758.38
857.674	10690.35
857.996	10564.03
858.318	10451.26
858.64	10529.45
858.961	10446.29
859.283	10470.7
859.605	10377.59
859.926	10471.15
860.248	10407.2
860.57	10359.74
860.891	10300.08
861.212	10343.02
861.534	10307.09
861.855	10246.07
862.176	10231.16
862.498	10169.24
862.819	10270.03
863.14	10154.78
863.461	10196.58
863.782	10093.76
864.103	10132.4
864.424	10049.02
864.745	10131.95
865.065	10011.05
865.386	9982.8
865.707	9976.25
866.027	10026.64
866.348	9961.33
866.668	9945.52
866.989	9934.22
867.309	9836.82
867.63	9863.94
867.95	9946.19
868.27	9868.23
868.59	9849.92
868.91	9817.84
869.23	9814.22
869.55	9752.07
869.87	9846.99
870.19	9846.53
870.51	9824.61
870.83	9821.22
871.15	9718.85
871.469	9721.57
871.789	9707.1
872.109	9700.32
872.428	9625.75
872.748	9723.37
873.067	9608.58
873.386	9637.95
873.706	9636.82
874.025	9550.27
874.344	9524.06
874.663	9530.39
874.982	9524.51
875.301	9557.05
875.62	9475.02
875.939	9465.53
876.258	9450.39
876.577	9472.53
876.896	9428.69
877.214	9355.93
877.533	9422.37
877.852	9411.74
878.17	9412.87
878.489	9397.73
878.807	9330.62
879.125	9268.02
879.444	9299.66
879.762	9239.55
880.08	9246.32
880.398	9235.03
880.716	9228.02
881.034	9181.69
881.352	9221.92
881.67	9210.39
881.988	9159.55
882.306	9197.06
882.624	9182.82
882.941	9032.32
883.259	9065.09
883.577	9053.11
883.894	8977.18
884.212	9048.82
884.529	8966.56
884.846	8940.12
885.164	8945.32
885.481	8921.59
885.798	8927.91
886.115	8850.63
886.432	8852.21
886.75	8830.74
887.067	8873.91
887.383	8845.43
887.7	8829.84
888.017	8857.63
888.334	8831.87
888.651	8731.99
888.967	8688.15
889.284	8675.94
889.6	8618.54
889.917	8568.15
890.233	8601.37
890.55	8567.47
890.866	8596.4
891.182	8531.32
891.498	8521.6
891.815	8457.19
892.131	8453.13
892.447	8489.96
892.763	8425.1
893.079	8372.45
893.395	8373.81
893.71	8295.39
894.026	8327.25
894.342	8239.35
894.657	8258.33
894.973	8243.87
895.289	8222.17
895.604	8197.99
895.92	8208.61
896.235	8107.37
896.55	8102.85
896.865	8056.07
897.181	8095.62
897.496	8018.33
897.811	8004.55
898.126	8006.58
898.441	7966.58
898.756	7932.46
899.071	7868.28
899.386	7879.58
899.7	7758
900.015	7786.25
900.33	7765.69
900.644	7745.35
900.959	7705.57
901.273	7647.95
901.588	7683.88
901.902	7616.76
902.216	7584.9
902.531	7581.06
902.845	7536.99
903.159	7438.01
903.473	7454.96
903.787	7412.47
904.101	7423.1
904.415	7407.73
904.729	7338.13
905.042	7365.24
905.356	7309.43
905.67	7332.48
905.984	7361.18
906.297	7323.44
906.611	7226.94
906.924	7219.03
907.237	7226.94
907.551	7069.21
907.864	7101.52
908.177	7064.91
908.491	7097.68
908.804	7055.42
909.117	6993.5
909.43	6945.59
909.743	6970.9
910.056	6944.92
910.368	6939.04
910.681	6847.97
910.994	6877.12
911.307	6838.93
911.619	6762.55
911.932	6774.53
912.244	6754.41
912.557	6713.74
912.869	6691.36
913.181	6647.07
913.494	6644.13
913.806	6579.95
914.118	6589.9
914.43	6546.73
914.742	6537.24
915.054	6509.9
915.366	6502.44
915.678	6443.23
915.99	6464.48
916.302	6372.5
916.613	6374.99
916.925	6311.94
917.236	6349.9
917.548	6275.1
917.859	6288.21
918.171	6238.72
918.482	6243.01
918.794	6151.72
919.105	6200.08
919.416	6090.25
919.727	6135.45
920.038	6097.71
920.349	6070.36
920.66	6021.32
920.971	6015.45
921.282	6032.62
921.593	5973.87
921.903	5878.28
922.214	5879.63
922.525	5884.61
922.835	5894.77
923.146	5812.06
923.456	5744.04
923.767	5731.16
924.077	5771.16
924.387	5734.55
924.697	5701.79
925.008	5697.04
925.318	5672.63
925.628	5652.75
925.938	5596.93
926.248	5565.07
926.558	5563.71
926.867	5515.58
927.177	5552.41
927.487	5476.25
927.796	5465.63
928.106	5477.16
928.416	5431.28
928.725	5429.7
929.034	5356.48
929.344	5426.09
929.653	5318.97
929.962	5273.32
930.271	5289.82
930.581	5270.38
930.89	5254.34
931.199	5231.97
931.508	5195.81
931.817	5208.92
932.125	5139.31
932.434	5145.87
932.743	5047.79
933.051	5090.5
933.36	5085.53
933.669	5052.54
933.977	5053.44
934.286	5027.9
934.594	4998.53
934.902	4956.04
935.21	4961.01
935.519	4933.44
935.827	4926.89
936.135	4857.51
936.443	4837.85
936.751	4853.67
937.059	4824.07
937.367	4782.04
937.674	4841.02
937.982	4756.05
938.29	4758.31
938.597	4727.8
938.905	4667.91
939.213	4644.64
939.52	4664.07
939.827	4671.98
940.135	4613
940.442	4620.23
940.749	4633.56
941.056	4576.39
941.363	4517.18
941.67	4508.6
941.977	4472.21
942.284	4506.56
942.591	4462.5
942.898	4451.42
943.205	4419.11
943.511	4390.86
943.818	4377.75
944.125	4361.71
944.431	4390.41
944.738	4333.23
945.044	4310.18
945.35	4263.63
945.657	4250.75
945.963	4228.83
946.269	4252.11
946.575	4216.85
946.881	4237.64
947.187	4161.26
947.493	4171.2
947.799	4168.04
948.105	4110.19
948.41	4126.69
948.716	4086.01
949.022	4085.56
949.327	4089.4
949.633	4049.17
949.938	4037.65
950.244	4009.63
950.549	3977.76
950.854	3953.36
951.16	3988.61
951.465	3920.14
951.77	3919.01
952.075	3882.62
952.38	3841.5
952.685	3881.04
952.99	3871.32
953.294	3823.19
953.599	3841.5
953.904	3824.55
954.209	3768.5
954.513	3792
954.818	3777.99
955.122	3752.91
955.426	3728.96
955.731	3692.35
956.035	3694.15
956.339	3728.5
956.643	3681.73
956.948	3641.73
957.252	3629.75
957.556	3596.53
957.86	3634.95
958.163	3616.42
958.467	3584.55
958.771	3588.39
959.075	3556.53
959.378	3544.78
959.682	3582.29
959.985	3498.45
960.289	3513.82
960.592	3484.89
960.896	3463.88
961.199	3443.77
961.502	3442.18
961.805	3452.8
962.108	3371
962.411	3388.63
962.714	3358.12
963.017	3351.79
963.32	3365.12
963.623	3301.62
963.926	3345.69
964.228	3281.51
964.531	3302.07
964.833	3241.28
965.136	3233.15
965.438	3224.79
965.741	3266.59
966.043	3212.13
966.345	3201.96
966.648	3207.39
966.95	3209.65
967.252	3105.7
967.554	3156.32
967.856	3136.2
968.158	3113.83
968.46	3101.18
968.761	3080.61
969.063	3054.17
969.365	3042.87
969.666	3036.54
969.968	3037.67
970.269	3016.88
970.571	3014.4
970.872	2951.35
971.174	2984.34
971.475	2996.09
971.776	2947.73
972.077	2973.04
972.378	2942.31
972.679	2945.25
972.98	2908.64
973.281	2878.58
973.582	2897.34
973.883	2874.97
974.183	2875.42
974.484	2821.86
974.785	2827.06
975.085	2809.88
975.386	2826.61
975.686	2812.6
975.986	2810.79
976.287	2788.87
976.587	2736.89
976.887	2744.12
977.187	2761.52
977.487	2717.68
977.787	2709.55
978.087	2673.62
978.387	2683.79
978.687	2701.41
978.987	2672.49
979.286	2635.2
979.586	2640.17
979.885	2628.65
980.185	2604.69
980.484	2605.82
980.784	2600.62
981.083	2572.6
981.382	2555.88
981.682	2575.77
981.981	2533.96
982.28	2536.44
982.579	2519.27
982.878	2532.6
983.177	2548.42
983.475	2495.99
983.774	2488.76
984.073	2470.23
984.372	2488.76
984.67	2419.16
984.969	2436.11
985.267	2460.06
985.566	2449.44
985.864	2406.05
986.162	2401.08
986.461	2394.53
986.759	2384.36
987.057	2361.08
987.355	2322.21
987.653	2347.97
987.951	2335.55
988.249	2346.17
988.547	2321.54
988.844	2310.01
989.142	2319.95
989.44	2294.19
989.737	2289.45
990.035	2257.36
990.332	2235.44
990.63	2234.98
990.927	2230.92
991.224	2240.41
991.521	2222.55
991.819	2184.59
992.116	2178.49
992.413	2199.05
992.71	2142.1
993.006	2177.36
993.303	2160.41
993.6	2161.09
993.897	2169
994.193	2149.79
994.49	2114.08
994.787	2120.18
995.083	2098.72
995.379	2093.29
995.676	2068.66
995.972	2081.54
996.268	2040.41
996.565	2084.71
996.861	2067.3
997.157	2029.11
997.453	2019.17
997.749	2008.55
998.044	2035.89
998.34	2004.26
998.636	1979.17
998.932	1982.33
999.227	1977.82
999.523	1954.09
999.818	1964.03
1000.114	1941.21
1000.409	1924.26
1000.704	1912.51
1001	1891.04
1001.295	1839.51
1001.59	1869.34
1001.885	1858.95
1002.18	1868.44
1002.475	1855.33
1002.77	1839.06
1003.065	1824.37
1003.359	1809.01
1003.654	1873.41
1003.949	1811.94
1004.243	1809.68
1004.538	1788.44
1004.832	1783.92
1005.127	1772.17
1005.421	1767.43
1005.715	1775.11
1006.009	1746.63
1006.304	1729.01
1006.598	1727.43
1006.892	1717.03
1007.186	1697.14
1007.48	1714.32
1007.773	1691.95
1008.067	1672.96
1008.361	1671.83
1008.655	1675
1008.948	1659.63
1009.242	1623.02
1009.535	1634.1
1009.829	1611.5
1010.122	1598.62
1010.415	1610.59
1010.708	1592.97
1011.001	1562.91
1011.295	1563.36
1011.588	1573.31
1011.881	1567.2
1012.173	1551.39
1012.466	1576.7
1012.759	1554.78
1013.052	1512.97
1013.344	1521.56
1013.637	1504.83
1013.93	1502.35
1014.222	1498.51
1014.514	1468.68
1014.807	1473.87
1015.099	1470.03
1015.391	1465.96
1015.683	1450.82
1015.976	1442.01
1016.268	1415.34
1016.56	1389.81
1016.851	1424.61
1017.143	1393.42
1017.435	1394.33
1017.727	1410.82
1018.018	1387.77
1018.31	1395.01
1018.602	1368.34
1018.893	1349.36
1019.185	1365.63
1019.476	1343.26
1019.767	1348.23
1020.058	1310.49
1020.35	1307.32
1020.641	1308
1020.932	1284.05
1021.223	1300.32
1021.514	1271.85
1021.804	1257.83
1022.095	1262.35
1022.386	1251.51
1022.677	1238.85
1022.967	1246.99
1023.258	1244.05
1023.548	1230.04
1023.839	1232.07
1024.129	1221.9
1024.419	1197.04
1024.709	1242.24
1025	1184.62
1025.29	1181
1025.58	1171.96
1025.87	1174.45
1026.16	1149.14
1026.449	1145.29
1026.739	1145.97
1027.029	1136.26
1027.319	1144.16
1027.608	1123.83
1027.898	1124.5
1028.187	1139.87
1028.477	1076.6
1028.766	1104.17
1029.055	1110.95
1029.344	1088.35
1029.634	1070.04
1029.923	1074.56
1030.212	1072.53
1030.501	1068.01
1030.79	1057.16
1031.078	1059.65
1031.367	1066.43
1031.656	1024.39
1031.945	1054.68
1032.233	1039.76
1032.522	1005.86
1032.81	1001.57
1033.099	1005.19
1033.387	996.37
1033.675	1011.29
1033.963	1025.52
1034.251	983.04
1034.54	965.64
1034.828	977.84
1035.116	961.8
1035.403	945.07
1035.691	938.29
1035.979	949.82
1036.267	928.58
1036.554	954.11
1036.842	934
1037.129	925.87
1037.417	930.39
1037.704	924.06
1037.992	872.53
1038.279	899.43
1038.566	888.58
1038.853	888.58
1039.14	888.58
