Data from hue_140_FLMS001491_00033.txt Node
Date: Tue Feb 07 16:55:49 GMT 2017
User: dcchb
Spectrometer: FLMS00149
Trigger mode: 0
Integration Time (sec): 2.000000E-2
Scans to average: 10
Electric dark correction enabled: true
Nonlinearity correction enabled: false
Boxcar width: 0
XAxis mode: Wavelengths
Number of Pixels in Spectrum: 2048
>>>>>Begin Spectral Data<<<<<
341.393	-27.46
341.776	-27.46
342.16	-27.46
342.543	-64.52
342.927	-50.73
343.31	-55.7
343.693	-73.11
344.077	-55.03
344.46	-40.79
344.843	-60.22
345.226	-34.69
345.61	-52.09
345.993	-19.32
346.376	-12.32
346.759	3.28
347.142	8.47
347.525	41.47
347.908	57.51
348.291	91.64
348.674	85.08
349.057	115.82
349.44	141.35
349.823	148.36
350.206	153.33
350.588	189.26
350.971	222.71
351.354	233.55
351.737	246.66
352.119	237.17
352.502	255.02
352.884	275.13
353.267	297.96
353.65	294.12
354.032	298.64
354.414	306.55
354.797	320.56
355.179	321.91
355.562	326.43
355.944	348.8
356.326	333.89
356.709	337.05
357.091	350.84
357.473	331.18
357.855	340.22
358.238	349.26
358.62	341.12
359.002	352.42
359.384	343.61
359.766	336.38
360.148	347.45
360.53	335.7
360.912	333.21
361.294	347.45
361.676	324.62
362.057	343.15
362.439	362.82
362.821	336.15
363.203	324.62
363.584	326.88
363.966	349.71
364.348	335.47
364.729	321.91
365.111	302.03
365.493	315.58
365.874	324.4
366.256	305.42
366.637	321.91
367.019	313.55
367.4	308.58
367.781	323.27
368.163	317.84
368.544	333.89
368.925	321.01
369.306	330.27
369.688	300.9
370.069	302.93
370.45	321.69
370.831	314.91
371.212	333.66
371.593	313.55
371.974	315.58
372.355	328.01
372.736	309.94
373.117	318.52
373.498	316.49
373.879	316.26
374.26	316.04
374.641	328.24
375.021	342.02
375.402	332.53
375.783	333.44
376.163	314.91
376.544	357.62
376.925	320.33
377.305	327.56
377.686	339.09
378.066	327.11
378.447	345.19
378.827	332.53
379.208	331.63
379.588	344.28
379.968	345.64
380.349	340.44
380.729	335.92
381.109	328.01
381.489	339.09
381.87	335.02
382.25	370.5
382.63	353.1
383.01	342.48
383.39	371.4
383.77	356.71
384.15	335.92
384.53	362.36
384.91	336.38
385.29	348.35
385.67	372.76
386.049	341.57
386.429	358.75
386.809	377.28
387.189	345.41
387.568	365.98
387.948	361.91
388.328	370.5
388.707	374.79
389.087	366.66
389.466	361.91
389.846	352.42
390.225	354.68
390.605	370.05
390.984	362.82
391.363	366.66
391.743	370.05
392.122	378.63
392.501	400.55
392.881	394.9
393.26	383.15
393.639	410.95
394.018	380.89
394.397	387.45
394.776	368.69
395.155	380.89
395.534	396.49
395.913	396.26
396.292	383.15
396.671	403.27
397.05	414.11
397.429	396.94
397.808	398.97
398.186	396.49
398.565	408.24
398.944	394.45
399.323	393.1
399.701	423.15
400.08	419.31
400.458	416.6
400.837	418.86
401.215	444.62
401.594	411.18
401.972	412.53
402.351	406.66
402.729	422.7
403.107	435.81
403.486	434.23
403.864	434.23
404.242	420.67
404.62	417.96
404.999	432.42
405.377	438.97
405.755	433.1
406.133	425.86
406.511	422.47
406.889	441.46
407.267	453.66
407.645	459.76
408.023	466.32
408.401	455.92
408.779	456.82
409.156	445.3
409.534	468.58
409.912	475.81
410.29	493.89
410.667	488.91
411.045	492.76
411.422	489.14
411.8	489.37
412.178	465.19
412.555	481.91
412.933	488.91
413.31	522.81
413.687	504.05
414.065	495.92
414.442	504.51
414.819	515.35
415.197	516.26
415.574	526.65
415.951	494.56
416.328	516.48
416.705	502.92
417.082	545.64
417.46	523.04
417.837	569.82
418.214	542.7
418.591	525.3
418.967	544.51
419.344	546.99
419.721	524.39
420.098	542.25
420.475	554
420.852	564.84
421.228	558.52
421.605	559.19
421.982	574.79
422.358	588.57
422.735	571.4
423.111	568.91
423.488	595.13
423.864	601.91
424.241	606.42
424.617	595.35
424.994	601.23
425.37	607.78
425.746	610.27
426.123	621.34
426.499	627.89
426.875	633.09
427.251	634.9
427.627	628.8
428.003	635.8
428.379	635.35
428.756	650.04
429.132	656.37
429.507	680.1
429.883	652.75
430.259	696.37
430.635	668.57
431.011	683.71
431.387	688.23
431.763	707.89
432.138	683.03
432.514	717.61
432.89	698.85
433.265	735.01
433.641	735.69
434.016	721.22
434.392	740.88
434.767	751.73
435.143	757.61
435.518	765.97
435.894	756.93
436.269	784.5
436.644	756.48
437.02	787.66
437.395	789.24
437.77	789.47
438.145	805.29
438.52	810.49
438.895	802.35
439.271	796.48
439.646	820.66
440.021	817.49
440.395	838.96
440.77	851.84
441.145	845.97
441.52	848.23
441.895	840.54
442.27	859.3
442.645	855.46
443.019	870.15
443.394	873.76
443.769	864.72
444.143	855.23
444.518	886.42
444.892	908.79
445.267	911.95
445.641	887.32
446.016	925.06
446.39	938.17
446.764	923.7
447.139	930.26
447.513	956.02
447.887	929.81
448.262	954.21
448.636	963.48
449.01	966.64
449.384	963.48
449.758	965.51
450.132	997.83
450.506	998.5
450.88	986.98
451.254	967.77
451.628	1026.3
452.002	1009.8
452.376	1046.64
452.75	1052.51
453.123	1013.87
453.497	1049.58
453.871	1080.08
454.244	1094.1
454.618	1069.24
454.992	1113.76
455.365	1089.8
455.739	1129.57
456.112	1139.97
456.486	1138.39
456.859	1147.65
457.232	1175.22
457.606	1172.96
457.979	1197.82
458.352	1218.84
458.725	1216.8
459.099	1234.43
459.472	1249.8
459.845	1282.79
460.218	1240.76
460.591	1284.15
460.964	1308.33
461.337	1312.39
461.71	1345.16
462.083	1372.05
462.456	1403.47
462.829	1375.44
463.201	1422.45
463.574	1437.82
463.947	1427.42
464.32	1440.3
464.692	1448.21
465.065	1493.18
465.438	1509.45
465.81	1550.81
466.183	1580.86
466.555	1580.18
466.928	1590.35
467.3	1598.49
467.672	1628.09
468.045	1687.07
468.417	1685.72
468.789	1696.57
469.161	1750.58
469.534	1768.2
469.906	1803.68
470.278	1859.27
470.65	1843.23
471.022	1907.63
471.394	1923.23
471.766	1978.14
472.138	1979.95
472.51	2057.01
472.882	2079.83
473.253	2104.01
473.625	2153.5
473.997	2214.97
474.369	2275.53
474.74	2301.97
475.112	2335.87
475.484	2403.89
475.855	2441.86
476.227	2481.18
476.598	2605.92
476.97	2636.43
477.341	2743.54
477.713	2787.84
478.084	2818.34
478.455	2899.47
478.827	2938.57
479.198	3092.24
479.569	3154.38
479.94	3229.41
480.311	3318.67
480.682	3434.82
481.053	3497.65
481.424	3628.04
481.795	3695.38
482.166	3756.17
482.537	3914.59
482.908	3991.87
483.279	4131.98
483.65	4191.87
484.021	4315.48
484.391	4402.26
484.762	4517.73
485.133	4633.66
485.503	4743.49
485.874	4887.22
486.244	4995.69
486.615	5167.66
486.985	5275.91
487.356	5383.7
487.726	5577.59
488.097	5693.97
488.467	5774.2
488.837	6001.31
489.207	6124.25
489.578	6242.66
489.948	6405.82
490.318	6592.71
490.688	6613.5
491.058	6815.08
491.428	6970.78
491.798	7100.49
492.168	7302.75
492.538	7455.96
492.908	7528.28
493.278	7745.67
493.648	7774.15
494.017	7971.88
494.387	8118.09
494.757	8261.59
495.126	8481.47
495.496	8549.94
495.866	8628.81
496.235	8809.15
496.605	8894.12
496.974	9072.42
497.344	9185.63
497.713	9306.08
498.082	9458.17
498.452	9595.79
498.821	9753.53
499.19	9850.25
499.559	9857.03
499.928	10065.39
500.298	10161.43
500.667	10309.9
501.036	10303.12
501.405	10504.02
501.774	10519.84
502.143	10636.22
502.512	10756.67
502.88	10851.35
503.249	11009.99
503.618	11074.17
503.987	11141.51
504.356	11223.55
504.724	11330.44
505.093	11430.32
505.462	11462.64
505.83	11591.67
506.199	11670.31
506.567	11866.47
506.936	11831.44
507.304	12026.01
507.672	12030.76
508.041	12122.05
508.409	12246.57
508.777	12345.33
509.145	12438.88
509.514	12391.88
509.882	12550.29
510.25	12558.2
510.618	12618.76
510.986	12634.36
511.354	12734.02
511.722	12872.54
512.09	13020.56
512.458	12883.39
512.826	13047.23
513.193	13115.93
513.561	13115.93
513.929	13133.55
514.297	13310.72
514.664	13325.41
515.032	13385.98
515.4	13482.92
515.767	13423.49
516.135	13575.12
516.502	13429.14
516.869	13596.37
517.237	13581
517.604	13558.17
517.972	13660.77
518.339	13815.12
518.706	13797.49
519.073	13764.5
519.44	13830.03
519.808	13920.2
520.175	13867.32
520.542	13999.29
520.909	14069.35
521.276	14045.62
521.643	14119.52
522.009	14206.52
522.376	14191.15
522.743	14196.8
523.11	14334.2
523.477	14340.3
523.843	14374.2
524.21	14494.65
524.577	14516.57
524.943	14577.36
525.31	14535.55
525.676	14616.23
526.043	14628.43
526.409	14655.77
526.776	14741.87
527.142	14739.16
527.508	14714.53
527.874	14754.98
528.241	14787.97
528.607	14732.38
528.973	14907.97
529.339	14816.45
529.705	14885.82
530.071	14829.1
530.437	14893.96
530.803	14907.97
531.169	14919.95
531.535	14794.53
531.901	14851.7
532.267	14872.72
532.632	14911.13
532.998	14866.16
533.364	14862.1
533.73	14878.37
534.095	14962.21
534.461	14924.69
534.826	14924.24
535.192	14915.2
535.557	14933.28
535.923	14834.3
536.288	14809.89
536.653	14826.39
537.019	14725.6
537.384	14633.17
537.749	14664.59
538.114	14620.29
538.479	14594.08
538.845	14600.63
539.21	14514.76
539.575	14613.74
539.94	14514.99
540.305	14512.73
540.67	14511.6
541.034	14469.11
541.399	14495.55
541.764	14384.82
542.129	14367.64
542.494	14307.99
542.858	14372.16
543.223	14271.6
543.587	14319.06
543.952	14137.37
544.316	14226.41
544.681	14143.92
545.045	14114.54
545.41	14162.68
545.774	14116.58
546.138	14025.28
546.503	14060.76
546.867	13978.05
547.231	13982.57
547.595	13940.99
547.959	13921.1
548.324	13914.78
548.688	13816.92
549.052	13835.68
549.416	13821.44
549.779	13734.89
550.143	13794.55
550.507	13826.42
550.871	13714.33
551.235	13686.08
551.599	13711.84
551.962	13614.22
552.326	13645.18
552.689	13677.95
553.053	13484.96
553.417	13556.59
553.78	13624.61
554.143	13445.18
554.507	13470.49
554.87	13446.09
555.234	13547.33
555.597	13450.83
555.96	13403.83
556.323	13508.68
556.686	13418.07
557.05	13382.59
557.413	13426.65
557.776	13440.66
558.139	13386.65
558.502	13379.42
558.865	13380.1
559.228	13397.5
559.59	13364.73
559.953	13377.84
560.316	13419.87
560.679	13378.52
561.041	13437.27
561.404	13458.06
561.767	13432.3
562.129	13434.11
562.492	13483.15
562.854	13400.66
563.217	13431.85
563.579	13466.88
563.941	13430.27
564.304	13463.26
564.666	13569.93
565.028	13547.1
565.39	13556.82
565.753	13599.08
566.115	13596.82
566.477	13559.08
566.839	13648.34
567.201	13648.34
567.563	13641.34
567.925	13649.25
568.287	13638.17
568.648	13681.11
569.01	13648.12
569.372	13752.07
569.734	13642.01
570.095	13752.75
570.457	13745.29
570.819	13715.23
571.18	13738.28
571.542	13818.73
571.903	13755.68
572.265	13701.45
572.626	13813.31
572.987	13876.81
573.349	13894.66
573.71	13860.54
574.071	13893.31
574.432	13863.03
574.794	13912.29
575.155	13979.63
575.516	13896.47
575.877	13924.94
576.238	14006.52
576.599	13886.53
576.96	14029.12
577.32	14001.78
577.681	14047.65
578.042	14025.05
578.403	14005.39
578.763	13989.12
579.124	14076.81
579.485	14001.55
579.845	14059.86
580.206	13991.16
580.566	13985.96
580.927	13942.12
581.287	14058.05
581.648	13962.23
582.008	14088.33
582.368	14101.21
582.728	14069.35
583.089	13962.91
583.449	13952.97
583.809	13967.88
584.169	14070.25
584.529	13945.28
584.889	14031.83
585.249	13964.49
585.609	13875.91
585.969	14001.78
586.329	13886.98
586.688	13903.48
587.048	13893.98
587.408	13934.66
587.768	13896.24
588.127	13891.27
588.487	13897.15
588.846	13959.97
589.206	13793.87
589.565	13825.29
589.925	13900.31
590.284	13857.38
590.643	13854.89
591.003	13870.48
591.362	13830.94
591.721	13779.64
592.08	13825.74
592.44	13833.65
592.799	13841.1
593.158	13756.36
593.517	13718.62
593.876	13798.62
594.235	13715.01
594.593	13723.37
594.952	13875.91
595.311	13762.46
595.67	13730.15
596.029	13847.21
596.387	13819.18
596.746	13786.64
597.104	13772.86
597.463	13776.25
597.822	13839.07
598.18	13763.37
598.538	13681.56
598.897	13837.72
599.255	13630.94
599.613	13858.28
599.972	13691.73
600.33	13798.39
600.688	13705.74
601.046	13770.15
601.404	13786.42
601.762	13721.11
602.12	13798.17
602.478	13771.05
602.836	13740.99
603.194	13688.57
603.552	13819.18
603.91	13758.4
604.268	13795.46
604.625	13657.83
604.983	13766.08
605.341	13673.65
605.698	13746.42
606.056	13778.06
606.413	13773.31
606.771	13810.15
607.128	13863.48
607.485	13742.8
607.843	13758.62
608.2	13865.06
608.557	13805.85
608.914	13763.82
609.272	13828.45
609.629	13876.13
609.986	13966.07
610.343	13847.66
610.7	13943.48
611.057	13902.57
611.414	13927.88
611.771	13881.33
612.127	13945.96
612.484	13944.38
612.841	13963.81
613.198	13985.73
613.554	13981.89
613.911	13997.49
614.267	14011.95
614.624	13983.7
614.98	14017.6
615.337	14097.37
615.693	14027.54
616.05	13941.89
616.406	14085.17
616.762	13998.84
617.118	13997.26
617.475	14040.87
617.831	14021.44
618.187	14106.41
618.543	14100.76
618.899	14158.84
619.255	14208.1
619.611	14070.25
619.967	14162.23
620.323	14166.97
620.678	14165.62
621.034	14155.9
621.39	14112.06
621.746	14049.91
622.101	14254.43
622.457	14138.72
622.812	14138.95
623.168	14222.79
623.523	14136.01
623.879	14180.98
624.234	14116.13
624.589	14170.14
624.945	14132.62
625.3	14222.79
625.655	14150.48
626.01	14138.05
626.365	14209.91
626.72	14197.03
627.075	14129.68
627.43	14207.65
627.785	14087.88
628.14	14132.85
628.495	14184.37
628.85	14137.37
629.205	14169.68
629.559	14213.75
629.914	14099.4
630.269	14123.36
630.623	14107.54
630.978	14082.23
631.332	14111.61
631.687	14157.25
632.041	14071.38
632.396	14062.12
632.75	14025.28
633.104	14086.75
633.459	13951.84
633.813	13996.81
634.167	13948.67
634.521	13947.09
634.875	13935.11
635.229	13845.85
635.583	13860.54
635.937	13805.63
636.291	13844.27
636.645	13808.56
636.999	13773.31
637.352	13911.84
637.706	13736.47
638.06	13774.21
638.413	13738.28
638.767	13700.32
639.121	13729.24
639.474	13757.72
639.828	13686.31
640.181	13680.66
640.534	13727.89
640.888	13745.51
641.241	13607.21
641.594	13703.03
641.947	13671.17
642.301	13647.66
642.654	13561.34
643.007	13636.36
643.36	13588.46
643.713	13590.26
644.066	13695.12
644.419	13595.46
644.771	13526.09
645.124	13342.14
645.477	13338.97
645.83	13214.91
646.182	13154.34
646.535	13126.32
646.888	13222.36
647.24	13123.16
647.593	13166.09
647.945	13163.61
648.298	13126.32
648.65	13062.14
649.002	13072.76
649.355	13109.15
649.707	13104.4
650.059	13156.38
650.411	13254.91
650.763	13303.49
651.115	13371.74
651.467	13355.47
651.819	13412.42
652.171	13345.75
652.523	13315.7
652.875	13337.39
653.227	13301.01
653.578	13408.57
653.93	13379.2
654.282	13399.99
654.633	13306.43
654.985	13354.11
655.337	13367.67
655.688	13305.75
656.039	13438.18
656.391	13350.04
656.742	13390.72
657.094	13342.36
657.445	13391.4
657.796	13311.63
658.147	13358.41
658.498	13296.03
658.849	13393.66
659.2	13298.75
659.551	13329.25
659.902	13315.92
660.253	13304.4
660.604	13350.95
660.955	13331.06
661.306	13380.1
661.656	13381.91
662.007	13368.12
662.358	13388.01
662.708	13338.97
663.059	13376.03
663.409	13336.26
663.76	13411.51
664.11	13452.64
664.461	13425.52
664.811	13345.98
665.161	13433.43
665.511	13336.94
665.862	13245.41
666.212	13435.92
666.562	13390.5
666.912	13403.38
667.262	13386.88
667.612	13382.59
667.962	13423.49
668.312	13366.32
668.662	13456.03
669.011	13367.45
669.361	13480.89
669.711	13339.65
670.06	13357.5
670.41	13333.32
670.76	13322.25
671.109	13371.96
671.459	13326.32
671.808	13253.1
672.157	13303.27
672.507	13260.1
672.856	13227.34
673.205	13318.41
673.554	13300.55
673.904	13244.51
674.253	13425.3
674.602	13301.91
674.951	13063.72
675.3	13070.05
675.649	13194.79
675.998	13199.31
676.346	13271.63
676.695	13224.4
677.044	13073.67
677.393	13122.93
677.741	13180.56
678.09	13127.9
678.438	13164.51
678.787	13148.92
679.135	13114.8
679.484	13002.03
679.832	12974.91
680.181	12952.09
680.529	12992.54
680.877	13009.49
681.225	12988.7
681.573	13059.88
681.922	12957.06
682.27	12887.68
682.618	12875.03
682.966	12894.46
683.314	12867.8
683.661	12824.86
684.009	12839.32
684.357	12788.03
684.705	12816.73
685.053	12704.64
685.4	12715.03
685.748	12654.47
686.095	12630.06
686.443	12581.25
686.79	12554.59
687.138	12626.67
687.485	12543.74
687.832	12572.66
688.18	12508.48
688.527	12469.39
688.874	12490.86
689.221	12437.53
689.568	12383.74
689.915	12377.64
690.262	12321.37
690.609	12271.43
690.956	12187.14
691.303	12233.24
691.65	12090.87
691.997	12101.49
692.344	12034.82
692.69	12012.68
693.037	11985.79
693.383	11897.43
693.73	11839.12
694.077	11826.02
694.423	11869.41
694.769	11774.72
695.116	11787.15
695.462	11749.63
695.808	11623.31
696.155	11719.13
696.501	11606.81
696.847	11529.98
697.193	11513.93
697.539	11561.39
697.885	11477.1
698.231	11377.89
698.577	11422.64
698.923	11331.11
699.269	11312.81
699.614	11235.07
699.96	11272.81
700.306	11232.59
700.651	11147.16
700.997	11062.65
701.342	11145.36
701.688	11051.12
702.033	11058.58
702.379	11008.19
702.724	10869.66
703.069	10989.88
703.415	10873.27
703.76	10870.34
704.105	10878.7
704.45	10842.31
704.795	10737.23
705.14	10695.88
705.485	10686.16
705.83	10635.54
706.175	10609.33
706.52	10619.27
706.865	10568.65
707.209	10543.79
707.554	10555.09
707.899	10539.5
708.243	10423.34
708.588	10466.5
708.932	10333.17
709.277	10276.9
709.621	10353.97
709.966	10268.77
710.31	10240.75
710.654	10125.72
710.998	10212.27
711.342	10246.62
711.687	10128.89
712.031	10072.16
712.375	10079.4
712.719	10167.98
713.063	10028.32
713.407	10106.29
713.75	10010.25
714.094	10051.6
714.438	9972.51
714.782	10019.06
715.125	9972.96
715.469	10035.56
715.812	9921.66
716.156	9826.52
716.499	9873.3
716.843	9890.25
717.186	9818.84
717.53	9899.51
717.873	9870.36
718.216	9835.56
718.559	9820.65
718.902	9771.83
719.246	9756.92
719.589	9746.52
719.932	9685.06
720.275	9697.94
720.617	9643.93
720.96	9556.47
721.303	9654.77
721.646	9701.55
721.989	9642.57
722.331	9633.31
722.674	9690.93
723.016	9664.49
723.359	9612.52
723.701	9602.35
724.044	9494.33
724.386	9555.12
724.729	9533.65
725.071	9543.14
725.413	9555.34
725.755	9535.91
726.097	9542.01
726.439	9502.46
726.782	9492.07
727.124	9500.2
727.465	9482.58
727.807	9474.21
728.149	9456.36
728.491	9462.01
728.833	9494.1
729.175	9513.99
729.516	9406.87
729.858	9459.75
730.199	9471.05
730.541	9386.98
730.882	9448.68
731.224	9426.98
731.565	9364.39
731.906	9393.99
732.248	9421.11
732.589	9429.7
732.93	9374.78
733.271	9302.24
733.612	9395.57
733.953	9374.1
734.294	9398.96
734.635	9375.23
734.976	9425.63
735.317	9312.86
735.658	9412.52
735.999	9385.63
736.339	9356.03
736.68	9438.06
737.021	9365.06
737.361	9384.5
737.702	9464.95
738.042	9379.98
738.383	9392.41
738.723	9420.88
739.063	9431.5
739.404	9528.68
739.744	9391.73
740.084	9408.23
740.424	9480.99
740.764	9412.97
741.104	9520.77
741.444	9503.14
741.784	9492.07
742.124	9485.74
742.464	9543.14
742.804	9513.08
743.143	9466.98
743.483	9549.24
743.823	9518.05
744.162	9558.28
744.502	9605.28
744.841	9589.69
745.181	9656.36
745.52	9683.7
745.86	9736.81
746.199	9728.22
746.538	9830.14
746.877	9952.85
747.216	9924.82
747.556	9967.76
747.895	9971.83
748.234	10001.88
748.573	10005.5
748.911	10135.67
749.25	10127.53
749.589	10122.33
749.928	10247.53
750.267	10349.22
750.605	10442.78
750.944	10503.79
751.283	10530.23
751.621	10694.75
751.96	10782.43
752.298	10844.12
752.636	10882.76
752.975	10944.46
753.313	11065.13
753.651	11252.92
753.989	11304.45
754.327	11492.92
754.666	11515.52
755.004	11660.37
755.342	11860.82
755.679	12002.51
756.017	12071.66
756.355	12197.31
756.693	12397.75
757.031	12569.27
757.368	12620.35
757.706	12820.57
758.044	12944.18
758.381	13165.64
758.719	13278.41
759.056	13481.79
759.394	13572.19
759.731	13616.03
760.068	13807.89
760.405	13989.8
760.743	14164.94
761.08	14324.93
761.417	14407.87
761.754	14687.18
762.091	14858.71
762.428	14960.17
762.765	15074.29
763.102	15465.02
763.438	15452.59
763.775	15671.11
764.112	15878.57
764.449	16071.78
764.785	16221.38
765.122	16283.53
765.458	16458.89
765.795	16582.28
766.131	16852.33
766.467	16934.36
766.804	17047.8
767.14	17274.01
767.476	17375.93
767.812	17551.52
768.148	17674.68
768.485	17718.29
768.821	17940.66
769.157	18015.46
769.492	18084.38
769.828	18338.84
770.164	18286.64
770.5	18362.12
770.836	18587.19
771.171	18450.25
771.507	18752.39
771.842	18793.07
772.178	18832.16
772.513	18951.25
772.849	19030.12
773.184	19068.54
773.519	19236.67
773.855	19157.35
774.19	19281.19
774.525	19300.62
774.86	19472.82
775.195	19581.52
775.53	19565.7
775.865	19635.75
776.2	19635.08
776.535	19500.84
776.87	19592.14
777.205	19676.66
777.539	19775.64
777.874	19825.58
778.209	19778.58
778.543	19856.99
778.878	19874.39
779.212	19915.97
779.547	19837.11
779.881	19964.11
780.215	19900.15
780.55	20078.91
780.884	19998.68
781.218	19919.14
781.552	19971.11
781.886	19987.84
782.22	19953.71
782.554	19879.36
782.888	19814.28
783.222	19796.65
783.556	19816.09
783.889	19818.35
784.223	19665.58
784.557	19762.53
784.89	19823.55
785.224	19713.49
785.557	19654.74
785.891	19666.26
786.224	19670.78
786.558	19632.82
786.891	19556.43
787.224	19555.76
787.557	19524.8
787.891	19534.74
788.224	19540.84
788.557	19439.83
788.89	19417.46
789.223	19592.14
789.556	19438.25
789.888	19376.55
790.221	19339.49
790.554	19206.39
790.887	19342.2
791.219	19243.67
791.552	19274.41
791.884	19217.69
792.217	19160.29
792.549	19086.84
792.882	18983.57
793.214	18944.47
793.546	19017.01
793.879	19032.83
794.211	18891.14
794.543	18841.65
794.875	18931.82
795.207	18993.74
795.539	18778.6
795.871	18820.64
796.203	18825.83
796.535	18597.59
796.867	18595.33
797.198	18546.07
797.53	18640.75
797.862	18545.39
798.193	18561.66
798.525	18374.09
798.856	18469.23
799.188	18225.17
799.519	18248.67
799.85	18036.02
800.182	18163.93
800.513	18198.96
800.844	17984.72
801.175	18190.14
801.506	18042.8
801.837	18083.03
802.168	17904.73
802.499	17919.87
802.83	17751.51
803.161	17809.59
803.491	17887.1
803.822	17823.37
804.153	17744.28
804.483	17595.36
804.814	17621.34
805.145	17532.76
805.475	17520.1
805.805	17514.91
806.136	17403.05
806.466	17423.84
806.796	17378.19
807.126	17299.55
807.457	17281.92
807.787	17293.44
808.117	17172.09
808.447	17064.3
808.777	17215.48
809.107	17145.88
809.436	17108.82
809.766	17071.98
810.096	16995.82
810.426	16954.7
810.755	16917.63
811.085	16926.9
811.414	16888.26
811.744	16775.72
812.073	16738.43
812.403	16757.86
812.732	16729.16
813.061	16721.48
813.39	16615.04
813.719	16611.88
814.049	16530.75
814.378	16632.67
814.707	16473.13
815.036	16441.71
815.365	16416.18
815.693	16269.06
816.022	16429.96
816.351	16323.53
816.68	16249.63
817.008	16280.36
817.337	16196.07
817.665	16119.69
817.994	16082.4
818.322	16189.52
818.651	16068.17
818.979	16022.97
819.307	16048.73
819.636	15996.53
819.964	15997.66
820.292	15948.62
820.62	15871.11
820.948	15867.27
821.276	15926.25
821.604	15913.59
821.932	15893.25
822.259	15931.22
822.587	15999.92
822.915	15840.6
823.243	15986.81
823.57	15821.84
823.898	15877.89
824.225	15748.17
824.553	15834.5
824.88	15937.77
825.207	15845.8
825.535	15860.03
825.862	15904.55
826.189	15835.63
826.516	15836.98
826.843	15966.25
827.17	15914.04
827.497	15863.2
827.824	15921.5
828.151	15924.67
828.478	15938.22
828.805	15975.96
829.131	15905.23
829.458	15962.86
829.785	15858
830.111	15898.9
830.438	15919.02
830.764	15956.98
831.09	15898.45
831.417	15899.58
831.743	15929.86
832.069	15841.05
832.395	15843.99
832.722	15848.28
833.048	15851.45
833.374	15830.21
833.7	15682.64
834.026	15832.92
834.351	15809.41
834.677	15845.35
835.003	15763.54
835.329	15854.16
835.654	15765.8
835.98	15632.24
836.306	15699.36
836.631	15645.35
836.956	15714.73
837.282	15711.11
837.607	15558.35
837.932	15675.86
838.258	15576.88
838.583	15524.9
838.908	15499.59
839.233	15466.6
839.558	15496.43
839.883	15363.32
840.208	15392.48
840.533	15360.61
840.858	15384.57
841.182	15411.91
841.507	15345.92
841.832	15305.7
842.156	15265.25
842.481	15328.75
842.805	15237
843.13	15131.92
843.454	15142.31
843.778	15017.12
844.103	15024.8
844.427	14941.42
844.751	14993.17
845.075	14944.13
845.399	14881.76
845.723	14785.94
846.047	14883.56
846.371	14686.51
846.695	14697.35
847.019	14488.32
847.343	14510.69
847.666	14439.51
847.99	14408.55
848.313	14322.67
848.637	14278.61
848.96	14260.53
849.284	14350.47
849.607	14106.63
849.931	14092.62
850.254	13982.8
850.577	14025.05
850.9	13832.52
851.223	13899.63
851.546	13828
851.869	13733.76
852.192	13805.4
852.515	13582.81
852.838	13592.98
853.161	13668.68
853.483	13548.91
853.806	13439.99
854.129	13390.5
854.451	13388.01
854.774	13340.78
855.096	13346.2
855.419	13201.8
855.741	13134.46
856.063	13106.66
856.385	13180.33
856.708	13003.61
857.03	13003.61
857.352	12990.96
857.674	13065.08
857.996	12999.55
858.318	12818.98
858.64	12920.68
858.961	12846.33
859.283	12755.94
859.605	12709.84
859.926	12788.03
860.248	12754.13
860.57	12686.56
860.891	12709.84
861.212	12632.1
861.534	12543.74
861.855	12556.62
862.176	12578.54
862.498	12509.84
862.819	12477.98
863.14	12428.03
863.461	12378.09
863.782	12369.51
864.103	12393.69
864.424	12355.27
864.745	12363.86
865.065	12250.41
865.386	12275.95
865.707	12253.35
866.027	12267.14
866.348	12183.3
866.668	12187.82
866.989	12172.67
867.309	12129.29
867.63	12139
867.95	12072.79
868.27	11944.43
868.59	12061.49
868.91	11992.34
869.23	12002.06
869.55	11894.26
869.87	12011.77
870.19	11923.64
870.51	12047.71
870.83	11952.57
871.15	11904.66
871.469	11902.17
871.789	11941.95
872.109	11874.83
872.428	11789.63
872.748	11818.56
873.067	11805.68
873.386	11783.53
873.706	11813.36
874.025	11773.59
874.344	11677.55
874.663	11686.36
874.982	11680.03
875.301	11683.65
875.62	11622.41
875.939	11576.08
876.258	11599.81
876.577	11654.72
876.896	11558
877.214	11489.53
877.533	11522.97
877.852	11517.32
878.17	11442.3
878.489	11552.13
878.807	11468.74
879.125	11450.43
879.444	11449.53
879.762	11440.04
880.08	11340.61
880.398	11295.18
880.716	11355.29
881.034	11324.79
881.352	11310.55
881.67	11301.74
881.988	11293.15
882.306	11203.89
882.624	11195.75
882.941	11134.96
883.259	11028.07
883.577	11104.45
883.894	11100.16
884.212	11050.9
884.529	11097.67
884.846	11081.63
885.164	11009.09
885.481	10967.06
885.798	10945.36
886.115	10828.53
886.432	10852.48
886.75	10875.76
887.067	10841.64
887.383	10826.95
887.7	10779.94
888.017	10690.68
888.334	10711.47
888.651	10692.26
888.967	10651.36
889.284	10625.14
889.6	10552.6
889.917	10541.53
890.233	10546.95
890.55	10480.97
890.866	10440.29
891.182	10484.36
891.498	10381.53
891.815	10423.12
892.131	10390.35
892.447	10325.49
892.763	10255.66
893.079	10237.58
893.395	10250.24
893.71	10243.23
894.026	10177.25
894.342	10175.66
894.657	10037.14
894.973	10052.05
895.289	10041.43
895.604	10018.15
895.92	9980.19
896.235	9917.82
896.55	9907.88
896.865	9855.45
897.181	9793.98
897.496	9789.69
897.811	9784.04
898.126	9688.9
898.441	9708.11
898.756	9692.29
899.071	9630.37
899.386	9642.57
899.7	9501.33
900.015	9553.53
900.33	9404.16
900.644	9483.71
900.959	9388.79
901.273	9381.34
901.588	9289.13
901.902	9271.51
902.216	9308.12
902.531	9279.64
902.845	9186.99
903.159	9142.47
903.473	9100.66
903.787	9087.56
904.101	9051.4
904.415	9020.89
904.729	8983.61
905.042	8996.03
905.356	8931.4
905.67	8924.4
905.984	8957.17
906.297	8838.98
906.611	8808.02
906.924	8759.43
907.237	8756.04
907.551	8657.74
907.864	8711.3
908.177	8607.34
908.491	8614.12
908.804	8553.56
909.117	8528.93
909.43	8503.62
909.743	8442.6
910.056	8406.67
910.368	8367.12
910.681	8289.84
910.994	8282.83
911.307	8323.51
911.619	8220.24
911.932	8259.78
912.244	8122.61
912.557	8168.26
912.869	8105.44
913.181	8092.1
913.494	8055.04
913.806	8051.88
914.118	7961.03
914.43	7936.63
914.742	7900.92
915.054	7883.07
915.366	7815.5
915.678	7832.9
915.99	7778.89
916.302	7738.67
916.613	7723.3
916.925	7693.47
917.236	7633.13
917.548	7662.96
917.859	7596.98
918.171	7502.74
918.482	7551.78
918.794	7441.5
919.105	7456.19
919.416	7345.23
919.727	7418.67
920.038	7345.91
920.349	7349.07
920.66	7272.69
920.971	7371.44
921.282	7314.04
921.593	7230.88
921.903	7179.59
922.214	7152.69
922.525	7140.26
922.835	7117.21
923.146	7105.24
923.456	6997.9
923.767	7051.9
924.077	7034.5
924.387	6960.38
924.697	6918.35
925.008	6935.07
925.318	6870.21
925.628	6901.4
925.938	6789.76
926.248	6756.77
926.558	6860.5
926.867	6779.37
927.177	6682.88
927.487	6664.12
927.796	6657.57
928.106	6623.22
928.416	6630
928.725	6590.22
929.034	6588.64
929.344	6551.81
929.653	6536.66
929.962	6455.31
930.271	6427.29
930.581	6380.06
930.89	6330.79
931.199	6319.27
931.508	6314.52
931.817	6369.89
932.125	6287.41
932.434	6259.38
932.743	6220.06
933.051	6197.69
933.36	6185.26
933.669	6128.99
933.977	6126.05
934.286	6134.19
934.594	6112.95
934.902	5988.88
935.21	5944.82
935.519	5983.01
935.827	5966.06
936.135	5910.69
936.443	5890.58
936.751	5888.55
937.059	5874.76
937.367	5865.72
937.674	5835.89
937.982	5831.6
938.29	5729.91
938.597	5760.41
938.905	5699.4
939.213	5661.21
939.52	5639.74
939.827	5642.45
940.135	5578.5
940.442	5623.92
940.749	5585.05
941.056	5578.05
941.363	5506.86
941.67	5446.3
941.977	5457.82
942.284	5441.78
942.591	5437.26
942.898	5414.66
943.205	5430.93
943.511	5363.59
943.818	5367.66
944.125	5306.41
944.431	5283.14
944.738	5251.05
945.044	5235.23
945.35	5189.81
945.657	5201.78
945.963	5169.02
946.269	5138.73
946.575	5153.65
946.881	5114.33
947.187	5118.85
947.493	5073.65
947.799	5026.2
948.105	5006.31
948.41	4993.65
948.716	4995.46
949.022	4993.65
949.327	4959.76
949.633	4943.71
949.938	4890.61
950.244	4891.96
950.549	4842.25
950.854	4865.52
951.16	4806.54
951.465	4829.14
951.77	4769.71
952.075	4758.86
952.38	4745.07
952.685	4705.98
952.99	4711.18
953.294	4675.7
953.599	4658.3
953.904	4578.75
954.209	4562.93
954.513	4599.09
954.818	4566.09
955.122	4542.14
955.426	4531.75
955.731	4518.19
956.035	4425.99
956.339	4477.28
956.643	4413.78
956.948	4394.8
957.252	4444.74
957.556	4390.96
957.86	4361.81
958.163	4346.44
958.467	4381.24
958.771	4357.96
959.075	4341.47
959.378	4259.66
959.682	4270.28
959.985	4212.43
960.289	4225.99
960.592	4233.9
960.896	4188.93
961.199	4184.18
961.502	4184.64
961.805	4146.22
962.108	4167.91
962.411	4102.83
962.714	4085.66
963.017	4022.61
963.32	4029.16
963.623	4078.42
963.926	4068.93
964.228	4017.18
964.531	4001.14
964.833	3979.22
965.136	3944.42
965.438	3938.09
965.741	3901.25
966.043	3917.52
966.345	3887.24
966.648	3844.08
966.95	3833.23
967.252	3794.82
967.554	3831.65
967.856	3789.39
968.158	3767.47
968.46	3777.19
968.761	3766.57
969.063	3727.7
969.365	3735.38
969.666	3694.48
969.968	3679.79
970.269	3679.79
970.571	3657.87
970.872	3608.61
971.174	3607.48
971.475	3586.91
971.776	3584.88
972.077	3583.75
972.378	3566.57
972.679	3545.33
972.98	3533.13
973.281	3527.25
973.582	3485.67
973.883	3470.3
974.183	3485.22
974.484	3379.23
974.785	3425.56
975.085	3476.63
975.386	3413.81
975.686	3428.05
975.986	3327.03
976.287	3350.08
976.587	3314.6
976.887	3312.34
977.187	3334.04
977.487	3280.03
977.787	3293.81
978.087	3256.3
978.387	3233.02
978.687	3224.89
978.987	3230.99
979.286	3187.83
979.586	3190.31
979.885	3169.97
980.185	3167.71
980.484	3160.93
980.784	3166.36
981.083	3143.08
981.382	3117.55
981.682	3079.58
981.981	3053.59
982.28	3100.6
982.579	3033.48
982.878	3049.75
983.177	3035.29
983.475	3030.54
983.774	2977.21
984.073	2985.35
984.372	2971.11
984.67	2941.73
984.969	2954.39
985.267	2944.22
985.566	2911
985.864	2888.4
986.162	2870.55
986.461	2877.1
986.759	2893.14
987.057	2859.92
987.355	2835.52
987.653	2828.97
987.951	2792.58
988.249	2818.34
988.547	2795.75
988.844	2765.69
989.142	2745.13
989.44	2759.36
989.737	2739.02
990.035	2736.76
990.332	2683.88
990.63	2691.12
990.927	2685.24
991.224	2685.69
991.521	2649.53
991.819	2632.36
992.116	2637.56
992.413	2631.68
992.71	2607.73
993.006	2560.27
993.303	2577.67
993.6	2570.44
993.897	2576.99
994.193	2553.04
994.49	2524.57
994.787	2539.48
995.083	2517.11
995.379	2517.11
995.676	2478.92
995.972	2484.12
996.268	2468.07
996.565	2448.86
996.861	2447.28
997.157	2416.55
997.453	2430.11
997.749	2403.44
998.044	2413.38
998.34	2383.1
998.636	2377.9
998.932	2357.11
999.227	2372.93
999.523	2363.21
999.818	2330
1000.114	2299.26
1000.409	2301.75
1000.704	2287.51
1001	2271.24
1001.295	2266.49
1001.59	2248.19
1001.885	2230.56
1002.18	2203.22
1002.475	2214.52
1002.77	2180.39
1003.065	2173.62
1003.359	2130.23
1003.654	2162.99
1003.949	2145.14
1004.243	2151.69
1004.538	2104.69
1004.832	2133.16
1005.127	2094.52
1005.421	2085.93
1005.715	2056.1
1006.009	2060.62
1006.304	2049.1
1006.598	2068.08
1006.892	2043.22
1007.186	2036.9
1007.48	2002.55
1007.773	1966.39
1008.067	1990.8
1008.361	1955.99
1008.655	1984.47
1008.948	1961.64
1009.242	1957.35
1009.535	1920.06
1009.829	1934.53
1010.122	1896.56
1010.415	1883.68
1010.708	1870.35
1011.001	1863.34
1011.295	1870.8
1011.588	1824.7
1011.881	1830.57
1012.173	1815.66
1012.466	1795.09
1012.759	1818.37
1013.052	1776.34
1013.344	1758.26
1013.637	1747.64
1013.93	1733.63
1014.222	1753.06
1014.514	1729.56
1014.807	1736.79
1015.099	1676.23
1015.391	1720.29
1015.683	1694.76
1015.976	1728.88
1016.268	1675.78
1016.56	1677.81
1016.851	1660.63
1017.143	1659.5
1017.435	1619.51
1017.727	1603.69
1018.018	1634.19
1018.31	1600.07
1018.602	1595.33
1018.893	1602.33
1019.185	1561.43
1019.476	1557.36
1019.767	1550.81
1020.058	1574.76
1020.35	1544.03
1020.641	1522.33
1020.932	1499.06
1021.223	1485.5
1021.514	1513.52
1021.804	1481.2
1022.095	1475.1
1022.386	1466.29
1022.677	1454.09
1022.967	1445.95
1023.258	1414.09
1023.548	1414.99
1023.839	1432.62
1024.129	1408.66
1024.419	1388.78
1024.709	1392.84
1025	1385.84
1025.29	1377.7
1025.58	1366.4
1025.87	1364.82
1026.16	1338.16
1026.449	1348.78
1026.739	1342
1027.029	1353.52
1027.319	1318.5
1027.608	1262.9
1027.898	1295.45
1028.187	1295.45
1028.477	1281.21
1028.766	1264.71
1029.055	1264.94
1029.344	1227.65
1029.634	1244.83
1029.923	1240.31
1030.212	1208.67
1030.501	1220.65
1030.79	1195.79
1031.078	1207.99
1031.367	1191.95
1031.656	1176.13
1031.945	1178.39
1032.233	1183.81
1032.522	1160.31
1032.81	1162.34
1033.099	1149.91
1033.387	1158.73
1033.675	1132.51
1033.963	1116.69
1034.251	1126.86
1034.54	1104.04
1034.828	1112.4
1035.116	1096.36
1035.403	1079.41
1035.691	1100.65
1035.979	1077.37
1036.267	1083.93
1036.554	1032.63
1036.842	1055.9
1037.129	1059.07
1037.417	1050.48
1037.704	1017.04
1037.992	1040.54
1038.279	1017.94
1038.566	1029.92
1038.853	1029.92
1039.14	1029.92
