Data from hue_300_FLMS001491_00093.txt Node
Date: Tue Feb 07 15:51:27 GMT 2017
User: dcchb
Spectrometer: FLMS00149
Trigger mode: 0
Integration Time (sec): 2.000000E-2
Scans to average: 10
Electric dark correction enabled: true
Nonlinearity correction enabled: false
Boxcar width: 0
XAxis mode: Wavelengths
Number of Pixels in Spectrum: 2048
>>>>>Begin Spectral Data<<<<<
341.393	-30.61
341.776	-30.61
342.16	-30.61
342.543	-64.5
342.927	-62.02
343.31	-81.23
343.693	-79.64
344.077	-63.37
344.46	-45.3
344.843	-51.85
345.226	-32.87
345.61	-35.35
345.993	-16.6
346.376	-7.33
346.759	17.3
347.142	19.34
347.525	25.89
347.908	64.08
348.291	73.57
348.674	101.37
349.057	111.99
349.44	110.63
349.823	138.88
350.206	143.85
350.588	169.39
350.971	196.73
351.354	200.12
351.737	229.95
352.119	237.63
352.502	241.93
352.884	253
353.267	283.28
353.65	290.06
354.032	278.09
354.414	288.48
354.797	290.51
355.179	289.61
355.562	290.97
355.944	326.67
356.326	320.34
356.709	311.98
357.091	321.47
357.473	330.97
357.855	330.97
358.238	325.99
358.62	309.05
359.002	351.3
359.384	336.84
359.766	320.34
360.148	331.87
360.53	329.38
360.912	336.62
361.294	320.12
361.676	321.47
362.057	320.34
362.439	327.12
362.821	319.44
363.203	327.35
363.584	318.54
363.966	308.14
364.348	309.27
364.729	328.71
365.111	306.79
365.493	295.94
365.874	307.69
366.256	326.9
366.637	315.15
367.019	290.06
367.4	293.9
367.781	311.98
368.163	317.86
368.544	297.07
368.925	295.49
369.306	300.23
369.688	309.72
370.069	290.51
370.45	304.75
370.831	304.07
371.212	323.06
371.593	310.85
371.974	294.36
372.355	306.56
372.736	298.88
373.117	295.49
373.498	292.1
373.879	304.98
374.26	305.88
374.641	305.88
375.021	308.14
375.402	286.22
375.783	284.41
376.163	300.23
376.544	319.89
376.925	299.78
377.305	327.58
377.686	324.64
378.066	302.94
378.447	307.01
378.827	330.06
379.208	312.21
379.588	323.28
379.968	330.74
380.349	314.02
380.729	318.99
381.109	325.32
381.489	329.84
381.87	329.61
382.25	338.88
382.63	320.12
383.01	368.25
383.39	306.56
383.77	334.81
384.15	328.93
384.53	328.03
384.91	344.75
385.29	325.99
385.67	343.85
386.049	319.89
386.429	313.79
386.809	336.16
387.189	343.17
387.568	344.75
387.948	330.51
388.328	339.78
388.707	336.39
389.087	350.17
389.466	339.55
389.846	363.96
390.225	344.75
390.605	362.6
390.984	349.72
391.363	357.41
391.743	344.3
392.122	349.27
392.501	350.85
392.881	383.62
393.26	355.82
393.639	377.29
394.018	341.81
394.397	352.66
394.776	371.64
395.155	367.12
395.534	384.52
395.913	364.19
396.292	378.2
396.671	375.03
397.05	375.94
397.429	375.48
397.808	384.98
398.186	385.65
398.565	384.3
398.944	397.86
399.323	368.7
399.701	405.54
400.08	375.03
400.458	386.56
400.837	384.07
401.215	405.54
401.594	395.82
401.972	419.78
402.351	392.21
402.729	412.32
403.107	408.48
403.486	422.71
403.864	422.49
404.242	426.1
404.62	435.6
404.999	422.26
405.377	420
405.755	452.09
406.133	438.53
406.511	453.22
406.889	445.99
407.267	447.8
407.645	432.88
408.023	466.56
408.401	467.69
408.779	471.3
409.156	490.74
409.534	477.63
409.912	476.72
410.29	494.13
410.667	519.66
411.045	492.54
411.422	523.05
411.8	510.62
412.178	506.55
412.555	547.46
412.933	524.63
413.31	525.99
413.687	552.2
414.065	570.73
414.442	561.47
414.819	581.13
415.197	587
415.574	594.69
415.951	615.7
416.328	595.14
416.705	630.62
417.082	631.97
417.46	640.79
417.837	626.55
418.214	640.56
418.591	648.02
418.967	673.56
419.344	675.36
419.721	664.06
420.098	680.34
420.475	688.02
420.852	707.45
421.228	710.16
421.605	708.36
421.982	726.21
422.358	741.35
422.735	734.35
423.111	728.24
423.488	774.34
423.864	766.89
424.241	771.41
424.617	776.6
424.994	771.41
425.37	792.42
425.746	807.79
426.123	812.76
426.499	825.42
426.875	814.57
427.251	826.77
427.627	871.52
428.003	875.81
428.379	866.09
428.756	878.3
429.132	881.01
429.507	882.36
429.883	914.45
430.259	927.79
430.635	914.91
431.011	936.37
431.387	954.45
431.763	982.25
432.138	965.53
432.514	986.09
432.89	999.87
433.265	993.55
433.641	1043.49
434.016	1047.33
434.392	1034
434.767	1051.4
435.143	1064.51
435.518	1066.31
435.894	1071.74
436.269	1084.62
436.644	1105.63
437.02	1115.13
437.395	1131.62
437.77	1139.98
438.145	1148.12
438.52	1151.51
438.895	1164.39
439.271	1186.76
439.646	1184.73
440.021	1179.31
440.395	1204.39
440.77	1192.86
441.145	1189.25
441.52	1219.98
441.895	1227.67
442.27	1210.49
442.645	1229.25
443.019	1273.54
443.394	1251.17
443.769	1271.28
444.143	1256.59
444.518	1272.64
444.892	1292.75
445.267	1255.69
445.641	1267.44
446.016	1275.57
446.39	1295.01
446.764	1260.66
447.139	1315.8
447.513	1301.56
447.887	1295.23
448.262	1290.94
448.636	1322.58
449.01	1305.4
449.384	1301.34
449.758	1344.95
450.132	1337.49
450.506	1364.16
450.88	1336.82
451.254	1360.32
451.628	1358.28
452.002	1375.46
452.376	1401.45
452.75	1391.5
453.123	1402.8
453.497	1410.71
453.871	1372.52
454.244	1454.55
454.618	1455
454.992	1450.48
455.365	1437.83
455.739	1471.05
456.112	1466.53
456.486	1484.83
456.859	1492.29
457.232	1531.16
457.606	1502.91
457.979	1540.2
458.352	1586.53
458.725	1539.07
459.099	1530.48
459.472	1569.13
459.845	1578.84
460.218	1609.35
460.591	1590.14
460.964	1598.5
461.337	1634.66
461.71	1629.24
462.083	1646.64
462.456	1645.06
462.829	1644.38
463.201	1691.61
463.574	1667.88
463.947	1699.29
464.32	1735.45
464.692	1715.34
465.065	1740.65
465.438	1763.7
465.81	1773.19
466.183	1761.89
466.555	1808.22
466.928	1812.96
467.3	1771.61
467.672	1821.32
468.045	1862.68
468.417	1851.15
468.789	1864.26
469.161	1866.07
469.534	1924.6
469.906	1925.73
470.278	1952.84
470.65	1925.5
471.022	1952.39
471.394	2002.56
471.766	1988.55
472.138	1993.52
472.51	2043.46
472.882	2041.66
473.253	2073.97
473.625	2128.66
473.997	2131.14
474.369	2126.17
474.74	2146.29
475.112	2166.85
475.484	2187.87
475.855	2198.04
476.227	2161.43
476.598	2258.15
476.97	2267.19
477.341	2265.15
477.713	2319.39
478.084	2308.32
478.455	2342.21
478.827	2382.89
479.198	2424.02
479.569	2427.18
479.94	2489.78
480.311	2481.42
480.682	2523.68
481.053	2543.11
481.424	2579.95
481.795	2613.17
482.166	2617.91
482.537	2656.55
482.908	2665.37
483.279	2684.8
483.65	2729.32
484.021	2744.69
484.391	2766.16
484.762	2741.98
485.133	2791.47
485.503	2819.26
485.874	2879.83
486.244	2881.86
486.615	2924.12
486.985	2933.16
487.356	2943.78
487.726	2969.09
488.097	3025.81
488.467	3005.7
488.837	3102.64
489.207	3108.75
489.578	3145.81
489.948	3141.74
490.318	3169.54
490.688	3159.14
491.058	3186.71
491.428	3228.06
491.798	3267.39
492.168	3320.94
492.538	3296.31
492.908	3306.71
493.278	3339.02
493.648	3349.42
494.017	3349.19
494.387	3393.03
494.757	3413.82
495.126	3452.69
495.496	3487.49
495.866	3480.49
496.235	3498.34
496.605	3552.12
496.974	3489.53
497.344	3585.34
497.713	3578.34
498.082	3539.24
498.452	3631.9
498.821	3577.66
499.19	3658.56
499.559	3628.28
499.928	3668.96
500.298	3636.64
500.667	3673.7
501.036	3674.15
501.405	3675.96
501.774	3699.69
502.143	3701.72
502.512	3688.84
502.88	3739.46
503.249	3746.92
503.618	3771.78
503.987	3767.94
504.356	3813.36
504.724	3769.97
505.093	3816.07
505.462	3840.25
505.83	3764.55
506.199	3858.56
506.567	3888.84
506.936	3885
507.304	3920.48
507.672	3930.87
508.041	3906.01
508.409	3944.66
508.777	3965.45
509.145	3982.62
509.514	3949.4
509.882	3954.6
510.25	3998.21
510.618	3917.99
510.986	3958.89
511.354	4004.54
511.722	4041.83
512.09	4055.16
512.458	4052
512.826	4090.42
513.193	4100.13
513.561	4043.18
513.929	4090.42
514.297	4137.42
514.664	4142.62
515.032	4148.49
515.4	4163.63
515.767	4174.03
516.135	4143.97
516.502	4078.44
516.869	4176.06
517.237	4227.13
517.604	4149.85
517.972	4221.03
518.339	4181.03
518.706	4237.08
519.073	4246.57
519.44	4246.8
519.808	4213.35
520.175	4241.82
520.542	4296.51
520.909	4336.96
521.276	4303.97
521.643	4299.9
522.009	4314.59
522.376	4356.85
522.743	4384.19
523.11	4418.77
523.477	4418.54
523.843	4419.67
524.21	4504.42
524.577	4506
524.943	4486.56
525.31	4473.68
525.676	4527.01
526.043	4531.76
526.409	4599.78
526.776	4610.18
527.142	4570.63
527.508	4618.99
527.874	4692.66
528.241	4698.99
528.607	4700.57
528.973	4692.66
529.339	4700.79
529.705	4738.31
530.071	4747.8
530.437	4775.59
530.803	4830.51
531.169	4850.85
531.535	4830.96
531.901	4820.57
532.267	4850.85
532.632	4872.54
532.998	4962.71
533.364	4918.87
533.73	4963.84
534.095	4953.67
534.461	5026.89
534.826	5040.45
535.192	5022.37
535.557	5059.2
535.923	5064.63
536.288	5054.91
536.653	5081.35
537.019	5100.56
537.384	5124.96
537.749	5165.87
538.114	5147.11
538.479	5176.71
538.845	5206.77
539.21	5188.24
539.575	5245.41
539.94	5265.07
540.305	5279.08
540.67	5263.27
541.034	5378.74
541.399	5316.82
541.764	5339.2
542.129	5366.77
542.494	5414.22
542.858	5429.36
543.223	5447.67
543.587	5466.42
543.952	5446.09
544.316	5515.01
544.681	5529.47
545.045	5512.07
545.41	5525.86
545.774	5554.78
546.138	5581.9
546.503	5615.57
546.867	5612.86
547.231	5663.26
547.595	5722.46
547.959	5690.82
548.324	5714.78
548.688	5702.35
549.052	5781.44
549.416	5750.71
549.779	5793.87
550.143	5822.12
550.507	5860.09
550.871	5800.88
551.235	5844.04
551.599	5809.47
551.962	5917.71
552.326	5877.03
552.689	5945.06
553.053	5858.96
553.417	5935.79
553.78	6030.25
554.143	6032.74
554.507	5994.77
554.87	6041.32
555.234	6102.57
555.597	6036.8
555.96	6096.01
556.323	6074.54
556.686	6122.68
557.05	6133.53
557.413	6183.24
557.776	6220.75
558.139	6219.17
558.502	6207.42
558.865	6220.75
559.228	6235.22
559.59	6265.27
559.953	6299.85
560.316	6343.92
560.679	6277.02
561.041	6329.45
561.404	6355.67
561.767	6434.99
562.129	6361.77
562.492	6405.16
562.854	6451.26
563.217	6431.37
563.579	6471.37
563.941	6484.02
564.304	6459.17
564.666	6472.27
565.028	6569.9
565.39	6494.65
565.753	6521.09
566.115	6587.75
566.477	6661.42
566.839	6609.22
567.201	6709.33
567.563	6670.23
567.925	6747.97
568.287	6742.32
568.648	6741.19
569.01	6819.16
569.372	6835.2
569.734	6827.74
570.095	6903.22
570.457	6855.31
570.819	6905.71
571.18	6964.92
571.542	7000.85
571.903	7057.34
572.265	7063.22
572.626	7090.11
572.987	7124.91
573.349	7173.95
573.71	7204.01
574.071	7256.21
574.432	7335.08
574.794	7400.61
575.155	7500.04
575.516	7460.04
575.877	7562.87
576.238	7624.79
576.599	7682.19
576.96	7748.85
577.32	7744.78
577.681	7863.2
578.042	7979.13
578.403	8022.29
578.763	8071.55
579.124	8274.94
579.485	8343.41
579.845	8531.65
580.206	8547.02
580.566	8608.04
580.927	8707.92
581.287	8951.76
581.648	8962.15
582.008	9203.27
582.368	9362.37
582.728	9402.82
583.089	9541.8
583.449	9717.16
583.809	9945.63
584.169	10042.8
584.529	10258.16
584.889	10527.53
585.249	10640.07
585.609	10838.49
585.969	11081.19
586.329	11253.16
586.688	11515.3
587.048	11729.76
587.408	11889.31
587.768	12208.17
588.127	12373.14
588.487	12642.73
588.846	13011.31
589.206	13129.5
589.565	13360.45
589.925	13704.63
590.284	13915.47
590.643	14188.68
591.003	14470.26
591.362	14711.15
591.721	15023.46
592.08	15363.56
592.44	15648.53
592.799	15880.16
593.158	16241.73
593.517	16448.51
593.876	16825
594.235	17091.88
594.593	17401.03
594.952	17679.66
595.311	17914.46
595.67	18229.25
596.029	18648
596.387	18927.99
596.746	19299.05
597.104	19544.7
597.463	19733.85
597.822	20203.89
598.18	20348.52
598.538	20649.75
598.897	21050.42
599.255	21163.19
599.613	21850.85
599.972	21917.52
600.33	22076.83
600.688	22441.8
601.046	22735.8
601.404	23105.96
601.762	23239.06
602.12	23649.22
602.478	23975.32
602.836	24162.66
603.194	24391.8
603.552	24783.88
603.91	24840.38
604.268	25144.55
604.625	25374.38
604.983	25733.69
605.341	25828.15
605.698	26189.72
606.056	26545.64
606.413	26708.35
606.771	27006.87
607.128	27154.89
607.485	27333.42
607.843	27450.93
608.2	27850.02
608.557	28175.43
608.914	28326.39
609.272	28659.71
609.629	28824.68
609.986	29169.98
610.343	29183.31
610.7	29570.2
611.057	29738.55
611.414	29897.65
611.771	29989.17
612.127	30336.73
612.484	30364.3
612.841	30678.87
613.198	30708.7
613.554	30985.98
613.911	31205.86
614.267	31326.08
614.624	31488.56
614.98	31698.73
615.337	31965.84
615.693	32095.78
616.05	32312.05
616.406	32497.35
616.762	32510.01
617.118	32693.73
617.475	32845.59
617.831	32997.9
618.187	33123.55
618.543	33210.33
618.899	33569.41
619.255	33445.8
619.611	33825.23
619.967	33899.57
620.323	33826.81
620.678	34082.85
621.034	34006.92
621.39	34307.7
621.746	34286.68
622.101	34680.35
622.457	34537.07
622.812	34609.61
623.168	34905.2
623.523	34994.69
623.879	35095.25
624.234	34944.29
624.589	35098.64
624.945	35069.26
625.3	35344.51
625.655	35421.79
626.01	35413.43
626.365	35486.65
626.72	35541.57
627.075	35556.71
627.43	35649.59
627.785	35665.4
628.14	35866.75
628.495	35855.46
628.85	35854.33
629.205	35786.3
629.559	36024.94
629.914	35826.08
630.269	36036.02
630.623	35988.56
630.978	35932.97
631.332	36158.95
631.687	36277.37
632.041	36103.81
632.396	36151.04
632.75	36051.38
633.104	36138.16
633.459	35955.34
633.813	36091.61
634.167	36188.78
634.521	36257.7
634.875	36296.57
635.229	36296.35
635.583	36090.03
635.937	36124.83
636.291	36241.66
636.645	36219.74
636.999	36248.67
637.352	36279.85
637.706	36087.09
638.06	36246.18
638.413	36088.44
638.767	36150.81
639.121	36215.22
639.474	36025.85
639.828	36170.02
640.181	36155.79
640.534	36166.41
640.888	36037.6
641.241	35952.63
641.594	36052.06
641.947	36175.9
642.301	36057.48
642.654	36159.85
643.007	36153.3
643.36	36012.74
643.713	36043.02
644.066	36094.55
644.419	36051.16
644.771	35837.83
645.124	35471.51
645.477	35407.78
645.83	35273.55
646.182	35175.93
646.535	35150.84
646.888	35147.45
647.24	34935.48
647.593	35116.27
647.945	35021.35
648.298	34894.58
648.65	35009.83
649.002	34890.74
649.355	35063.61
649.707	34946.1
650.059	35152.2
650.411	35485.52
650.763	35544.96
651.115	35972.97
651.467	35745.85
651.819	35743.37
652.171	35777.27
652.523	35676.48
652.875	35684.84
653.227	35589.93
653.578	35812.29
653.93	35653.88
654.282	35580.43
654.633	35481.68
654.985	35583.37
655.337	35554.22
655.688	35467.22
656.039	35669.47
656.391	35439.42
656.742	35536.37
657.094	35431.06
657.445	35641.68
657.796	35543.83
658.147	35501.79
658.498	35541.34
658.849	35690.94
659.2	35456.37
659.551	35446.43
659.902	35530.49
660.253	35487.78
660.604	35678.06
660.955	35341.34
661.306	35556.93
661.656	35408.24
662.007	35597.84
662.358	35448.46
662.708	35497.05
663.059	35543.6
663.409	35174.34
663.76	35589.47
664.11	35522.81
664.461	35554.9
664.811	35542.02
665.161	35450.27
665.511	35344.06
665.862	35410.95
666.212	35462.7
666.562	35448.46
666.912	35413.66
667.262	35348.35
667.612	35271.52
667.962	35429.48
668.312	35340.89
668.662	35567.33
669.011	35416.6
669.361	35417.05
669.711	35412.3
670.06	35408.46
670.41	35277.62
670.76	35185.64
671.109	35423.6
671.459	35176.38
671.808	35206.89
672.157	35276.49
672.507	35001.69
672.856	35160.11
673.205	35259.09
673.554	35253.89
673.904	35019.09
674.253	35155.81
674.602	35088.47
674.951	34676.28
675.3	34483.97
675.649	35142.25
675.998	35084.63
676.346	34889.38
676.695	35164.63
677.044	34938.64
677.393	34984.97
677.741	34875.14
678.09	34775.48
678.438	34850.96
678.787	34874.01
679.135	34833.56
679.484	34632.44
679.832	34822.49
680.181	34678.76
680.529	34746.56
680.877	34715.37
681.225	34621.59
681.573	34728.71
681.922	34534.59
682.27	34550.18
682.618	34438.32
682.966	34311.77
683.314	34441.26
683.661	34266.12
684.009	34153.35
684.357	34078.1
684.705	34126.24
685.053	34163.97
685.4	34035.62
685.748	33808.96
686.095	33974.15
686.443	33860.25
686.79	33683.08
687.138	33834.49
687.485	33832.01
687.832	33574.16
688.18	33654.16
688.527	33469.08
688.874	33418.68
689.221	33400.15
689.568	33338.91
689.915	33247.16
690.262	33142.53
690.609	33104.79
690.956	33027.96
691.303	32935.31
691.65	32844.69
691.997	32935.98
692.344	32601.53
692.69	32621.87
693.037	32697.12
693.383	32373.97
693.73	32479.73
694.077	32365.38
694.423	32325.38
694.769	32182.33
695.116	32070.47
695.462	32190.92
695.808	32000.64
696.155	32128.1
696.501	31907.54
696.847	31806.3
697.193	31598.84
697.539	31727.88
697.885	31583.03
698.231	31432.52
698.577	31398.17
698.923	31496.47
699.269	31141.23
699.614	31117.28
699.96	31049.03
700.306	31036.6
700.651	30936.94
700.997	30667.57
701.342	30743.05
701.688	30685.42
702.033	30683.84
702.379	30470.29
702.724	30495.82
703.069	30617.4
703.415	30297.18
703.76	30228.71
704.105	30345.54
704.45	30097.41
704.795	29886.8
705.14	29858.55
705.485	29776.52
705.83	29702.4
706.175	29829.17
706.52	29665.11
706.865	29518.22
707.209	29551.67
707.554	29348.96
707.899	29620.82
708.243	29307.38
708.588	29418.11
708.932	29098.8
709.277	29116.88
709.621	29071.91
709.966	28915.3
710.31	28946.48
710.654	28782.65
710.998	28782.65
711.342	28737.9
711.687	28648.64
712.031	28530.45
712.375	28509.89
712.719	28587.62
713.063	28469.89
713.407	28465.37
713.75	28461.3
714.094	28362.55
714.438	28191.25
714.782	28256.11
715.125	28043.91
715.469	28277.8
715.812	28003.68
716.156	27915.33
716.499	27849.79
716.843	27948.54
717.186	27708.33
717.53	27965.49
717.873	27816.8
718.216	27633.3
718.559	27594.66
718.902	27472.17
719.246	27477.6
719.589	27513.98
719.932	27491.16
720.275	27271.27
720.617	27269.01
720.96	27241.22
721.303	27319.41
721.646	27233.99
721.989	27192.86
722.331	27009.13
722.674	27053.88
723.016	27039.64
723.359	27047.78
723.701	26949.25
724.044	26831.06
724.386	26852.75
724.729	26869.03
725.071	26863.6
725.413	26740.44
725.755	26706.32
726.097	26639.65
726.439	26605.3
726.782	26640.1
727.124	26583.16
727.465	26461.35
727.807	26423.61
728.149	26487.11
728.491	26264.75
728.833	26454.35
729.175	26230.17
729.516	26284.18
729.858	26181.36
730.199	26321.02
730.541	26097.97
730.882	26092.32
731.224	26260
731.565	26079.22
731.906	26059.78
732.248	26132.55
732.589	25869.28
732.93	26053.45
733.271	25903.63
733.612	25824.31
733.953	25947.92
734.294	25755.16
734.635	25819.56
734.976	25840.13
735.317	25652.33
735.658	25667.93
735.999	25678.55
736.339	25685.78
736.68	25761.94
737.021	25531.21
737.361	25440.81
737.702	25681.71
738.042	25510.42
738.383	25443.53
738.723	25383.41
739.063	25281.5
739.404	25459.34
739.744	25254.6
740.084	25358.78
740.424	25297.09
740.764	25110.2
741.104	25301.83
741.444	25180.26
741.784	25104.78
742.124	25153.59
742.464	25101.61
742.804	25012.58
743.143	25003.99
743.483	24947.95
743.823	24832.02
744.162	24955.4
744.502	24950.88
744.841	24851.45
745.181	24843.99
745.52	24774.16
745.86	24850.1
746.199	24714.05
746.538	24638.35
746.877	24620.5
747.216	24707.73
747.556	24506.6
747.895	24717.22
748.234	24530.78
748.573	24526.49
748.911	24527.17
749.25	24501.63
749.589	24450.11
749.928	24377.79
750.267	24537.79
750.605	24400.39
750.944	24452.37
751.283	24320.62
751.621	24423.21
751.96	24244.24
752.298	24199.72
752.636	24168.76
752.975	24195.65
753.313	24092.6
753.651	24205.37
753.989	24095.99
754.327	23994.52
754.666	23874.3
755.004	23956.33
755.342	23901.42
755.679	23933.28
756.017	23802.44
756.355	23847.86
756.693	23767.86
757.031	23746.85
757.368	23676.57
757.706	23610.81
758.044	23525.38
758.381	23618.49
758.719	23481.77
759.056	23486.29
759.394	23441.54
759.731	23258.05
760.068	23250.14
760.405	23112.97
760.743	23118.16
761.08	23199.97
761.417	23091.27
761.754	23140.31
762.091	23044.27
762.428	23063.93
762.765	22795.91
763.102	22825.52
763.438	22761.79
763.775	22647.89
764.112	22698.29
764.449	22631.4
764.785	22630.94
765.122	22507.33
765.458	22226.44
765.795	22363.15
766.131	22343.72
766.467	22256.94
766.804	22162.93
767.14	22005.42
767.476	22100.56
767.812	21903.28
768.148	21943.73
768.485	21825.09
768.821	21783.06
769.157	21681.36
769.492	21685.66
769.828	21702.83
770.164	21427.81
770.5	21393.91
770.836	21524.31
771.171	21280.25
771.507	21236.86
771.842	21074.15
772.178	21089.06
772.513	21075.51
772.849	20929.29
773.184	20867.6
773.519	20849.75
773.855	20777.21
774.19	20714.61
774.525	20534.05
774.86	20592.58
775.195	20555.74
775.53	20414.73
775.865	20341.51
776.2	20155.98
776.535	20170.67
776.87	20087.96
777.205	20027.4
777.539	19988.3
777.874	19951.92
778.209	19776.33
778.543	19852.49
778.878	19639.16
779.212	19675.09
779.547	19532.72
779.881	19553.06
780.215	19458.37
780.55	19445.94
780.884	19342.67
781.218	19339.05
781.552	19346.29
781.886	19075.11
782.22	19019.97
782.554	18946.75
782.888	18783.36
783.222	18610.03
783.556	18603.71
783.889	18644.16
784.223	18477.38
784.557	18501.11
784.89	18491.17
785.224	18459.3
785.557	18239.42
785.891	18204.62
786.224	18180.89
786.558	18177.73
786.891	17941.58
787.224	17980.9
787.557	17953.78
787.891	17917.85
788.224	17891.41
788.557	17861.35
788.89	17874.23
789.223	17679.66
789.556	17606.44
789.888	17573.45
790.221	17522.15
790.554	17369.16
790.887	17344.76
791.219	17288.26
791.552	17226.11
791.884	17161.26
792.217	17193.57
792.549	17070.41
792.882	16944.77
793.214	16843.07
793.546	16964.65
793.879	16798.1
794.211	16737.31
794.543	16720.37
794.875	16657.54
795.207	16714.94
795.539	16624.77
795.871	16504.78
796.203	16401.73
796.535	16303.2
796.867	16311.11
797.198	16233.15
797.53	16228.17
797.862	16093.72
798.193	16171.91
798.525	16074.51
798.856	15939.37
799.188	16007.84
799.519	15876.55
799.85	15791.12
800.182	15774.18
800.513	15831.35
800.844	15624.58
801.175	15724.69
801.506	15662.54
801.837	15594.97
802.168	15554.97
802.499	15505.48
802.83	15489.66
803.161	15331.25
803.491	15319.05
803.822	15360.4
804.153	15288.54
804.483	15130.12
804.814	15069.11
805.145	15114.31
805.475	15119.96
805.805	14919.96
806.136	14978.49
806.466	14981.88
806.796	14921.32
807.126	14853.97
807.457	14820.08
807.787	14713.41
808.117	14746.18
808.447	14649.46
808.777	14658.5
809.107	14643.13
809.436	14595.22
809.766	14490.82
810.096	14479.75
810.426	14372.18
810.755	14475.45
811.085	14501.89
811.414	14356.13
811.744	14314.78
812.073	14198.85
812.403	14211.05
812.732	14131.05
813.061	14149.36
813.39	14000.89
813.719	13993.66
814.049	14138.06
814.378	14064.16
814.707	13920.67
815.036	13922.92
815.365	13811.52
815.693	13789.82
816.022	13743.72
816.351	13722.7
816.68	13638.19
817.008	13714.12
817.337	13594.12
817.665	13587.79
817.994	13602.48
818.322	13486.33
818.651	13441.36
818.979	13421.02
819.307	13475.25
819.636	13428.02
819.964	13422.37
820.292	13385.31
820.62	13413.11
820.948	13376.5
821.276	13469.15
821.604	13328.59
821.932	13363.62
822.259	13306.44
822.587	13364.3
822.915	13256.95
823.243	13300.79
823.57	13244.3
823.898	13282.72
824.225	13253.79
824.553	13237.07
824.88	13287.69
825.207	13344.41
825.535	13295.37
825.862	13320.91
826.189	13246.11
826.516	13298.53
826.843	13349.61
827.17	13359.78
827.497	13295.14
827.824	13283.39
828.151	13288.59
828.478	13210.85
828.805	13391.87
829.131	13272.32
829.458	13269.38
829.785	13137.86
830.111	13277.07
830.438	13244.3
830.764	13241.13
831.09	13282.49
831.417	13180.8
831.743	13203.85
832.069	13159.56
832.395	13122.27
832.722	13185.32
833.048	13152.1
833.374	13134.02
833.7	13048.37
834.026	13079.78
834.351	13101.48
834.677	13081.59
835.003	13103.74
835.329	13106
835.654	13015.15
835.98	12994.59
836.306	12999.56
836.631	12949.17
836.956	12963.85
837.282	13015.6
837.607	12949.62
837.932	12888.15
838.258	12889.28
838.583	12830.75
838.908	12865.1
839.233	12822.39
839.558	12877.75
839.883	12721.15
840.208	12676.63
840.533	12703.52
840.858	12661.94
841.182	12690.87
841.507	12712.11
841.832	12628.72
842.156	12609.06
842.481	12650.19
842.805	12500.14
843.13	12579.91
843.454	12541.94
843.778	12449.52
844.103	12355.96
844.427	12355.73
844.751	12360.03
845.075	12351.21
845.399	12321.39
845.723	12260.14
846.047	12306.24
846.371	12244.78
846.695	12159.36
847.019	12083.65
847.343	11955.74
847.666	12004.56
847.99	11899.02
848.313	11899.25
848.637	11765.69
848.96	11784.45
849.284	11800.04
849.607	11625.13
849.931	11617.22
850.254	11593.27
850.577	11501.52
850.9	11472.37
851.223	11533.16
851.546	11412.26
851.869	11297.46
852.192	11355.99
852.515	11184.47
852.838	11187.63
853.161	11204.13
853.483	11111.93
853.806	11049.33
854.129	11144.47
854.451	10979.05
854.774	10951.03
855.096	10932.5
855.419	10921.87
855.741	10898.15
856.063	10810.92
856.385	10794.19
856.708	10741.54
857.03	10762.33
857.352	10747.19
857.674	10670.81
857.996	10730.47
858.318	10560.75
858.64	10554.2
858.961	10591.49
859.283	10548.55
859.605	10437.37
859.926	10544.03
860.248	10500.19
860.57	10316.92
860.891	10422.45
861.212	10349.23
861.534	10319.4
861.855	10351.72
862.176	10295.45
862.498	10329.57
862.819	10326.18
863.14	10274.21
863.461	10290.25
863.782	10221.1
864.103	10240.08
864.424	10135.45
864.745	10194.44
865.065	10132.52
865.386	10071.5
865.707	10035.57
866.027	10048.45
866.348	10051.39
866.668	10047.55
866.989	10052.74
867.309	10027.43
867.63	10061.11
867.95	10035.57
868.27	9888.68
868.59	9882.58
868.91	9877.16
869.23	9838.06
869.55	9851.39
869.87	9840.09
870.19	9863.82
870.51	9842.13
870.83	9881.22
871.15	9819.3
871.469	9802.58
871.789	9808.68
872.109	9807.78
872.428	9694.11
872.748	9769.14
873.067	9792.86
873.386	9753.32
873.706	9717.16
874.025	9671.96
874.344	9619.31
874.663	9677.16
874.982	9624.28
875.301	9646.88
875.62	9559.2
875.939	9535.02
876.258	9508.13
876.577	9546.54
876.896	9483.72
877.214	9455.25
877.533	9432.42
877.852	9461.57
878.17	9457.73
878.489	9512.87
878.807	9437.39
879.125	9365.98
879.444	9366.66
879.762	9357.4
880.08	9387.9
880.398	9310.16
880.716	9334.12
881.034	9281.92
881.352	9365.53
881.67	9294.57
881.988	9282.82
882.306	9217.96
882.624	9231.07
882.941	9205.08
883.259	9159.66
883.577	9118.08
883.894	9093.45
884.212	9081.47
884.529	9077.18
884.846	9088.7
885.164	9013.9
885.481	8954.02
885.798	9012.09
886.115	8930.97
886.432	8950.63
886.75	8921.47
887.067	8919.44
887.383	8818.88
887.7	8842.61
888.017	8810.52
888.334	8898.2
888.651	8799.67
888.967	8800.8
889.284	8746.34
889.6	8749.05
889.917	8713.57
890.233	8693.68
890.55	8616.85
890.866	8660.69
891.182	8546.34
891.498	8564.65
891.815	8528.04
892.131	8516.29
892.447	8531.65
892.763	8504.99
893.079	8415.5
893.395	8489.62
893.71	8499.56
894.026	8373.92
894.342	8343.64
894.657	8305.22
894.973	8321.26
895.289	8314.71
895.604	8234.03
895.92	8187.26
896.235	8148.61
896.55	8126.92
896.865	8131.89
897.181	8123.53
897.496	8134.83
897.811	8040.14
898.126	8008.96
898.441	8027.26
898.756	7960.82
899.071	7957.21
899.386	7972.8
899.7	7909.52
900.015	7830.88
900.33	7829.07
900.644	7811.45
900.959	7758.57
901.273	7793.37
901.588	7662.3
901.902	7644.45
902.216	7653.71
902.531	7658
902.845	7596.99
903.159	7576.65
903.473	7543.43
903.787	7513.83
904.101	7432.47
904.415	7418.92
904.729	7397.9
905.042	7392.25
905.356	7359.03
905.67	7353.38
905.984	7397.22
906.297	7354.28
906.611	7292.82
906.924	7298.69
907.237	7193.61
907.551	7174.63
907.864	7243.33
908.177	7167.85
908.491	7119.49
908.804	7111.58
909.117	7025.48
909.43	7022.99
909.743	7009.21
910.056	6998.14
910.368	6900.51
910.681	6930.57
910.994	6915.2
911.307	6860.29
911.619	6810.12
911.932	6829.78
912.244	6757.69
912.557	6746.84
912.869	6714.07
913.181	6706.62
913.494	6654.87
913.806	6600.63
914.118	6603.12
914.43	6594.08
914.742	6532.16
915.054	6505.27
915.366	6500.75
915.678	6525.83
915.99	6447.42
916.302	6391.15
916.613	6416
916.925	6353.63
917.236	6386.85
917.548	6325.38
917.859	6324.71
918.171	6272.5
918.482	6248.78
918.794	6246.29
919.105	6200.64
919.416	6124.71
919.727	6145.95
920.038	6091.72
920.349	6118.61
920.66	6024.38
920.971	5990.48
921.282	6029.57
921.593	5970.37
921.903	5951.38
922.214	5911.16
922.525	5916.81
922.835	5858.05
923.146	5782.35
923.456	5827.32
923.767	5807.66
924.077	5782.35
924.387	5738.96
924.697	5720.2
925.008	5735.12
925.318	5678.85
925.628	5607.44
925.938	5661.45
926.248	5588
926.558	5575.57
926.867	5593.65
927.177	5522.92
927.487	5520.89
927.796	5491.96
928.106	5468.91
928.416	5422.13
928.725	5414.9
929.034	5354.11
929.344	5410.83
929.653	5383.26
929.962	5310.27
930.271	5256.94
930.581	5306.43
930.89	5268.69
931.199	5220.55
931.508	5225.98
931.817	5227.33
932.125	5139.43
932.434	5192.98
932.743	5134.46
933.051	5095.13
933.36	5087.22
933.669	5068.02
933.977	4991.18
934.286	5025.08
934.594	5009.71
934.902	4940.79
935.21	4966.55
935.519	4956.61
935.827	4931.52
936.135	4889.94
936.443	4837.51
936.751	4850.62
937.059	4823.28
937.367	4774.24
937.674	4800.45
937.982	4789.38
938.29	4762.94
938.597	4751.87
938.905	4716.61
939.213	4674.81
939.52	4640.68
939.827	4661.25
940.135	4599.78
940.442	4588.03
940.749	4644.07
941.056	4590.97
941.363	4523.85
941.67	4487.47
941.977	4537.18
942.284	4466.22
942.591	4470.74
942.898	4456.73
943.205	4429.62
943.511	4421.25
943.818	4388.49
944.125	4349.39
944.431	4322.73
944.738	4380.12
945.044	4346.68
945.35	4314.82
945.657	4238.66
945.963	4269.39
946.269	4222.84
946.575	4223.52
946.881	4207.02
947.187	4195.05
947.493	4196.17
947.799	4156.18
948.105	4149.17
948.41	4099.68
948.716	4061.49
949.022	4092
949.327	4122.5
949.633	4037.99
949.938	4033.47
950.244	4054.94
950.549	3990.53
950.854	3941.04
951.16	3959.8
951.465	3947.82
951.77	3893.36
952.075	3874.15
952.38	3905.11
952.685	3888.84
952.99	3880.93
953.294	3866.01
953.599	3836.86
953.904	3773.36
954.209	3781.5
954.513	3742.18
954.818	3767.94
955.122	3765.23
955.426	3752.12
955.731	3700.14
956.035	3709.18
956.339	3694.04
956.643	3696.08
956.948	3662.18
957.252	3626.25
957.556	3637.32
957.86	3579.02
958.163	3565.46
958.467	3617.89
958.771	3563.2
959.075	3555.51
959.378	3536.76
959.682	3494.72
959.985	3482.75
960.289	3459.02
960.592	3487.49
960.896	3449.98
961.199	3423.99
961.502	3395.29
961.805	3364.11
962.108	3377.21
962.411	3360.49
962.714	3364.11
963.017	3331.34
963.32	3339.7
963.623	3307.61
963.926	3323.43
964.228	3293.15
964.531	3237.56
964.833	3241.4
965.136	3250.66
965.438	3220.38
965.741	3198.69
966.043	3206.14
966.345	3161.4
966.648	3181.51
966.95	3202.3
967.252	3118.24
967.554	3125.69
967.856	3122.98
968.158	3126.82
968.46	3112.81
968.761	3053.83
969.063	3073.04
969.365	3044.11
969.666	3033.95
969.968	2990.33
970.269	3019.71
970.571	2998.69
970.872	2998.92
971.174	2985.81
971.475	2977.45
971.776	2947.39
972.077	2941.97
972.378	2924.57
972.679	2913.27
972.98	2935.87
973.281	2877.34
973.582	2840.96
973.883	2869.43
974.183	2838.7
974.484	2823.78
974.785	2814.52
975.085	2837.34
975.386	2794.18
975.686	2743.11
975.986	2750.34
976.287	2754.86
976.587	2722.32
976.887	2749.89
977.187	2718.7
977.487	2729.09
977.787	2679.83
978.087	2664.46
978.387	2678.47
978.687	2655.88
978.987	2661.3
979.286	2618.59
979.586	2655.65
979.885	2630.79
980.185	2610.68
980.484	2581.75
980.784	2567.52
981.083	2555.09
981.382	2573.84
981.682	2569.1
981.981	2547.18
982.28	2547.86
982.579	2501.08
982.878	2513.96
983.177	2475.99
983.475	2477.35
983.774	2469.67
984.073	2451.59
984.372	2466.95
984.67	2459.72
984.969	2442.1
985.267	2424.92
985.566	2401.42
985.864	2408.43
986.162	2411.14
986.461	2393.06
986.759	2372.72
987.057	2374.53
987.355	2342.66
987.653	2311.03
987.951	2341.53
988.249	2310.35
988.547	2314.42
988.844	2301.76
989.142	2287.3
989.44	2281.42
989.737	2251.37
990.035	2238.49
990.332	2235.55
990.63	2219.73
990.927	2223.8
991.224	2231.03
991.521	2174.08
991.819	2167.75
992.116	2182.67
992.413	2163.46
992.71	2161.65
993.006	2131.37
993.303	2123.46
993.6	2133.4
993.897	2116
994.193	2117.36
994.49	2075.55
994.787	2096.12
995.083	2051.82
995.379	2064.71
995.676	2057.02
995.972	2061.09
996.268	2037.36
996.565	2008.21
996.861	2019.74
997.157	2039.85
997.453	2003.46
997.749	1983.35
998.044	1976.12
998.34	1981.54
998.636	1945.84
998.932	1940.64
999.227	1963.24
999.523	1900.87
999.818	1920.75
1000.114	1939.74
1000.409	1873.07
1000.704	1914.43
1001	1916.46
1001.295	1850.02
1001.59	1846.41
1001.885	1870.36
1002.18	1833.98
1002.475	1836.24
1002.77	1812.28
1003.065	1804.83
1003.359	1794.66
1003.654	1802.34
1003.949	1804.6
1004.243	1786.52
1004.538	1772.74
1004.832	1753.53
1005.127	1760.53
1005.421	1713.75
1005.715	1748.56
1006.009	1707.43
1006.304	1704.49
1006.598	1685.96
1006.892	1700.65
1007.186	1650.71
1007.48	1682.12
1007.773	1675.11
1008.067	1668.11
1008.361	1629.01
1008.655	1611.61
1008.948	1614.77
1009.242	1613.87
1009.535	1586.3
1009.829	1579.75
1010.122	1568.45
1010.415	1598.96
1010.708	1558.05
1011.001	1548.79
1011.295	1530.03
1011.588	1553.76
1011.881	1534.32
1012.173	1504.27
1012.466	1523.02
1012.759	1525.28
1013.052	1489.13
1013.344	1473.99
1013.637	1492.52
1013.93	1491.39
1014.222	1473.31
1014.514	1462.46
1014.807	1447.09
1015.099	1451.61
1015.391	1440.09
1015.683	1429.02
1015.976	1439.19
1016.268	1427.66
1016.56	1420.43
1016.851	1399.41
1017.143	1366.87
1017.435	1380.2
1017.727	1347.21
1018.018	1353.54
1018.31	1319.87
1018.602	1339.75
1018.893	1326.19
1019.185	1322.13
1019.476	1333.2
1019.767	1313.76
1020.058	1279.42
1020.35	1285.52
1020.641	1302.47
1020.932	1287.1
1021.223	1284.16
1021.514	1238.51
1021.804	1242.81
1022.095	1241.68
1022.386	1236.03
1022.677	1236.03
1022.967	1229.02
1023.258	1234.44
1023.548	1208
1023.839	1198.29
1024.129	1190.38
1024.419	1181.34
1024.709	1191.73
1025	1168.23
1025.29	1177.72
1025.58	1145.86
1025.87	1147.44
1026.16	1116.71
1026.449	1135.24
1026.739	1100.44
1027.029	1113.32
1027.319	1100.66
1027.608	1088.01
1027.898	1101.79
1028.187	1114.22
1028.477	1083.49
1028.766	1081
1029.055	1064.51
1029.344	1043.72
1029.634	1082.81
1029.923	1035.58
1030.212	1024.73
1030.501	1026.77
1030.79	1043.26
1031.078	1003.72
1031.367	1033.77
1031.656	966.43
1031.945	987.9
1032.233	1026.54
1032.522	985.86
1032.81	1008.24
1033.099	970.5
1033.387	978.86
1033.675	971.63
1033.963	970.72
1034.251	923.27
1034.54	937.96
1034.828	936.6
1035.116	921.68
1035.403	912.65
1035.691	908.13
1035.979	913.55
1036.267	924.85
1036.554	884.62
1036.842	876.94
1037.129	889.14
1037.417	892.98
1037.704	895.7
1037.992	904.06
1038.279	859.77
1038.566	877.39
1038.853	877.39
1039.14	877.39
