Data from hue_290_FLMS001491_00010.txt Node
Date: Tue Feb 07 15:52:08 GMT 2017
User: dcchb
Spectrometer: FLMS00149
Trigger mode: 0
Integration Time (sec): 2.000000E-2
Scans to average: 10
Electric dark correction enabled: true
Nonlinearity correction enabled: false
Boxcar width: 0
XAxis mode: Wavelengths
Number of Pixels in Spectrum: 2048
>>>>>Begin Spectral Data<<<<<
341.393	-15.08
341.776	-15.08
342.16	-15.08
342.543	-46.95
342.927	-64.57
343.31	-71.81
343.693	-66.61
344.077	-58.25
344.46	-58.7
344.843	-56.67
345.226	-52.15
345.61	-34.74
345.993	-24.58
346.376	-2.66
346.759	25.14
347.142	26.04
347.525	34.63
347.908	69.21
348.291	56.1
348.674	102.2
349.057	112.82
349.44	134.06
349.823	117.57
350.206	173.84
350.588	172.71
350.971	202.54
351.354	220.39
351.737	235.3
352.119	250.9
352.502	248.86
352.884	257.9
353.267	301.74
353.65	285.7
354.032	294.96
354.414	311.23
354.797	317.79
355.179	303.78
355.562	328.41
355.944	315.53
356.326	320.5
356.709	332.25
357.091	315.98
357.473	316.88
357.855	338.58
358.238	327.05
358.62	337.45
359.002	357.56
359.384	360.05
359.766	351.46
360.148	365.7
360.53	324.79
360.912	323.89
361.294	334.28
361.676	339.03
362.057	313.27
362.439	336.09
362.821	325.25
363.203	329.31
363.584	341.29
363.966	344.23
364.348	328.86
364.729	327.51
365.111	321.86
365.493	330.22
365.874	333.38
366.256	308.97
366.637	306.49
367.019	312.36
367.4	296.77
367.781	307.17
368.163	318.01
368.544	321.63
368.925	327.05
369.306	329.77
369.688	303.33
370.069	307.39
370.45	301.52
370.831	323.89
371.212	322.31
371.593	325.47
371.974	327.73
372.355	320.73
372.736	322.08
373.117	327.73
373.498	329.09
373.879	320.73
374.26	304.46
374.641	323.21
375.021	335.87
375.402	325.47
375.783	330.67
376.163	324.12
376.544	337.67
376.925	334.74
377.305	321.63
377.686	329.31
378.066	338.58
378.447	332.25
378.827	335.87
379.208	325.02
379.588	338.35
379.968	321.63
380.349	345.36
380.729	334.06
381.109	339.48
381.489	344.68
381.87	349.88
382.25	351.46
382.63	352.59
383.01	360.5
383.39	340.39
383.77	339.48
384.15	345.81
384.53	338.8
384.91	369.09
385.29	348.75
385.67	360.27
386.049	367.5
386.429	367.5
386.809	363.89
387.189	371.57
387.568	368.18
387.948	382.87
388.328	352.14
388.707	383.1
389.087	367.05
389.466	358.01
389.846	384.68
390.225	372.25
390.605	372.02
390.984	392.36
391.363	390.1
391.743	377.45
392.122	385.36
392.501	384.23
392.881	381.06
393.26	380.16
393.639	393.27
394.018	382.42
394.397	413.15
394.776	390.1
395.155	402.53
395.534	388.97
395.913	383.32
396.292	388.97
396.671	416.09
397.05	413.38
397.429	409.31
397.808	416.54
398.186	393.27
398.565	404.11
398.944	413.38
399.323	421.06
399.701	409.54
400.08	409.31
400.458	434.4
400.837	426.94
401.215	418.8
401.594	428.07
401.972	432.36
402.351	428.29
402.729	440.04
403.107	449.08
403.486	452.02
403.864	456.54
404.242	457.22
404.62	455.41
404.999	449.54
405.377	457.9
405.755	458.12
406.133	489.76
406.511	452.47
406.889	453.38
407.267	487.95
407.645	496.31
408.023	465.81
408.401	495.18
408.779	494.05
409.156	508.52
409.534	507.84
409.912	520.49
410.29	512.36
410.667	526.82
411.045	540.16
411.422	527.27
411.8	536.54
412.178	553.71
412.555	568.86
412.933	591.68
413.31	584.9
413.687	580.83
414.065	614.5
414.442	592.81
414.819	590.1
415.197	614.28
415.574	610.89
415.951	640.27
416.328	645.46
416.705	647.5
417.082	647.95
417.46	660.38
417.837	664.22
418.214	684.33
418.591	704.67
418.967	686.37
419.344	679.81
419.721	692.69
420.098	697.44
420.475	729.3
420.852	727.49
421.228	693.6
421.605	730.66
421.982	765.23
422.358	733.14
422.735	772.47
423.111	791.9
423.488	788.74
423.864	808.85
424.241	810.66
424.617	788.06
424.994	807.49
425.37	829.19
425.746	830.09
426.123	846.36
426.499	836.64
426.875	873.48
427.251	892.91
427.627	889.3
428.003	876.87
428.379	885.91
428.756	915.74
429.132	936.3
429.507	932.91
429.883	944.44
430.259	969.07
430.635	950.99
431.011	952.35
431.387	1003.19
431.763	1002.74
432.138	1002.97
432.514	1019.24
432.89	1048.16
433.265	1042.51
433.641	1076.41
434.016	1083.19
434.392	1080.48
434.767	1104.66
435.143	1131.55
435.518	1142.85
435.894	1134.94
436.269	1164.32
436.644	1194.6
437.02	1196.41
437.395	1191.89
437.77	1198.44
438.145	1211.78
438.52	1230.76
438.895	1246.35
439.271	1265.56
439.646	1270.08
440.021	1272.79
440.395	1268.05
440.77	1286.8
441.145	1293.58
441.52	1317.08
441.895	1311.66
442.27	1336.07
442.645	1305.56
443.019	1362.73
443.394	1354.82
443.769	1341.72
444.143	1325.9
444.518	1375.84
444.892	1362.73
445.267	1381.04
445.641	1374.26
446.016	1410.19
446.39	1395.5
446.764	1395.95
447.139	1415.39
447.513	1430.3
447.887	1398.66
448.262	1432.79
448.636	1423.75
449.01	1438.89
449.384	1459.68
449.758	1468.94
450.132	1471.43
450.506	1504.88
450.88	1504.2
451.254	1482.28
451.628	1499.68
452.002	1528.38
452.376	1554.82
452.75	1536.29
453.123	1554.37
453.497	1545.55
453.871	1568.38
454.244	1613.8
454.618	1611.54
454.992	1586.68
455.365	1614.48
455.739	1663.06
456.112	1644.08
456.486	1660.13
456.859	1670.97
457.232	1704.19
457.606	1698.99
457.979	1719.11
458.352	1749.39
458.725	1753
459.099	1779.67
459.472	1805.88
459.845	1770.41
460.218	1826.9
460.591	1844.53
460.964	1837.07
461.337	1843.62
461.71	1882.94
462.083	1902.61
462.456	1872.55
462.829	1895.37
463.201	1931.76
463.574	1953.9
463.947	1925.2
464.32	1974.02
464.692	1979.44
465.065	2010.85
465.438	2036.39
465.81	2018.76
466.183	2047.46
466.555	2085.2
466.928	2099.89
467.3	2084.75
467.672	2115.03
468.045	2164.07
468.417	2180.34
468.789	2160
469.161	2195.7
469.534	2227.57
469.906	2287.68
470.278	2258.75
470.65	2265.08
471.022	2304.63
471.394	2324.97
471.766	2335.59
472.138	2366.77
472.51	2411.29
472.882	2399.54
473.253	2403.61
473.625	2464.4
473.997	2543.94
474.369	2564.73
474.74	2523.61
475.112	2590.27
475.484	2584.4
475.855	2661
476.227	2677.73
476.598	2734.9
476.97	2722.7
477.341	2788.01
477.713	2783.71
478.084	2816.71
478.455	2847.44
478.827	2901.9
479.198	2954.56
479.569	2905.74
479.94	2985.51
480.311	3012.41
480.682	3082.69
481.053	3134.89
481.424	3165.62
481.795	3170.14
482.166	3229.35
482.537	3275
482.908	3272.96
483.279	3300.76
483.65	3341.44
484.021	3403.58
484.391	3439.97
484.762	3469.12
485.133	3463.02
485.503	3507.53
485.874	3559.96
486.244	3580.75
486.615	3610.81
486.985	3665.5
487.356	3746.62
487.726	3719.05
488.097	3750.69
488.467	3804.48
488.837	3838.6
489.207	3855.32
489.578	3924.7
489.948	3949.33
490.318	4011.93
490.688	4000.18
491.058	4067.75
491.428	4108.65
491.798	4131.7
492.168	4166.95
492.538	4160.63
492.908	4236.33
493.278	4231.36
493.648	4293.73
494.017	4307.06
494.387	4374.63
494.757	4363.33
495.126	4398.58
495.496	4429.09
495.866	4424.35
496.235	4430.67
496.605	4520.84
496.974	4531.91
497.344	4543.67
497.713	4571.91
498.082	4571.46
498.452	4618.24
498.821	4648.3
499.19	4616.66
499.559	4669.54
499.928	4712.47
500.298	4737.56
500.667	4784.34
501.036	4730.33
501.405	4777.78
501.774	4795.86
502.143	4813.49
502.512	4823.21
502.88	4864.34
503.249	4853.71
503.618	4883.09
503.987	4895.97
504.356	4949.3
504.724	4992.69
505.093	4964.67
505.462	4948.4
505.83	5032.01
506.199	5021.39
506.567	5064.56
506.936	5118.79
507.304	5093.48
507.672	5050.32
508.041	5091.22
508.409	5152.01
508.777	5220.48
509.145	5144.33
509.514	5196.53
509.882	5161.5
510.25	5227.26
510.618	5241.5
510.986	5260.94
511.354	5299.58
511.722	5304.78
512.09	5346.13
512.458	5297.54
512.826	5373.47
513.193	5354.27
513.561	5390.88
513.929	5474.94
514.297	5428.16
514.664	5435.62
515.032	5467.26
515.4	5481.04
515.767	5501.83
516.135	5517.43
516.502	5532.57
516.869	5536.18
517.237	5613.92
517.604	5537.09
517.972	5636.07
518.339	5651.43
518.706	5625.22
519.073	5663.41
519.44	5653.92
519.808	5698.21
520.175	5692.11
520.542	5754.48
520.909	5757.87
521.276	5756.06
521.643	5840.35
522.009	5773.46
522.376	5846.68
522.743	5842.84
523.11	5883.52
523.477	5958.09
523.843	5950.63
524.21	5961.71
524.577	5988.37
524.943	6024.98
525.31	6056.85
525.676	6115.83
526.043	6134.81
526.409	6137.97
526.776	6209.84
527.142	6171.65
527.508	6195.6
527.874	6305.88
528.241	6249.84
528.607	6312.21
528.973	6305.65
529.339	6379.1
529.705	6334.58
530.071	6421.58
530.437	6449.6
530.803	6457.29
531.169	6498.87
531.535	6565.31
531.901	6540.9
532.267	6593.56
532.632	6605.76
532.998	6578.41
533.364	6682.37
533.73	6605.76
534.095	6636.04
534.461	6704.51
534.826	6687.11
535.192	6789.93
535.557	6806.66
535.923	6740.22
536.288	6783.83
536.653	6783.83
537.019	6806.21
537.384	6858.86
537.749	6877.62
538.114	6841.46
538.479	6924.85
538.845	6883.04
539.21	6931.17
539.575	6946.99
539.94	6914.9
540.305	7062.47
540.67	7037.61
541.034	7051.85
541.399	7094.56
541.764	7084.39
542.129	7095.92
542.494	7117.38
542.858	7105.18
543.223	7146.99
543.587	7178.4
543.952	7197.61
544.316	7153.77
544.681	7202.13
545.045	7209.13
545.41	7266.53
545.774	7317.38
546.138	7335.23
546.503	7343.82
546.867	7308.11
547.231	7379.3
547.595	7387.66
547.959	7467.43
548.324	7404.61
548.688	7507.2
549.052	7480.31
549.416	7495.68
549.779	7496.81
550.143	7472.4
550.507	7504.49
550.871	7586.07
551.235	7465.4
551.599	7531.84
551.962	7551.5
552.326	7640.76
552.689	7615.22
553.053	7595.79
553.417	7585.39
553.78	7780.42
554.143	7684.6
554.507	7699.97
554.87	7754.43
555.234	7792.85
555.597	7711.27
555.96	7742.23
556.323	7810.7
556.686	7805.05
557.05	7855.67
557.413	7854.31
557.776	7905.16
558.139	7963.24
558.502	7927.53
558.865	7981.77
559.228	8000.3
559.59	8057.25
559.953	8064.93
560.316	8065.16
560.679	8040.07
561.041	8112.61
561.404	8103.8
561.767	8185.6
562.129	8206.85
562.492	8278.71
562.854	8246.62
563.217	8183.34
563.579	8283.45
563.941	8348.99
564.304	8348.76
564.666	8396.67
565.028	8418.59
565.39	8372.72
565.753	8448.65
566.115	8435.31
566.477	8469.66
566.839	8499.27
567.201	8528.42
567.563	8538.36
567.925	8607.06
568.287	8681.41
568.648	8643.67
569.01	8731.58
569.372	8735.19
569.734	8724.12
570.095	8794.85
570.457	8864.23
570.819	8841.63
571.18	8878.69
571.542	8899.71
571.903	8952.59
572.265	9002.98
572.626	9042.53
572.987	9096.99
573.349	9062.64
573.71	9129.53
574.071	9195.97
574.432	9231
574.794	9260.15
575.155	9314.39
575.516	9289.98
575.877	9453.37
576.238	9409.98
576.599	9445.91
576.96	9572.69
577.32	9484.78
577.681	9625.34
578.042	9695.85
578.403	9747.6
578.763	9714.83
579.124	9838.44
579.485	9889.97
579.845	9953.24
580.206	9968.38
580.566	10037.53
580.927	10109.62
581.287	10147.36
581.648	10236.17
582.008	10450.63
582.368	10391.65
582.728	10539.21
583.089	10617.86
583.449	10661.47
583.809	10836.38
584.169	10881.58
584.529	10941.46
584.889	11105.53
585.249	11137.39
585.609	11273.21
585.969	11348.46
586.329	11467.33
586.688	11611.73
587.048	11650.37
587.408	11654.21
587.768	11890.37
588.127	12015.11
588.487	12129.46
588.846	12271.6
589.206	12384.59
589.565	12424.14
589.925	12665.49
590.284	12740.96
590.643	12906.84
591.003	13043.56
591.362	13204.91
591.721	13317.22
592.08	13411.68
592.44	13584.78
592.799	13761.05
593.158	13864.78
593.517	13989.52
593.876	14133.02
594.235	14231.77
594.593	14365.1
594.952	14502.05
595.311	14688.48
595.67	14744.08
596.029	15016.84
596.387	15065.88
596.746	15215.48
597.104	15212.76
597.463	15488.24
597.822	15610.49
598.18	15637.16
598.538	15836.7
598.897	16028.56
599.255	15916.02
599.613	16302.68
599.972	16316.46
600.33	16536.57
600.688	16560.75
601.046	16662.22
601.404	16876
601.762	16968.88
602.12	17175.42
602.478	17151.47
602.836	17268.75
603.194	17360.05
603.552	17389.88
603.91	17443.89
604.268	17685.24
604.625	17751.23
604.983	17765.92
605.341	17877.55
605.698	18073.93
606.056	18185.12
606.413	18267.37
606.771	18389.4
607.128	18501.04
607.485	18344.21
607.843	18483.86
608.2	18737.87
608.557	18802.95
608.914	18832.78
609.272	19053.79
609.629	19110.74
609.986	19215.37
610.343	19133.11
610.7	19386.21
611.057	19320.23
611.414	19446.78
611.771	19616.72
612.127	19647
612.484	19628.92
612.841	19782.59
613.198	19733.77
613.554	19849.25
613.911	20069.59
614.267	20009.02
614.624	20063.48
614.98	20145.29
615.337	20303.93
615.693	20163.82
616.05	20264.61
616.406	20369.92
616.762	20428.22
617.118	20385.28
617.475	20481.55
617.831	20593.87
618.187	20724.94
618.543	20666.18
618.899	20813.29
619.255	20813.75
619.611	20809.68
619.967	20930.81
620.323	20975.1
620.678	20912.27
621.034	20937.13
621.39	21007.87
621.746	20862.11
622.101	21277.46
622.457	21056
622.812	21226.62
623.168	21165.15
623.523	21220.52
623.879	21365.14
624.234	21248.09
624.589	21358.82
624.945	21398.14
625.3	21368.31
625.655	21446.27
626.01	21419.61
626.365	21522.2
626.72	21481.53
627.075	21552.03
627.43	21446.27
627.785	21419.83
628.14	21496.67
628.495	21470.45
628.85	21620.05
629.205	21413.73
629.559	21649.43
629.914	21407.63
630.269	21494.18
630.623	21357.69
630.978	21524.46
631.332	21472.26
631.687	21625.7
632.041	21581.86
632.396	21492.15
632.75	21555.87
633.104	21496.67
633.459	21428.65
633.813	21492.82
634.167	21352.72
634.521	21424.35
634.875	21389.55
635.229	21370.12
635.583	21248.76
635.937	21412.37
636.291	21335.54
636.645	21280.63
636.999	21347.29
637.352	21372.38
637.706	21168.09
638.06	21367.86
638.413	21205.37
638.767	21215.32
639.121	21294.41
639.474	21159.5
639.828	21184.81
640.181	21121.99
640.534	21214.41
640.888	21205.37
641.241	21147.98
641.594	21107.3
641.947	21192.27
642.301	21125.38
642.654	21151.14
643.007	21169.67
643.36	21151.59
643.713	21060.75
644.066	21142.55
644.419	21098.71
644.771	21023.46
645.124	20714.09
645.477	20741.43
645.83	20752.96
646.182	20615.11
646.535	20517.48
646.888	20660.76
647.24	20481.33
647.593	20623.24
647.945	20504.83
648.298	20373.31
648.65	20329.01
649.002	20277.49
649.355	20430.03
649.707	20375.79
650.059	20530.82
650.411	20791.15
650.763	20821.43
651.115	21030.24
651.467	20907.76
651.819	20914.53
652.171	20895.55
652.523	20819.4
652.875	20910.47
653.227	20837.93
653.578	21025.04
653.93	20834.54
654.282	20807.19
654.633	20820.98
654.985	20843.58
655.337	20881.99
655.688	20924.03
656.039	20938.49
656.391	20806.06
656.742	20765.84
657.094	20820.75
657.445	21003.8
657.796	20902.11
658.147	20729.68
658.498	20786.18
658.849	20845.38
659.2	20891.94
659.551	20924.93
659.902	20897.81
660.253	20955.44
660.604	20943.01
660.955	20813.97
661.306	20967.87
661.656	21024.36
662.007	20977.81
662.358	20975.32
662.708	20999.05
663.059	21041.31
663.409	20864.82
663.76	21049.67
664.11	21040.18
664.461	21032.95
664.811	21019.62
665.161	21024.14
665.511	21039.05
665.862	21017.81
666.212	21081.54
666.562	21088.77
666.912	20980.97
667.262	21080.41
667.612	21013.97
667.962	21067.07
668.312	20983.23
668.662	21044.93
669.011	20943.23
669.361	21006.28
669.711	20887.19
670.06	20831.6
670.41	20812.84
670.76	20905.72
671.109	20931.94
671.459	20958.38
671.808	20892.16
672.157	20849.9
672.507	20755.67
672.856	20824.37
673.205	20772.39
673.554	20886.06
673.904	20779.4
674.253	20890.13
674.602	20694.2
674.951	20451.04
675.3	20385.96
675.649	20728.55
675.998	20746.86
676.346	20701.43
676.695	20741.88
677.044	20649.23
677.393	20756.35
677.741	20722
678.09	20651.04
678.438	20555.22
678.787	20547.09
679.135	20605.39
679.484	20512.74
679.832	20446.98
680.181	20420.31
680.529	20486.98
680.877	20266.64
681.225	20380.99
681.573	20493.08
681.922	20315.45
682.27	20226.42
682.618	20233.65
682.966	20260.77
683.314	20263.25
683.661	20166.76
684.009	20105.52
684.357	19993.2
684.705	19992.98
685.053	19987.78
685.4	19940.1
685.748	19864.62
686.095	19815.35
686.443	19765.64
686.79	19767.9
687.138	19898.52
687.485	19771.29
687.832	19680.89
688.18	19702.82
688.527	19724.51
688.874	19589.82
689.221	19624.85
689.568	19454.69
689.915	19498.53
690.262	19372.43
690.609	19338.08
690.956	19243.39
691.303	19233.68
691.65	19200.46
691.997	19141.7
692.344	19074.81
692.69	19000.23
693.037	18933.8
693.383	18844.53
693.73	18960.46
694.077	18751.88
694.423	18692.22
694.769	18646.12
695.116	18715.5
695.462	18696.06
695.808	18511.43
696.155	18604.77
696.501	18435.28
696.847	18385.11
697.193	18255.62
697.539	18311.67
697.885	18118
698.231	18093.37
698.577	18103.54
698.923	18020.6
699.269	17976.53
699.614	17826.71
699.96	17855.86
700.306	17788.74
700.651	17749.87
700.997	17690.44
701.342	17564.11
701.688	17597.33
702.033	17529.77
702.379	17467.62
702.724	17342.43
703.069	17454.06
703.415	17248.64
703.76	17256.78
704.105	17259.94
704.45	17088.87
704.795	17024.24
705.14	17035.54
705.485	16967.97
705.83	16902.44
706.175	16864.7
706.52	16860.18
706.865	16761.65
707.209	16748.99
707.554	16601.65
707.899	16743.57
708.243	16538.6
708.588	16558.49
708.932	16435.56
709.277	16450.7
709.621	16387.87
709.966	16373.86
710.31	16298.16
710.654	16221.55
710.998	16287.09
711.342	16247.76
711.687	16132.06
712.031	16088.67
712.375	16039.41
712.719	16095.9
713.063	16065.17
713.407	16072.85
713.75	15878.74
714.094	16076.02
714.438	15941.78
714.782	15843.48
715.125	15847.1
715.469	15927.55
715.812	15779.08
716.156	15688.68
716.499	15638.06
716.843	15688.68
717.186	15587.44
717.53	15639.87
717.873	15667.44
718.216	15622.92
718.559	15580.44
718.902	15409.82
719.246	15452.08
719.589	15423.15
719.932	15356.26
720.275	15342.7
720.617	15365.3
720.96	15353.1
721.303	15329.82
721.646	15320.56
721.989	15233.78
722.331	15300.67
722.674	15281.91
723.016	15296.38
723.359	15288.69
723.701	15258.41
724.044	15124.18
724.386	15079.66
724.729	15238.75
725.071	15091.41
725.413	15112.2
725.755	15130.96
726.097	15114.69
726.439	14996.5
726.782	15047.12
727.124	14990.17
727.465	15025.2
727.807	14988.36
728.149	14925.54
728.491	14981.58
728.833	14997.18
729.175	14989.72
729.516	14856.84
729.858	14885.99
730.199	14861.13
730.541	14902.26
730.882	14898.2
731.224	14858.65
731.565	14941.81
731.906	14875.15
732.248	14878.76
732.589	14849.84
732.93	14714.47
733.271	14867.91
733.612	14779.78
733.953	14910.62
734.294	14771.19
734.635	14829.05
734.976	14836.73
735.317	14733.91
735.658	14703.62
735.999	14822.27
736.339	14788.37
736.68	14909.27
737.021	14751.08
737.361	14735.26
737.702	14890.51
738.042	14810.97
738.383	14783.62
738.723	14823.62
739.063	14779.78
739.404	14886.22
739.744	14750.4
740.084	14800.12
740.424	14799.22
740.764	14828.82
741.104	14933.68
741.444	14767.8
741.784	14772.32
742.124	14841.93
742.464	14847.58
742.804	14807.35
743.143	14752.21
743.483	14935.48
743.823	14907.69
744.162	14897.97
744.502	14917.18
744.841	14918.53
745.181	15087.12
745.52	14994.01
745.86	15043.95
746.199	15082.37
746.538	15102.71
746.877	15114.01
747.216	15215.25
747.556	15263.16
747.895	15264.29
748.234	15210.96
748.573	15296.83
748.911	15434.23
749.25	15510.38
749.589	15514.45
749.928	15701.79
750.267	15681
750.605	15750.15
750.944	15806.65
751.283	15852.07
751.621	15968.45
751.96	15935.46
752.298	16115.11
752.636	16124.83
752.975	16178.84
753.313	16241.44
753.651	16437.14
753.989	16476.46
754.327	16543.58
754.666	16604.59
755.004	16758.71
755.342	16857.01
755.679	17025.15
756.017	17087.97
756.355	17255.42
756.693	17315.31
757.031	17371.35
757.368	17472.82
757.706	17490.22
758.044	17594.17
758.381	17821.73
758.719	17901.51
759.056	17976.31
759.394	18045.01
759.731	18097.89
760.068	18310.31
760.405	18348.5
760.743	18432.11
761.08	18649.74
761.417	18752.56
761.754	18751.2
762.091	18894.02
762.428	18916.17
762.765	19039.56
763.102	19112.32
763.438	19232.55
763.775	19275.93
764.112	19367.91
764.449	19543.72
764.785	19649.94
765.122	19553.21
765.458	19540.11
765.795	19672.99
766.131	19799.08
766.467	19833.66
766.804	19886.31
767.14	19816.94
767.476	19973.54
767.812	20001.79
768.148	20120.66
768.485	20071.62
768.821	20021.9
769.157	20106.87
769.492	20172.63
769.828	20250.15
770.164	20061.22
770.5	20191.84
770.836	20359.07
771.171	20224.84
771.507	20359.3
771.842	20218.73
772.178	20385.51
772.513	20304.38
772.849	20300.31
773.184	20368.56
773.519	20396.13
773.855	20314.1
774.19	20266.87
774.525	20266.64
774.86	20305.51
775.195	20230.03
775.53	20309.8
775.865	20332.4
776.2	20120.21
776.535	20029.36
776.87	20186.19
777.205	20108.68
777.539	20101.9
777.874	20114.33
778.209	20040.89
778.543	19969.47
778.878	19990.94
779.212	20014.45
779.547	19845.86
779.881	19997.72
780.215	19885.64
780.55	19797.5
780.884	19814.9
781.218	19771.74
781.552	19838.4
781.886	19780.33
782.22	19622.37
782.554	19571.52
782.888	19515.48
783.222	19398.42
783.556	19438.87
783.889	19303.96
784.223	19225.77
784.557	19192.77
784.89	19358.19
785.224	19161.36
785.557	19085.43
785.891	19124.3
786.224	19060.12
786.558	19021.48
786.891	18799.56
787.224	18817.41
787.557	18845.89
787.891	18825.55
788.224	18794.14
788.557	18821.93
788.89	18672.56
789.223	18673.46
789.556	18513.47
789.888	18563.18
790.221	18397.09
790.554	18357.09
790.887	18342.63
791.219	18139.92
791.552	18254.27
791.884	18140.14
792.217	18189.63
792.549	18129.75
792.882	18009.98
793.214	17981.05
793.546	17907.61
793.879	17881.17
794.211	17760.04
794.543	17854.28
794.875	17720.72
795.207	17719.82
795.539	17704
795.871	17655.86
796.203	17487.96
796.535	17446.6
796.867	17402.54
797.198	17362.99
797.53	17368.19
797.862	17273.05
798.193	17275.76
798.525	17159.61
798.856	17170.23
799.188	17020.4
799.519	17113.05
799.85	16916.22
800.182	16977.92
800.513	16860.18
800.844	16783.34
801.175	16866.28
801.506	16793.97
801.837	16728.88
802.168	16724.36
802.499	16570.69
802.83	16520.75
803.161	16527.98
803.491	16441.88
803.822	16587.19
804.153	16456.57
804.483	16195.34
804.814	16161.44
805.145	16148.78
805.475	16129.12
805.805	16174.09
806.136	16125.73
806.466	16068.56
806.796	16104.27
807.126	15993.99
807.457	15900.88
807.787	16027.66
808.117	15806.87
808.447	15779.75
808.777	15874.89
809.107	15783.14
809.436	15771.17
809.766	15688.91
810.096	15718.51
810.426	15524.62
810.755	15609.82
811.085	15567.78
811.414	15579.99
811.744	15417.5
812.073	15432.19
812.403	15462.02
812.732	15230.39
813.061	15359.88
813.39	15245.98
813.719	15229.71
814.049	15283.27
814.378	15108.36
814.707	15142.48
815.036	15089.38
815.365	15000.57
815.693	14973.45
816.022	14974.35
816.351	14914.92
816.68	14777.75
817.008	14839.89
817.337	14673.34
817.665	14629.28
817.994	14737.97
818.322	14695.72
818.651	14643.29
818.979	14547.92
819.307	14666.11
819.636	14555.83
819.964	14532.78
820.292	14616.4
820.62	14560.35
820.948	14451.2
821.276	14547.02
821.604	14527.13
821.932	14528.71
822.259	14554.93
822.587	14391.54
822.915	14413.01
823.243	14440.35
823.57	14459.34
823.898	14460.92
824.225	14362.16
824.553	14426.8
824.88	14421.82
825.207	14467.02
825.535	14396.51
825.862	14431.54
826.189	14404.65
826.516	14490.97
826.843	14476.96
827.17	14462.95
827.497	14452.33
827.824	14455.04
828.151	14517.64
828.478	14427.7
828.805	14494.59
829.131	14467.47
829.458	14366.68
829.785	14419.34
830.111	14330.3
830.438	14365.78
830.764	14394.48
831.09	14519.67
831.417	14251.21
831.743	14409.4
832.069	14448.49
832.395	14318.55
832.722	14358.32
833.048	14352.67
833.374	14376.85
833.7	14261.15
834.026	14295.27
834.351	14244.43
834.677	14283.97
835.003	14273.13
835.329	14337.08
835.654	14289.4
835.98	14225.67
836.306	14176.18
836.631	14102.96
836.956	14197.2
837.282	14183.19
837.607	14214.6
837.932	14089.86
838.258	14106.13
838.583	13998.78
838.908	13943.42
839.233	13959.01
839.558	13956.53
839.883	13975.51
840.208	13880.14
840.533	13840.37
840.858	13872.01
841.182	13870.2
841.507	13933.93
841.832	13855.96
842.156	13816.42
842.481	13757.66
842.805	13794.27
843.13	13750.43
843.454	13592.24
843.778	13581.17
844.103	13593.15
844.427	13583.88
844.751	13560.6
845.075	13529.64
845.399	13464.11
845.723	13446.48
846.047	13384.34
846.371	13271.12
846.695	13319.03
847.019	13229.77
847.343	13217.79
847.666	13060.73
847.99	12919.26
848.313	12963.56
848.637	12936.44
848.96	12887.85
849.284	12824.8
849.607	12751.13
849.931	12675.43
850.254	12650.8
850.577	12636.33
850.9	12537.13
851.223	12469.56
851.546	12411.93
851.869	12275.89
852.192	12436.79
852.515	12324.03
852.838	12326.96
853.161	12256.91
853.483	12194.31
853.806	12147.31
854.129	12205.61
854.451	12057.82
854.774	11983.92
855.096	11914.55
855.419	11906.18
855.741	11862.12
856.063	11836.58
856.385	11874.77
856.708	11878.84
857.03	11812.85
857.352	11802.46
857.674	11680.88
857.996	11682.69
858.318	11597.72
858.64	11535.12
858.961	11531.73
859.283	11503.48
859.605	11434.33
859.926	11483.37
860.248	11492.86
860.57	11432.75
860.891	11401.79
861.212	11375.12
861.534	11339.19
861.855	11300.55
862.176	11356.37
862.498	11381.9
862.819	11295.58
863.14	11215.13
863.461	11224.62
863.782	11227.56
864.103	11204.73
864.424	11150.27
864.745	11180.1
865.065	11173.77
865.386	11090.61
865.707	11069.14
866.027	11065.75
866.348	10986.43
866.668	11051.74
866.989	11028.69
867.309	10879.77
867.63	10997.73
867.95	10979.65
868.27	10931.75
868.59	10903.5
868.91	10832.09
869.23	10810.17
869.55	10815.14
869.87	10819.43
870.19	10741.02
870.51	10856.04
870.83	10794.35
871.15	10738.98
871.469	10748.25
871.789	10713.67
872.109	10670.51
872.428	10639.1
872.748	10618.53
873.067	10598.42
873.386	10658.31
873.706	10569.72
874.025	10537.41
874.344	10525.66
874.663	10473.91
874.982	10560.68
875.301	10474.13
875.62	10475.26
875.939	10477.97
876.258	10484.53
876.577	10386.22
876.896	10464.19
877.214	10329.05
877.533	10374.47
877.852	10367.69
878.17	10421.03
878.489	10353.23
878.807	10300.35
879.125	10316.17
879.444	10295.83
879.762	10212.67
880.08	10199.56
880.398	10208.6
880.716	10232.78
881.034	10183.97
881.352	10197.75
881.67	10174.48
881.988	10109.17
882.306	10116.63
882.624	10070.07
882.941	10083.63
883.259	9952.11
883.577	10018.1
883.894	10013.8
884.212	9981.49
884.529	9995.95
884.846	9901.27
885.164	9889.97
885.481	9905.11
885.798	9942.62
886.115	9785.34
886.432	9778.1
886.75	9785.34
887.067	9728.84
887.383	9722.96
887.7	9749.4
888.017	9709.18
888.334	9716.19
888.651	9689.07
888.967	9665.79
889.284	9583.08
889.6	9559.35
889.917	9482.75
890.233	9529.98
890.55	9399.36
890.866	9454.27
891.182	9461.73
891.498	9375.86
891.815	9427.38
892.131	9280.26
892.447	9298.57
892.763	9279.36
893.079	9267.16
893.395	9235.75
893.71	9171.11
894.026	9119.59
894.342	9192.81
894.657	9128.86
894.973	9134.73
895.289	9110.1
895.604	9047.5
895.92	8993.94
896.235	8906.94
896.55	8989.42
896.865	8930.22
897.181	8849.54
897.496	8866.49
897.811	8802.76
898.126	8794.18
898.441	8755.76
898.756	8734.29
899.071	8719.83
899.386	8698.36
899.7	8646.61
900.015	8593.5
900.33	8520.74
900.644	8475.77
900.959	8504.69
901.273	8446.16
901.588	8522.32
901.902	8342.89
902.216	8377.46
902.531	8347.63
902.845	8279.16
903.159	8214.53
903.473	8214.98
903.787	8157.81
904.101	8109.9
904.415	8147.86
904.729	8168.2
905.042	8021.09
905.356	8053.86
905.67	8060.86
905.984	8087.08
906.297	8002.78
906.611	7916.01
906.924	7915.33
907.237	7883.01
907.551	7876.69
907.864	7857.03
908.177	7814.31
908.491	7843.69
908.804	7784.03
909.117	7736.12
909.43	7687.99
909.743	7646.64
910.056	7645.51
910.368	7606.18
910.681	7652.28
910.994	7545.17
911.307	7541.55
911.619	7481.67
911.932	7454.32
912.244	7414.32
912.557	7373.42
912.869	7378.17
913.181	7358.28
913.494	7302.92
913.806	7225.86
914.118	7205.52
914.43	7149.47
914.742	7194.67
915.054	7185.18
915.366	7106.99
915.678	7073.77
915.99	6991.29
916.302	7020.89
916.613	6970.04
916.925	6935.92
917.236	6965.98
917.548	6933.66
917.859	6882.36
918.171	6836.26
918.482	6775.47
918.794	6783.83
919.105	6768.69
919.416	6719.88
919.727	6723.95
920.038	6721.01
920.349	6685.76
920.66	6580
920.971	6617.06
921.282	6607.79
921.593	6544.74
921.903	6523.95
922.214	6498.19
922.525	6411.64
922.835	6482.37
923.146	6410.28
923.456	6404.86
923.767	6362.83
924.077	6342.49
924.387	6321.7
924.697	6282.38
925.008	6281.25
925.318	6238.31
925.628	6244.64
925.938	6130.52
926.248	6132.1
926.558	6117.86
926.867	6069.95
927.177	6010.75
927.487	5978.2
927.796	5997.41
928.106	5937.08
928.416	5932.33
928.725	5948.15
929.034	5902.27
929.344	5938.88
929.653	5860.02
929.962	5862.5
930.271	5841.94
930.581	5734.59
930.89	5723.07
931.199	5671.09
931.508	5706.35
931.817	5650.53
932.125	5683.97
932.434	5674.94
932.743	5611.66
933.051	5568.95
933.36	5590.42
933.669	5498.89
933.977	5514.49
934.286	5558.1
934.594	5519.46
934.902	5466.81
935.21	5387.03
935.519	5400.82
935.827	5397.2
936.135	5314.72
936.443	5324.89
936.751	5342.06
937.059	5310.65
937.367	5283.99
937.674	5271.33
937.982	5243.99
938.29	5172.35
938.597	5161.05
938.905	5128.51
939.213	5113.59
939.52	5123.31
939.827	5095.06
940.135	4980.49
940.442	5023.65
940.749	5070.21
941.056	5012.81
941.363	4963.09
941.67	4976.2
941.977	4893.49
942.284	4933.71
942.591	4868.86
942.898	4853.94
943.205	4881.51
943.511	4842.19
943.818	4835.41
944.125	4778.24
944.431	4781.85
944.738	4738.91
945.044	4684.45
945.35	4730.1
945.657	4660.27
945.963	4672.25
946.269	4633.61
946.575	4596.77
946.881	4597
947.187	4601.97
947.493	4575.53
947.799	4547.73
948.105	4524.01
948.41	4511.8
948.716	4521.29
949.022	4432.71
949.327	4420.28
949.633	4460.5
949.938	4408.53
950.244	4370.79
950.549	4371.24
950.854	4330.79
951.16	4333.5
951.465	4295.08
951.77	4266.16
952.075	4268.87
952.38	4264.58
952.685	4274.07
952.99	4198.82
953.294	4187.52
953.599	4182.55
953.904	4156.56
954.209	4146.61
954.513	4134.86
954.818	4121.98
955.122	4058.48
955.426	4110.68
955.731	4039.5
956.035	4048.31
956.339	4011.7
956.643	3966.96
956.948	3985.49
957.252	3968.77
957.556	3963.57
957.86	3924.47
958.163	3936.22
958.467	3928.77
958.771	3880.41
959.075	3868.88
959.378	3890.12
959.682	3874.08
959.985	3863.91
960.289	3840.41
960.592	3762.22
960.896	3762.67
961.199	3756.34
961.502	3726.96
961.805	3716.79
962.108	3676.34
962.411	3676.8
962.714	3666.85
963.017	3628.21
963.32	3693.97
963.623	3664.82
963.926	3626.85
964.228	3580.98
964.531	3583.92
964.833	3565.84
965.136	3519.74
965.438	3561.09
965.741	3515.67
966.043	3519.06
966.345	3484.03
966.648	3465.95
966.95	3460.98
967.252	3431.83
967.554	3413.53
967.856	3428.89
968.158	3431.6
968.46	3377.59
968.761	3386.86
969.063	3372.85
969.365	3306.64
969.666	3347.31
969.968	3289.24
970.269	3303.92
970.571	3311.83
970.872	3238.62
971.174	3263.47
971.475	3236.36
971.776	3245.62
972.077	3242.46
972.378	3203.81
972.679	3198.62
972.98	3189.58
973.281	3150.93
973.582	3129.47
973.883	3127.21
974.183	3120.65
974.484	3099.41
974.785	3062.57
975.085	3063.03
975.386	3074.1
975.686	3043.37
975.986	3033.42
976.287	3060.32
976.587	2988.68
976.887	2990.94
977.187	2975.35
977.487	2985.51
977.787	2978.06
978.087	2919.53
978.387	2920.21
978.687	2929.25
978.987	2923.14
979.286	2924.5
979.586	2912.75
979.885	2840.43
980.185	2858.96
980.484	2851.73
980.784	2815.12
981.083	2804.5
981.382	2794.79
981.682	2811.73
981.981	2777.61
982.28	2747.55
982.579	2739.42
982.878	2748.91
983.177	2735.58
983.475	2692.19
983.774	2701.68
984.073	2741
984.372	2644.51
984.67	2644.05
984.969	2673.43
985.267	2652.42
985.566	2619.42
985.864	2626.43
986.162	2598.86
986.461	2597.28
986.759	2605.86
987.057	2574.23
987.355	2541.68
987.653	2571.74
987.951	2538.97
988.249	2513.44
988.547	2484.96
988.844	2503.95
989.142	2500.1
989.44	2481.8
989.737	2464.17
990.035	2446.55
990.332	2443.83
990.63	2416.04
990.927	2405.42
991.224	2415.36
991.521	2362.93
991.819	2376.49
992.116	2373.33
992.413	2358.19
992.71	2357.51
993.006	2353.21
993.303	2331.75
993.6	2320
993.897	2277.74
994.193	2310.5
994.49	2283.61
994.787	2280.67
995.083	2243.39
995.379	2244.97
995.676	2248.13
995.972	2226.66
996.268	2213.11
996.565	2211.98
996.861	2197.74
997.157	2201.58
997.453	2180.11
997.749	2173.33
998.044	2176.27
998.34	2131.75
998.636	2133.56
998.932	2114.8
999.227	2119.1
999.523	2104.41
999.818	2122.03
1000.114	2064.41
1000.409	2044.97
1000.704	2080.23
1001	2046.56
1001.295	2027.57
1001.59	2045.2
1001.885	2030.74
1002.18	2003.85
1002.475	1987.12
1002.77	1977.41
1003.065	1944.19
1003.359	1955.49
1003.654	1929.95
1003.949	1934.92
1004.243	1929.27
1004.538	1917.97
1004.832	1908.48
1005.127	1902.15
1005.421	1879.56
1005.715	1882.72
1006.009	1870.29
1006.304	1886.79
1006.598	1840.23
1006.892	1832.32
1007.186	1822.38
1007.48	1840.91
1007.773	1794.81
1008.067	1792.55
1008.361	1771.54
1008.655	1756.39
1008.948	1767.69
1009.242	1757.52
1009.535	1756.62
1009.829	1727.69
1010.122	1744.42
1010.415	1703.51
1010.708	1703.74
1011.001	1698.09
1011.295	1683.63
1011.588	1680.69
1011.881	1685.66
1012.173	1668.04
1012.466	1646.11
1012.759	1636.4
1013.052	1619.67
1013.344	1610.64
1013.637	1624.87
1013.93	1593.23
1014.222	1574.93
1014.514	1601.6
1014.807	1543.52
1015.099	1563.63
1015.391	1572.67
1015.683	1524.76
1015.976	1543.97
1016.268	1548.04
1016.56	1530.64
1016.851	1500.58
1017.143	1518.43
1017.435	1486.57
1017.727	1483.18
1018.018	1447.48
1018.31	1503.75
1018.602	1444.54
1018.893	1424.65
1019.185	1432.11
1019.476	1420.36
1019.767	1426.46
1020.058	1422.39
1020.35	1413.8
1020.641	1391.88
1020.932	1381.72
1021.223	1353.47
1021.514	1353.02
1021.804	1360.25
1022.095	1366.8
1022.386	1332.9
1022.677	1325.22
1022.967	1330.42
1023.258	1331.32
1023.548	1307.59
1023.839	1303.07
1024.129	1301.27
1024.419	1284.77
1024.709	1275.73
1025	1289.51
1025.29	1257.88
1025.58	1265.56
1025.87	1238.89
1026.16	1216.52
1026.449	1208.16
1026.739	1212.68
1027.029	1222.62
1027.319	1203.41
1027.608	1186.92
1027.898	1185.34
1028.187	1171.55
1028.477	1194.15
1028.766	1145.34
1029.055	1173.36
1029.344	1148.05
1029.634	1141.27
1029.923	1128.39
1030.212	1145.34
1030.501	1113.25
1030.79	1111.89
1031.078	1073.93
1031.367	1054.72
1031.656	1061.72
1031.945	1088.39
1032.233	1089.07
1032.522	1057.2
1032.81	1071.44
1033.099	1054.72
1033.387	1083.87
1033.675	1048.62
1033.963	1035.28
1034.251	1049.97
1034.54	1016.53
1034.828	1007.26
1035.116	1021.05
1035.403	1009.07
1035.691	1003.65
1035.979	986.92
1036.267	987.15
1036.554	984.66
1036.842	968.84
1037.129	981.27
1037.417	967.49
1037.704	954.16
1037.992	951.67
1038.279	959.81
1038.566	943.99
1038.853	943.99
1039.14	943.99
