Data from hue_250_FLMS001491_00083.txt Node
Date: Tue Feb 07 16:01:35 GMT 2017
User: dcchb
Spectrometer: FLMS00149
Trigger mode: 0
Integration Time (sec): 2.000000E-2
Scans to average: 10
Electric dark correction enabled: true
Nonlinearity correction enabled: false
Boxcar width: 0
XAxis mode: Wavelengths
Number of Pixels in Spectrum: 2048
>>>>>Begin Spectral Data<<<<<
341.393	-6.4
341.776	-6.4
342.16	-6.4
342.543	-61.31
342.927	-70.35
343.31	-72.61
343.693	-87.75
344.077	-66.28
344.46	-43.23
344.843	-52.27
345.226	-51.37
345.61	-38.94
345.993	-8.21
346.376	16.43
346.759	33.6
347.142	51.23
347.525	32.92
347.908	56.88
348.291	59.36
348.674	73.37
349.057	96.88
349.44	112.69
349.823	145.69
350.206	174.39
350.588	217.55
350.971	198.34
351.354	219.36
351.737	238.12
352.119	246.7
352.502	263.65
352.884	264.56
353.267	274.72
353.65	281.28
354.032	282.41
354.414	307.72
354.797	303.88
355.179	314.5
355.562	314.5
355.944	338
356.326	339.36
356.709	329.64
357.091	325.8
357.473	330.32
357.855	342.75
358.238	322.41
358.62	328.96
359.002	326.47
359.384	334.38
359.766	325.34
360.148	329.86
360.53	339.58
360.912	314.27
361.294	316.31
361.676	314.27
362.057	326.02
362.439	325.8
362.821	322.41
363.203	314.27
363.584	307.49
363.966	319.69
364.348	333.48
364.729	321.95
365.111	306.36
365.493	314.72
365.874	332.35
366.256	332.35
366.637	306.36
367.019	310.66
367.4	318.34
367.781	315.4
368.163	309.75
368.544	298.68
368.925	304.55
369.306	310.43
369.688	305.68
370.069	292.13
370.45	336.87
370.831	305.68
371.212	304.33
371.593	304.78
371.974	305.46
372.355	309.3
372.736	305.46
373.117	318.34
373.498	306.36
373.879	345.23
374.26	312.92
374.641	321.73
375.021	313.14
375.402	328.28
375.783	294.38
376.163	338.23
376.544	319.69
376.925	308.62
377.305	307.04
377.686	338.45
378.066	322.63
378.447	328.51
378.827	326.7
379.208	301.62
379.588	312.92
379.968	326.93
380.349	314.95
380.729	325.12
381.109	329.41
381.489	329.41
381.87	328.06
382.25	320.6
382.63	324.21
383.01	340.03
383.39	308.85
383.77	339.58
384.15	333.48
384.53	333.48
384.91	341.39
385.29	336.19
385.67	355.4
386.049	362.41
386.429	362.18
386.809	362.86
387.189	356.76
387.568	343.42
387.948	338.9
388.328	357.89
388.707	355.17
389.087	369.86
389.466	345.68
389.846	357.21
390.225	357.89
390.605	345.23
390.984	364.67
391.363	381.84
391.743	359.92
392.122	387.94
392.501	383.2
392.881	381.84
393.26	363.99
393.639	389.75
394.018	376.42
394.397	377.77
394.776	376.87
395.155	374.61
395.534	355.63
395.913	359.69
396.292	397.89
396.671	392.69
397.05	386.59
397.429	385
397.808	410.99
398.186	427.04
398.565	403.99
398.944	402.4
399.323	370.09
399.701	427.26
400.08	414.83
400.458	419.81
400.837	420.03
401.215	411.67
401.594	420.03
401.972	413.03
402.351	407.83
402.729	416.64
403.107	438.79
403.486	441.27
403.864	430.88
404.242	445.79
404.62	430.2
404.999	450.76
405.377	442.86
405.755	439.24
406.133	430.65
406.511	434.27
406.889	464.78
407.267	443.08
407.645	451.22
408.023	469.97
408.401	456.41
408.779	469.3
409.156	477.88
409.534	492.35
409.912	492.12
410.29	505.68
410.667	506.13
411.045	501.61
411.422	500.03
411.8	518.11
412.178	521.95
412.555	554.49
412.933	530.08
413.31	529.41
413.687	552.68
414.065	568.73
414.442	571.21
414.819	565.11
415.197	604.66
415.574	592.91
415.951	593.81
416.328	591.55
416.705	598.33
417.082	606.24
417.46	596.07
417.837	611.44
418.214	625
418.591	629.52
418.967	647.14
419.344	636.97
419.721	655.28
420.098	651.21
420.475	647.82
420.852	680.59
421.228	681.95
421.605	703.19
421.982	693.02
422.358	718.55
422.735	705.9
423.111	744.77
423.488	737.09
423.864	727.37
424.241	748.38
424.617	762.17
424.994	786.58
425.37	795.84
425.746	781.15
426.123	813.24
426.499	799
426.875	820.02
427.251	824.09
427.627	830.64
428.003	862.51
428.379	868.83
428.756	873.8
429.132	861.6
429.507	884.65
429.883	908.83
430.259	905.67
430.635	891.43
431.011	922.62
431.387	939.57
431.763	950.19
432.138	953.12
432.514	954.71
432.89	985.67
433.265	1024.31
433.641	991.77
434.016	1023.86
434.392	1055.95
434.767	1059.56
435.143	1063.63
435.518	1074.93
435.894	1055.04
436.269	1106.11
436.644	1107.92
437.02	1154.7
437.395	1144.53
437.77	1166.23
438.145	1171.42
438.52	1218.88
438.895	1227.24
439.271	1260.01
439.646	1255.72
440.021	1260.69
440.395	1278.99
440.77	1257.3
441.145	1307.47
441.52	1315.6
441.895	1337.52
442.27	1331.87
442.645	1355.6
443.019	1352.89
443.394	1369.16
443.769	1365.54
444.143	1378.65
444.518	1418.42
444.892	1421.59
445.267	1427.24
445.641	1438.76
446.016	1438.76
446.39	1445.54
446.764	1448.03
447.139	1455.48
447.513	1478.08
447.887	1470.63
448.262	1502.49
448.636	1488.93
449.01	1565.99
449.384	1532.09
449.758	1547.69
450.132	1590.85
450.506	1573.45
450.88	1574.58
451.254	1561.24
451.628	1597.18
452.002	1635.37
452.376	1624.97
452.75	1667.46
453.123	1679.21
453.497	1687.12
453.871	1688.25
454.244	1745.19
454.618	1749.04
454.992	1752.65
455.365	1768.24
455.739	1804.4
456.112	1800.79
456.486	1812.09
456.859	1838.75
457.232	1848.24
457.606	1863.38
457.979	1902.48
458.352	1915.59
458.725	1938.86
459.099	1943.83
459.472	1955.58
459.845	1979.54
460.218	2008.46
460.591	2019.54
460.964	2017.05
461.337	2109.03
461.71	2107.9
462.083	2142.02
462.456	2143.38
462.829	2142.92
463.201	2205.07
463.574	2214.33
463.947	2193.77
464.32	2256.59
464.692	2308.8
465.065	2279.87
465.438	2316.48
465.81	2338.85
466.183	2391.5
466.555	2425.4
466.928	2442.58
467.3	2431.05
467.672	2465.4
468.045	2542.01
468.417	2533.87
468.789	2544.04
469.161	2582.23
469.534	2630.37
469.906	2651.16
470.278	2712.63
470.65	2694.77
471.022	2740.2
471.394	2807.09
471.766	2783.36
472.138	2799.4
472.51	2887.76
472.882	2913.98
473.253	2965.73
473.625	3009.12
473.997	3011.83
474.369	3026.06
474.74	3093.86
475.112	3099.96
475.484	3179.05
475.855	3225.16
476.227	3253.4
476.598	3300.18
476.97	3366.85
477.341	3409.78
477.713	3464.25
478.084	3426.05
478.455	3534.3
478.827	3589.44
479.198	3661.08
479.569	3640.74
479.94	3770.45
480.311	3771.36
480.682	3833.95
481.053	3938.13
481.424	3980.16
481.795	4017.45
482.166	4069.88
482.537	4121.85
482.908	4205.47
483.279	4194.85
483.65	4228.52
484.021	4318.01
484.391	4345.13
484.762	4392.36
485.133	4483.43
485.503	4511.68
485.874	4602.97
486.244	4663.54
486.615	4699.01
486.985	4752.57
487.356	4805
487.726	4837.32
488.097	4977.88
488.467	4962.74
488.837	4990.08
489.207	5068.5
489.578	5110.08
489.948	5172
490.318	5263.07
490.688	5221.94
491.058	5275.04
491.428	5341.26
491.798	5407.02
492.168	5480.69
492.538	5540.57
492.908	5605.21
493.278	5600.46
493.648	5589.39
494.017	5691.76
494.387	5796.39
494.757	5735.37
495.126	5854.01
495.496	5898.76
495.866	5871.19
496.235	5917.51
496.605	5976.95
496.974	6037.06
497.344	6032.77
497.713	6065.98
498.082	6103.27
498.452	6104.63
498.821	6157.51
499.19	6168.13
499.559	6232.76
499.928	6318.41
500.298	6279.76
500.667	6381.46
501.036	6297.62
501.405	6373.77
501.774	6320.89
502.143	6408.8
502.512	6393.43
502.88	6520.21
503.249	6469.14
503.618	6500.1
503.987	6537.16
504.356	6552.53
504.724	6595.24
505.093	6566.76
505.462	6626.87
505.83	6630.49
506.199	6755.01
506.567	6807.66
506.936	6771.73
507.304	6779.41
507.672	6804.27
508.041	6862.8
508.409	6910.26
508.777	6931.05
509.145	6954.1
509.514	6930.59
509.882	6999.75
510.25	6984.38
510.618	6987.77
510.986	7033.19
511.354	7077.71
511.722	7107.77
512.09	7171.72
512.458	7096.69
512.826	7152.28
513.193	7165.39
513.561	7189.34
513.929	7196.35
514.297	7218.72
514.664	7309.79
515.032	7244.94
515.4	7264.15
515.767	7325.84
516.135	7336.69
516.502	7279.74
516.869	7416.68
517.237	7391.15
517.604	7368.1
517.972	7457.13
518.339	7449.9
518.706	7445.16
519.073	7516.79
519.44	7468.21
519.808	7535.1
520.175	7501.65
520.542	7544.36
520.909	7596.11
521.276	7551.14
521.643	7617.13
522.009	7630.92
522.376	7677.24
522.743	7595.66
523.11	7764.25
523.477	7749.33
523.843	7710.91
524.21	7834.53
524.577	7811.25
524.943	7861.19
525.31	7787.75
525.676	7947.29
526.043	7917.01
526.409	7924.47
526.776	7965.37
527.142	7935.31
527.508	7940.96
527.874	7987.74
528.241	8022.77
528.607	8029.1
528.973	8095.76
529.339	8023.67
529.705	8078.14
530.071	8070.45
530.437	8065.48
530.803	8120.85
531.169	8166.27
531.535	8109.09
531.901	8115.2
532.267	8164.69
532.632	8207.4
532.998	8133.5
533.364	8130.79
533.73	8197.91
534.095	8247.85
534.461	8147.06
534.826	8211.92
535.192	8267.28
535.557	8147.96
535.923	8217.11
536.288	8249.66
536.653	8223.67
537.019	8178.02
537.384	8223.67
537.749	8218.47
538.114	8255.76
538.479	8214.85
538.845	8171.47
539.21	8171.24
539.575	8157.91
539.94	8154.74
540.305	8279.94
540.67	8166.49
541.034	8185.02
541.399	8194.74
541.764	8183.89
542.129	8197.91
542.494	8219.6
542.858	8202.88
543.223	8183.89
543.587	8176.21
543.952	8161.52
544.316	8167.62
544.681	8111.35
545.045	8197.23
545.41	8261.41
545.774	8168.3
546.138	8132.37
546.503	8140.73
546.867	8104.35
547.231	8194.74
547.595	8171.69
547.959	8195.19
548.324	8127.17
548.688	8174.86
549.052	8144.57
549.416	8149.77
549.779	8150.68
550.143	8084.69
550.507	8177.57
550.871	8134.18
551.235	8150.9
551.599	8148.19
551.962	8136.21
552.326	8138.7
552.689	8180.05
553.053	8121.52
553.417	8158.36
553.78	8206.49
554.143	8122.2
554.507	8197.45
554.87	8170.11
555.234	8241.29
555.597	8170.11
555.96	8201.97
556.323	8189.54
556.686	8149.09
557.05	8158.13
557.413	8229.09
557.776	8202.65
558.139	8252.82
558.502	8257.34
558.865	8223.44
559.228	8316.55
559.59	8262.99
559.953	8286.27
560.316	8342.08
560.679	8314.29
561.041	8351.8
561.404	8411.01
561.767	8390.67
562.129	8390.22
562.492	8459.82
562.854	8406.94
563.217	8425.92
563.579	8380.73
563.941	8449.42
564.304	8514.96
564.666	8500.5
565.028	8577.1
565.39	8556.09
565.753	8556.99
566.115	8554.28
566.477	8639.7
566.839	8631.79
567.201	8693.26
567.563	8674.96
567.925	8764.67
568.287	8698.91
568.648	8704.33
569.01	8787.27
569.372	8809.64
569.734	8785.01
570.095	8780.04
570.457	8855.52
570.819	8883.09
571.18	8872.24
571.542	8908.4
571.903	8936.42
572.265	8920.6
572.626	8973.48
572.987	9031.56
573.349	9001.05
573.71	9095.51
574.071	9083.08
574.432	9047.15
574.794	9186.13
575.155	9115.17
575.516	9061.16
575.877	9169.18
576.238	9238.56
576.599	9216.18
576.96	9215.73
577.32	9190.87
577.681	9229.52
578.042	9366.24
578.403	9236.3
578.763	9335.96
579.124	9349.97
579.485	9295.28
579.845	9405.11
580.206	9371.66
580.566	9361.72
580.927	9328.95
581.287	9410.08
581.648	9454.82
582.008	9462.51
582.368	9424.09
582.728	9496.63
583.089	9488.72
583.449	9522.16
583.809	9523.29
584.169	9543.41
584.529	9509.51
584.889	9622.05
585.249	9516.06
585.609	9484.88
585.969	9618.89
586.329	9597.42
586.688	9543.18
587.048	9617.53
587.408	9516.06
587.768	9658.66
588.127	9621.15
588.487	9651.43
588.846	9717.19
589.206	9660.47
589.565	9702.95
589.925	9756.06
590.284	9674.48
590.643	9746.57
591.003	9765.32
591.362	9755.38
591.721	9712.44
592.08	9737.75
592.44	9755.38
592.799	9751.09
593.158	9792.21
593.517	9739.79
593.876	9801.93
594.235	9802.84
594.593	9808.71
594.952	9815.04
595.311	9800.12
595.67	9817.98
596.029	9889.16
596.387	9911.08
596.746	9964.87
597.104	9832.67
597.463	9836.28
597.822	9945.2
598.18	9860.69
598.538	9864.08
598.897	10005.54
599.255	9849.39
599.613	9916.96
599.972	9886.9
600.33	9959.67
600.688	9844.64
601.046	9940.91
601.404	9944.98
601.762	9971.64
602.12	10069.72
602.478	9995.6
602.836	9996.73
603.194	9992.21
603.552	9950.85
603.91	10013
604.268	9968.48
604.625	10006.22
604.983	9975.94
605.341	9914.7
605.698	9984.75
606.056	9997.18
606.413	9996.95
606.771	10002.83
607.128	10060.46
607.485	9984.07
607.843	10058.87
608.2	10030.17
608.557	10022.04
608.914	10127.57
609.272	10165.09
609.629	10093.9
609.986	10134.13
610.343	10126.89
610.7	10169.61
611.057	10186.33
611.414	10119.21
611.771	10064.98
612.127	10180.9
612.484	10177.74
612.841	10144.52
613.198	10178.87
613.554	10213.9
613.911	10219.1
614.267	10240.79
614.624	10214.58
614.98	10258.87
615.337	10276.72
615.693	10240.34
616.05	10220.45
616.406	10308.58
616.762	10258.42
617.118	10280.34
617.475	10221.36
617.831	10275.82
618.187	10269.04
618.543	10337.74
618.899	10366.66
619.255	10363.72
619.611	10344.97
619.967	10395.81
620.323	10405.98
620.678	10288.25
621.034	10359.43
621.39	10355.59
621.746	10334.8
622.101	10430.62
622.457	10359.43
622.812	10431.07
623.168	10392.88
623.523	10402.14
623.879	10370.96
624.234	10355.82
624.589	10420.67
624.945	10318.3
625.3	10412.08
625.655	10361.69
626.01	10411.63
626.365	10337.28
626.72	10338.41
627.075	10387
627.43	10328.02
627.785	10388.36
628.14	10383.39
628.495	10351.75
628.85	10371.63
629.205	10300.22
629.559	10322.6
629.914	10369.37
630.269	10311.52
630.623	10261.58
630.978	10264.07
631.332	10291.18
631.687	10319.43
632.041	10264.29
632.396	10281.01
632.75	10237.85
633.104	10298.42
633.459	10196.72
633.813	10237.85
634.167	10151.53
634.521	10189.04
634.875	10172.32
635.229	10194.46
635.583	10109.04
635.937	10079.89
636.291	10122.6
636.645	10141.81
636.999	10138.19
637.352	10129.38
637.706	10073.11
638.06	10083.96
638.413	10045.99
638.767	10001.25
639.121	10088.48
639.474	10023.39
639.828	9988.37
640.181	10005.09
640.534	9968.93
640.888	9967.58
641.241	9944.07
641.594	9886.45
641.947	9879.67
642.301	9928.03
642.654	9866.11
643.007	9889.61
643.36	9907.24
643.713	9843.74
644.066	9957.41
644.419	9813.46
644.771	9750.86
645.124	9731.42
645.477	9755.83
645.83	9601.71
646.182	9637.19
646.535	9570.98
646.888	9656.4
647.24	9521.71
647.593	9534.59
647.945	9581.6
648.298	9534.14
648.65	9439.46
649.002	9485.1
649.355	9584.76
649.707	9483.07
650.059	9516.97
650.411	9609.85
650.763	9633.8
651.115	9766.23
651.467	9690.07
651.819	9708.37
652.171	9720.35
652.523	9625.44
652.875	9661.82
653.227	9645.78
653.578	9761.25
653.93	9738.43
654.282	9644.65
654.633	9664.08
654.985	9726.23
655.337	9625.44
655.688	9643.97
656.039	9702.27
656.391	9624.54
656.742	9681.48
657.094	9673.57
657.445	9706.34
657.796	9623.18
658.147	9664.76
658.498	9654.82
658.849	9713.12
659.2	9668.38
659.551	9656.85
659.902	9728.94
660.253	9625.66
660.604	9676.29
660.955	9679.9
661.306	9699.56
661.656	9676.06
662.007	9695.04
662.358	9595.38
662.708	9694.82
663.059	9558.1
663.409	9559.45
663.76	9653.69
664.11	9595.84
664.461	9587.25
664.811	9669.28
665.161	9662.73
665.511	9651.43
665.862	9634.48
666.212	9702.95
666.562	9643.74
666.912	9681.71
667.262	9625.44
667.612	9660.47
667.962	9596.51
668.312	9676.29
668.662	9619.56
669.011	9649.85
669.361	9589.28
669.711	9642.16
670.06	9566.68
670.41	9625.44
670.76	9581.82
671.109	9619.11
671.459	9620.24
671.808	9611.43
672.157	9559
672.507	9443.75
672.856	9543.86
673.205	9620.69
673.554	9609.85
673.904	9508.15
674.253	9551.09
674.602	9487.59
674.951	9394.94
675.3	9396.52
675.649	9473.13
675.998	9474.48
676.346	9518.32
676.695	9458.89
677.044	9491.21
677.393	9460.7
677.741	9465.22
678.09	9528.49
678.438	9350.64
678.787	9459.34
679.135	9394.48
679.484	9291.44
679.832	9335.5
680.181	9346.58
680.529	9338.44
680.877	9349.74
681.225	9305
681.573	9308.84
681.922	9251.44
682.27	9277.88
682.618	9239.46
682.966	9268.61
683.314	9231.55
683.661	9185
684.009	9299.12
684.357	9141.84
684.705	9091.89
685.053	9176.19
685.4	9117.2
685.748	9070.88
686.095	9133.7
686.443	9057.09
686.79	9027.94
687.138	9059.35
687.485	9076.07
687.832	9006.47
688.18	8966.25
688.527	8926.7
688.874	8918.34
689.221	8895.06
689.568	8928.06
689.915	8877.21
690.262	8867.94
690.609	8858.23
690.956	8825.01
691.303	8725.12
691.65	8696.2
691.997	8724.22
692.344	8608.29
692.69	8608.74
693.037	8656.88
693.383	8566.03
693.73	8632.24
694.077	8498.91
694.423	8507.05
694.769	8517.67
695.116	8490.33
695.462	8482.42
695.808	8389.54
696.155	8451.23
696.501	8375.08
696.847	8365.81
697.193	8249.43
697.539	8346.6
697.885	8261.18
698.231	8278.58
698.577	8254.63
698.923	8182.99
699.269	8122.65
699.614	8093.5
699.96	8116.33
700.306	8080.17
700.651	8042.88
700.997	8015.99
701.342	8019.83
701.688	7962.21
702.033	7993.39
702.379	7926.5
702.724	7936.22
703.069	7931.47
703.415	7806.73
703.76	7882.66
704.105	7751.14
704.45	7833.85
704.795	7787.75
705.14	7744.58
705.485	7840.63
705.83	7700.97
706.175	7704.59
706.52	7669.11
706.865	7694.42
707.209	7648.09
707.554	7580.75
707.899	7601.76
708.243	7539.84
708.588	7556.57
708.932	7526.96
709.277	7519.28
709.621	7460.3
709.966	7444.25
710.31	7388.66
710.654	7376.23
710.998	7415.1
711.342	7390.02
711.687	7326.52
712.031	7354.99
712.375	7271.83
712.719	7349.79
713.063	7299.4
713.407	7287.2
713.75	7277.48
714.094	7285.61
714.438	7261.21
714.782	7223.92
715.125	7202.45
715.469	7214.43
715.812	7178.95
716.156	7070.93
716.499	7173.98
716.843	7177.14
717.186	7207.2
717.53	7116.8
717.873	7093.3
718.216	7133.08
718.559	7062.34
718.902	7076.58
719.246	7021.89
719.589	6993.42
719.932	6999.07
720.275	7028.9
720.617	6998.84
720.96	6969.01
721.303	6985.73
721.646	7027.99
721.989	6978.73
722.331	6986.41
722.674	6964.94
723.016	6950.71
723.359	6930.82
723.701	6949.58
724.044	6959.29
724.386	6940.54
724.729	6891.5
725.071	6896.02
725.413	6874.32
725.755	6855.12
726.097	6823.7
726.439	6834.33
726.782	6874.1
727.124	6857.6
727.465	6806.98
727.807	6796.13
728.149	6851.05
728.491	6809.24
728.833	6884.27
729.175	6844.95
729.516	6844.95
729.858	6776.7
730.199	6877.49
730.541	6828.45
730.882	6785.51
731.224	6797.26
731.565	6783.71
731.906	6767.21
732.248	6802.01
732.589	6751.62
732.93	6741.9
733.271	6779.41
733.612	6744.84
733.953	6772.18
734.294	6790.03
734.635	6761.11
734.976	6755.91
735.317	6734.67
735.658	6712.52
735.999	6740.32
736.339	6699.64
736.68	6784.84
737.021	6710.04
737.361	6737.61
737.702	6789.13
738.042	6744.16
738.383	6748.23
738.723	6736.93
739.063	6783.25
739.404	6820.09
739.744	6755.91
740.084	6769.69
740.424	6784.16
740.764	6773.31
741.104	6796.81
741.444	6748.45
741.784	6786.19
742.124	6799.52
742.464	6782.8
742.804	6745.06
743.143	6815.12
743.483	6769.47
743.823	6773.08
744.162	6827.09
744.502	6858.28
744.841	6855.57
745.181	6895.12
745.52	6854.89
745.86	6918.17
746.199	6908.22
746.538	6950.71
746.877	6965.4
747.216	7027.77
747.556	7068.44
747.895	7092.17
748.234	7027.54
748.573	7028.22
748.911	7151.15
749.25	7144.6
749.589	7171.94
749.928	7208.55
750.267	7349.11
750.605	7296.01
750.944	7362.45
751.283	7347.31
751.621	7474.54
751.96	7541.88
752.298	7502.11
752.636	7628.2
752.975	7645.83
753.313	7716.79
753.651	7839.95
753.989	7838.59
754.327	7868.2
754.666	7983.9
755.004	8078.81
755.342	8181.86
755.679	8268.19
756.017	8281.97
756.355	8353.16
756.693	8475.86
757.031	8619.59
757.368	8598.8
757.706	8787.04
758.044	8856.65
758.381	8919.02
758.719	9011.44
759.056	9134.83
759.394	9249.18
759.731	9324.88
760.068	9385.67
760.405	9479.68
760.743	9552.45
761.08	9708.6
761.417	9770.52
761.754	9817.75
762.091	9984.3
762.428	10127.12
762.765	10116.5
763.102	10313.56
763.438	10401.46
763.775	10429.71
764.112	10625.19
764.449	10723.49
764.785	10699.31
765.122	10808.23
765.458	10893.65
765.795	11004.84
766.131	11146.3
766.467	11186.98
766.804	11180.65
767.14	11365.96
767.476	11475.11
767.812	11516.69
768.148	11612.28
768.485	11642.56
768.821	11600.08
769.157	11793.29
769.492	11842.1
769.828	11920.29
770.164	11970.46
770.5	12057.47
770.836	12133.17
771.171	12138.14
771.507	12150.57
771.842	12197.57
772.178	12245.03
772.513	12291.36
772.849	12369.77
773.184	12351.47
773.519	12447.29
773.855	12373.16
774.19	12457.23
774.525	12498.36
774.86	12561.86
775.195	12609.32
775.53	12567.06
775.865	12608.41
776.2	12595.3
776.535	12576.77
776.87	12640.5
777.205	12643.21
777.539	12652.48
777.874	12725.92
778.209	12692.25
778.543	12706.71
778.878	12662.42
779.212	12668.52
779.547	12664.91
779.881	12730.89
780.215	12684.57
780.55	12726.37
780.884	12699.48
781.218	12745.81
781.552	12683.21
781.886	12721.18
782.22	12667.17
782.554	12648.64
782.888	12675.08
783.222	12587.85
783.556	12590.56
783.889	12634.17
784.223	12553.05
784.557	12508.3
784.89	12500.39
785.224	12554.85
785.557	12481.41
785.891	12537.68
786.224	12490.45
786.558	12490
786.891	12457.91
787.224	12355.76
787.557	12377.46
787.891	12416.1
788.224	12351.24
788.557	12412.26
788.89	12328.64
789.223	12365.48
789.556	12346.95
789.888	12282.54
790.221	12274.18
790.554	12218.82
790.887	12191.7
791.219	12206.61
791.552	12122.77
791.884	12118.71
792.217	12055.43
792.549	12119.16
792.882	12080.06
793.214	12048.88
793.546	12033.51
793.879	12006.17
794.211	11956.68
794.543	11999.84
794.875	11917.58
795.207	11979.28
795.539	11945.15
795.871	11899.5
796.203	11798.49
796.535	11780.86
796.867	11692.73
797.198	11679.4
797.53	11673.97
797.862	11661.54
798.193	11624.71
798.525	11559.4
798.856	11550.36
799.188	11459.06
799.519	11520.53
799.85	11373.87
800.182	11450.02
800.513	11386.75
800.844	11351.04
801.175	11458.61
801.506	11453.87
801.837	11319.86
802.168	11302.01
802.499	11274.89
802.83	11258.16
803.161	11187.21
803.491	11162.8
803.822	11220.43
804.153	11173.87
804.483	11102.91
804.814	11064.95
805.145	11000.54
805.475	11019.98
805.805	10965.52
806.136	11031.28
806.466	10961.9
806.796	10890.26
807.126	10848.91
807.457	10838.29
807.787	10899.76
808.117	10813.2
808.447	10785.41
808.777	10780.21
809.107	10872.19
809.436	10782.47
809.766	10773.66
810.096	10722.36
810.426	10628.12
810.755	10617.28
811.085	10709.25
811.414	10650.04
811.744	10603.94
812.073	10563.49
812.403	10585.41
812.732	10507.22
813.061	10512.42
813.39	10476.26
813.719	10422.71
814.049	10527.56
814.378	10466.55
814.707	10385.19
815.036	10373.22
815.365	10397.17
815.693	10285.99
816.022	10288.02
816.351	10263.16
816.68	10264.07
817.008	10283.5
817.337	10280.79
817.665	10110.85
817.994	10182.49
818.322	10131.41
818.651	10121.7
818.979	10084.18
819.307	10147.46
819.636	10108.36
819.964	10071.3
820.292	10049.61
820.62	10103.62
820.948	10061.81
821.276	10109.49
821.604	10044.41
821.932	10133.67
822.259	10023.62
822.587	10122.6
822.915	10017.29
823.243	10019.1
823.57	10039.89
823.898	10101.81
824.225	10008.48
824.553	10030.17
824.88	9977.29
825.207	10071.98
825.535	10083.28
825.862	10081.7
826.189	9983.85
826.516	10005.54
826.843	10060.68
827.17	10050.29
827.497	9995.6
827.824	9952.21
828.151	10093
828.478	10030.85
828.805	10065.43
829.131	10055.94
829.458	10030.17
829.785	9979.55
830.111	9956.73
830.438	10001.25
830.764	9968.25
831.09	10031.08
831.417	9940.01
831.743	10059.78
832.069	10015.49
832.395	9969.38
832.722	10019.55
833.048	9968.71
833.374	9940.68
833.7	9907.24
834.026	9939.56
834.351	9998.08
834.677	9928.03
835.003	9911.31
835.329	9944.07
835.654	9936.17
835.98	9896.17
836.306	9883.29
836.631	9934.58
836.956	9844.42
837.282	9850.52
837.607	9829.05
837.932	9893.23
838.258	9828.37
838.583	9781.37
838.908	9771.88
839.233	9778.66
839.558	9756.28
839.883	9721.48
840.208	9717.19
840.533	9648.49
840.858	9723.52
841.182	9687.36
841.507	9659.11
841.832	9601.26
842.156	9628.6
842.481	9616.4
842.805	9572.33
843.13	9522.84
843.454	9607.81
843.778	9524.2
844.103	9461.83
844.427	9497.08
844.751	9496.63
845.075	9474.26
845.399	9413.24
845.723	9389.51
846.047	9369.17
846.371	9264.54
846.695	9342.06
847.019	9205.56
847.343	9187.26
847.666	9178.45
847.99	9077.2
848.313	9080.59
848.637	9060.03
848.96	9052.35
849.284	9024.1
849.607	8947.94
849.931	8929.19
850.254	8926.93
850.577	8829.75
850.9	8814.16
851.223	8787.27
851.546	8770.09
851.869	8678.8
852.192	8770.77
852.515	8678.57
852.838	8615.07
853.161	8608.06
853.483	8517.45
853.806	8540.5
854.129	8519.25
854.451	8470.44
854.774	8477.67
855.096	8471.35
855.419	8408.07
855.741	8402.65
856.063	8373.27
856.385	8435.64
856.708	8335.76
857.03	8368.07
857.352	8302.76
857.674	8278.13
857.996	8220.73
858.318	8179.83
858.64	8198.81
858.961	8150.68
859.283	8142.99
859.605	8048.53
859.926	8129.66
860.248	8135.53
860.57	8039.49
860.891	8065.93
861.212	7985.26
861.534	8023.9
861.855	7969.21
862.176	7986.39
862.498	7906.39
862.819	7954.75
863.14	7906.84
863.461	7891.93
863.782	7826.84
864.103	7907.07
864.424	7822.77
864.745	7914.75
865.065	7819.61
865.386	7783
865.707	7802.21
866.027	7791.14
866.348	7792.72
866.668	7747.52
866.989	7784.58
867.309	7696.45
867.63	7790.68
867.95	7698.03
868.27	7717.69
868.59	7690.57
868.91	7651.48
869.23	7611.48
869.55	7602.67
869.87	7643.8
870.19	7695.77
870.51	7656.9
870.83	7707.52
871.15	7612.84
871.469	7551.6
871.789	7553.63
872.109	7579.39
872.428	7525.38
872.748	7577.81
873.067	7574.65
873.386	7539.62
873.706	7490.13
874.025	7516.57
874.344	7537.13
874.663	7499.39
874.982	7466.4
875.301	7426.4
875.62	7418.04
875.939	7439.06
876.258	7397.47
876.577	7403.12
876.896	7403.35
877.214	7360.19
877.533	7363.58
877.852	7332.84
878.17	7332.62
878.489	7365.84
878.807	7302.34
879.125	7324.71
879.444	7281.77
879.762	7303.24
880.08	7224.6
880.398	7246.29
880.716	7276.35
881.034	7268.44
881.352	7177.59
881.67	7153.19
881.988	7194.54
882.306	7163.36
882.624	7090.59
882.941	7062.34
883.259	7125.39
883.577	7059.4
883.894	7078.84
884.212	7041.55
884.529	7048.33
884.846	7012.85
885.164	7006.98
885.481	6983.47
885.798	6993.64
886.115	6961.1
886.432	6936.02
886.75	6966.3
887.067	6973.76
887.383	6912.29
887.7	6896.02
888.017	6904.38
888.334	6860.99
888.651	6886.08
888.967	6846.76
889.284	6811.5
889.6	6834.55
889.917	6749.13
890.233	6718.17
890.55	6718.17
890.866	6721.11
891.182	6684.95
891.498	6671.84
891.815	6635.91
892.131	6652.86
892.447	6585.52
892.763	6599.08
893.079	6580.1
893.395	6547.78
893.71	6578.29
894.026	6520.21
894.342	6523.6
894.657	6505.07
894.973	6492.41
895.289	6515.46
895.604	6477.27
895.92	6392.98
896.235	6393.89
896.55	6366.09
896.865	6362.47
897.181	6331.06
897.496	6345.98
897.811	6297.84
898.126	6241.57
898.441	6258.75
898.756	6224.85
899.071	6235.02
899.386	6159.09
899.7	6156.6
900.015	6110.28
900.33	6071.63
900.644	6036.15
900.959	6084.29
901.273	6015.59
901.588	6008.58
901.902	5947.8
902.216	5996.83
902.531	5933.33
902.845	5911.41
903.159	5890.17
903.473	5836.39
903.787	5876.39
904.101	5837.29
904.415	5855.14
904.729	5833.67
905.042	5796.16
905.356	5748.25
905.67	5718.2
905.984	5711.87
906.297	5690.18
906.611	5665.09
906.924	5637.97
907.237	5668.93
907.551	5636.84
907.864	5591.65
908.177	5587.81
908.491	5559.33
908.804	5558.88
909.117	5535.6
909.43	5464.64
909.743	5478.2
910.056	5430.52
910.368	5421.26
910.681	5400.92
910.994	5398.88
911.307	5354.82
911.619	5344.42
911.932	5352.78
912.244	5282.95
912.557	5282.5
912.869	5275.27
913.181	5226.91
913.494	5195.27
913.806	5155.05
914.118	5141.72
914.43	5156.86
914.742	5166.35
915.054	5081.38
915.366	5054.71
915.678	5073.24
915.99	5091.32
916.302	5023.07
916.613	4973.36
916.925	5042.51
917.236	4997.54
917.548	4946.92
917.859	4947.37
918.171	4895.85
918.482	4908.95
918.794	4893.59
919.105	4922.06
919.416	4877.77
919.727	4826.92
920.038	4852.91
920.349	4803.64
920.66	4833.02
920.971	4749.18
921.282	4725
921.593	4684.78
921.903	4696.3
922.214	4643.65
922.525	4687.04
922.835	4653.14
923.146	4591.67
923.456	4588.96
923.767	4598.9
924.077	4563.43
924.387	4545.35
924.697	4534.95
925.008	4536.53
925.318	4492.24
925.628	4503.54
925.938	4514.84
926.248	4412.69
926.558	4380.38
926.867	4415.86
927.177	4352.13
927.487	4355.07
927.796	4338.8
928.106	4337.67
928.416	4322.75
928.725	4304.67
929.034	4287.5
929.344	4305.13
929.653	4329.76
929.962	4232.81
930.271	4223.32
930.581	4222.42
930.89	4216.32
931.199	4205.92
931.508	4171.57
931.817	4129.09
932.125	4092.48
932.434	4129.54
932.743	4089.99
933.051	4072.36
933.36	4058.58
933.669	4042.53
933.977	4016.77
934.286	3984.68
934.594	4011.58
934.902	3973.38
935.21	3992.59
935.519	3920.28
935.827	3964.8
936.135	3904.69
936.443	3870.56
936.751	3873.5
937.059	3871.69
937.367	3833.5
937.674	3846.61
937.982	3833.05
938.29	3786.95
938.597	3803.45
938.905	3770
939.213	3735.2
939.52	3753.05
939.827	3701.53
940.135	3691.36
940.442	3722.09
940.749	3678.25
941.056	3690.68
941.363	3676.22
941.67	3678.25
941.977	3634.64
942.284	3606.39
942.591	3628.99
942.898	3570.46
943.205	3537.24
943.511	3542.21
943.818	3515.09
944.125	3530.01
944.431	3514.87
944.738	3506.73
945.044	3529.55
945.35	3474.64
945.657	3435.32
945.963	3422.66
946.269	3401.42
946.575	3438.03
946.881	3394.42
947.187	3406.85
947.493	3348.54
947.799	3342.67
948.105	3324.14
948.41	3302.22
948.716	3286.4
949.022	3276.68
949.327	3281.88
949.633	3240.75
949.938	3254.76
950.244	3236.23
950.549	3219.28
950.854	3217.7
951.16	3184.93
951.465	3187.19
951.77	3133.18
952.075	3151.71
952.38	3134.08
952.685	3160.52
952.99	3095.67
953.294	3131.82
953.599	3091.37
953.904	3069.91
954.209	3037.36
954.513	3057.48
954.818	3001.21
955.122	3027.65
955.426	3024.48
955.731	3007.08
956.035	2971.83
956.339	3013.86
956.643	2976.57
956.948	2957.37
957.252	2926.41
957.556	2929.8
957.86	2932.73
958.163	2895.9
958.467	2910.81
958.771	2858.61
959.075	2822.45
959.378	2828.78
959.682	2819.52
959.985	2835.34
960.289	2809.12
960.592	2806.41
960.896	2813.19
961.199	2798.73
961.502	2804.15
961.805	2776.35
962.108	2752.63
962.411	2767.09
962.714	2760.08
963.017	2722.57
963.32	2729.35
963.623	2689.8
963.926	2691.38
964.228	2685.06
964.531	2662.01
964.833	2653.42
965.136	2617.94
965.438	2621.56
965.741	2582.46
966.043	2586.08
966.345	2552.63
966.648	2611.84
966.95	2573.42
967.252	2551.95
967.554	2574.1
967.856	2551.05
968.158	2542.01
968.46	2551.27
968.761	2485.51
969.063	2508.56
969.365	2460.66
969.666	2472.18
969.968	2465.4
970.269	2455.91
970.571	2475.12
970.872	2466.53
971.174	2436.48
971.475	2407.32
971.776	2418.4
972.077	2416.14
972.378	2409.13
972.679	2380.43
972.98	2366.42
973.281	2377.95
973.582	2374.33
973.883	2344.27
974.183	2339.75
974.484	2348.79
974.785	2343.6
975.085	2275.58
975.386	2297.95
975.686	2316.03
975.986	2300.89
976.287	2260.21
976.587	2248.46
976.887	2245.75
977.187	2224.96
977.487	2249.81
977.787	2243.26
978.087	2194.45
978.387	2172.53
978.687	2178.18
978.987	2175.47
979.286	2136.6
979.586	2182.24
979.885	2185.41
980.185	2125.07
980.484	2133.43
980.784	2145.41
981.083	2165.3
981.382	2108.8
981.682	2120.78
981.981	2056.82
982.28	2048.01
982.579	2095.02
982.878	2065.86
983.177	2030.16
983.475	2022.7
983.774	2042.14
984.073	2032.64
984.372	2041.91
984.67	2000.33
984.969	1989.26
985.267	1997.39
985.566	1963.95
985.864	1997.17
986.162	1982.02
986.461	1979.31
986.759	1950.61
987.057	1944.51
987.355	1939.77
987.653	1931.4
987.951	1904.06
988.249	1916.26
988.547	1889.37
988.844	1887.34
989.142	1881.24
989.44	1854.12
989.737	1852.54
990.035	1873.1
990.332	1852.08
990.63	1838.98
990.927	1851.18
991.224	1808.7
991.521	1815.25
991.819	1824.06
992.116	1834.91
992.413	1812.76
992.71	1749.26
993.006	1791.29
993.303	1777.28
993.6	1793.55
993.897	1762.14
994.193	1764.4
994.49	1772.09
994.787	1721.24
995.083	1708.13
995.379	1715.82
995.676	1715.59
995.972	1706.33
996.268	1703.16
996.565	1697.74
996.861	1688.92
997.157	1685.08
997.453	1658.19
997.749	1663.39
998.044	1660.45
998.34	1648.47
998.636	1645.31
998.932	1603.05
999.227	1594.01
999.523	1602.6
999.818	1593.56
1000.114	1603.73
1000.409	1589.49
1000.704	1582.71
1001	1609.83
1001.295	1574.13
1001.59	1550.62
1001.885	1544.75
1002.18	1561.02
1002.475	1514.24
1002.77	1533.67
1003.065	1515.37
1003.359	1506.33
1003.654	1543.62
1003.949	1466.11
1004.243	1512.66
1004.538	1485.99
1004.832	1480.12
1005.127	1487.57
1005.421	1462.26
1005.715	1422.26
1006.009	1410.06
1006.304	1432.89
1006.598	1459.33
1006.892	1415.71
1007.186	1431.98
1007.48	1425.43
1007.773	1368.25
1008.067	1398.99
1008.361	1391.31
1008.655	1384.98
1008.948	1396.95
1009.242	1365.32
1009.535	1325.32
1009.829	1354.02
1010.122	1332.1
1010.415	1334.81
1010.708	1340.69
1011.001	1329.61
1011.295	1304.98
1011.588	1321.93
1011.881	1317.86
1012.173	1293.68
1012.466	1301.59
1012.759	1253.46
1013.052	1306.79
1013.344	1254.13
1013.637	1241.7
1013.93	1271.99
1014.222	1238.09
1014.514	1247.13
1014.807	1220.69
1015.099	1216.39
1015.391	1206.23
1015.683	1222.04
1015.976	1194.25
1016.268	1181.59
1016.56	1184.53
1016.851	1197.86
1017.143	1201.25
1017.435	1180.46
1017.727	1134.14
1018.018	1154.7
1018.31	1156.74
1018.602	1126.91
1018.893	1146.79
1019.185	1126.23
1019.476	1100.69
1019.767	1114.25
1020.058	1121.48
1020.35	1120.58
1020.641	1103.18
1020.932	1070.41
1021.223	1065.21
1021.514	1079.9
1021.804	1076.51
1022.095	1068.15
1022.386	1066.79
1022.677	1068.38
1022.967	1049.17
1023.258	1022.95
1023.548	1037.19
1023.839	1007.59
1024.129	1045.55
1024.419	1015.27
1024.709	1026.34
1025	1005.33
1025.29	995.16
1025.58	965.33
1025.87	970.53
1026.16	984.99
1026.449	972.11
1026.739	949.28
1027.029	947.7
1027.319	961.94
1027.608	974.37
1027.898	967.14
1028.187	932.79
1028.477	958.1
1028.766	902.73
1029.055	904.99
1029.344	931.2
1029.634	905.44
1029.923	910.41
1030.212	919.91
1030.501	923.97
1030.79	889.85
1031.078	906.57
1031.367	896.4
1031.656	888.95
1031.945	877.42
1032.233	887.82
1032.522	869.51
1032.81	851.66
1033.099	850.75
1033.387	862.73
1033.675	876.74
1033.963	842.85
1034.251	855.73
1034.54	817.54
1034.828	837.2
1035.116	836.97
1035.403	840.13
1035.691	810.76
1035.979	817.31
1036.267	830.87
1036.554	818.21
1036.842	797.87
1037.129	776.41
1037.417	799.46
1037.704	774.82
1037.992	777.54
1038.279	777.76
1038.566	741.38
1038.853	741.38
1039.14	741.38
