Data from hue_220_FLMS001491_00061.txt Node
Date: Tue Feb 07 16:39:46 GMT 2017
User: dcchb
Spectrometer: FLMS00149
Trigger mode: 0
Integration Time (sec): 2.000000E-2
Scans to average: 10
Electric dark correction enabled: true
Nonlinearity correction enabled: false
Boxcar width: 0
XAxis mode: Wavelengths
Number of Pixels in Spectrum: 2048
>>>>>Begin Spectral Data<<<<<
341.393	1.05
341.776	1.05
342.16	1.05
342.543	-61.78
342.927	-85.51
343.31	-74.21
343.693	-89.8
344.077	-67.88
344.46	-55
344.843	-40.76
345.226	-48.9
345.61	-36.02
345.993	0.82
346.376	-11.61
346.759	15.51
347.142	20.93
347.525	54.38
347.908	54.15
348.291	74.04
348.674	90.99
349.057	113.36
349.44	128.27
349.823	138.67
350.206	154.49
350.588	187.03
350.971	199.46
351.354	221.6
351.737	236.97
352.119	223.41
352.502	260.47
352.884	262.51
353.267	272
353.65	283.98
354.032	291.21
354.414	291.21
354.797	298.21
355.179	340.92
355.562	308.16
355.944	300.25
356.326	312.68
356.709	319.45
357.091	323.3
357.473	345.44
357.855	333.24
358.238	343.86
358.62	330.53
359.002	344.09
359.384	342.51
359.766	317.65
360.148	352.45
360.53	290.76
360.912	335.95
361.294	321.71
361.676	320.36
362.057	321.49
362.439	315.39
362.821	341.15
363.203	320.36
363.584	306.57
363.966	338.44
364.348	312.68
364.729	301.38
365.111	315.61
365.493	319.23
365.874	317.2
366.256	314.94
366.637	335.27
367.019	330.53
367.4	303.41
367.781	325.56
368.163	305.44
368.544	307.7
368.925	306.35
369.306	321.26
369.688	300.7
370.069	291.88
370.45	297.53
370.831	297.53
371.212	317.87
371.593	303.64
371.974	291.43
372.355	302.96
372.736	292.11
373.117	324.43
373.498	307.7
373.879	313.58
374.26	307.48
374.641	303.64
375.021	298.66
375.402	308.16
375.783	301.38
376.163	322.62
376.544	300.92
376.925	307.25
377.305	321.26
377.686	328.27
378.066	319
378.447	312
378.827	326.23
379.208	332.34
379.588	328.95
379.968	327.59
380.349	315.84
380.729	317.42
381.109	309.96
381.489	311.09
381.87	327.59
382.25	342.51
382.63	328.95
383.01	326.46
383.39	352.67
383.77	357.42
384.15	328.27
384.53	340.02
384.91	334.6
385.29	340.47
385.67	335.95
386.049	338.89
386.429	330.53
386.809	351.09
387.189	347.48
387.568	375.5
387.948	335.27
388.328	362.62
388.707	359.23
389.087	335.27
389.466	341.38
389.846	352.45
390.225	351.54
390.605	328.27
390.984	355.61
391.363	353.8
391.743	347.93
392.122	350.87
392.501	370.3
392.881	375.72
393.26	365.56
393.639	373.46
394.018	375.72
394.397	393.13
394.776	360.36
395.155	377.31
395.534	361.26
395.913	363.3
396.292	340.47
396.671	389.51
397.05	392.45
397.429	394.71
397.808	392.9
398.186	382.05
398.565	382.05
398.944	365.33
399.323	383.41
399.701	395.61
400.08	395.84
400.458	402.62
400.837	397.19
401.215	400.36
401.594	390.87
401.972	396.51
402.351	382.96
402.729	409.62
403.107	396.51
403.486	416.18
403.864	417.53
404.242	408.94
404.62	424.31
404.999	413.01
405.377	432.9
405.755	443.52
406.133	451.88
406.511	449.85
406.889	481.94
407.267	455.27
407.645	457.08
408.023	444.42
408.401	462.73
408.779	460.92
409.156	479
409.534	477.87
409.912	476.51
410.29	503.86
410.667	511.09
411.045	505.66
411.422	526.23
411.8	521.03
412.178	517.87
412.555	534.59
412.933	541.6
413.31	545.21
413.687	549.28
414.065	555.38
414.442	568.71
414.819	583.4
415.197	592.22
415.574	618.2
415.951	578.66
416.328	621.59
416.705	594.25
417.082	611.42
417.46	653.01
417.837	662.5
418.214	640.8
418.591	679.9
418.967	659.78
419.344	682.38
419.721	695.94
420.098	696.62
420.475	704.3
420.852	722.61
421.228	718.54
421.605	704.08
421.982	734.36
422.358	775.94
422.735	769.84
423.111	776.84
423.488	810.74
423.864	808.93
424.241	802.15
424.617	846.22
424.994	826.33
425.37	852.32
425.746	860.46
426.123	903.62
426.499	891.42
426.875	907.91
427.251	909.95
427.627	939.78
428.003	945.43
428.379	979.32
428.756	958.99
429.132	980
429.507	996.5
429.883	1018.19
430.259	1016.61
430.635	1015.71
431.011	1043.5
431.387	1039.66
431.763	1068.14
432.138	1088.25
432.514	1085.31
432.89	1074.69
433.265	1138.42
433.641	1143.61
434.016	1169.15
434.392	1205.53
434.767	1213.44
435.143	1234.91
435.518	1258.87
435.894	1251.18
436.269	1285.98
436.644	1315.13
437.02	1335.47
437.395	1345.42
437.77	1366.88
438.145	1413.89
438.52	1427
438.895	1428.58
439.271	1430.61
439.646	1490.27
440.021	1483.49
440.395	1503.83
440.77	1480.33
441.145	1526.2
441.52	1541.8
441.895	1552.19
442.27	1614.11
442.645	1605.75
443.019	1629.25
443.394	1617.95
443.769	1648.01
444.143	1658.18
444.518	1689.59
444.892	1707.89
445.267	1694.79
445.641	1705.63
446.016	1759.42
446.39	1784.28
446.764	1766.2
447.139	1800.09
447.513	1780.89
447.887	1800.77
448.262	1811.85
448.636	1841.9
449.01	1835.12
449.384	1860.66
449.758	1874.89
450.132	1914.67
450.506	1892.75
450.88	1922.12
451.254	1928
451.628	1942.01
452.002	1991.73
452.376	1997.38
452.75	1973.2
453.123	2020.2
453.497	2042.12
453.871	2045.96
454.244	2076.02
454.618	2074.66
454.992	2096.81
455.365	2138.39
455.739	2188.78
456.112	2171.16
456.486	2197.15
456.859	2236.01
457.232	2258.61
457.606	2246.41
457.979	2299.74
458.352	2357.14
458.725	2351.72
459.099	2377.71
459.472	2392.62
459.845	2431.26
460.218	2464.26
460.591	2449.57
460.964	2476.01
461.337	2555.55
461.71	2571.83
462.083	2606.17
462.456	2568.89
462.829	2611.15
463.201	2663.8
463.574	2678.49
463.947	2701.31
464.32	2749.22
464.692	2766.17
465.065	2765.49
465.438	2832.84
465.81	2839.39
466.183	2894.98
466.555	2933.85
466.928	2953.28
467.3	2943.11
467.672	3008.2
468.045	3086.61
468.417	3075.54
468.789	3087.52
469.161	3096.56
469.534	3161.19
469.906	3223.79
470.278	3265.14
470.65	3292.48
471.022	3302.65
471.394	3386.49
471.766	3443.89
472.138	3430.33
472.51	3486.15
472.882	3527.73
473.253	3615.87
473.625	3623.1
473.997	3716.65
474.369	3688.86
474.74	3731.34
475.112	3827.39
475.484	3835.29
475.855	3915.74
476.227	3945.35
476.598	4038.45
476.97	4044.1
477.341	4098.56
477.713	4194.16
478.084	4214.49
478.455	4292.91
478.827	4344.66
479.198	4406.58
479.569	4453.58
479.94	4541.49
480.311	4629.85
480.682	4623.52
481.053	4776.29
481.424	4811.09
481.795	4877.75
482.166	4940.58
482.537	4983.74
482.908	5068.26
483.279	5087.47
483.65	5167.46
484.021	5237.97
484.391	5254.24
484.762	5263.51
485.133	5365.88
485.503	5425.08
485.874	5576.72
486.244	5526.78
486.615	5661.91
486.985	5698.52
487.356	5803.38
487.726	5807.22
488.097	5942.81
488.467	5894.22
488.837	6026.2
489.207	6115.01
489.578	6136.93
489.948	6206.31
490.318	6257.38
490.688	6333.08
491.058	6384.83
491.428	6463.25
491.798	6530.82
492.168	6623.47
492.538	6584.83
492.908	6697.14
493.278	6746.63
493.648	6725.39
494.017	6809.45
494.387	6830.7
494.757	6805.84
495.126	6938.49
495.496	6998.38
495.866	7002.22
496.235	7078.15
496.605	7134.42
496.974	7117.92
497.344	7221.19
497.713	7207.64
498.082	7295.09
498.452	7345.94
498.821	7281.76
499.19	7331.93
499.559	7403.56
499.928	7355.65
500.298	7432.71
500.667	7452.6
501.036	7444.92
501.405	7502.09
501.774	7520.4
502.143	7586.61
502.512	7601.75
502.88	7696.21
503.249	7607.85
503.618	7702.09
503.987	7659.37
504.356	7721.52
504.724	7732.37
505.093	7706.61
505.462	7788.64
505.83	7840.84
506.199	7819.14
506.567	7900.05
506.936	7853.49
507.304	7978.01
507.672	7983.89
508.041	7977.11
508.409	8042.42
508.777	7987.95
509.145	8159.25
509.514	8028.18
509.882	8096.2
510.25	8055.3
510.618	8096.88
510.986	8144.11
511.354	8155.41
511.722	8153.15
512.09	8197.21
512.458	8154.28
512.826	8251.22
513.193	8201.73
513.561	8268.17
513.929	8312.69
514.297	8289.64
514.664	8314.72
515.032	8259.36
515.4	8352.69
515.767	8314.72
516.135	8319.7
516.502	8275.4
516.869	8394.5
517.237	8354.27
517.604	8347.72
517.972	8379.81
518.339	8455.96
518.706	8402.63
519.073	8421.16
519.44	8405.12
519.808	8442.63
520.175	8377.1
520.542	8456.19
520.909	8413.03
521.276	8472.23
521.643	8521.95
522.009	8516.53
522.376	8440.82
522.743	8466.81
523.11	8560.37
523.477	8530.76
523.843	8583.42
524.21	8644.21
524.577	8606.02
524.943	8640.59
525.31	8585.45
525.676	8613.25
526.043	8688.95
526.409	8643.98
526.776	8735.5
527.142	8660.48
527.508	8604.43
527.874	8657.77
528.241	8699.35
528.607	8674.26
528.973	8626.58
529.339	8689.86
529.705	8664.09
530.071	8663.42
530.437	8689.4
530.803	8685.56
531.169	8681.04
531.535	8629.97
531.901	8587.03
532.267	8610.31
532.632	8653.7
532.998	8600.82
533.364	8623.64
533.73	8550.88
534.095	8583.87
534.461	8554.72
534.826	8564.66
535.192	8577.54
535.557	8573.25
535.923	8507.94
536.288	8533.7
536.653	8532.12
537.019	8431.56
537.384	8461.39
537.749	8505.45
538.114	8448.96
538.479	8407.6
538.845	8366.7
539.21	8407.15
539.575	8335.06
539.94	8329.87
540.305	8273.14
540.67	8246.93
541.034	8252.35
541.399	8230.66
541.764	8182.75
542.129	8237.89
542.494	8215.29
542.858	8153.83
543.223	8098.46
543.587	8112.02
543.952	8116.31
544.316	8107.05
544.681	8041.96
545.045	8084.45
545.41	8051
545.774	8036.54
546.138	7958.58
546.503	7956.54
546.867	7924.9
547.231	7975.3
547.595	7869.54
547.959	7862.76
548.324	7852.36
548.688	7844
549.052	7826.15
549.416	7797.9
549.779	7734.63
550.143	7711.12
550.507	7713.84
550.871	7738.69
551.235	7667.96
551.599	7709.09
551.962	7652.82
552.326	7668.64
552.689	7699.37
553.053	7553.16
553.417	7527.17
553.78	7580.96
554.143	7542.77
554.507	7574.18
554.87	7513.62
555.234	7520.4
555.597	7494.86
555.96	7517.46
556.323	7467.52
556.686	7482.66
557.05	7419.16
557.413	7460.06
557.776	7416.44
558.139	7452.83
558.502	7425.03
558.865	7396.1
559.228	7371.47
559.59	7471.81
559.953	7417.8
560.316	7433.84
560.679	7394.07
561.041	7406.73
561.404	7429.55
561.767	7448.08
562.129	7388.87
562.492	7457.57
562.854	7344.58
563.217	7358.37
563.579	7451.92
563.941	7422.54
564.304	7470.68
564.666	7522.66
565.028	7444.69
565.39	7405.82
565.753	7544.58
566.115	7404.47
566.477	7450.11
566.839	7484.24
567.201	7497.35
567.563	7523.33
567.925	7540.28
568.287	7544.35
568.648	7537.12
569.01	7528.76
569.372	7581.18
569.734	7525.14
570.095	7534.63
570.457	7567.85
570.819	7590.9
571.18	7601.98
571.542	7583.9
571.903	7639.94
572.265	7578.47
572.626	7624.12
572.987	7637.45
573.349	7602.88
573.71	7708.19
574.071	7682.65
574.432	7695.76
574.794	7786.83
575.155	7713.61
575.516	7717.9
575.877	7712.03
576.238	7781.63
576.599	7752.48
576.96	7731.24
577.32	7750.67
577.681	7818.47
578.042	7881.06
578.403	7818.47
578.763	7770.56
579.124	7895.07
579.485	7960.38
579.845	7869.54
580.206	7900.95
580.566	7905.47
580.927	7919.71
581.287	7911.35
581.648	7961.06
582.008	7964.68
582.368	7937.33
582.728	7970.55
583.089	7949.54
583.449	7962.42
583.809	7995.64
584.169	8055.75
584.529	8010.55
584.889	8096.43
585.249	8048.07
585.609	7997.22
585.969	8152.47
586.329	8066.37
586.688	8110.21
587.048	8147.72
587.408	8078.57
587.768	8108.85
588.127	8168.97
588.487	8124.9
588.846	8237.21
589.206	8109.76
589.565	8162.64
589.925	8202.19
590.284	8225.69
590.643	8222.3
591.003	8198.57
591.362	8293.03
591.721	8238.34
592.08	8195.63
592.44	8273.14
592.799	8284.67
593.158	8335.74
593.517	8298.91
593.876	8334.84
594.235	8312.92
594.593	8293.26
594.952	8339.58
595.311	8302.75
595.67	8319.92
596.029	8356.53
596.387	8366.25
596.746	8444.66
597.104	8403.99
597.463	8361.28
597.822	8497.32
598.18	8354.05
598.538	8357.44
598.897	8432.91
599.255	8352.01
599.613	8504.1
599.972	8467.49
600.33	8491.22
600.688	8408.28
601.046	8468.17
601.404	8509.75
601.762	8498.9
602.12	8512.69
602.478	8482.4
602.836	8433.14
603.194	8453.93
603.552	8445.57
603.91	8470.65
604.268	8511.33
604.625	8474.95
604.983	8491.22
605.341	8501.61
605.698	8535.28
606.056	8520.82
606.413	8516.3
606.771	8569.18
607.128	8556.98
607.485	8500.03
607.843	8494.61
608.2	8578.45
608.557	8601.95
608.914	8591.33
609.272	8638.11
609.629	8679.91
609.986	8579.12
610.343	8611.67
610.7	8744.54
611.057	8684.66
611.414	8601.72
611.771	8672
612.127	8721.27
612.484	8703.19
612.841	8749.97
613.198	8624.77
613.554	8696.18
613.911	8756.3
614.267	8719.69
614.624	8659.8
614.98	8701.38
615.337	8784.99
615.693	8848.27
616.05	8754.49
616.406	8798.78
616.762	8782.28
617.118	8778.67
617.475	8792.9
617.831	8771.44
618.187	8846.69
618.543	8853.69
618.899	8931.66
619.255	8884.88
619.611	8805.56
619.967	8854.6
620.323	8892.34
620.678	8845.78
621.034	8843.07
621.39	8822.28
621.746	8778.67
622.101	8946.8
622.457	8883.75
622.812	8877.42
623.168	8833.58
623.523	8878.1
623.879	8896.4
624.234	8780.25
624.589	8906.12
624.945	8873.81
625.3	8863.19
625.655	8888.5
626.01	8871.09
626.365	8855.28
626.72	8831.77
627.075	8905.44
627.43	8832.23
627.785	8826.35
628.14	8831.32
628.495	8801.72
628.85	8804.2
629.205	8793.58
629.559	8848.95
629.914	8836.29
630.269	8807.59
630.623	8695.73
630.978	8757.65
631.332	8796.97
631.687	8841.94
632.041	8771.44
632.396	8803.53
632.75	8726.69
633.104	8729.18
633.459	8733.92
633.813	8705
634.167	8688.5
634.521	8721.04
634.875	8736.18
635.229	8715.39
635.583	8628.61
635.937	8658.44
636.291	8686.24
636.645	8630.42
636.999	8662.29
637.352	8632.91
637.706	8589.29
638.06	8617.32
638.413	8616.86
638.767	8587.49
639.121	8599.92
639.474	8549.75
639.828	8575.96
640.181	8546.13
640.534	8528.73
640.888	8547.94
641.241	8503.42
641.594	8561.72
641.947	8548.62
642.301	8525.34
642.654	8513.36
643.007	8524.89
643.36	8585.9
643.713	8485.34
644.066	8458.9
644.419	8490.31
644.771	8422.74
645.124	8405.8
645.477	8348.85
645.83	8337.32
646.182	8279.02
646.535	8305.46
646.888	8224.78
647.24	8245.57
647.593	8326.48
647.945	8274.73
648.298	8206.25
648.65	8239.47
649.002	8164.67
649.355	8165.35
649.707	8228.85
650.059	8233.37
650.411	8345.68
650.763	8316.53
651.115	8418.45
651.467	8418
651.819	8416.19
652.171	8418.22
652.523	8349.53
652.875	8406.93
653.227	8364.22
653.578	8407.15
653.93	8378.45
654.282	8394.5
654.633	8322.63
654.985	8367.38
655.337	8363.09
655.688	8362.18
656.039	8448.28
656.391	8330.09
656.742	8406.93
657.094	8361.28
657.445	8407.83
657.796	8414.84
658.147	8314.5
658.498	8379.58
658.849	8394.27
659.2	8400.37
659.551	8440.82
659.902	8389.75
660.253	8411.9
660.604	8437.66
660.955	8373.93
661.306	8432.69
661.656	8455.96
662.007	8394.04
662.358	8434.27
662.708	8441.28
663.059	8373.03
663.409	8376.19
663.76	8460.03
664.11	8477.21
664.461	8502.06
664.811	8526.24
665.161	8483.08
665.511	8425.91
665.862	8434.95
666.212	8490.99
666.562	8518.11
666.912	8457.77
667.262	8459.81
667.612	8471.33
667.962	8469.3
668.312	8494.38
668.662	8521.05
669.011	8496.19
669.361	8588.16
669.711	8464.33
670.06	8431.33
670.41	8431.33
670.76	8488.28
671.109	8440.82
671.459	8477.88
671.808	8428.62
672.157	8439.92
672.507	8371.22
672.856	8432.91
673.205	8404.67
673.554	8425.68
673.904	8368.96
674.253	8406.7
674.602	8366.25
674.951	8283.77
675.3	8256.42
675.649	8363.54
675.998	8319.24
676.346	8356.53
676.695	8364.89
677.044	8325.57
677.393	8339.13
677.741	8288.51
678.09	8293.26
678.438	8288.74
678.787	8330.77
679.135	8265.69
679.484	8229.98
679.832	8254.39
680.181	8196.54
680.529	8221.17
680.877	8252.58
681.225	8258.23
681.573	8248.29
681.922	8144.33
682.27	8134.39
682.618	8134.39
682.966	8167.38
683.314	8089.87
683.661	8099.59
684.009	8046.26
684.357	8027.95
684.705	8049.2
685.053	8008.74
685.4	8012.59
685.748	7972.14
686.095	7952.25
686.443	7872.25
686.79	7892.36
687.138	7876.54
687.485	7882.42
687.832	7928.07
688.18	7904.79
688.527	7817.79
688.874	7833.83
689.221	7805.59
689.568	7708.64
689.915	7788.86
690.262	7781.18
690.609	7698.47
690.956	7682.88
691.303	7693.95
691.65	7628.42
691.997	7628.42
692.344	7549.55
692.69	7554.29
693.037	7583.22
693.383	7478.59
693.73	7506.84
694.077	7478.59
694.423	7496.22
694.769	7398.59
695.116	7411.7
695.462	7323.34
695.808	7403.11
696.155	7352.26
696.501	7382.32
696.847	7251.25
697.193	7272.94
697.539	7255.32
697.885	7223.91
698.231	7200.63
698.577	7164.02
698.923	7143
699.269	7110.01
699.614	7099.39
699.96	7060.97
700.306	7065.27
700.651	7012.39
700.997	6946.85
701.342	6973.97
701.688	6946.63
702.033	6944.59
702.379	6871.15
702.724	6885.84
703.069	6863.01
703.415	6799.51
703.76	6783.47
704.105	6804.26
704.45	6771.94
704.795	6682.23
705.14	6741.21
705.485	6708.44
705.83	6716.35
706.175	6662.11
706.52	6596.13
706.865	6533.98
707.209	6548.67
707.554	6598.16
707.899	6573.53
708.243	6472.06
708.588	6554.32
708.932	6448.33
709.277	6500.08
709.621	6507.99
709.966	6465.73
710.31	6447.2
710.654	6347.32
710.998	6363.59
711.342	6361.78
711.687	6377.37
712.031	6305.06
712.375	6307.32
712.719	6312.97
713.063	6279.07
713.407	6273.2
713.75	6305.06
714.094	6248.34
714.438	6264.61
714.782	6297.83
715.125	6215.35
715.469	6228
715.812	6195.91
716.156	6203.37
716.499	6195.68
716.843	6206.53
717.186	6150.71
717.53	6200.88
717.873	6141.9
718.216	6115.01
718.559	6099.42
718.902	6045.63
719.246	6129.02
719.589	6108.23
719.932	6068.91
720.275	6092.86
720.617	6065.74
720.96	6035.91
721.303	6031.85
721.646	6098.96
721.989	6065.52
722.331	6082.24
722.674	6032.07
723.016	6016.25
723.359	5975.35
723.701	6098.74
724.044	6011.06
724.386	5981.68
724.729	6022.81
725.071	5956.37
725.413	5971.51
725.755	5978.74
726.097	5987.1
726.439	5938.06
726.782	5965.63
727.124	5972.64
727.465	5933.32
727.807	5932.19
728.149	5964.28
728.491	5971.06
728.833	5947.56
729.175	5937.84
729.516	5889.03
729.858	5922.02
730.199	5945.75
730.541	5900.1
730.882	5908.91
731.224	6016.93
731.565	5936.48
731.906	5965.63
732.248	5917.27
732.589	5918.63
732.93	5869.59
733.271	5904.84
733.612	5938.97
733.953	5943.04
734.294	5910.95
734.635	5928.12
734.976	5952.75
735.317	5910.04
735.658	5925.64
735.999	5941.45
736.339	5923.6
736.68	5960.89
737.021	5914.34
737.361	5918.86
737.702	5958.18
738.042	5945.52
738.383	5955.69
738.723	6013.77
739.063	5999.31
739.404	6048.57
739.744	6021.9
740.084	6031.4
740.424	6043.6
740.764	6060.77
741.104	6082.24
741.444	6021
741.784	6048.57
742.124	6093.99
742.464	6098.74
742.804	6115.69
743.143	6105.52
743.483	6117.04
743.823	6062.35
744.162	6127.44
744.502	6184.39
744.841	6242.91
745.181	6229.13
745.52	6248.11
745.86	6364.04
746.199	6325.4
746.538	6399.52
746.877	6452.63
747.216	6463.7
747.556	6530.14
747.895	6547.77
748.234	6605.62
748.573	6622.57
748.911	6701.89
749.25	6739.85
749.589	6804.48
749.928	6870.92
750.267	6965.61
750.605	6961.09
750.944	7059.16
751.283	7118.6
751.621	7180.74
751.96	7275.88
752.298	7359.27
752.636	7458.48
752.975	7505.48
753.313	7607.62
753.651	7738.69
753.989	7801.07
754.327	7895.98
754.666	7983.66
755.004	8138.23
755.342	8246.48
755.679	8338
756.017	8522.63
756.355	8630.42
756.693	8724.88
757.031	8935.27
757.368	8986.12
757.706	9205.55
758.044	9370.52
758.381	9444.64
758.719	9620
759.056	9807.34
759.394	9907.45
759.731	10030.39
760.068	10197.16
760.405	10295.46
760.743	10527.55
761.08	10738.39
761.417	10855.9
761.754	10986.52
762.091	11245.5
762.428	11303.35
762.765	11521.42
763.102	11724.58
763.438	11839.6
763.775	11934.06
764.112	12106.94
764.449	12435.52
764.785	12493.37
765.122	12685.23
765.458	12695.85
765.795	12884.55
766.131	13147.82
766.467	13266.46
766.804	13356.63
767.14	13504.87
767.476	13687.24
767.812	13843.62
768.148	13901.24
768.485	14041.13
768.821	14175.14
769.157	14351.18
769.492	14441.34
769.828	14690.38
770.164	14635.01
770.5	14780.77
770.836	14945.51
771.171	15064.6
771.507	15114.32
771.842	15307.08
772.178	15280.42
772.513	15411.04
772.849	15565.83
773.184	15624.82
773.519	15759.05
773.855	15833.17
774.19	15814.19
774.525	15937.35
774.86	16054.86
775.195	16117.91
775.53	16165.59
775.865	16234.29
776.2	16139.6
776.535	16166.72
776.87	16319.03
777.205	16296.66
777.539	16354.06
777.874	16552.02
778.209	16396.77
778.543	16548.18
778.878	16534.4
779.212	16536.66
779.547	16636.77
779.881	16708.18
780.215	16739.81
780.55	16825.01
780.884	16638.35
781.218	16707.27
781.552	16848.06
781.886	16857.78
782.22	16832.02
782.554	16798.34
782.888	16671.34
783.222	16708.4
783.556	16711.11
783.889	16753.83
784.223	16674.28
784.557	16681.06
784.89	16763.32
785.224	16694.62
785.557	16622.76
785.891	16726.26
786.224	16684
786.558	16681.06
786.891	16594.06
787.224	16668.86
787.557	16614.62
787.891	16579.82
788.224	16596.09
788.557	16671.34
788.89	16651.45
789.223	16674.28
789.556	16554.28
789.888	16566.03
790.221	16562.19
790.554	16472.25
790.887	16467.96
791.219	16423.89
791.552	16473.61
791.884	16382.76
792.217	16415.53
792.549	16363.55
792.882	16354.97
793.214	16269.54
793.546	16390.9
793.879	16185.03
794.211	16153.16
794.543	16339.37
794.875	16157
795.207	16255.76
795.539	16116.33
795.871	16160.85
796.203	16039.72
796.535	15942.77
796.867	15940.06
797.198	15995.65
797.53	15961.3
797.862	15859.39
798.193	15890.8
798.525	15794.08
798.856	15773.74
799.188	15661.42
799.519	15669.56
799.85	15612.61
800.182	15585.95
800.513	15641.31
800.844	15508.21
801.175	15614.65
801.506	15601.31
801.837	15575.32
802.168	15509.34
802.499	15435.67
802.83	15394.31
803.161	15327.87
803.491	15271.6
803.822	15314.54
804.153	15316.12
804.483	15234.77
804.814	15137.82
805.145	15092.4
805.475	15054.21
805.805	15093.08
806.136	15064.38
806.466	15081.55
806.796	15039.07
807.126	14827.1
807.457	14801.56
807.787	14872.74
808.117	14860.77
808.447	14771.05
808.777	14862.35
809.107	14789.58
809.436	14692.18
809.766	14709.13
810.096	14688.34
810.426	14624.62
810.755	14661.9
811.085	14601.57
811.414	14657.38
811.744	14417.16
812.073	14439.08
812.403	14507.78
812.732	14364.74
813.061	14390.72
813.39	14359.54
813.719	14367.9
814.049	14403.6
814.378	14270.05
814.707	14225.53
815.036	14290.84
815.365	14167.68
815.693	14116.15
816.022	14131.75
816.351	14062.82
816.68	14043.39
817.008	14065.31
817.337	13989.83
817.665	13854.92
817.994	14016.72
818.322	13946.44
818.651	13942.15
818.979	13750.51
819.307	13854.01
819.636	13851.53
819.964	13777.41
820.292	13882.26
820.62	13872.32
820.948	13709.16
821.276	13790.74
821.604	13828.93
821.932	13860.12
822.259	13812.43
822.587	13760.01
822.915	13724.07
823.243	13844.3
823.57	13745.77
823.898	13761.14
824.225	13748.93
824.553	13667.35
824.88	13782.83
825.207	13792.09
825.535	13802.72
825.862	13811.76
826.189	13800
826.516	13774.92
826.843	13819.66
827.17	13866.67
827.497	13844.07
827.824	13820.34
828.151	13850.17
828.478	13870.74
828.805	13907.57
829.131	13845.65
829.458	13808.59
829.785	13741.47
830.111	13771.98
830.438	13905.54
830.764	13836.84
831.09	13843.39
831.417	13792.77
831.743	13802.94
832.069	13772.43
832.395	13743.73
832.722	13832.77
833.048	13732.66
833.374	13810.63
833.7	13663.74
834.026	13795.26
834.351	13820.12
834.677	13673.91
835.003	13749.16
835.329	13744.64
835.654	13668.93
835.98	13689.72
836.306	13691.53
836.631	13661.48
836.956	13616.73
837.282	13718.2
837.607	13578.32
837.932	13555.04
838.258	13626
838.583	13548.03
838.908	13484.53
839.233	13546
839.558	13390.75
839.883	13452.44
840.208	13398.21
840.533	13342.16
840.858	13301.49
841.182	13342.39
841.507	13347.59
841.832	13335.61
842.156	13344.88
842.481	13277.98
842.805	13223.3
843.13	13152.11
843.454	13175.16
843.778	13143.07
844.103	13015.17
844.427	13031.66
844.751	13043.41
845.075	13008.39
845.399	13012.68
845.723	12898.33
846.047	12958.9
846.371	12825.57
846.695	12835.06
847.019	12786.7
847.343	12667.38
847.666	12625.12
847.99	12562.52
848.313	12609.3
848.637	12496.54
848.96	12509.87
849.284	12378.8
849.607	12325.24
849.931	12392.81
850.254	12241.4
850.577	12148.3
850.9	12144.68
851.223	12048.64
851.546	12004.12
851.869	11904.24
852.192	12018.36
852.515	11861.98
852.838	11906.72
853.161	11800.28
853.483	11764.35
853.806	11686.61
854.129	11726.84
854.451	11659.95
854.774	11617.24
855.096	11596.22
855.419	11550.8
855.741	11525.94
856.063	11486.17
856.385	11442.55
856.708	11411.82
857.03	11387.41
857.352	11314.19
857.674	11318.49
857.996	11238.26
858.318	11231.71
858.64	11259.96
858.961	11172.73
859.283	11081.43
859.605	11160.75
859.926	11074.88
860.248	11092.05
860.57	11081.88
860.891	11081.43
861.212	10986.75
861.534	10927.31
861.855	10938.84
862.176	10986.97
862.498	10971.83
862.819	10874.88
863.14	10860.19
863.461	10833.08
863.782	10813.64
864.103	10789.24
864.424	10799.86
864.745	10860.65
865.065	10678.28
865.386	10695.23
865.707	10703.81
866.027	10671.95
866.348	10675.79
866.668	10648.67
866.989	10685.28
867.309	10541.11
867.63	10607.09
867.95	10546.08
868.27	10478.51
868.59	10517.38
868.91	10449.81
869.23	10484.16
869.55	10413.65
869.87	10485.97
870.19	10349.93
870.51	10460.88
870.83	10411.39
871.15	10371.85
871.469	10353.99
871.789	10388.12
872.109	10450.71
872.428	10363.94
872.748	10298.63
873.067	10290.04
873.386	10311.73
873.706	10301.34
874.025	10182.7
874.344	10236.26
874.663	10210.04
874.982	10268.8
875.301	10210.27
875.62	10156.94
875.939	10122.81
876.258	10121.23
876.577	10088.69
876.896	10119.65
877.214	10099.76
877.533	10054.34
877.852	10024.74
878.17	10050.27
878.489	9993.32
878.807	10028.58
879.125	9999.65
879.444	9984.06
879.762	9923.5
880.08	9902.03
880.398	9872.65
880.716	9914.46
881.034	9838.3
881.352	9829.94
881.67	9801.92
881.988	9833.33
882.306	9791.75
882.624	9732.09
882.941	9749.04
883.259	9653.22
883.577	9716.5
883.894	9636.05
884.212	9676.5
884.529	9652.32
884.846	9610.74
885.164	9624.52
885.481	9532.09
885.798	9571.64
886.115	9488.71
886.432	9484.41
886.75	9455.03
887.067	9433.11
887.383	9443.28
887.7	9452.55
888.017	9371.65
888.334	9408.93
888.651	9361.25
888.967	9316.51
889.284	9326.22
889.6	9272.89
889.917	9210.52
890.233	9176.17
890.55	9206.45
890.866	9169.62
891.182	9122.84
891.498	9076.06
891.815	9090.52
892.131	9071.99
892.447	9071.54
892.763	8970.07
893.079	8925.33
893.395	8977.31
893.71	8893.92
894.026	8953.58
894.342	8877.65
894.657	8834.03
894.973	8850.53
895.289	8774.15
895.604	8794.94
895.92	8690.53
896.235	8723.53
896.55	8670.42
896.865	8568.28
897.181	8591.1
897.496	8654.83
897.811	8556.98
898.126	8545.91
898.441	8482.4
898.756	8468.17
899.071	8396.08
899.386	8451.9
899.7	8327.83
900.015	8346.36
900.33	8269.98
900.644	8245.12
900.959	8331
901.273	8200.38
901.588	8190.89
901.902	8101.62
902.216	8093.49
902.531	8068.4
902.845	8053.26
903.159	7971.46
903.473	8013.72
903.787	7977.56
904.101	7949.31
904.415	7977.56
904.729	7827.73
905.042	7789.77
905.356	7840.61
905.67	7758.81
905.984	7762.87
906.297	7709.54
906.611	7658.47
906.924	7709.32
907.237	7710
907.551	7630.22
907.864	7549.32
908.177	7598.59
908.491	7497.8
908.804	7425.71
909.117	7434.3
909.43	7407.86
909.743	7416.44
910.056	7373.51
910.368	7295.77
910.681	7321.76
910.994	7317.91
911.307	7269.1
911.619	7187.07
911.932	7214.87
912.244	7107.75
912.557	7122.89
912.869	7064.14
913.181	7050.35
913.494	6997.92
913.806	6938.94
914.118	6976.23
914.43	6936.23
914.742	6909.79
915.054	6856.68
915.366	6893.97
915.678	6896.01
915.99	6804.71
916.302	6768.32
916.613	6717.48
916.925	6731.94
917.236	6708.21
917.548	6665.95
917.859	6702.79
918.171	6651.72
918.482	6599.74
918.794	6576.69
919.105	6555.45
919.416	6430.71
919.727	6488.78
920.038	6476.81
920.349	6414.66
920.66	6406.3
920.971	6427.99
921.282	6342.8
921.593	6337.38
921.903	6281.78
922.214	6215.8
922.525	6259.19
922.835	6212.41
923.146	6197.04
923.456	6179.87
923.767	6131.96
924.077	6123.37
924.387	6159.98
924.697	6042.69
925.008	6053.32
925.318	6008.8
925.628	6004.5
925.938	5989.59
926.248	5951.17
926.558	5957.27
926.867	5915.47
927.177	5916.6
927.487	5823.04
927.796	5800.67
928.106	5806.54
928.416	5802.7
928.725	5781.46
929.034	5719.76
929.344	5717.05
929.653	5756.6
929.962	5625.53
930.271	5633.67
930.581	5657.85
930.89	5558.87
931.199	5555.25
931.508	5533.33
931.817	5571.07
932.125	5564.97
932.434	5514.8
932.743	5486.1
933.051	5436.61
933.36	5424.41
933.669	5376.27
933.977	5400.45
934.286	5340.11
934.594	5336.95
934.902	5331.75
935.21	5256.5
935.519	5311.41
935.827	5274.58
936.135	5237.29
936.443	5182.83
936.751	5155.94
937.059	5124.75
937.367	5167.24
937.674	5113
937.982	5108.48
938.29	5105.32
938.597	5063.06
938.905	4987.81
939.213	5015.6
939.52	4995.72
939.827	4959.56
940.135	4961.82
940.442	4920.24
940.749	4923.4
941.056	4905.1
941.363	4827.13
941.67	4819.45
941.977	4801.82
942.284	4782.61
942.591	4829.17
942.898	4756.85
943.205	4749.17
943.511	4727.93
943.818	4732.22
944.125	4733.8
944.431	4720.92
944.738	4640.92
945.044	4609.29
945.35	4604.09
945.657	4542.85
945.963	4544.88
946.269	4533.81
946.575	4526.35
946.881	4483.64
947.187	4519.34
947.493	4503.07
947.799	4417.88
948.105	4450.65
948.41	4421.27
948.716	4457.2
949.022	4379.46
949.327	4318.45
949.633	4335.17
949.938	4362.06
950.244	4287.03
950.549	4251.1
950.854	4245.91
951.16	4261.5
951.465	4208.84
951.77	4221.73
952.075	4210.43
952.38	4195.74
952.685	4170.2
952.99	4120.48
953.294	4115.51
953.599	4096.08
953.904	4044.78
954.209	4041.84
954.513	4065.8
954.818	4016.76
955.122	3973.37
955.426	3987.38
955.731	3989.41
956.035	3934.73
956.339	3991.9
956.643	3919.81
956.948	3886.82
957.252	3909.64
957.556	3899.25
957.86	3855.63
958.163	3873.26
958.467	3859.7
958.771	3862.64
959.075	3815.63
959.378	3800.72
959.682	3752.36
959.985	3741.74
960.289	3748.74
960.592	3718.69
960.896	3694.06
961.199	3668.29
961.502	3673.72
961.805	3641.85
962.108	3595.3
962.411	3618.35
962.714	3603.89
963.017	3644.34
963.32	3581.52
963.623	3585.58
963.926	3578.35
964.228	3550.1
964.531	3511.46
964.833	3506.26
965.136	3527.96
965.438	3513.04
965.741	3426.72
966.043	3434.85
966.345	3393.05
966.648	3413.61
966.95	3385.36
967.252	3374.74
967.554	3375.19
967.856	3345.59
968.158	3338.13
968.46	3336.78
968.761	3327.29
969.063	3308.75
969.365	3278.7
969.666	3271.69
969.968	3243.67
970.269	3224.24
970.571	3241.19
970.872	3244.12
971.174	3206.84
971.475	3212.03
971.776	3168.42
972.077	3160.51
972.378	3163
972.679	3141.3
972.98	3134.75
973.281	3083.45
973.582	3152.37
973.883	3076.9
974.183	3050.91
974.484	3043.68
974.785	3019.27
975.085	3039.16
975.386	3056.11
975.686	3007.97
975.986	2995.54
976.287	2974.98
976.587	2973.17
976.887	2928.65
977.187	2939.05
977.487	2946.05
977.787	2888.43
978.087	2871.25
978.387	2857.69
978.687	2899.73
978.987	2840.07
979.286	2837.58
979.586	2801.88
979.885	2802.33
980.185	2807.98
980.484	2800.52
980.784	2747.19
981.083	2795.32
981.382	2737.02
981.682	2780.18
981.981	2756.9
982.28	2717.36
982.579	2706.74
982.878	2706.74
983.177	2671.71
983.475	2636
983.774	2651.6
984.073	2645.04
984.372	2624.25
984.67	2662.67
984.969	2617.7
985.267	2642.33
985.566	2612.5
985.864	2558.94
986.162	2596.01
986.461	2540.41
986.759	2546.29
987.057	2527.98
987.355	2513.52
987.653	2492.73
987.951	2502
988.249	2450.7
988.547	2487.76
988.844	2456.8
989.142	2464.03
989.44	2461.09
989.737	2429
990.035	2403.92
990.332	2411.38
990.63	2413.64
990.927	2371.6
991.224	2378.16
991.521	2375.45
991.819	2339.06
992.116	2357.14
992.413	2372.51
992.71	2317.59
993.006	2306.3
993.303	2302.45
993.6	2313.53
993.897	2270.14
994.193	2261.1
994.49	2259.74
994.787	2264.94
995.083	2228.78
995.379	2226.98
995.676	2218.16
995.972	2226.52
996.268	2214.55
996.565	2181.78
996.861	2163.25
997.157	2175
997.453	2162.57
997.749	2145.85
998.044	2145.4
998.34	2116.7
998.636	2127.77
998.932	2106.07
999.227	2072.18
999.523	2022.46
999.818	2049.8
1000.114	2040.31
1000.409	2033.99
1000.704	2055.45
1001	1990.6
1001.295	1992.63
1001.59	2024.27
1001.885	1976.81
1002.18	2000.31
1002.475	1963.48
1002.77	1962.8
1003.065	1973.2
1003.359	1945.85
1003.654	1921.22
1003.949	1900.88
1004.243	1897.27
1004.538	1876.02
1004.832	1895.91
1005.127	1871.73
1005.421	1847.32
1005.715	1887.78
1006.009	1886.19
1006.304	1804.61
1006.598	1814.1
1006.892	1800.09
1007.186	1792.86
1007.48	1800.77
1007.773	1773.88
1008.067	1819.3
1008.361	1754.9
1008.655	1769.59
1008.948	1715.12
1009.242	1738.85
1009.535	1735.24
1009.829	1697.72
1010.122	1706.76
1010.415	1698.63
1010.708	1719.64
1011.001	1670.61
1011.295	1656.14
1011.588	1672.64
1011.881	1643.71
1012.173	1642.58
1012.466	1615.47
1012.759	1608.46
1013.052	1614.11
1013.344	1598.07
1013.637	1592.87
1013.93	1548.35
1014.222	1556.71
1014.514	1556.03
1014.807	1560.1
1015.099	1540.67
1015.391	1518.97
1015.683	1542.47
1015.976	1516.03
1016.268	1486.43
1016.56	1493.89
1016.851	1466.32
1017.143	1478.29
1017.435	1472.64
1017.727	1448.24
1018.018	1450.95
1018.31	1447.11
1018.602	1426.54
1018.893	1423.61
1019.185	1411.18
1019.476	1409.37
1019.767	1413.21
1020.058	1389.71
1020.35	1374.79
1020.641	1383.38
1020.932	1354
1021.223	1322.59
1021.514	1349.48
1021.804	1326.21
1022.095	1335.7
1022.386	1326.43
1022.677	1307.23
1022.967	1282.59
1023.258	1280.56
1023.548	1309.03
1023.839	1259.32
1024.129	1271.07
1024.419	1224.74
1024.709	1239.66
1025	1236.27
1025.29	1240.56
1025.58	1211.63
1025.87	1209.15
1026.16	1206.44
1026.449	1212.54
1026.739	1198.98
1027.029	1185.65
1027.319	1132.31
1027.608	1176.38
1027.898	1169.38
1028.187	1160.56
1028.477	1179.77
1028.766	1144.97
1029.055	1184.29
1029.344	1144.29
1029.634	1136.61
1029.923	1130.96
1030.212	1118.53
1030.501	1138.64
1030.79	1105.42
1031.078	1081.92
1031.367	1110.62
1031.656	1073.56
1031.945	1066.78
1032.233	1060
1032.522	1081.02
1032.81	1055.93
1033.099	1050.74
1033.387	1040.11
1033.675	1017.29
1033.963	1024.3
1034.251	1050.51
1034.54	1015.93
1034.828	1021.81
1035.116	990.4
1035.403	997.4
1035.691	988.82
1035.979	965.77
1036.267	978.65
1036.554	972.77
1036.842	945.88
1037.129	948.59
1037.417	955.14
1037.704	934.35
1037.992	948.59
1038.279	944.52
1038.566	911.3
1038.853	911.3
1039.14	911.3
