Data from hue_70_FLMS001491_99.txt Node
Date: Mon Feb 06 15:21:47 GMT 2017
User: dcchb
Spectrometer: FLMS00149
Trigger mode: 0
Integration Time (sec): 2.000000E-2
Scans to average: 10
Electric dark correction enabled: true
Nonlinearity correction enabled: false
Boxcar width: 0
XAxis mode: Wavelengths
Number of Pixels in Spectrum: 2048
>>>>>Begin Spectral Data<<<<<
341.393	-26.36
341.776	-26.36
342.16	-26.36
342.543	-52.12
342.927	-57.54
343.31	-67.26
343.693	-65.45
344.077	-72.23
344.46	-47.82
344.843	-53.47
345.226	-46.47
345.61	-32.68
345.993	-24.32
346.376	-4.89
346.759	19.07
347.142	15.68
347.525	46.64
347.908	69.01
348.291	57.03
348.674	90.7
349.057	116.47
349.44	142.45
349.823	150.36
350.206	184.26
350.588	186.07
350.971	215.67
351.354	236.46
351.737	220.87
352.119	239.85
352.502	264.26
352.884	259.06
353.267	300.42
353.65	293.41
354.032	307.65
354.414	313.07
354.797	323.69
355.179	310.36
355.562	337.48
355.944	309.68
356.326	347.42
356.709	342
357.091	333.86
357.473	358.04
357.855	325.5
358.238	344.93
358.62	338.15
359.002	332.05
359.384	363.24
359.766	332.05
360.148	325.05
360.53	338.38
360.912	334.31
361.294	326.63
361.676	336.35
362.057	341.09
362.439	323.47
362.821	330.92
363.203	329.57
363.584	333.64
363.966	324.6
364.348	317.82
364.729	336.35
365.111	325.95
365.493	322.56
365.874	312.62
366.256	304.94
366.637	318.95
367.019	312.39
367.4	335.67
367.781	318.95
368.163	291.38
368.544	309.91
368.925	317.82
369.306	322.34
369.688	317.14
370.069	314.88
370.45	305.61
370.831	309.23
371.212	323.69
371.593	326.18
371.974	304.94
372.355	311.49
372.736	320.53
373.117	297.48
373.498	316.46
373.879	304.48
374.26	313.97
374.641	322.11
375.021	312.39
375.402	313.52
375.783	321.43
376.163	326.86
376.544	314.43
376.925	332.73
377.305	313.07
377.686	325.73
378.066	325.95
378.447	331.15
378.827	337.25
379.208	320.75
379.588	325.27
379.968	313.07
380.349	330.25
380.729	327.76
381.109	352.84
381.489	337.03
381.87	333.64
382.25	337.48
382.63	335.22
383.01	342.9
383.39	342.45
383.77	339.96
384.15	339.74
384.53	331.38
384.91	345.84
385.29	321.88
385.67	345.16
386.049	353.52
386.429	340.41
386.809	344.03
387.189	344.71
387.568	350.13
387.948	321.43
388.328	356.91
388.707	358.04
389.087	331.15
389.466	357.14
389.846	368.44
390.225	361.66
390.605	363.47
390.984	352.62
391.363	360.53
391.743	344.93
392.122	366.85
392.501	356.23
392.881	359.17
393.26	365.27
393.639	363.69
394.018	369.11
394.397	380.19
394.776	363.01
395.155	366.85
395.534	363.24
395.913	373.63
396.292	367.08
396.671	396.46
397.05	382.22
397.429	379.06
397.808	396.23
398.186	372.05
398.565	370.92
398.944	378.83
399.323	396.46
399.701	386.29
400.08	398.27
400.458	401.2
400.837	398.94
401.215	403.92
401.594	394.88
401.972	390.81
402.351	391.49
402.729	373.86
403.107	402.56
403.486	389.68
403.864	398.94
404.242	386.29
404.62	408.89
404.999	400.75
405.377	411.37
405.755	389.45
406.133	404.37
406.511	421.99
406.889	432.16
407.267	423.35
407.645	417.25
408.023	410.47
408.401	410.92
408.779	420.19
409.156	431.26
409.534	442.33
409.912	431.71
410.29	415.89
410.667	441.43
411.045	428.32
411.422	431.26
411.8	408.66
412.178	444.59
412.555	441.66
412.933	458.6
413.31	453.86
413.687	427.42
414.065	474.65
414.442	461.99
414.819	472.16
415.197	478.94
415.574	453.86
415.951	459.06
416.328	480.07
416.705	463.58
417.082	470.35
417.46	495.89
417.837	493.86
418.214	482.56
418.591	502.22
418.967	488.21
419.344	511.48
419.721	499.05
420.098	509.22
420.475	529.34
420.852	481.88
421.228	505.61
421.605	521.43
421.982	501.99
422.358	494.76
422.735	505.83
423.111	537.47
423.488	551.71
423.864	521.65
424.241	541.54
424.617	534.99
424.994	546.29
425.37	549.67
425.746	549.22
426.123	562.33
426.499	549.22
426.875	556.91
427.251	573.4
427.627	564.14
428.003	573.63
428.379	572.05
428.756	583.8
429.132	573.18
429.507	583.57
429.883	584.7
430.259	595.1
430.635	576.34
431.011	585.61
431.387	600.52
431.763	609.79
432.138	620.63
432.514	598.94
432.89	619.28
433.265	616.34
433.641	631.03
434.016	610.92
434.392	622.22
434.767	639.16
435.143	642.78
435.518	666.06
435.894	660.41
436.269	663.12
436.644	652.72
437.02	664.7
437.395	692.5
437.77	667.86
438.145	709.22
438.52	713.06
438.895	663.57
439.271	697.92
439.646	693.4
440.021	691.14
440.395	720.29
440.77	726.62
441.145	697.47
441.52	691.82
441.895	729.11
442.27	734.3
442.645	736.79
443.019	755.77
443.394	738.82
443.769	720.07
444.143	740.4
444.518	744.92
444.892	768.65
445.267	755.55
445.641	766.62
446.016	749.67
446.39	777.24
446.764	769.1
447.139	766.39
447.513	783.79
447.887	784.02
448.262	797.35
448.636	776.79
449.01	803.91
449.384	821.31
449.758	829.89
450.132	829.22
450.506	830.57
450.88	815.66
451.254	830.8
451.628	845.26
452.002	860.63
452.376	846.62
452.75	877.12
453.123	857.24
453.497	874.86
453.871	882.32
454.244	905.82
454.618	899.5
454.992	902.89
455.365	899.04
455.739	927.74
456.112	927.52
456.486	939.95
456.859	936.33
457.232	955.09
457.606	948.76
457.979	968.42
458.352	973.62
458.725	991.92
459.099	1005.93
459.472	1035.31
459.845	1007.29
460.218	1030.34
460.591	1029.21
460.964	1063.79
461.337	1082.77
461.71	1059.27
462.083	1106.72
462.456	1104.01
462.829	1111.24
463.201	1131.13
463.574	1129.55
463.947	1112.15
464.32	1155.53
464.692	1196.21
465.065	1209.54
465.438	1205.93
465.81	1212.03
466.183	1229.88
466.555	1261.07
466.928	1284.34
467.3	1279.15
467.672	1305.14
468.045	1353.27
468.417	1351.01
468.789	1385.59
469.161	1381.29
469.534	1398.47
469.906	1467.39
470.278	1458.58
470.65	1470.33
471.022	1520.04
471.394	1539.03
471.766	1581.29
472.138	1605.47
472.51	1632.13
472.882	1690.21
473.253	1708.29
473.625	1734.95
473.997	1796.65
474.369	1777.67
474.74	1830.09
475.112	1924.1
475.484	1939.02
475.855	1986.7
476.227	2009.75
476.598	2058.34
476.97	2134.72
477.341	2158.22
477.713	2246.35
478.084	2253.58
478.455	2336.75
478.827	2428.04
479.198	2456.74
479.569	2555.95
479.94	2584.65
480.311	2700.13
480.682	2747.13
481.053	2879.56
481.424	2923.17
481.795	2986.45
482.166	3082.26
482.537	3141.92
482.908	3272.54
483.279	3317.06
483.65	3419.2
484.021	3549.14
484.391	3629.59
484.762	3723.38
485.133	3830.27
485.503	3913.88
485.874	4042.01
486.244	4128.34
486.615	4261.22
486.985	4362.91
487.356	4464.83
487.726	4611.04
488.097	4766.74
488.467	4862.1
488.837	4995.66
489.207	5137.35
489.578	5248.99
489.948	5405.82
490.318	5553.61
490.688	5571.01
491.058	5759.03
491.428	5946.37
491.798	6030.43
492.168	6209.64
492.538	6336.87
492.908	6507.03
493.278	6651.66
493.648	6723.98
494.017	6920.13
494.387	7037.87
494.757	7224.98
495.126	7288.48
495.496	7420.23
495.866	7559.66
496.235	7780.45
496.605	7878.75
496.974	8007.11
497.344	8150.83
497.713	8206.42
498.082	8419.07
498.452	8493.87
498.821	8650.48
499.19	8758.05
499.559	8933.18
499.928	9084.37
500.298	9197.13
500.667	9305.15
501.036	9398.03
501.405	9556.44
501.774	9645.25
502.143	9842.54
502.512	9949.43
502.88	10067.84
503.249	10151.23
503.618	10312.13
503.987	10385.12
504.356	10480.49
504.724	10587.15
505.093	10664.66
505.462	10819.91
505.83	10940.81
506.199	11076.63
506.567	11271.65
506.936	11301.71
507.304	11549.16
507.672	11546
508.041	11725.43
508.409	11839.55
508.777	11880.9
509.145	11991.18
509.514	12047.23
509.882	12256.71
510.25	12304.62
510.618	12457.84
510.986	12524.95
511.354	12717.04
511.722	12751.16
512.09	12976.01
512.458	12870.03
512.826	13059.4
513.193	13132.17
513.561	13283.8
513.929	13279.51
514.297	13500.52
514.664	13623.46
515.032	13648.77
515.4	13690.35
515.767	13857.8
516.135	14011.24
516.502	13916.33
516.869	14098.7
517.237	14220.73
517.604	14220.95
517.972	14389.54
518.339	14545.92
518.706	14478.57
519.073	14620.04
519.44	14726.25
519.808	14857.1
520.175	14843.54
520.542	15081.04
520.909	15092.12
521.276	15083.76
521.643	15248.72
522.009	15409.4
522.376	15528.26
522.743	15566
523.11	15748.37
523.477	15851.42
523.843	15974.13
524.21	15987.91
524.577	16125.76
524.943	16150.17
525.31	16207.79
525.676	16412.31
526.043	16409.37
526.409	16543.6
526.776	16712.87
527.142	16780.21
527.508	16891.84
527.874	16924.61
528.241	17035.8
528.607	17090.71
528.973	17201.44
529.339	17179.52
529.705	17412.51
530.071	17446.86
530.437	17459.74
530.803	17539.06
531.169	17659.28
531.535	17645.27
531.901	17650.69
532.267	17714.42
532.632	17788.09
532.998	17881.42
533.364	17990.8
533.73	17933.62
534.095	18124.58
534.461	18048.42
534.826	18132.49
535.192	18237.12
535.557	18324.35
535.923	18308.08
536.288	18248.42
536.653	18328.64
537.019	18251.58
537.384	18296.55
537.749	18383.78
538.114	18470.56
538.479	18403.22
538.845	18580.39
539.21	18460.62
539.575	18527.28
539.94	18617.9
540.305	18622.87
540.67	18655.87
541.034	18659.71
541.399	18751.91
541.764	18709.2
542.129	18790.1
542.494	18864
542.858	18859.7
543.223	18813.15
543.587	19016.76
543.952	18820.61
544.316	18876.42
544.681	18858.12
545.045	18911.68
545.41	18946.71
545.774	18973.6
546.138	18972.47
546.503	19012.92
546.867	18976.31
547.231	19057.66
547.595	19071
547.959	19078
548.324	19104.22
548.688	19108.51
549.052	19141.05
549.416	19070.09
549.779	19142.18
550.143	19155.51
550.507	19314.38
550.871	19299.92
551.235	19321.61
551.599	19383.08
551.962	19281.61
552.326	19407.48
552.689	19503.3
553.053	19411.78
553.417	19370.2
553.78	19720.47
554.143	19434.38
554.507	19598.44
554.87	19581.49
555.234	19717.31
555.597	19609.74
555.96	19600.93
556.323	19857.64
556.686	19665.1
557.05	19872.78
557.413	19865.1
557.776	19897.64
558.139	19987.81
558.502	19955.04
558.865	20014.02
559.228	20078.43
559.59	20216.05
559.953	20248.37
560.316	20358.87
560.679	20330.85
561.041	20463.73
561.404	20480.68
561.767	20502.82
562.129	20454.69
562.492	20666.66
562.854	20682.25
563.217	20651.75
563.579	20696.49
563.941	20757.96
564.304	20882.02
564.666	21012.19
565.028	20997.72
565.39	21092.64
565.753	21084.05
566.115	21038.85
566.477	21299.86
566.839	21224.61
567.201	21455.57
567.563	21322.24
567.925	21450.14
568.287	21460.99
568.648	21507.32
569.01	21620.99
569.372	21678.38
569.734	21618.27
570.095	21772.62
570.457	21973.52
570.819	21814.65
571.18	21955.21
571.542	21968.77
571.903	22030.47
572.265	22049
572.626	22157.47
572.987	22064.36
573.349	22183.46
573.71	22299.16
574.071	22326.28
574.432	22337.35
574.794	22480.85
575.155	22409.89
575.516	22418.25
575.877	22480.4
576.238	22513.39
576.599	22563.79
576.96	22556.78
577.32	22597.91
577.681	22711.13
578.042	22707.51
578.403	22761.97
578.763	22711.58
579.124	22736.66
579.485	22726.49
579.845	22928.97
580.206	22745.48
580.566	22793.38
580.927	22815.3
581.287	22868.86
581.648	22829.99
582.008	22969.65
582.368	22877
582.728	22838.81
583.089	22884
583.449	22869.99
583.809	22882.65
584.169	22941.4
584.529	22902.08
584.889	23044
585.249	22861.4
585.609	22818.92
585.969	23046.03
586.329	22991.57
586.688	22884.45
587.048	22933.04
587.408	22983.21
587.768	22941.4
588.127	22904.12
588.487	22865.02
588.846	23082.64
589.206	22786.83
589.565	22888.07
589.925	22939.37
590.284	22967.16
590.643	22976.88
591.003	23010.78
591.362	23093.49
591.721	22902.08
592.08	22990.21
592.44	23099.14
592.799	22896.21
593.158	23003.77
593.517	22971.68
593.876	23060.5
594.235	22973.04
594.593	23002.42
594.952	23053.94
595.311	22890.1
595.67	22974.4
596.029	23130.78
596.387	23220.04
596.746	23140.95
597.104	23038.8
597.463	23002.87
597.822	22948.63
598.18	22921.52
598.538	23024.79
598.897	23168.74
599.255	22930.78
599.613	23311.34
599.972	22993.6
600.33	23109.31
600.688	23194.5
601.046	23186.82
601.404	23320.6
601.762	23164.45
602.12	23380.26
602.478	23223.88
602.836	23261.17
603.194	23107.05
603.552	23186.37
603.91	23163.32
604.268	23318.34
604.625	23124.22
604.983	23268.4
605.341	23111.57
605.698	23311.79
606.056	23404.89
606.413	23344.33
606.771	23536.19
607.128	23410.77
607.485	23513.14
607.843	23413.48
608.2	23458
608.557	23571.22
608.914	23427.94
609.272	23576.19
609.629	23631.33
609.986	23678.11
610.343	23558.79
610.7	23760.36
611.057	23647.15
611.414	23840.36
611.771	23731.21
612.127	23901.6
612.484	23844.66
612.841	23939.12
613.198	23707.26
613.554	23891.43
613.911	24042.84
614.267	23956.52
614.624	24012.33
614.98	23991.32
615.337	24203.06
615.693	24130.3
616.05	24146.57
616.406	24182.27
616.762	24111.99
617.118	24165.55
617.475	24165.33
617.831	24242.39
618.187	24250.52
618.543	24327.35
618.899	24473.34
619.255	24437.41
619.611	24309.28
619.967	24405.77
620.323	24430.4
620.678	24359.22
621.034	24385.88
621.39	24428.14
621.746	24363.51
622.101	24660.45
622.457	24453
622.812	24603.28
623.168	24571.87
623.523	24486.22
623.879	24692.09
624.234	24472.66
624.589	24464.75
624.945	24566.22
625.3	24598.53
625.655	24608.48
626.01	24628.14
626.365	24652.77
626.72	24556.73
627.075	24594.01
627.43	24512.43
627.785	24556.95
628.14	24629.27
628.495	24742.26
628.85	24675.59
629.205	24580.68
629.559	24741.36
629.914	24490.51
630.269	24607.8
630.623	24484.19
630.978	24431.98
631.332	24646.89
631.687	24626.1
632.041	24562.38
632.396	24604.41
632.75	24382.95
633.104	24457.52
633.459	24337.98
633.813	24407.13
634.167	24422.49
634.521	24403.74
634.875	24363.06
635.229	24381.14
635.583	24240.58
635.937	24188.83
636.291	24231.09
636.645	24164.2
636.999	24151.99
637.352	24136.85
637.706	24019.11
638.06	24201.03
638.413	24069.96
638.767	24071.99
639.121	24087.81
639.474	23986.35
639.828	23876.29
640.181	24028.38
640.534	24164.87
640.888	24008.94
641.241	23883.98
641.594	23966.69
641.947	23955.84
642.301	23962.17
642.654	23983.86
643.007	23931.43
643.36	23984.09
643.713	23811.66
644.066	23964.2
644.419	23757.2
644.771	23654.83
645.124	23470.88
645.477	23286.7
645.83	23264.78
646.182	23103.21
646.535	23118.12
646.888	23182.98
647.24	23044.9
647.593	23172.81
647.945	23172.13
648.298	23053.94
648.65	23006.71
649.002	22877.9
649.355	22950.22
649.707	23045.58
650.059	23119.02
650.411	23250.09
650.763	23362.18
651.115	23649.86
651.467	23579.58
651.819	23555.4
652.171	23535.74
652.523	23481.95
652.875	23393.14
653.227	23456.64
653.578	23516.3
653.93	23517.43
654.282	23461.16
654.633	23393.37
654.985	23412.35
655.337	23435.4
655.688	23434.04
656.039	23442.18
656.391	23368.28
656.742	23345.91
657.094	23281.51
657.445	23435.85
657.796	23429.75
658.147	23346.14
658.498	23356.98
658.849	23363.31
659.2	23372.13
659.551	23314.05
659.902	23398.11
660.253	23303.43
660.604	23403.76
660.955	23232.92
661.306	23420.03
661.656	23395.18
662.007	23370.77
662.358	23388.4
662.708	23363.76
663.059	23245.58
663.409	23205.35
663.76	23307.95
664.11	23312.24
664.461	23392.46
664.811	23386.81
665.161	23387.72
665.511	23300.04
665.862	23381.16
666.212	23430.66
666.562	23490.54
666.912	23347.04
667.262	23397.44
667.612	23446.25
667.962	23365.8
668.312	23375.97
668.662	23409.86
669.011	23420.03
669.361	23271.34
669.711	23318.34
670.06	23288.06
670.41	23341.17
670.76	23279.92
671.109	23354.05
671.459	23325.8
671.808	23249.42
672.157	23306.14
672.507	23195.63
672.856	23075.64
673.205	23217.78
673.554	23300.49
673.904	23036.32
674.253	23225.01
674.602	23069.08
674.951	22796.55
675.3	22666.16
675.649	23173.49
675.998	23115.18
676.346	23049.65
676.695	23210.77
677.044	22872.03
677.393	22994.96
677.741	22999.71
678.09	22971.46
678.438	22861.86
678.787	22975.75
679.135	22982.98
679.484	22735.08
679.832	22965.81
680.181	22747.51
680.529	22793.84
680.877	22707.96
681.225	22677.91
681.573	22853.27
681.922	22706.83
682.27	22561.3
682.618	22695.76
682.966	22473.39
683.314	22629.09
683.661	22521.98
684.009	22425.03
684.357	22415.99
684.705	22351.59
685.053	22305.03
685.4	22267.07
685.748	22217.35
686.095	22108.66
686.443	22067.3
686.79	22004.7
687.138	22129.45
687.485	22039.28
687.832	21842.22
688.18	21970.13
688.527	21801.32
688.874	21779.85
689.221	21808.55
689.568	21687.42
689.915	21539.41
690.262	21606.07
690.609	21490.82
690.956	21612.62
691.303	21448.33
691.65	21393.87
691.997	21221.45
692.344	21141.68
692.69	21117.04
693.037	21123.82
693.383	21011.06
693.73	21070.04
694.077	20994.79
694.423	20882.93
694.769	20842.47
695.116	20870.95
695.462	20733.32
695.808	20773.1
696.155	20663.27
696.501	20536.04
696.847	20479.32
697.193	20351.64
697.539	20451.07
697.885	20371.53
698.231	20304.18
698.577	20243.62
698.923	20260.79
699.269	20197.75
699.614	20000.24
699.96	19916.17
700.306	19996.62
700.651	19789.85
700.997	19744.2
701.342	19702.17
701.688	19750.75
702.033	19682.05
702.379	19572.23
702.724	19511.44
703.069	19550.31
703.415	19275.28
703.76	19336.75
704.105	19256.75
704.45	19200.03
704.795	19030.77
705.14	19132.24
705.485	19076.87
705.83	19007.95
706.175	18995.29
706.52	18892.7
706.865	18837.33
707.209	18726.15
707.554	18728.86
707.899	18775.18
708.243	18635.3
708.588	18568.86
708.932	18442.76
709.277	18447.28
709.621	18372.71
709.966	18267.4
710.31	18314.86
710.654	18285.48
710.998	18236.89
711.342	18270.56
711.687	18135.43
712.031	18079.84
712.375	18040.74
712.719	18060.85
713.063	18085.71
713.407	18153.96
713.75	17953.96
714.094	17916.68
714.438	17837.58
714.782	17911.7
715.125	17824.93
715.469	17804.59
715.812	17653.86
716.156	17658.38
716.499	17679.39
716.843	17658.83
717.186	17501.09
717.53	17741.09
717.873	17634.42
718.216	17490.7
718.559	17532.51
718.902	17422
719.246	17392.17
719.589	17363.92
719.932	17230.14
720.275	17262.46
720.617	17401.66
720.96	17266.3
721.303	17324.15
721.646	17302.23
721.989	17198.28
722.331	17155.11
722.674	17171.61
723.016	17162.12
723.359	17070.14
723.701	17076.02
724.044	17019.3
724.386	16918.51
724.729	17003.03
725.071	16919.19
725.413	16902.69
725.755	16881
726.097	16791.28
726.439	16805.52
726.782	16845.74
727.124	16828.57
727.465	16748.8
727.807	16767.55
728.149	16804.84
728.491	16739.98
728.833	16759.64
729.175	16655.92
729.516	16715.8
729.858	16774.33
730.199	16804.61
730.541	16636.94
730.882	16655.92
731.224	16657.05
731.565	16516.71
731.906	16637.61
732.248	16634
732.589	16469.48
732.93	16398.3
733.271	16463.38
733.612	16525.75
733.953	16496.83
734.294	16467.9
734.635	16417.96
734.976	16488.01
735.317	16430.84
735.658	16456.83
735.999	16518.29
736.339	16440.56
736.68	16462.25
737.021	16365.08
737.361	16348.36
737.702	16477.39
738.042	16370.5
738.383	16457.96
738.723	16445.08
739.063	16396.94
739.404	16449.14
739.744	16388.81
740.084	16362.37
740.424	16350.62
740.764	16383.61
741.104	16422.03
741.444	16339.09
741.784	16334.57
742.124	16446.88
742.464	16420.22
742.804	16375.25
743.143	16430.84
743.483	16356.72
743.823	16301.35
744.162	16380.22
744.502	16410.95
744.841	16409.14
745.181	16478.07
745.52	16434.91
745.86	16444.17
746.199	16431.52
746.538	16438.3
746.877	16519.2
747.216	16583.38
747.556	16603.26
747.895	16709.7
748.234	16612.3
748.573	16638.29
748.911	16610.04
749.25	16728.46
749.589	16815.91
749.928	16756.48
750.267	16834.9
750.605	16826.53
750.944	16882.13
751.283	16826.08
751.621	17014.78
751.96	17005.29
752.298	17085.06
752.636	17175
752.975	17142.23
753.313	17130.26
753.651	17297.71
753.989	17229.69
754.327	17304.04
754.666	17375
755.004	17489.79
755.342	17523.47
755.679	17528.21
756.017	17598.94
756.355	17654.08
756.693	17732.5
757.031	17876.68
757.368	17839.62
757.706	17840.75
758.044	17967.3
758.381	17996.9
758.719	18079.38
759.056	18139.49
759.394	18223.56
759.731	18293.84
760.068	18353.27
760.405	18308.3
760.743	18355.76
761.08	18577.9
761.417	18447.74
761.754	18525.47
762.091	18534.74
762.428	18643.89
762.765	18548.07
763.102	18735.41
763.438	18723.89
763.775	18767.95
764.112	18933.37
764.449	19000.94
764.785	18961.62
765.122	18882.53
765.458	18902.86
765.795	19003.88
766.131	18988.96
766.467	19065.8
766.804	18986.03
767.14	18943.09
767.476	19078.91
767.812	19000.94
768.148	19133.59
768.485	18997.55
768.821	18955.29
769.157	19167.72
769.492	19120.71
769.828	19071.22
770.164	18893.6
770.5	18882.3
770.836	18943.32
771.171	18933.15
771.507	19017.89
771.842	18859.25
772.178	18950.32
772.513	18825.58
772.849	18894.5
773.184	18793.94
773.519	18835.97
773.855	18821.96
774.19	18761.4
774.525	18772.25
774.86	18745.81
775.195	18766.6
775.53	18736.09
775.865	18610.67
776.2	18504.91
776.535	18400.73
776.87	18465.81
777.205	18473.95
777.539	18341.07
777.874	18380.84
778.209	18311.92
778.543	18257.91
778.878	18302.43
779.212	18175.43
779.547	18127.07
779.881	18150.79
780.215	18106.28
780.55	18141.98
780.884	17980.18
781.218	18012.49
781.552	17961.65
781.886	17950.35
782.22	17783.8
782.554	17698.38
782.888	17625.38
783.222	17543.13
783.556	17605.05
783.889	17468.55
784.223	17382
784.557	17377.03
784.89	17373.19
785.224	17289.12
785.557	17287.09
785.891	17218.62
786.224	17168.67
786.558	17209.12
786.891	17066.98
787.224	16961.67
787.557	16961.9
787.891	16908.11
788.224	16890.26
788.557	16790.83
788.89	16797.38
789.223	16757.16
789.556	16643.26
789.888	16615.47
790.221	16563.27
790.554	16416.15
790.887	16486.2
791.219	16414.57
791.552	16361.91
791.884	16308.13
792.217	16316.49
792.549	16264.74
792.882	16114.92
793.214	16022.26
793.546	16066.33
793.879	16045.99
794.211	15914.02
794.543	16050.74
794.875	15892.55
795.207	15912.66
795.539	15798.54
795.871	15821.36
796.203	15699.56
796.535	15580.47
796.867	15565.1
797.198	15537.08
797.53	15450.53
797.862	15407.82
798.193	15456.85
798.525	15337.53
798.856	15403.52
799.188	15251.21
799.519	15242.62
799.85	15090.31
800.182	15136.18
800.513	15124.66
800.844	14940.71
801.175	15004.21
801.506	14998.79
801.837	14928.73
802.168	14816.19
802.499	14785.68
802.83	14792.92
803.161	14663.88
803.491	14741.17
803.822	14734.84
804.153	14658.23
804.483	14507.5
804.814	14482.19
805.145	14541.62
805.475	14500.72
805.805	14420.5
806.136	14394.51
806.466	14307.05
806.796	14370.78
807.126	14201.75
807.457	14132.82
807.787	14209.43
808.117	14069.77
808.447	14152.48
808.777	14088.08
809.107	14004.46
809.436	14008.3
809.766	13943.9
810.096	13936.22
810.426	13873.17
810.755	13848.99
811.085	13842.21
811.414	13805.15
811.744	13715.88
812.073	13641.76
812.403	13688.31
812.732	13524.7
813.061	13651.03
813.39	13532.61
813.719	13536.68
814.049	13649.44
814.378	13510.01
814.707	13444.48
815.036	13413.07
815.365	13344.37
815.693	13257.36
816.022	13294.42
816.351	13260.98
816.68	13234.54
817.008	13261.66
817.337	13098.95
817.665	13070.02
817.994	13078.61
818.322	13091.27
818.651	13043.58
818.979	12922.91
819.307	13053.07
819.636	13029.57
819.964	12941.21
820.292	12872.74
820.62	12973.53
820.948	12912.97
821.276	12922
821.604	12743.25
821.932	12922.68
822.259	12857.6
822.587	12844.27
822.915	12857.15
823.243	12907.09
823.57	12808.56
823.898	12819.86
824.225	12771.95
824.553	12786.42
824.88	12830.93
825.207	12936.24
825.535	12787.09
825.862	12794.1
826.189	12803.59
826.516	12810.37
826.843	12886.98
827.17	12748
827.497	12857.6
827.824	12853.53
828.151	12809.92
828.478	12841.33
828.805	12852.85
829.131	12830.26
829.458	12781.44
829.785	12705.06
830.111	12733.31
830.438	12875.9
830.764	12800.65
831.09	12741.22
831.417	12658.28
831.743	12686.76
832.069	12771.05
832.395	12669.36
832.722	12776.02
833.048	12747.09
833.374	12756.13
833.7	12680.2
834.026	12648.57
834.351	12688.11
834.677	12678.85
835.003	12691.73
835.329	12676.36
835.654	12683.14
835.98	12583.48
836.306	12562.47
836.631	12562.24
836.956	12633.42
837.282	12506.65
837.607	12417.84
837.932	12461.45
838.258	12426.65
838.583	12405.41
838.908	12412.87
839.233	12412.41
839.558	12376.03
839.883	12355.24
840.208	12271.85
840.533	12308.01
840.858	12329.25
841.182	12279.54
841.507	12241.34
841.832	12227.56
842.156	12196.6
842.481	12143.49
842.805	12093.55
843.13	12008.58
843.454	12116.83
843.778	11973.78
844.103	12058.75
844.427	11953.89
844.751	11968.81
845.075	11923.16
845.399	11908.47
845.723	11911.41
846.047	11959.77
846.371	11750.51
846.695	11787.8
847.019	11637.97
847.343	11576.28
847.666	11598.2
847.99	11518.2
848.313	11511.19
848.637	11482.04
848.96	11433
849.284	11440.91
849.607	11308.94
849.931	11293.57
850.254	11201.6
850.577	11118.89
850.9	11067.82
851.223	11049.74
851.546	11012.9
851.869	10963.41
852.192	11002.28
852.515	10837.54
852.838	10892.45
853.161	10874.38
853.483	10734.49
853.806	10788.73
854.129	10736.07
854.451	10648.62
854.774	10706.02
855.096	10647.94
855.419	10572.91
855.741	10575.63
856.063	10406.36
856.385	10485.91
856.708	10427.38
857.03	10405.91
857.352	10383.77
857.674	10373.82
857.996	10367.04
858.318	10313.03
858.64	10263.09
858.961	10239.82
859.283	10202.3
859.605	10101.97
859.926	10155.3
860.248	10137.22
860.57	10084.34
860.891	10074.62
861.212	10010.22
861.534	10045.92
861.855	10021.97
862.176	10040.5
862.498	9998.24
862.819	10061.06
863.14	10001.86
863.461	9879.82
863.782	9863.33
864.103	9873.27
864.424	9852.03
864.745	9790.79
865.065	9832.14
865.386	9788.53
865.707	9787.4
866.027	9727.06
866.348	9788.75
866.668	9725.7
866.989	9697.46
867.309	9635.09
867.63	9700.17
867.95	9653.39
868.27	9666.72
868.59	9631.47
868.91	9593.73
869.23	9568.65
869.55	9567.06
869.87	9646.61
870.19	9552.15
870.51	9559.61
870.83	9553.51
871.15	9513.73
871.469	9515.99
871.789	9504.69
872.109	9480.51
872.428	9410.68
872.748	9475.77
873.067	9413.4
873.386	9431.93
873.706	9393.96
874.025	9359.61
874.344	9280.29
874.663	9380.86
874.982	9323.91
875.301	9288.88
875.62	9256.34
875.939	9238.26
876.258	9180.41
876.577	9220.86
876.896	9290.69
877.214	9198.26
877.533	9258.37
877.852	9134.76
878.17	9156.45
878.489	9050.47
878.807	9209.33
879.125	9125.95
879.444	9131.14
879.762	9060.19
880.08	9066.29
880.398	8971.15
880.716	9020.41
881.034	9025.84
881.352	9025.61
881.67	9049.79
881.988	8994.65
882.306	9020.86
882.624	8927.53
882.941	8853.41
883.259	8788.1
883.577	8856.12
883.894	8855.45
884.212	8833.98
884.529	8784.49
884.846	8816.12
885.164	8744.94
885.481	8718.95
885.798	8761.89
886.115	8656.81
886.432	8702.91
886.75	8611.84
887.067	8670.59
887.383	8588.33
887.7	8595.56
888.017	8592.18
888.334	8534.32
888.651	8477.6
888.967	8422.46
889.284	8485.06
889.6	8394.21
889.917	8382.46
890.233	8409.36
890.55	8427.43
890.866	8369.36
891.182	8339.53
891.498	8348.57
891.815	8323.03
892.131	8262.47
892.447	8168.46
892.763	8169.81
893.079	8184.28
893.395	8102.24
893.71	8167.1
894.026	8109.02
894.342	8123.49
894.657	8055.92
894.973	7964.4
895.289	8029.48
895.604	8018.4
895.92	7939.99
896.235	7947.45
896.55	7913.32
896.865	7874.45
897.181	7856.38
897.496	7862.7
897.811	7845.3
898.126	7756.94
898.441	7803.5
898.756	7745.64
899.071	7707.68
899.386	7713.1
899.7	7628.36
900.015	7636.49
900.33	7538.64
900.644	7576.38
900.959	7555.82
901.273	7463.84
901.588	7513.11
901.902	7435.37
902.216	7420
902.531	7414.13
902.845	7372.55
903.159	7333.45
903.473	7316.28
903.787	7303.85
904.101	7280.57
904.415	7195.38
904.729	7241.25
905.042	7108.6
905.356	7144.76
905.67	7110.63
905.984	7123.97
906.297	7163.74
906.611	7070.86
906.924	7033.8
907.237	7007.81
907.551	6981.6
907.864	6970.97
908.177	6961.48
908.491	6887.59
908.804	6891.43
909.117	6820.7
909.43	6723.98
909.743	6786.8
910.056	6794.26
910.368	6726.91
910.681	6688.27
910.994	6650.31
911.307	6630.19
911.619	6585.45
911.932	6639.23
912.244	6521.5
912.557	6587.03
912.869	6506.13
913.181	6526.47
913.494	6460.48
913.806	6437.2
914.118	6426.58
914.43	6333.7
914.742	6386.81
915.054	6348.62
915.366	6298.68
915.678	6262.07
915.99	6266.81
916.302	6195.63
916.613	6221.62
916.925	6173.26
917.236	6165.12
917.548	6182.52
917.859	6154.27
918.171	6054.16
918.482	6053.03
918.794	6015.07
919.105	6035.86
919.416	5965.8
919.727	5907.95
920.038	5949.31
920.349	5909.53
920.66	5833.38
920.971	5874.73
921.282	5854.17
921.593	5787.28
921.903	5733.49
922.214	5763.32
922.525	5742.31
922.835	5730.56
923.146	5651.91
923.456	5634.51
923.767	5642.42
924.077	5612.37
924.387	5535.98
924.697	5607.17
925.008	5560.39
925.318	5546.38
925.628	5528.53
925.938	5503.89
926.248	5419.15
926.558	5420.96
926.867	5414.41
927.177	5390.45
927.487	5357.23
927.796	5381.19
928.106	5331.7
928.416	5324.24
928.725	5246.73
929.034	5275.43
929.344	5277.01
929.653	5230.46
929.962	5163.11
930.271	5150.46
930.581	5128.54
930.89	5167.18
931.199	5084.7
931.508	5086.05
931.817	5027.75
932.125	5063.45
932.434	4988.43
932.743	5007.41
933.051	5004.92
933.36	4979.84
933.669	4925.6
933.977	4912.72
934.286	4884.48
934.594	4885.15
934.902	4846.51
935.21	4825.72
935.519	4815.1
935.827	4785.27
936.135	4769
936.443	4749.79
936.751	4732.39
937.059	4711.37
937.367	4679.51
937.674	4666.63
937.982	4678.15
938.29	4589.79
938.597	4616.23
938.905	4587.08
939.213	4582.56
939.52	4517.48
939.827	4549.8
940.135	4536.01
940.442	4475.45
940.749	4502.57
941.056	4482.23
941.363	4468.89
941.67	4400.65
941.977	4388.67
942.284	4436.13
942.591	4363.59
942.898	4324.72
943.205	4336.02
943.511	4358.39
943.818	4285.4
944.125	4268.22
944.431	4286.75
944.738	4253.31
945.044	4227.09
945.35	4229.8
945.657	4212.18
945.963	4159.52
946.269	4143.48
946.575	4094.21
946.881	4113.42
947.187	4138.73
947.493	4102.8
947.799	4099.41
948.105	4027.32
948.41	4026.42
948.716	4002.69
949.022	4021.9
949.327	3980.09
949.633	3932.41
949.938	3955.01
950.244	3930.15
950.549	3953.43
950.854	3858.97
951.16	3889.93
951.465	3870.72
951.77	3833.2
952.075	3824.16
952.38	3801.57
952.685	3865.97
952.99	3794.79
953.294	3759.08
953.599	3732.87
953.904	3726.31
954.209	3702.13
954.513	3717.5
954.818	3685.64
955.122	3672.76
955.426	3642.02
955.731	3629.82
956.035	3635.02
956.339	3612.42
956.643	3571.06
956.948	3525.19
957.252	3539.65
957.556	3555.92
957.86	3498.3
958.163	3496.94
958.467	3481.12
958.771	3471.86
959.075	3478.86
959.378	3430.28
959.682	3423.27
959.985	3416.04
960.289	3424.4
960.592	3414.91
960.896	3385.76
961.199	3311.64
961.502	3335.59
961.805	3374.91
962.108	3283.16
962.411	3291.07
962.714	3267.57
963.017	3287.46
963.32	3275.48
963.623	3244.75
963.926	3273.22
964.228	3237.74
964.531	3209.72
964.833	3223.28
965.136	3189.83
965.438	3130.62
965.741	3123.17
966.043	3159.1
966.345	3153.22
966.648	3089.27
966.95	3128.59
967.252	3094.47
967.554	3054.02
967.856	3053.79
968.158	3041.13
968.46	3030.06
968.761	3011.53
969.063	3039.33
969.365	3004.07
969.666	3014.47
969.968	2985.99
970.269	2983.74
970.571	2959.33
970.872	2940.35
971.174	2900.57
971.475	2940.8
971.776	2905.32
972.077	2881.36
972.378	2869.84
972.679	2871.42
972.98	2903.51
973.281	2866.9
973.582	2841.37
973.883	2831.2
974.183	2803.63
974.484	2825.1
974.785	2807.69
975.085	2793.68
975.386	2762.27
975.686	2752.1
975.986	2712.1
976.287	2735.15
976.587	2680.24
976.887	2708.71
977.187	2666.23
977.487	2672.56
977.787	2666.68
978.087	2679.34
978.387	2644.76
978.687	2644.76
978.987	2619.68
979.286	2598.89
979.586	2606.12
979.885	2562.96
980.185	2565.67
980.484	2564.54
980.784	2542.84
981.083	2531.54
981.382	2502.62
981.682	2516.63
981.981	2499.91
982.28	2508.95
982.579	2477.08
982.878	2493.58
983.177	2436.63
983.475	2467.14
983.774	2390.3
984.073	2399.12
984.372	2422.62
984.67	2408.16
984.969	2385.78
985.267	2391.21
985.566	2366.12
985.864	2363.64
986.162	2347.37
986.461	2340.14
986.759	2303.08
987.057	2280.25
987.355	2300.82
987.653	2291.32
987.951	2292
988.249	2259.91
988.547	2254.04
988.844	2261.72
989.142	2267.82
989.44	2254.94
989.737	2241.83
990.035	2248.16
990.332	2229.86
990.63	2200.25
990.927	2189.18
991.224	2178.33
991.521	2148.5
991.819	2148.05
992.116	2133.36
992.413	2152.8
992.71	2124.32
993.006	2104.21
993.303	2122.06
993.6	2147.15
993.897	2070.54
994.193	2100.82
994.49	2077.32
994.787	2051.78
995.083	2062.63
995.379	2033.93
995.676	1998.45
995.972	2033.93
996.268	2014.5
996.565	1988.96
996.861	1982.63
997.157	1965.23
997.453	1969.07
997.749	1952.12
998.044	1960.49
998.34	1940.37
998.636	1923.88
998.932	1924.78
999.227	1906.25
999.523	1924.33
999.818	1901.5
1000.114	1870.09
1000.409	1883.65
1000.704	1845.91
1001	1873.26
1001.295	1875.97
1001.59	1829.87
1001.885	1835.06
1002.18	1838.68
1002.475	1813.14
1002.77	1784.44
1003.065	1787.61
1003.359	1773.37
1003.654	1763.65
1003.949	1746.48
1004.243	1763.43
1004.538	1732.69
1004.832	1740.83
1005.127	1731.79
1005.421	1705.35
1005.715	1693.83
1006.009	1691.34
1006.304	1701.06
1006.598	1684.56
1006.892	1680.49
1007.186	1646.6
1007.48	1636.65
1007.773	1660.61
1008.067	1632.81
1008.361	1614.28
1008.655	1647.27
1008.948	1604.11
1009.242	1608.63
1009.535	1573.38
1009.829	1602.75
1010.122	1574.28
1010.415	1557.11
1010.708	1576.54
1011.001	1537.45
1011.295	1533.83
1011.588	1550.33
1011.881	1518.46
1012.173	1498.8
1012.466	1528.41
1012.759	1488.63
1013.052	1467.39
1013.344	1461.29
1013.637	1482.31
1013.93	1482.08
1014.222	1431.46
1014.514	1437.11
1014.807	1424.45
1015.099	1421.29
1015.391	1431.69
1015.683	1407.28
1015.976	1440.27
1016.268	1402.99
1016.56	1425.58
1016.851	1398.47
1017.143	1380.84
1017.435	1342.65
1017.727	1344.91
1018.018	1325.25
1018.31	1348.3
1018.602	1339.48
1018.893	1316.89
1019.185	1316.66
1019.476	1311.46
1019.767	1287.51
1020.058	1305.81
1020.35	1282.54
1020.641	1279.15
1020.932	1288.19
1021.223	1259.03
1021.514	1292.03
1021.804	1273.72
1022.095	1240.73
1022.386	1248.87
1022.677	1227.4
1022.967	1208.41
1023.258	1218.36
1023.548	1182.88
1023.839	1188.98
1024.129	1152.82
1024.419	1156.66
1024.709	1174.07
1025	1164.35
1025.29	1166.83
1025.58	1141.75
1025.87	1137.23
1026.16	1148.53
1026.449	1130
1026.739	1123.22
1027.029	1131.13
1027.319	1106.95
1027.608	1113.28
1027.898	1094.07
1028.187	1095.2
1028.477	1075.99
1028.766	1079.15
1029.055	1100.85
1029.344	1046.16
1029.634	1069.66
1029.923	1032.15
1030.212	1050
1030.501	1037.8
1030.79	1022.88
1031.078	1029.21
1031.367	997.8
1031.656	1003.67
1031.945	1009.55
1032.233	1013.84
1032.522	972.94
1032.81	976.78
1033.099	986.73
1033.387	995.54
1033.675	982.66
1033.963	947.4
1034.251	951.92
1034.54	950.12
1034.828	955.77
1035.116	956.9
1035.403	920.51
1035.691	928.42
1035.979	932.49
1036.267	900.4
1036.554	932.72
1036.842	901.53
1037.129	907.86
1037.417	878.25
1037.704	883.9
1037.992	869.44
1038.279	879.38
1038.566	881.19
1038.853	881.19
1039.14	881.19
