Data from hue_280_FLMS001491_00066.txt Node
Date: Tue Feb 07 15:55:36 GMT 2017
User: dcchb
Spectrometer: FLMS00149
Trigger mode: 0
Integration Time (sec): 2.000000E-2
Scans to average: 10
Electric dark correction enabled: true
Nonlinearity correction enabled: false
Boxcar width: 0
XAxis mode: Wavelengths
Number of Pixels in Spectrum: 2048
>>>>>Begin Spectral Data<<<<<
341.393	-30.25
341.776	-30.25
342.16	-30.25
342.543	-75.68
342.927	-62.79
343.31	-58.28
343.693	-68.22
344.077	-75.22
344.46	-46.52
344.843	-55.34
345.226	-29.12
345.61	-30.93
345.993	-20.99
346.376	0.93
346.759	27.37
347.142	17.43
347.525	30.08
347.908	49.52
348.291	80.03
348.674	72.12
349.057	107.14
349.44	127.48
349.823	131.78
350.206	153.02
350.588	178.55
350.971	200.02
351.354	220.14
351.737	218.1
352.119	222.62
352.502	261.94
352.884	255.84
353.267	261.94
353.65	282.51
354.032	278.21
354.414	301.49
354.797	297.2
355.179	296.07
355.562	301.04
355.944	301.72
356.326	307.82
356.709	323.86
357.091	319.12
357.473	326.12
357.855	329.51
358.238	330.42
358.62	323.41
359.002	329.96
359.384	328.61
359.766	316.18
360.148	322.96
360.53	310.98
360.912	324.77
361.294	324.31
361.676	328.61
362.057	327.93
362.439	321.15
362.821	310.3
363.203	290.87
363.584	305.78
363.966	305.56
364.348	322.28
364.729	324.09
365.111	293.13
365.493	310.3
365.874	296.29
366.256	301.26
366.637	292.45
367.019	320.02
367.4	314.14
367.781	293.81
368.163	287.48
368.544	293.13
368.925	299.23
369.306	287.48
369.688	308.27
370.069	306.46
370.45	292.9
370.831	312.34
371.212	312.11
371.593	280.25
371.974	314.14
372.355	303.07
372.736	301.26
373.117	314.37
373.498	289.96
373.879	312.56
374.26	322.96
374.641	302.39
375.021	311.66
375.402	321.15
375.783	309.85
376.163	317.31
376.544	304.65
376.925	299
377.305	288.38
377.686	308.72
378.066	298.55
378.447	302.39
378.827	313.24
379.208	324.09
379.588	320.7
379.968	317.31
380.349	292.9
380.729	310.98
381.109	327.03
381.489	313.01
381.87	310.08
382.25	315.5
382.63	320.92
383.01	341.04
383.39	330.42
383.77	334.48
384.15	321.6
384.53	322.96
384.91	337.42
385.29	346.23
385.67	313.69
386.049	320.92
386.429	372.45
386.809	357.98
387.189	349.85
387.568	339.68
387.948	340.58
388.328	337.19
388.707	339.91
389.087	356.4
389.466	344.65
389.846	350.98
390.225	332.67
390.605	363.63
390.984	351.43
391.363	355.05
391.743	349.85
392.122	368.38
392.501	365.22
392.881	367.7
393.26	360.92
393.639	366.35
394.018	359.57
394.397	367.25
394.776	387.81
395.155	389.17
395.534	375.61
395.913	363.18
396.292	381.26
396.671	370.19
397.05	396.63
397.429	374.71
397.808	379.45
398.186	383.52
398.565	371.77
398.944	377.87
399.323	380.58
399.701	383.97
400.08	398.89
400.458	407.48
400.837	372.67
401.215	381.26
401.594	383.07
401.972	390.3
402.351	392.79
402.729	416.29
403.107	410.64
403.486	414.71
403.864	413.35
404.242	404.76
404.62	411.54
404.999	420.36
405.377	426.23
405.755	440.47
406.133	420.58
406.511	456.06
406.889	442.28
407.267	455.84
407.645	441.82
408.023	426.68
408.401	452.67
408.779	470.3
409.156	456.97
409.534	461.94
409.912	490.86
410.29	478.21
410.667	481.15
411.045	471.65
411.422	508.49
411.8	508.72
412.178	520.47
412.555	511.2
412.933	531.09
413.31	536.29
413.687	536.29
414.065	523.86
414.442	537.19
414.819	578.09
415.197	574.93
415.574	567.24
415.951	565.66
416.328	577.41
416.705	581.26
417.082	583.52
417.46	594.81
417.837	610.41
418.214	611.31
418.591	624.64
418.967	628.03
419.344	633.91
419.721	644.08
420.098	655.38
420.475	668.03
420.852	666.23
421.228	655.6
421.605	660.8
421.982	677.75
422.358	674.81
422.735	707.81
423.111	703.96
423.488	719.56
423.864	733.34
424.241	754.58
424.617	732.44
424.994	756.17
425.37	755.04
425.746	753.68
426.123	795.26
426.499	762.72
426.875	794.58
427.251	793.68
427.627	809.05
428.003	829.38
428.379	834.58
428.756	818.31
429.132	870.97
429.507	852.66
429.883	858.76
430.259	888.37
430.635	911.87
431.011	896.28
431.387	901.25
431.763	907.58
432.138	905.54
432.514	942.83
432.89	929.04
433.265	961.13
433.641	976.27
434.016	994.8
434.392	1013.11
434.767	1038.65
435.143	1043.39
435.518	1034.35
435.894	1040.68
436.269	1079.32
436.644	1083.16
437.02	1082.26
437.395	1102.37
437.77	1116.38
438.145	1103.5
438.52	1143.28
438.895	1144.86
439.271	1161.13
439.646	1165.42
440.021	1203.84
440.395	1216.49
440.77	1204.97
441.145	1214.23
441.52	1235.25
441.895	1232.54
442.27	1269.37
442.645	1252.42
443.019	1256.94
443.394	1267.57
443.769	1282.25
444.143	1269.83
444.518	1285.64
444.892	1296.27
445.267	1300.79
445.641	1306.66
446.016	1307.34
446.39	1313.89
446.764	1334
447.139	1319.32
447.513	1355.7
447.887	1375.36
448.262	1334.91
448.636	1371.97
449.01	1373.33
449.384	1389.82
449.758	1408.13
450.132	1397.96
450.506	1405.64
450.88	1399.31
451.254	1383.95
451.628	1435.92
452.002	1446.77
452.376	1423.04
452.75	1449.93
453.123	1468.46
453.497	1501.23
453.871	1489.93
454.244	1503.49
454.618	1529.48
454.992	1530.61
455.365	1568.12
455.739	1577.61
456.112	1575.81
456.486	1597.95
456.859	1599.08
457.232	1658.52
457.606	1587.11
457.979	1632.53
458.352	1659.42
458.725	1671.4
459.099	1673.43
459.472	1676.82
459.845	1671.85
460.218	1722.47
460.591	1719.53
460.964	1741.9
461.337	1767.67
461.71	1786.2
462.083	1807.66
462.456	1802.24
462.829	1813.99
463.201	1816.03
463.574	1822.81
463.947	1824.84
464.32	1901.45
464.692	1912.75
465.065	1881.79
465.438	1907.32
465.81	1971.95
466.183	1941.67
466.555	2013.53
466.928	1981.67
467.3	1982.57
467.672	2030.94
468.045	2052.86
468.417	2088.33
468.789	2061.22
469.161	2104.83
469.534	2091.27
469.906	2165.62
470.278	2152.97
470.65	2169.69
471.022	2218.5
471.394	2255.56
471.766	2223.02
472.138	2265.28
472.51	2291.49
472.882	2301.44
473.253	2314.09
473.625	2346.18
473.997	2403.13
474.369	2376.24
474.74	2434.77
475.112	2496.01
475.484	2492.39
475.855	2553.86
476.227	2564.71
476.598	2603.8
476.97	2652.16
477.341	2635.44
477.713	2627.53
478.084	2700.97
478.455	2771.25
478.827	2719.28
479.198	2816.68
479.569	2790.92
479.94	2866.39
480.311	2923.57
480.682	2966.96
481.053	2985.49
481.424	3037.24
481.795	3062.09
482.166	3074.75
482.537	3077.69
482.908	3138.48
483.279	3138.25
483.65	3205.82
484.021	3277.46
484.391	3269.55
484.762	3279.26
485.133	3302.77
485.503	3361.97
485.874	3355.19
486.244	3431.35
486.615	3483.1
486.985	3522.2
487.356	3545.25
487.726	3563.55
488.097	3638.12
488.467	3700.04
488.837	3694.17
489.207	3715.41
489.578	3764.22
489.948	3784.11
490.318	3791.79
490.688	3799.93
491.058	3842.64
491.428	3895.29
491.798	3914.73
492.168	4021.39
492.538	4013.26
492.908	4029.98
493.278	4061.39
493.648	4068.85
494.017	4145.46
494.387	4126.7
494.757	4144.1
495.126	4198.11
495.496	4228.17
495.866	4251.67
496.235	4259.58
496.605	4322.85
496.974	4309.07
497.344	4380.03
497.713	4321.72
498.082	4399.91
498.452	4399.01
498.821	4437.43
499.19	4384.77
499.559	4407.14
499.928	4489.85
500.298	4447.14
500.667	4511.1
501.036	4524.2
501.405	4584.99
501.774	4529.63
502.143	4598.55
502.512	4554.26
502.88	4635.61
503.249	4647.82
503.618	4655.95
503.987	4672
504.356	4714.48
504.724	4698.44
505.093	4666.57
505.462	4723.75
505.83	4719.23
506.199	4715.38
506.567	4815.72
506.936	4777.3
507.304	4793.8
507.672	4819.79
508.041	4845.55
508.409	4854.14
508.777	4859.11
509.145	4878.09
509.514	4880.35
509.882	4923.29
510.25	4893.23
510.618	4995.15
510.986	4912.22
511.354	5006.9
511.722	4964.42
512.09	5037.41
512.458	5006.22
512.826	5063.85
513.193	5050.74
513.561	5015.72
513.929	5068.82
514.297	5117.18
514.664	5172.1
515.032	5134.58
515.4	5186.11
515.767	5148.82
516.135	5191.3
516.502	5101.14
516.869	5177.29
517.237	5171.87
517.604	5165.99
517.972	5260.91
518.339	5256.16
518.706	5217.52
519.073	5309.49
519.44	5267.01
519.808	5337.74
520.175	5259.55
520.542	5345.2
520.909	5345.88
521.276	5367.34
521.643	5369.83
522.009	5368.93
522.376	5373.45
522.743	5404.18
523.11	5478.98
523.477	5502.48
523.843	5488.47
524.21	5503.84
524.577	5536.61
524.943	5611.18
525.31	5575.02
525.676	5630.84
526.043	5608.92
526.409	5656.15
526.776	5697.51
527.142	5700.44
527.508	5705.64
527.874	5711.06
528.241	5718.97
528.607	5789.71
528.973	5807.33
529.339	5850.95
529.705	5856.82
530.071	5870.16
530.437	5844.62
530.803	5842.59
531.169	5898.86
531.535	5900.21
531.901	5902.02
532.267	5905.86
532.632	5964.84
532.998	6002.81
533.364	5994.67
533.73	5917.39
534.095	6024.28
534.461	6078.29
534.826	6079.19
535.192	6064.28
535.557	6071.51
535.923	6087.1
536.288	6098.4
536.653	6107.89
537.019	6107.44
537.384	6112.86
537.749	6120.77
538.114	6133.2
538.479	6128.23
538.845	6116.25
539.21	6160.54
539.575	6164.84
539.94	6207.55
540.305	6252.75
540.67	6256.13
541.034	6209.13
541.399	6255.91
541.764	6279.19
542.129	6237.83
542.494	6274.67
542.858	6328
543.223	6351.27
543.587	6323.93
543.952	6354.89
544.316	6349.47
544.681	6313.76
545.045	6372.29
545.41	6430.14
545.774	6456.13
546.138	6433.31
546.503	6421.1
546.867	6431.05
547.231	6419.97
547.595	6456.81
547.959	6446.41
548.324	6491.61
548.688	6527.31
549.052	6528.44
549.416	6523.7
549.779	6555.34
550.143	6513.08
550.507	6520.31
550.871	6584.26
551.235	6517.82
551.599	6557.14
551.962	6642.79
552.326	6600.53
552.689	6587.2
553.053	6632.85
553.417	6638.72
553.78	6683.69
554.143	6635.79
554.507	6732.05
554.87	6670.36
555.234	6791.49
555.597	6683.69
555.96	6736.57
556.323	6673.98
556.686	6793.97
557.05	6802.34
557.413	6766.4
557.776	6826.52
558.139	6840.07
558.502	6834.42
558.865	6820.19
559.228	6839.4
559.59	6871.94
559.953	6897.7
560.316	6920.98
560.679	6941.54
561.041	6951.71
561.404	6967.3
561.767	7049.11
562.129	6978.15
562.492	7077.13
562.854	7017.92
563.217	7076.23
563.579	7118.49
563.941	7079.39
564.304	7157.35
564.666	7156.45
565.028	7173.85
565.39	7219.95
565.753	7238.26
566.115	7292.72
566.477	7341.53
566.839	7324.58
567.201	7294.53
567.563	7391.47
567.925	7351.02
568.287	7414.75
568.648	7392.38
569.01	7481.64
569.372	7471.7
569.734	7440.74
570.095	7509.66
570.457	7559.15
570.819	7568.19
571.18	7536.1
571.542	7619.04
571.903	7677.11
572.265	7697.23
572.626	7699.26
572.987	7697.45
573.349	7703.55
573.71	7771.12
574.071	7772.48
574.432	7856.54
574.794	7908.07
575.155	7923.44
575.516	7884.34
575.877	7989.65
576.238	7977.22
576.599	8005.69
576.96	8002.53
577.32	8081.17
577.681	8141.74
578.042	8116.43
578.403	8123.88
578.763	8216.76
579.124	8259.47
579.485	8223.77
579.845	8371.79
580.206	8352.13
580.566	8436.19
580.927	8457.66
581.287	8471.22
581.648	8604.55
582.008	8601.84
582.368	8614.27
582.728	8644.32
583.089	8697.2
583.449	8752.11
583.809	8823.98
584.169	8901.49
584.529	8963.63
584.889	8948.27
585.249	8972.45
585.609	8991.43
585.969	9106.68
586.329	9117.75
586.688	9188.94
587.048	9271.87
587.408	9336.73
587.768	9400.46
588.127	9475.03
588.487	9492.66
588.846	9658.08
589.206	9654.69
589.565	9660.11
589.925	9792.31
590.284	9807.91
590.643	9870.96
591.003	9998.41
591.362	10038.18
591.721	10064.62
592.08	10157.05
592.44	10203.6
592.799	10292.19
593.158	10285.86
593.517	10382.81
593.876	10434.33
594.235	10565.4
594.593	10541.22
594.952	10641.33
595.311	10674.78
595.67	10749.12
596.029	10860.99
596.387	10943.47
596.746	10950.7
597.104	11024.6
597.463	11059.4
597.822	11107.53
598.18	11070.02
598.538	11183.69
598.897	11298.26
599.255	11214.87
599.613	11411.93
599.972	11426.17
600.33	11484.02
600.688	11477.47
601.046	11575.32
601.404	11653.28
601.762	11651.02
602.12	11768.98
602.478	11855.76
602.836	11826.16
603.194	11693.28
603.552	11940.05
603.91	11834.29
604.268	11992.71
604.625	11923.78
604.983	12020.96
605.341	12056.89
605.698	12110.44
606.056	12313.15
606.413	12218.46
606.771	12249.65
607.128	12328.97
607.485	12351.79
607.843	12276.32
608.2	12377.33
608.557	12450.77
608.914	12325.58
609.272	12565.35
609.629	12581.84
609.986	12632.24
610.343	12572.81
610.7	12689.64
611.057	12667.04
611.414	12731.67
611.771	12679.47
612.127	12774.61
612.484	12788.39
612.841	12852.12
613.198	12849.41
613.554	12940.7
613.911	12988.84
614.267	12946.35
614.624	12941.16
614.98	12935.28
615.337	13066.8
615.693	13006.69
616.05	13092.11
616.406	13168.95
616.762	13111.55
617.118	13135.05
617.475	13063.19
617.831	13182.28
618.187	13192.68
618.543	13213.01
618.899	13258.89
619.255	13240.58
619.611	13272.22
619.967	13310.86
620.323	13313.8
620.678	13291.88
621.034	13299.34
621.39	13290.98
621.746	13330.07
622.101	13473.8
622.457	13453.23
622.812	13486.45
623.168	13509.5
623.523	13524.19
623.879	13576.17
624.234	13469.96
624.589	13530.52
624.945	13517.86
625.3	13530.07
625.655	13570.52
626.01	13447.58
626.365	13581.82
626.72	13596.73
627.075	13626.34
627.43	13564.42
627.785	13495.72
628.14	13555.83
628.495	13533.46
628.85	13600.35
629.205	13488.71
629.559	13596.73
629.914	13547.24
630.269	13504.76
630.623	13535.04
630.978	13450.52
631.332	13468.15
631.687	13558.32
632.041	13457.53
632.396	13518.32
632.75	13443.29
633.104	13431.09
633.459	13359
633.813	13431.31
634.167	13422.73
634.521	13403.07
634.875	13420.01
635.229	13442.16
635.583	13349.96
635.937	13288.72
636.291	13429.05
636.645	13290.75
636.999	13274.03
637.352	13376.4
637.706	13272.22
638.06	13260.47
638.413	13279.45
638.767	13234.93
639.121	13278.78
639.474	13132.56
639.828	13286.68
640.181	13291.43
640.534	13228.83
640.888	13227.03
641.241	13193.13
641.594	13209.4
641.947	13177.31
642.301	13208.49
642.654	13166.69
643.007	13112.45
643.36	13137.54
643.713	13145.67
644.066	13242.17
644.419	13080.81
644.771	13104.09
645.124	12947.71
645.477	12920.82
645.83	12885.57
646.182	12754.72
646.535	12713.59
646.888	12826.58
647.24	12774.83
647.593	12804.44
647.945	12811.89
648.298	12746.81
648.65	12697.55
649.002	12679.69
649.355	12772.57
649.707	12703.88
650.059	12820.48
650.411	13057.54
650.763	12998.78
651.115	13080.81
651.467	13026.35
651.819	13044.66
652.171	13010.08
652.523	12962.4
652.875	13025
653.227	12970.08
653.578	13051.21
653.93	13046.92
654.282	12972.57
654.633	12982.96
654.985	12997.43
655.337	13051.89
655.688	13076.52
656.039	13042.85
656.391	12981.16
656.742	13010.99
657.094	13036.97
657.445	13157.65
657.796	13057.09
658.147	13094.15
658.498	13117.2
658.849	13145.45
659.2	13076.75
659.551	13077.42
659.902	13114.94
660.253	13084.66
660.604	13089.63
660.955	13081.49
661.306	13216.63
661.656	13125.78
662.007	13187.25
662.358	13129.17
662.708	13076.97
663.059	13059.35
663.409	13054.6
663.76	13136.63
664.11	13244.2
664.461	13138.67
664.811	13124.65
665.161	13199.91
665.511	13149.06
665.862	13118.55
666.212	13153.35
666.562	13109.51
666.912	13185.44
667.262	13158.1
667.612	13090.08
667.962	13137.54
668.312	13180.7
668.662	13223.18
669.011	13180.25
669.361	13163.98
669.711	13134.15
670.06	13165.11
670.41	13148.61
670.76	13102.96
671.109	13146.35
671.459	13169.4
671.808	13131.43
672.157	13187.03
672.507	13069.29
672.856	13094.83
673.205	13167.59
673.554	13075.62
673.904	13103.86
674.253	13095.96
674.602	13076.75
674.951	12925.56
675.3	12835.85
675.649	13066.8
675.998	12990.87
676.346	13004.21
676.695	13010.53
677.044	12859.8
677.393	12934.38
677.741	13027.71
678.09	12919.46
678.438	12890.54
678.787	12863.19
679.135	12952.46
679.484	12843.08
679.832	12898.67
680.181	12793.14
680.529	12839.92
680.877	12759.01
681.225	12759.92
681.573	12872.01
681.922	12767.83
682.27	12634.95
682.618	12772.8
682.966	12658
683.314	12617.1
683.661	12694.16
684.009	12622.3
684.357	12605.57
684.705	12523.54
685.053	12566.7
685.4	12487.84
685.748	12503.65
686.095	12451.23
686.443	12458.91
686.79	12426.37
687.138	12382.98
687.485	12383.66
687.832	12413.49
688.18	12412.81
688.527	12287.61
688.874	12282.87
689.221	12182.76
689.568	12150.44
689.915	12147.73
690.262	12155.87
690.609	12039.03
690.956	12056.43
691.303	12083.33
691.65	11943.22
691.997	11991.35
692.344	11885.59
692.69	11799.94
693.037	11847.17
693.383	11723.56
693.73	11735.99
694.077	11658.93
694.423	11720.4
694.769	11697.8
695.116	11547.97
695.462	11543.91
695.808	11509.33
696.155	11649.67
696.501	11487.18
696.847	11463.23
697.193	11386.62
697.539	11392.72
697.885	11324.25
698.231	11297.58
698.577	11216.46
698.923	11213.52
699.269	11074.54
699.614	11016.69
699.96	11039.96
700.306	11056.46
700.651	10998.61
700.997	10922.45
701.342	10940.08
701.688	10857.82
702.033	10806.98
702.379	10797.71
702.724	10753.42
703.069	10782.8
703.415	10582.8
703.76	10672.74
704.105	10618.73
704.45	10545.29
704.795	10497.83
705.14	10510.49
705.485	10451.96
705.83	10382.13
706.175	10412.86
706.52	10377.61
706.865	10312.3
707.209	10279.08
707.554	10280.44
707.899	10241.57
708.243	10172.42
708.588	10223.49
708.932	10141.91
709.277	10124.73
709.621	10167.22
709.966	10046.32
710.31	10098.29
710.654	9982.36
710.998	10056.04
711.342	10042.48
711.687	10012.42
712.031	9934.68
712.375	9951.41
712.719	9922.25
713.063	9929.48
713.407	9907.56
713.75	9849.71
714.094	9896.04
714.438	9810.62
714.782	9763.84
715.125	9780.56
715.469	9786.66
715.812	9704.18
716.156	9640
716.499	9666.89
716.843	9619.89
717.186	9643.39
717.53	9740.56
717.873	9637.51
718.216	9624.18
718.559	9604.52
718.902	9495.15
719.246	9559.32
719.589	9590.96
719.932	9479.78
720.275	9564.3
720.617	9564.75
720.96	9460.12
721.303	9514.13
721.646	9483.17
721.989	9444.98
722.331	9484.07
722.674	9416.5
723.016	9469.61
723.359	9417.63
723.701	9442.94
724.044	9373.34
724.386	9323.85
724.729	9374.02
725.071	9281.14
725.413	9376.05
725.755	9304.42
726.097	9361.14
726.439	9287.02
726.782	9325.21
727.124	9329.95
727.465	9311.87
727.807	9356.17
728.149	9296.51
728.491	9273.68
728.833	9286.11
729.175	9268.71
729.516	9275.49
729.858	9261.93
730.199	9227.58
730.541	9204.98
730.882	9244.08
731.224	9284.08
731.565	9198.43
731.906	9293.57
732.248	9152.1
732.589	9192.1
732.93	9210.41
733.271	9184.87
733.612	9211.54
733.953	9256.73
734.294	9264.87
734.635	9174.48
734.976	9216.96
735.317	9181.93
735.658	9232.33
735.999	9244.3
736.339	9192.55
736.68	9213.57
737.021	9260.35
737.361	9266.9
737.702	9248.6
738.042	9262.16
738.383	9286.79
738.723	9364.3
739.063	9286.79
739.404	9405.66
739.744	9304.19
740.084	9299.22
740.424	9326.34
740.764	9326.11
741.104	9343.51
741.444	9338.31
741.784	9423.06
742.124	9382.38
742.464	9367.92
742.804	9413.34
743.143	9466.9
743.483	9465.32
743.823	9471.19
744.162	9483.39
744.502	9479.78
744.841	9467.12
745.181	9597.29
745.52	9651.3
745.86	9598.87
746.199	9701.47
746.538	9697.17
746.877	9775.59
747.216	9861.46
747.556	9846.32
747.895	9923.61
748.234	9876.6
748.573	9907.11
748.911	9997.28
749.25	10164.51
749.589	10131.74
749.928	10138.29
750.267	10310.49
750.605	10336.93
750.944	10357.5
751.283	10453.09
751.621	10582.57
751.96	10588.22
752.298	10702.12
752.636	10784.83
752.975	10899.4
753.313	10951.83
753.651	11071.15
753.989	11174.65
754.327	11309.11
754.666	11366.06
755.004	11472.72
755.342	11682.21
755.679	11783
756.017	11760.85
756.355	11962.2
756.693	12071.58
757.031	12193.15
757.368	12303.89
757.706	12475.18
758.044	12522.64
758.381	12691.22
758.719	12854.15
759.056	13067.03
759.394	13039.46
759.731	13136.86
760.068	13302.96
760.405	13442.16
760.743	13652.78
761.08	13711.53
761.417	13829.72
761.754	13911.3
762.091	14133.22
762.428	14326.66
762.765	14360.55
763.102	14497.95
763.438	14568.01
763.775	14657.04
764.112	14848.23
764.449	15030.37
764.785	15006.64
765.122	15136.81
765.458	15224.94
765.795	15544.93
766.131	15514.42
766.467	15528.89
766.804	15732.27
767.14	15719.16
767.476	15900.63
767.812	15991.02
768.148	16088.42
768.485	16197.12
768.821	16213.16
769.157	16283.89
769.492	16488.18
769.828	16526.83
770.164	16455.64
770.5	16613.83
770.836	16595.3
771.171	16674.84
771.507	16791.9
771.842	16746.25
772.178	16818.8
772.513	17005
772.849	16906.93
773.184	16900.83
773.519	17129.75
773.855	17076.87
774.19	17013.14
774.525	17089.75
774.86	17199.8
775.195	17197.09
775.53	17278.67
775.865	17208.16
776.2	17174.04
776.535	17166.36
776.87	17264.66
777.205	17222.17
777.539	17269.63
777.874	17298.1
778.209	17149.63
778.543	17297.65
778.878	17234.38
779.212	17340.59
779.547	17268.95
779.881	17393.24
780.215	17268.95
780.55	17343.53
780.884	17275.96
781.218	17330.65
781.552	17215.62
781.886	17226.92
782.22	17162.06
782.554	17197.32
782.888	17072.12
783.222	17075.96
783.556	17065.34
783.889	16987.38
784.223	16980.37
784.557	17042.97
784.89	16992.8
785.224	16849.75
785.557	16871.68
785.891	16969.07
786.224	16899.02
786.558	16899.7
786.891	16804.33
787.224	16782.64
787.557	16727.95
787.891	16681.17
788.224	16733.83
788.557	16710.78
788.89	16700.61
789.223	16720.72
789.556	16696.09
789.888	16509.65
790.221	16465.36
790.554	16430.1
790.887	16426.26
791.219	16302.65
791.552	16326.6
791.884	16376.77
792.217	16325.02
792.549	16285.7
792.882	16198.47
793.214	16113.73
793.546	16071.92
793.879	16023.56
794.211	15965.94
794.543	16062.2
794.875	16004.13
795.207	16013.39
795.539	15825.6
795.871	15906.5
796.203	15807.97
796.535	15734.3
796.867	15691.14
797.198	15623.35
797.53	15716.23
797.862	15613.85
798.193	15618.37
798.525	15526.85
798.856	15547.64
799.188	15384.26
799.519	15429.91
799.85	15264.94
800.182	15315.11
800.513	15366.18
800.844	15222.23
801.175	15233.53
801.506	15223.13
801.837	15043.93
802.168	15159.4
802.499	15035.11
802.83	14995.11
803.161	14920.31
803.491	14977.04
803.822	15034.21
804.153	14883.03
804.483	14728
804.814	14772.52
805.145	14781.11
805.475	14726.42
805.805	14655.46
806.136	14690.49
806.466	14635.58
806.796	14676.03
807.126	14502.47
807.457	14557.84
807.787	14589.02
808.117	14527.33
808.447	14363.27
808.777	14468.57
809.107	14364.17
809.436	14315.58
809.766	14321.01
810.096	14326.43
810.426	14230.16
810.755	14231.29
811.085	14140.45
811.414	14172.54
811.744	14052.54
812.073	14061.13
812.403	14034.24
812.732	14069.04
813.061	13980.68
813.39	13931.64
813.719	13860.91
814.049	13889.61
814.378	13892.09
814.707	13768.25
815.036	13834.47
815.365	13777.29
815.693	13568.71
816.022	13718.76
816.351	13681.02
816.68	13545.21
817.008	13634.7
817.337	13601.25
817.665	13502.5
817.994	13505.89
818.322	13486
818.651	13420.01
818.979	13342.73
819.307	13498.2
819.636	13448.71
819.964	13292.56
820.292	13377.3
820.62	13357.87
820.948	13330.07
821.276	13387.02
821.604	13302.5
821.932	13345.21
822.259	13319.45
822.587	13293.69
822.915	13250.08
823.243	13339.79
823.57	13275.16
823.898	13356.51
824.225	13215.95
824.553	13217.53
824.88	13314.71
825.207	13240.36
825.535	13202.39
825.862	13262.73
826.189	13224.09
826.516	13292.79
826.843	13340.47
827.17	13272.45
827.497	13313.8
827.824	13266.12
828.151	13306.8
828.478	13309.28
828.805	13332.79
829.131	13259.11
829.458	13241.04
829.785	13199
830.111	13270.87
830.438	13314.48
830.764	13267.93
831.09	13255.5
831.417	13129.63
831.743	13195.39
832.069	13302.05
832.395	13236.74
832.722	13297.53
833.048	13174.82
833.374	13175.28
833.7	13104.32
834.026	13177.08
834.351	13217.31
834.677	13149.29
835.003	13137.54
835.329	13142.28
835.654	13092.11
835.98	13039.01
836.306	13041.72
836.631	13054.6
836.956	13035.17
837.282	13093.47
837.607	12996.52
837.932	13000.59
838.258	12979.57
838.583	12923.98
838.908	12861.84
839.233	12852.12
839.558	12988.16
839.883	12870.65
840.208	12808.05
840.533	12796.53
840.858	12777.32
841.182	12835.85
841.507	12771.67
841.832	12705.91
842.156	12739.81
842.481	12735.06
842.805	12653.03
843.13	12660.03
843.454	12666.14
843.778	12588.17
844.103	12580.71
844.427	12498.46
844.751	12543.2
845.075	12437.44
845.399	12444.9
845.723	12319.93
846.047	12340.95
846.371	12295.75
846.695	12217.56
847.019	12121.07
847.343	12102.99
847.666	12138.01
847.99	11990.45
848.313	12030.22
848.637	11927.4
848.96	11954.97
849.284	11929.88
849.607	11783.22
849.931	11729.44
850.254	11676.33
850.577	11632.94
850.9	11572.83
851.223	11516.79
851.546	11529.67
851.869	11412.38
852.192	11437.47
852.515	11370.8
852.838	11318.15
853.161	11278.6
853.483	11254.42
853.806	11230.24
854.129	11194.99
854.451	11113.63
854.774	11056.46
855.096	11060.98
855.419	11138.72
855.741	11108.44
856.063	10955.45
856.385	10836.81
856.708	10926.75
857.03	10861.66
857.352	10900.08
857.674	10771.04
857.996	10797.26
858.318	10766.3
858.64	10693.31
858.961	10627.55
859.283	10624.61
859.605	10622.35
859.926	10627.77
860.248	10597.04
860.57	10505.74
860.891	10528.34
861.212	10496.02
861.534	10427.55
861.855	10371.05
862.176	10416.7
862.498	10357.95
862.819	10430.49
863.14	10389.13
863.461	10378.96
863.782	10409.7
864.103	10326.31
864.424	10303.94
864.745	10282.02
865.065	10229.14
865.386	10202.25
865.707	10230.27
866.027	10224.17
866.348	10181.23
866.668	10153.43
866.989	10159.99
867.309	10086.99
867.63	10073.44
867.95	10123.6
868.27	10001.35
868.59	10076.15
868.91	10018.75
869.23	10016.26
869.55	9942.82
869.87	10002.7
870.19	9965.87
870.51	10032.53
870.83	9876.38
871.15	9938.3
871.469	9794.12
871.789	9900.56
872.109	9886.77
872.428	9829.83
872.748	9858.53
873.067	9796.83
873.386	9806.1
873.706	9790.05
874.025	9777.85
874.344	9747.79
874.663	9780.11
874.982	9762.71
875.301	9726.55
875.62	9713.22
875.939	9697.85
876.258	9644.97
876.577	9682.49
876.896	9626.67
877.214	9533.11
877.533	9610.4
877.852	9611.75
878.17	9605.65
878.489	9574.69
878.807	9562.49
879.125	9540.57
879.444	9493.56
879.762	9471.87
880.08	9488.59
880.398	9470.74
880.716	9467.58
881.034	9435.26
881.352	9378.76
881.67	9406.79
881.988	9419.22
882.306	9327.24
882.624	9311.87
882.941	9300.8
883.259	9247.92
883.577	9281.14
883.894	9228.94
884.212	9216.74
884.529	9202.72
884.846	9156.4
885.164	9105.55
885.481	9205.66
885.798	9153.69
886.115	9031.66
886.432	9028.27
886.75	9102.84
887.067	9040.24
887.383	9002.05
887.7	8993.01
888.017	8964.76
888.334	8941.49
888.651	8934.71
888.967	8850.19
889.284	8863.52
889.6	8816.52
889.917	8846.8
890.233	8795.5
890.55	8747.37
890.866	8761.38
891.182	8736.97
891.498	8631.44
891.815	8678.44
892.131	8604.1
892.447	8637.77
892.763	8597.77
893.079	8628.28
893.395	8570.42
893.71	8522.97
894.026	8498.79
894.342	8401.62
894.657	8434.61
894.973	8338.79
895.289	8406.13
895.604	8369.98
895.92	8285.69
896.235	8249.53
896.55	8262.64
896.865	8191.68
897.181	8225.12
897.496	8249.75
897.811	8160.27
898.126	8079.59
898.441	8125.24
898.756	8066.03
899.071	8022.87
899.386	8035.07
899.7	7974.28
900.015	7956.2
900.33	7875.98
900.644	7887.96
900.959	7912.81
901.273	7880.27
901.588	7770.9
901.902	7802.76
902.216	7730.9
902.531	7769.77
902.845	7738.36
903.159	7681.41
903.473	7623.1
903.787	7584.91
904.101	7493.16
904.415	7626.27
904.729	7506.95
905.042	7439.38
905.356	7521.41
905.67	7426.95
905.984	7400.29
906.297	7385.37
906.611	7345.82
906.924	7379.04
907.237	7292.49
907.551	7269.44
907.864	7254.07
908.177	7238.93
908.491	7213.85
908.804	7145.38
909.117	7113.29
909.43	7025.61
909.743	7080.29
910.056	7071.25
910.368	7026.96
910.681	6971.82
910.994	6986.29
911.307	6883.92
911.619	6829.45
911.932	6900.64
912.244	6846.85
912.557	6770.47
912.869	6770.25
913.181	6749.23
913.494	6742.22
913.806	6691.38
914.118	6684.82
914.43	6648.44
914.742	6645.96
915.054	6583.58
915.366	6633.98
915.678	6521.21
915.99	6531.83
916.302	6465.17
916.613	6457.71
916.925	6427.43
917.236	6367.77
917.548	6366.41
917.859	6337.04
918.171	6267.66
918.482	6284.61
918.794	6260.88
919.105	6283.7
919.416	6224.27
919.727	6213.88
920.038	6163.93
920.349	6171.39
920.66	6119.42
920.971	6099.98
921.282	6080.09
921.593	5986.09
921.903	5966.43
922.214	5995.8
922.525	5983.6
922.835	5908.8
923.146	5872.19
923.456	5914.22
923.767	5883.72
924.077	5874.9
924.387	5825.41
924.697	5824.06
925.008	5750.16
925.318	5770.72
925.628	5743.83
925.938	5737.5
926.248	5667
926.558	5631.52
926.867	5599.88
927.177	5594.91
927.487	5547.9
927.796	5525.53
928.106	5507.68
928.416	5538.41
928.725	5510.17
929.034	5441.92
929.344	5497.06
929.653	5432.88
929.962	5368.7
930.271	5344.75
930.581	5381.36
930.89	5303.84
931.199	5322.6
931.508	5283.51
931.817	5296.16
932.125	5290.28
932.434	5259.32
932.743	5243.73
933.051	5164.86
933.36	5143.62
933.669	5084.41
933.977	5111.08
934.286	5086
934.594	5111.08
934.902	5039.44
935.21	4974.81
935.519	5023.62
935.827	5032.89
936.135	4975.04
936.443	4959.45
936.751	4921.48
937.059	4899.33
937.367	4844.19
937.674	4934.81
937.982	4803.97
938.29	4809.17
938.597	4784.99
938.905	4766.68
939.213	4755.38
939.52	4762.84
939.827	4724.2
940.135	4720.36
940.442	4729.62
940.749	4700.92
941.056	4664.99
941.363	4641.26
941.67	4605.33
941.977	4546.35
942.284	4550.64
942.591	4538.44
942.898	4558.78
943.205	4521.49
943.511	4528.04
943.818	4477.42
944.125	4455.05
944.431	4454.37
944.738	4413.02
945.044	4393.36
945.35	4333.7
945.657	4371.66
945.963	4347.48
946.269	4320.82
946.575	4304.1
946.881	4319.69
947.187	4258.22
947.493	4225.23
947.799	4206.25
948.105	4201.73
948.41	4189.52
948.716	4176.87
949.022	4178.68
949.327	4202.4
949.633	4123.99
949.938	4133.93
950.244	4115.17
950.549	4069.53
950.854	4071.79
951.16	4037.44
951.465	4019.13
951.77	4002.86
952.075	3977.78
952.38	3966.25
952.685	3965.8
952.99	3935.07
953.294	3878.57
953.599	3905.69
953.904	3892.58
954.209	3820.27
954.513	3841.74
954.818	3819.59
955.122	3856.65
955.426	3778.01
955.731	3759.03
956.035	3747.5
956.339	3757.22
956.643	3758.12
956.948	3712.92
957.252	3719.93
957.556	3691
957.86	3695.3
958.163	3662.53
958.467	3638.58
958.771	3601.29
959.075	3587.73
959.378	3562.42
959.682	3586.15
959.985	3566.94
960.289	3518.58
960.592	3540.27
960.896	3484.68
961.199	3531.01
961.502	3482.2
961.805	3432.48
962.108	3429.09
962.411	3424.57
962.714	3418.47
963.017	3444.01
963.32	3405.59
963.623	3391.8
963.926	3387.74
964.228	3342.09
964.531	3332.82
964.833	3346.83
965.136	3302.99
965.438	3317.91
965.741	3279.72
966.043	3244.46
966.345	3234.52
966.648	3225.71
966.95	3221.64
967.252	3172.6
967.554	3193.62
967.856	3166.72
968.158	3162.2
968.46	3157.69
968.761	3169.89
969.063	3104.35
969.365	3138.93
969.666	3121.3
969.968	3079.72
970.269	3068.42
970.571	3097.12
970.872	3044.69
971.174	3000.4
971.475	3010.34
971.776	3024.36
972.077	2996.56
972.378	2988.2
972.679	2986.84
972.98	2973.74
973.281	2974.19
973.582	2945.71
973.883	2908.43
974.183	2938.71
974.484	2916.79
974.785	2870.01
975.085	2874.75
975.386	2884.02
975.686	2837.92
975.986	2829.11
976.287	2833.17
976.587	2787.98
976.887	2793.18
977.187	2766.28
977.487	2797.47
977.787	2755.44
978.087	2712.27
978.387	2730.8
978.687	2717.02
978.987	2700.52
979.286	2694.19
979.586	2683.12
979.885	2684.7
980.185	2638.15
980.484	2654.2
980.784	2610.81
981.083	2621.43
981.382	2609.68
981.682	2580.53
981.981	2604.48
982.28	2594.31
982.579	2600.64
982.878	2564.25
983.177	2546.18
983.475	2524.48
983.774	2514.76
984.073	2507.08
984.372	2460.3
984.67	2507.76
984.969	2473.41
985.267	2486.74
985.566	2464.6
985.864	2436.12
986.162	2435.22
986.461	2427.54
986.759	2409.91
987.057	2393.19
987.355	2353.19
987.653	2401.32
987.951	2359.97
988.249	2342.57
988.547	2362.68
988.844	2349.35
989.142	2320.65
989.44	2285.17
989.737	2299.4
990.035	2308.89
990.332	2265.96
990.63	2268.67
990.927	2249.91
991.224	2228.44
991.521	2244.26
991.819	2215.79
992.116	2237.48
992.413	2176.02
992.71	2174.43
993.006	2174.89
993.303	2179.41
993.6	2158.16
993.897	2138.96
994.193	2107.54
994.49	2158.39
994.787	2145.73
995.083	2093.31
995.379	2087.43
995.676	2096.47
995.972	2089.69
996.268	2061.22
996.565	2060.54
996.861	2071.61
997.157	2056.47
997.453	2040.88
997.749	2036.13
998.044	2023.03
998.34	2038.62
998.636	1981.9
998.932	1967.43
999.227	1972.63
999.523	1948.68
999.818	1968.11
1000.114	1943.93
1000.409	1913.88
1000.704	1926.76
1001	1921.11
1001.295	1887.89
1001.59	1892.63
1001.885	1878.85
1002.18	1876.59
1002.475	1822.35
1002.77	1857.15
1003.065	1813.54
1003.359	1849.02
1003.654	1825.29
1003.949	1820.77
1004.243	1782.81
1004.538	1836.36
1004.832	1790.26
1005.127	1778.96
1005.421	1761.79
1005.715	1787.1
1006.009	1744.84
1006.304	1752.98
1006.598	1715.92
1006.892	1717.05
1007.186	1727.21
1007.48	1692.87
1007.773	1700.55
1008.067	1675.69
1008.361	1657.16
1008.655	1659.19
1008.948	1644.05
1009.242	1620.78
1009.535	1625.07
1009.829	1632.53
1010.122	1616.93
1010.415	1639.76
1010.708	1596.6
1011.001	1577.61
1011.295	1577.16
1011.588	1586.2
1011.881	1585.07
1012.173	1577.39
1012.466	1514.79
1012.759	1551.4
1013.052	1506.2
1013.344	1517.95
1013.637	1498.29
1013.93	1499.65
1014.222	1467.79
1014.514	1473.89
1014.807	1448.13
1015.099	1475.02
1015.391	1466.2
1015.683	1442.93
1015.976	1457.39
1016.268	1435.24
1016.56	1426.21
1016.851	1402.25
1017.143	1386.43
1017.435	1423.27
1017.727	1392.76
1018.018	1383.95
1018.31	1386.43
1018.602	1371.52
1018.893	1364.96
1019.185	1386.43
1019.476	1344.85
1019.767	1318.41
1020.058	1346.66
1020.35	1312.76
1020.641	1298.07
1020.932	1255.14
1021.223	1266.89
1021.514	1284.51
1021.804	1273.22
1022.095	1266.21
1022.386	1224.85
1022.677	1262.14
1022.967	1245.65
1023.258	1236.15
1023.548	1209.94
1023.839	1210.17
1024.129	1199.54
1024.419	1193.44
1024.709	1169.04
1025	1177.4
1025.29	1165.65
1025.58	1165.65
1025.87	1163.39
1026.16	1143.5
1026.449	1137.17
1026.739	1120.9
1027.029	1140.79
1027.319	1121.58
1027.608	1124.29
1027.898	1129.04
1028.187	1106.89
1028.477	1090.4
1028.766	1070.73
1029.055	1076.84
1029.344	1072.77
1029.634	1069.83
1029.923	1052.43
1030.212	1035.71
1030.501	1053.56
1030.79	1030.74
1031.078	1006.56
1031.367	1043.16
1031.656	1017.18
1031.945	995.03
1032.233	1001.13
1032.522	1015.59
1032.81	1005.65
1033.099	984.86
1033.387	983.96
1033.675	968.36
1033.963	1002.26
1034.251	945.09
1034.54	971.08
1034.828	949.16
1035.116	970.85
1035.403	947.57
1035.691	918.87
1035.979	936.95
1036.267	939.21
1036.554	911.64
1036.842	907.12
1037.129	949.61
1037.417	916.84
1037.704	903.96
1037.992	877.75
1038.279	882.94
1038.566	869.16
1038.853	869.16
1039.14	869.16
