Data from hue_190_FLMS001491_00010.txt Node
Date: Tue Feb 07 16:44:43 GMT 2017
User: dcchb
Spectrometer: FLMS00149
Trigger mode: 0
Integration Time (sec): 2.000000E-2
Scans to average: 10
Electric dark correction enabled: true
Nonlinearity correction enabled: false
Boxcar width: 0
XAxis mode: Wavelengths
Number of Pixels in Spectrum: 2048
>>>>>Begin Spectral Data<<<<<
341.393	-1.71
341.776	-1.71
342.16	-1.71
342.543	-72.44
342.927	-58.88
343.31	-52.1
343.693	-61.14
344.077	-73.8
344.46	-50.52
344.843	-57.3
345.226	-41.03
345.61	-19.11
345.993	-10.52
346.376	-3.52
346.759	3.26
347.142	15.69
347.525	26.31
347.908	47.1
348.291	71.28
348.674	80.55
349.057	124.84
349.44	141.56
349.823	139.98
350.206	161.9
350.588	219.3
350.971	216.82
351.354	230.38
351.737	217.95
352.119	244.61
352.502	247.78
352.884	289.13
353.267	276.02
353.65	309.92
354.032	292.75
354.414	315.8
354.797	297.94
355.179	313.08
355.562	316.02
355.944	349.92
356.326	321.9
356.709	323.25
357.091	337.72
357.473	355.8
357.855	329.36
358.238	342.46
358.62	326.87
359.002	345.85
359.384	331.84
359.766	338.85
360.148	323.71
360.53	326.64
360.912	333.42
361.294	344.72
361.676	338.85
362.057	326.64
362.439	338.62
362.821	330.03
363.203	307.66
363.584	324.16
363.966	341.11
364.348	312.41
364.729	334.33
365.111	303.82
365.493	306.08
365.874	309.7
366.256	312.18
366.637	316.25
367.019	316.47
367.4	313.08
367.781	307.21
368.163	320.77
368.544	295.23
368.925	325.74
369.306	329.58
369.688	287.77
370.069	305.63
370.45	318.28
370.831	305.4
371.212	314.44
371.593	307.89
371.974	320.09
372.355	312.63
372.736	326.64
373.117	317.6
373.498	323.93
373.879	317.83
374.26	315.34
374.641	322.12
375.021	319.41
375.402	353.99
375.783	326.42
376.163	320.09
376.544	344.27
376.925	319.41
377.305	325.97
377.686	332.97
378.066	345.63
378.447	321.22
378.827	335.46
379.208	343.59
379.588	328.9
379.968	330.03
380.349	337.04
380.729	341.33
381.109	319.41
381.489	347.43
381.87	336.36
382.25	306.76
382.63	329.58
383.01	306.53
383.39	341.11
383.77	337.94
384.15	343.82
384.53	346.98
384.91	343.82
385.29	365.06
385.67	346.3
386.049	361.67
386.429	328.68
386.809	370.03
387.189	350.15
387.568	339.3
387.948	341.33
388.328	337.72
388.707	342.46
389.087	350.6
389.466	351.05
389.846	339.52
390.225	381.11
390.605	360.32
390.984	359.19
391.363	347.66
391.743	358.96
392.122	355.57
392.501	381.78
392.881	398.73
393.26	369.35
393.639	358.51
394.018	382.24
394.397	360.54
394.776	394.89
395.155	362.8
395.534	368.68
395.913	383.59
396.292	391.73
396.671	379.07
397.05	399.18
397.429	374.55
397.808	371.39
398.186	409.35
398.565	396.7
398.944	410.71
399.323	404.83
399.701	392.86
400.08	403.25
400.458	387.43
400.837	403.93
401.215	400.09
401.594	393.53
401.972	417.04
402.351	393.99
402.729	414.33
403.107	418.84
403.486	431.73
403.864	420.43
404.242	433.99
404.62	456.58
404.999	448.45
405.377	440.09
405.755	437.6
406.133	462.46
406.511	443.7
406.889	436.7
407.267	446.64
407.645	459.3
408.023	461.78
408.401	481.22
408.779	479.86
409.156	489.8
409.534	500.42
409.912	486.64
410.29	503.59
410.667	520.54
411.045	529.8
411.422	530.71
411.8	532.74
412.178	536.81
412.555	559.86
412.933	570.03
413.31	571.38
413.687	566.64
414.065	574.1
414.442	588.11
414.819	622.46
415.197	606.64
415.574	617.94
415.951	623.13
416.328	609.57
416.705	629.01
417.082	649.8
417.46	665.39
417.837	666.52
418.214	669.46
418.591	692.74
418.967	677.82
419.344	689.57
419.721	681.66
420.098	730.02
420.475	699.52
420.852	724.83
421.228	742
421.605	739.29
421.982	779.29
422.358	768.89
422.735	773.41
423.111	793.98
423.488	826.74
423.864	821.77
424.241	841.43
424.617	848.21
424.994	879.4
425.37	886.86
425.746	894.31
426.123	902.67
426.499	902.9
426.875	930.02
427.251	979.06
427.627	963.01
428.003	971.6
428.379	981.09
428.756	980.41
429.132	996.46
429.507	1024.03
429.883	1020.19
430.259	1030.35
430.635	1048.43
431.011	1083.69
431.387	1076.91
431.763	1104.7
432.138	1116.45
432.514	1114.19
432.89	1135.66
433.265	1173.18
433.641	1200.75
434.016	1196.45
434.392	1188.99
434.767	1248.65
435.143	1255.66
435.518	1280.52
435.894	1289.56
436.269	1298.14
436.644	1348.54
437.02	1391.47
437.395	1376.79
437.77	1397.58
438.145	1453.62
438.52	1451.36
438.895	1482.55
439.271	1471.47
439.646	1538.14
440.021	1524.8
440.395	1557.8
440.77	1560.96
441.145	1608.87
441.52	1631.02
441.895	1641.41
442.27	1668.53
442.645	1664.69
443.019	1671.47
443.394	1715.76
443.769	1715.08
444.143	1719.15
444.518	1716.21
444.892	1757.57
445.267	1772.93
445.641	1802.54
446.016	1861.97
446.39	1840.28
446.764	1873.95
447.139	1864.46
447.513	1868.75
447.887	1898.81
448.262	1922.99
448.636	1913.27
449.01	1951.91
449.384	1953.04
449.758	1966.15
450.132	2009.99
450.506	2027.16
450.88	2018.35
451.254	2040.95
451.628	2088.86
452.002	2088.41
452.376	2091.57
452.75	2117.11
453.123	2151
453.497	2159.59
453.871	2191.23
454.244	2242.75
454.618	2223.77
454.992	2282.52
455.365	2280.04
455.739	2334.95
456.112	2374.73
456.486	2387.15
456.859	2400.71
457.232	2433.26
457.606	2424.22
457.979	2459.7
458.352	2559.35
458.725	2539.24
459.099	2565.23
459.472	2614.04
459.845	2640.26
460.218	2670.76
460.591	2670.31
460.964	2698.11
461.337	2786.24
461.71	2823.75
462.083	2840.7
462.456	2860.14
462.829	2868.27
463.201	2927.48
463.574	2935.39
463.947	3015.16
464.32	3020.58
464.692	3091.54
465.065	3068.27
465.438	3149.62
465.81	3248.38
466.183	3201.14
466.555	3298.09
466.928	3328.6
467.3	3337.64
467.672	3339.22
468.045	3508.03
468.417	3496.28
468.789	3485.88
469.161	3566.56
469.534	3634.58
469.906	3694.69
470.278	3731.3
470.65	3794.12
471.022	3808.59
471.394	3929.94
471.766	3963.16
472.138	3964.29
472.51	4044.29
472.882	4108.24
473.253	4190.05
473.625	4228.91
473.997	4354.79
474.369	4349.36
474.74	4452.64
475.112	4478.4
475.484	4547.78
475.855	4637.72
476.227	4711.84
476.598	4802.68
476.97	4890.14
477.341	4981.44
477.713	5052.62
478.084	5065.28
478.455	5186.18
478.827	5270.47
479.198	5427.75
479.569	5474.53
479.94	5594.08
480.311	5620.06
480.682	5757.69
481.053	5904.12
481.424	6002.43
481.795	6114.51
482.166	6124.46
482.537	6225.7
482.908	6358.35
483.279	6350.89
483.65	6508.4
484.021	6670.88
484.391	6730.09
484.762	6800.82
485.133	6899.58
485.503	6932.12
485.874	7079.23
486.244	7170.31
486.615	7262.73
486.985	7357.19
487.356	7532.56
487.726	7641.48
488.097	7732.78
488.467	7809.39
488.837	7910.63
489.207	8032.43
489.578	8108.81
489.948	8208.02
490.318	8330.95
490.688	8391.29
491.058	8511.29
491.428	8566.65
491.798	8655.46
492.168	8768
492.538	8825.63
492.908	8932.75
493.278	9047.54
493.648	9087.77
494.017	9064.72
494.387	9223.81
494.757	9281.44
495.126	9334.99
495.496	9376.35
495.866	9481.43
496.235	9577.7
496.605	9619.96
496.974	9651.14
497.344	9721.88
497.713	9755.55
498.082	9844.36
498.452	9942.21
498.821	9945.6
499.19	9958.71
499.559	9986.05
499.928	10039.38
500.298	10143.11
500.667	10212.71
501.036	10127.52
501.405	10249.09
501.774	10211.81
502.143	10337
502.512	10304.91
502.88	10475.98
503.249	10453.61
503.618	10428.98
503.987	10489.99
504.356	10469.88
504.724	10557.56
505.093	10527.51
505.462	10585.58
505.83	10666.49
506.199	10673.04
506.567	10789.65
506.936	10706.48
507.304	10850.89
507.672	10829.64
508.041	10808.18
508.409	10912.35
508.777	11003.43
509.145	10939.92
509.514	10896.76
509.882	11015.4
510.25	10992.58
510.618	11023.76
510.986	11022.86
511.354	11000.04
511.722	11133.59
512.09	11179.92
512.458	11091.78
512.826	11135.85
513.193	11193.02
513.561	11152.35
513.929	11237.32
514.297	11254.04
514.664	11266.92
515.032	11279.12
515.4	11308.95
515.767	11233.93
516.135	11343.98
516.502	11204.78
516.869	11345.11
517.237	11314.38
517.604	11249.29
517.972	11303.08
518.339	11373.59
518.706	11284.77
519.073	11280.48
519.44	11325.68
519.808	11404.54
520.175	11403.87
520.542	11439.35
520.909	11430.31
521.276	11340.82
521.643	11408.16
522.009	11429.18
522.376	11456.97
522.743	11411.1
523.11	11490.19
523.477	11513.69
523.843	11469.63
524.21	11533.58
524.577	11459.46
524.943	11583.98
525.31	11464.43
525.676	11548.04
526.043	11518.89
526.409	11490.42
526.776	11572.9
527.142	11488.61
527.508	11522.06
527.874	11547.37
528.241	11493.58
528.607	11424.66
528.973	11475.96
529.339	11378.1
529.705	11459.68
530.071	11425.56
530.437	11384.21
530.803	11346.92
531.169	11388.73
531.535	11310.76
531.901	11299.91
532.267	11251.78
532.632	11268.05
532.998	11233.7
533.364	11177.66
533.73	11103.99
534.095	11193.48
534.461	11066.25
534.826	11132.46
535.192	11066.02
535.557	11033.48
535.923	10999.81
536.288	10889.3
536.653	10864.22
537.019	10848.63
537.384	10822.64
537.749	10744
538.114	10724.11
538.479	10673.04
538.845	10693.83
539.21	10552.36
539.575	10535.19
539.94	10494.74
540.305	10424.23
540.67	10413.16
541.034	10316.89
541.399	10285.48
541.764	10330.22
542.129	10234.86
542.494	10219.72
542.858	10153.05
543.223	10054.07
543.587	10059.72
543.952	9965.71
544.316	9881.42
544.681	9851.37
545.045	9784.02
545.41	9883.45
545.774	9822.67
546.138	9670.58
546.503	9608.43
546.867	9557.36
547.231	9592.16
547.595	9535.22
547.959	9451.38
548.324	9387.2
548.688	9298.39
549.052	9358.27
549.416	9250.48
549.779	9186.07
550.143	9170.71
550.507	9097.03
550.871	9137.49
551.235	9037.6
551.599	9019.07
551.962	9021.56
552.326	8938.17
552.689	8953.99
553.053	8875.8
553.417	8825.86
553.78	8805.52
554.143	8722.58
554.507	8721
554.87	8701.34
555.234	8660.44
555.597	8567.11
555.96	8576.82
556.323	8591.29
556.686	8584.73
557.05	8499.76
557.413	8467.9
557.776	8450.27
558.139	8475.81
558.502	8427.22
558.865	8414.11
559.228	8389.71
559.59	8322.37
559.953	8330.95
560.316	8343.83
560.679	8313.55
561.041	8341.8
561.404	8271.29
561.767	8299.77
562.129	8226.32
562.492	8282.82
562.854	8190.84
563.217	8228.36
563.579	8204.4
563.941	8208.02
564.304	8205.53
564.666	8151.75
565.028	8183.61
565.39	8177.51
565.753	8186.78
566.115	8139.09
566.477	8154.46
566.839	8168.02
567.201	8170.51
567.563	8150.85
567.925	8106.55
568.287	8172.31
568.648	8100.9
569.01	8127.79
569.372	8142.48
569.734	8078.76
570.095	8130.28
570.457	8151.52
570.819	8061.81
571.18	8090.51
571.542	8184.06
571.903	8110.17
572.265	8072.88
572.626	8156.04
572.987	8097.97
573.349	8097.97
573.71	8090.06
574.071	8071.07
574.432	8077.17
574.794	8121.69
575.155	8097.74
575.516	8044.18
575.877	8110.62
576.238	8116.04
576.599	8107.23
576.96	8020.68
577.32	8125.99
577.681	8074.91
578.042	8102.26
578.403	8105.2
578.763	8118.53
579.124	8025.65
579.485	8043.73
579.845	8088.93
580.206	8064.52
580.566	8042.83
580.927	8115.14
581.287	8086.89
581.648	8064.52
582.008	8071.98
582.368	8020.68
582.728	7978.19
583.089	7995.82
583.449	7938.87
583.809	7994.24
584.169	8022.26
584.529	7931.87
584.889	7955.14
585.249	7958.31
585.609	7949.95
585.969	7956.73
586.329	7923.96
586.688	7908.37
587.048	7907.01
587.408	7862.94
587.768	7848.71
588.127	7801.48
588.487	7847.12
588.846	7891.87
589.206	7804.87
589.565	7846.67
589.925	7890.29
590.284	7859.55
590.643	7847.58
591.003	7739.33
591.362	7873.34
591.721	7863.62
592.08	7807.13
592.44	7808.48
592.799	7801.7
593.158	7786.33
593.517	7748.6
593.876	7727.13
594.235	7703.4
594.593	7727.35
594.952	7754.92
595.311	7723.74
595.67	7671.31
596.029	7747.47
596.387	7761.7
596.746	7701.37
597.104	7654.36
597.463	7646.45
597.822	7675.6
598.18	7614.36
598.538	7606.68
598.897	7728.26
599.255	7613.68
599.613	7705.88
599.972	7606.23
600.33	7619.56
600.688	7631.99
601.046	7619.33
601.404	7645.77
601.762	7636.06
602.12	7674.25
602.478	7620.69
602.836	7638.54
603.194	7599
603.552	7672.67
603.91	7567.58
604.268	7603.06
604.625	7558.09
604.983	7606.23
605.341	7585.89
605.698	7585.89
606.056	7588.37
606.413	7655.94
606.771	7651.65
607.128	7564.42
607.485	7549.96
607.843	7541.14
608.2	7529.39
608.557	7604.64
608.914	7620.69
609.272	7600.8
609.629	7594.93
609.986	7638.09
610.343	7549.5
610.7	7676.06
611.057	7686.9
611.414	7646.9
611.771	7552.89
612.127	7682.16
612.484	7697.3
612.841	7674.25
613.198	7641.03
613.554	7674.7
613.911	7686.45
614.267	7697.07
614.624	7650.75
614.98	7674.02
615.337	7717.64
615.693	7678.32
616.05	7691.87
616.406	7736.39
616.762	7660.46
617.118	7660.01
617.475	7664.76
617.831	7701.37
618.187	7737.07
618.543	7732.55
618.899	7735.49
619.255	7719.9
619.611	7720.35
619.967	7725.77
620.323	7695.49
620.678	7657.98
621.034	7678.99
621.39	7752.21
621.746	7730.52
622.101	7799.22
622.457	7681.7
622.812	7794.92
623.168	7769.61
623.523	7738.2
623.879	7794.47
624.234	7660.24
624.589	7740.23
624.945	7821.14
625.3	7734.81
625.655	7718.99
626.01	7767.35
626.365	7752.21
626.72	7656.17
627.075	7752.21
627.43	7723.29
627.785	7678.32
628.14	7697.07
628.495	7703.4
628.85	7671.54
629.205	7662.04
629.559	7690.07
629.914	7694.36
630.269	7717.86
630.623	7635.38
630.978	7564.42
631.332	7595.38
631.687	7624.31
632.041	7634.7
632.396	7585.21
632.75	7608.94
633.104	7580.92
633.459	7538.43
633.813	7623.85
634.167	7535.95
634.521	7609.84
634.875	7583.4
635.229	7571.43
635.583	7475.16
635.937	7458.43
636.291	7530.3
636.645	7495.04
636.999	7507.47
637.352	7464.54
637.706	7456.4
638.06	7461.37
638.413	7460.24
638.767	7458.66
639.121	7454.37
639.474	7438.77
639.828	7368.27
640.181	7371.88
640.534	7420.92
640.888	7349.96
641.241	7365.55
641.594	7369.85
641.947	7434.25
642.301	7338.66
642.654	7375.5
643.007	7348.38
643.36	7363.97
643.713	7338.44
644.066	7416.85
644.419	7364.43
644.771	7227.71
645.124	7227.71
645.477	7163.07
645.83	7140.25
646.182	7107.48
646.535	7106.8
646.888	7127.82
647.24	7068.61
647.593	7111.78
647.945	7126.92
648.298	7154.49
648.65	7093.92
649.002	7087.37
649.355	7105.45
649.707	7095.73
650.059	7125.11
650.411	7210.53
650.763	7246.46
651.115	7311.09
651.467	7271.32
651.819	7287.36
652.171	7260.47
652.523	7319.23
652.875	7285.11
653.227	7298.21
653.578	7298.66
653.93	7260.47
654.282	7215.5
654.633	7265.67
654.985	7322.39
655.337	7277.65
655.688	7317.42
656.039	7326.01
656.391	7230.42
656.742	7283.3
657.094	7318.1
657.445	7346.8
657.796	7256.18
658.147	7262.96
658.498	7274.71
658.849	7334.37
659.2	7353.8
659.551	7329.85
659.902	7361.71
660.253	7318.32
660.604	7317.87
660.955	7284.2
661.306	7359.68
661.656	7335.73
662.007	7345.44
662.358	7334.14
662.708	7317.87
663.059	7348.38
663.409	7301.38
663.76	7396.97
664.11	7333.92
664.461	7372.33
664.811	7400.36
665.161	7395.38
665.511	7389.28
665.862	7396.06
666.212	7426.12
666.562	7406.01
666.912	7338.66
667.262	7382.05
667.612	7420.69
667.962	7333.92
668.312	7395.84
668.662	7352.9
669.011	7440.13
669.361	7370.98
669.711	7348.38
670.06	7352.9
670.41	7358.78
670.76	7341.15
671.109	7350.64
671.459	7362.17
671.808	7336.4
672.157	7371.2
672.507	7349.28
672.856	7279
673.205	7337.99
673.554	7365.55
673.904	7313.8
674.253	7340.02
674.602	7346.8
674.951	7174.83
675.3	7187.48
675.649	7309.06
675.998	7298.66
676.346	7310.64
676.695	7310.19
677.044	7200.36
677.393	7319.23
677.741	7227.03
678.09	7181.83
678.438	7203.53
678.787	7259.57
679.135	7192.9
679.484	7180.25
679.832	7145.9
680.181	7130.98
680.529	7168.72
680.877	7187.93
681.225	7106.8
681.573	7190.42
681.922	7071.33
682.27	7052.79
682.618	7058.67
682.966	7047.37
683.314	7135.96
683.661	7068.84
684.009	7019.35
684.357	7007.15
684.705	7008.95
685.053	6994.27
685.4	6941.84
685.748	6886.25
686.095	6883.53
686.443	6921.5
686.79	6857.09
687.138	6889.64
687.485	6855.74
687.832	6857.32
688.18	6815.06
688.527	6821.61
688.874	6822.29
689.221	6741.16
689.568	6790.43
689.915	6780.71
690.262	6795.17
690.609	6754.27
690.956	6737.1
691.303	6699.81
691.65	6690.54
691.997	6679.7
692.344	6629.76
692.69	6597.21
693.037	6540.27
693.383	6521.74
693.73	6498.91
694.077	6486.26
694.423	6514.96
694.769	6431.79
695.116	6473.37
695.462	6444.45
695.808	6372.81
696.155	6372.13
696.501	6305.7
696.847	6311.57
697.193	6295.07
697.539	6341.18
697.885	6291.23
698.231	6234.96
698.577	6183.21
698.923	6191.12
699.269	6161.74
699.614	6090.33
699.96	6084.91
700.306	6083.33
700.651	6033.16
700.997	6009.88
701.342	6019.6
701.688	5990.22
702.033	5972.37
702.379	5940.96
702.724	5933.73
703.069	5955.2
703.415	5898.47
703.76	5849.89
704.105	5842.21
704.45	5842.43
704.795	5783.22
705.14	5858.7
705.485	5827.74
705.83	5755.43
706.175	5743.9
706.52	5749.78
706.865	5692.6
707.209	5706.84
707.554	5676.79
707.899	5658.48
708.243	5698.71
708.588	5660.52
708.932	5567.86
709.277	5523.57
709.621	5566.51
709.966	5539.39
710.31	5560.18
710.654	5520.86
710.998	5496
711.342	5526.51
711.687	5480.18
712.031	5488.32
712.375	5479.5
712.719	5501.2
713.063	5445.15
713.407	5438.83
713.75	5400.63
714.094	5443.35
714.438	5422.33
714.782	5430.46
715.125	5376.91
715.469	5404.48
715.812	5378.94
716.156	5349.11
716.499	5316.8
716.843	5342.11
717.186	5282.67
717.53	5339.62
717.873	5345.95
718.216	5298.94
718.559	5293.07
718.902	5208.78
719.246	5284.93
719.589	5269.11
719.932	5250.58
720.275	5263.46
720.617	5251.71
720.96	5256.01
721.303	5276.12
721.646	5230.7
721.989	5206.06
722.331	5222.56
722.674	5219.4
723.016	5211.49
723.359	5212.17
723.701	5178.95
724.044	5152.51
724.386	5160.42
724.729	5209
725.071	5224.59
725.413	5177.14
725.755	5180.53
726.097	5175.1
726.439	5162.67
726.782	5155.22
727.124	5195.44
727.465	5180.75
727.807	5140.08
728.149	5184.37
728.491	5212.17
728.833	5186.4
729.175	5163.13
729.516	5152.73
729.858	5136.91
730.199	5165.61
730.541	5147.99
730.882	5197.7
731.224	5206.06
731.565	5166.74
731.906	5192.96
732.248	5161.77
732.589	5129.23
732.93	5114.09
733.271	5175.56
733.612	5158.16
733.953	5151.6
734.294	5179.62
734.635	5166.97
734.976	5145.27
735.317	5159.96
735.658	5162.22
735.999	5192.05
736.339	5151.83
736.68	5201.77
737.021	5253.52
737.361	5202.9
737.702	5207.87
738.042	5192.5
738.383	5243.12
738.723	5183.92
739.063	5206.97
739.404	5310.47
739.744	5238.83
740.084	5232.05
740.424	5263.92
740.764	5275.67
741.104	5323.8
741.444	5324.25
741.784	5307.98
742.124	5306.4
742.464	5369
742.804	5309.11
743.143	5469.56
743.483	5446.06
743.823	5461.65
744.162	5459.16
744.502	5523.12
744.841	5500.07
745.181	5559.95
745.52	5565.6
745.86	5571.03
746.199	5658.71
746.538	5686.28
746.877	5721.08
747.216	5738.03
747.556	5796.78
747.895	5799.27
748.234	5879.49
748.573	5899.15
748.911	5950
749.25	5992.48
749.589	6049.43
749.928	6126.94
750.267	6227.05
750.605	6311.8
750.944	6373.94
751.283	6429.53
751.621	6485.35
751.96	6547.5
752.298	6657.1
752.636	6725.35
752.975	6790.43
753.313	6892.57
753.651	7029.74
753.989	7113.13
754.327	7175.96
754.666	7294.14
755.004	7421.6
755.342	7601.25
755.679	7693.91
756.017	7817.07
756.355	8000.11
756.693	8108.81
757.031	8236.49
757.368	8359.43
757.706	8463.61
758.044	8622.47
758.381	8844.39
758.719	8980.2
759.056	9134.77
759.394	9267.2
759.731	9407.99
760.068	9630.13
760.405	9719.84
760.743	9922.55
761.08	10139.72
761.417	10237.12
761.754	10490.67
762.091	10630.33
762.428	10787.84
762.765	10907.83
763.102	11129.98
763.438	11277.99
763.775	11487.93
764.112	11620.13
764.449	11865.55
764.785	12021.03
765.122	12116.84
765.458	12281.81
765.795	12513.67
766.131	12606.32
766.467	12816.26
766.804	12917.5
767.14	13140.77
767.476	13258.51
767.812	13401.55
768.148	13652.85
768.485	13674.99
768.821	13840.86
769.157	14063.01
769.492	14118.82
769.828	14318.14
770.164	14324.24
770.5	14463.22
770.836	14671.13
771.171	14825.25
771.507	14830.22
771.842	14899.59
772.178	15055.75
772.513	15196.08
772.849	15267.49
773.184	15335.29
773.519	15560.82
773.855	15477.43
774.19	15609.41
774.525	15716.52
774.86	15815.95
775.195	15850.08
775.53	15900.7
775.865	16005.78
776.2	16056.17
776.535	16004.42
776.87	16074.25
777.205	16231.99
777.539	16269.95
777.874	16335.94
778.209	16178.66
778.543	16320.35
778.878	16320.12
779.212	16420.68
779.547	16414.58
779.881	16517.86
780.215	16577.29
780.55	16593.79
780.884	16615.26
781.218	16587.46
781.552	16673.78
781.886	16649.83
782.22	16692.99
782.554	16695.48
782.888	16662.03
783.222	16631.07
783.556	16536.16
783.889	16638.53
784.223	16569.38
784.557	16549.72
784.89	16773.22
785.224	16617.97
785.557	16617.06
785.891	16552.21
786.224	16570.06
786.558	16632.66
786.891	16541.36
787.224	16493
787.557	16554.01
787.891	16637.18
788.224	16585.2
788.557	16639.44
788.89	16606.22
789.223	16640.34
789.556	16539.1
789.888	16527.12
790.221	16505.88
790.554	16359.89
790.887	16444.19
791.219	16389.27
791.552	16298.65
791.884	16299.33
792.217	16302.5
792.549	16333.91
792.882	16235.6
793.214	16241.03
793.546	16255.94
793.879	16164.42
794.211	16100.92
794.543	16152.22
794.875	16103.63
795.207	16225.66
795.539	16163.29
795.871	16101.37
796.203	16071.77
796.535	15935.05
796.867	15889.4
797.198	15874.48
797.53	15902.28
797.862	15828.61
798.193	15879.23
798.525	15756.97
798.856	15942.96
799.188	15582.29
799.519	15573.02
799.85	15654.83
800.182	15596.52
800.513	15530.09
800.844	15462.07
801.175	15541.61
801.506	15536.41
801.837	15494.61
802.168	15471.56
802.499	15426.59
802.83	15300.71
803.161	15276.53
803.491	15355.85
803.822	15357.89
804.153	15206.03
804.483	15127.16
804.814	15155.18
805.145	15088.29
805.475	15174.62
805.805	15018.24
806.136	14939.37
806.466	15094.39
806.796	15102.53
807.126	14950.44
807.457	14851.91
807.787	14892.81
808.117	14869.09
808.447	14734.85
808.777	14786.15
809.107	14787.05
809.436	14676.78
809.766	14681.75
810.096	14624.35
810.426	14651.24
810.755	14631.35
811.085	14550.45
811.414	14543.9
811.744	14538.47
812.073	14455.99
812.403	14448.76
812.732	14433.62
813.061	14462.09
813.39	14397.23
813.719	14324.02
814.049	14375.09
814.378	14390.91
814.707	14244.92
815.036	14249.22
815.365	14233.85
815.693	14144.81
816.022	14192.72
816.351	14152.27
816.68	14084.47
817.008	14062.1
817.337	13981.2
817.665	13969.68
817.994	14051.93
818.322	13981.43
818.651	13900.52
818.979	13899.17
819.307	13963.57
819.636	13872.5
819.964	13797.25
820.292	13846.29
820.62	13850.58
820.948	13865.72
821.276	13836.8
821.604	13791.83
821.932	13842.45
822.259	13871.6
822.587	13842.22
822.915	13781.66
823.243	13778.72
823.57	13796.12
823.898	13756.35
824.225	13691.94
824.553	13773.97
824.88	13810.81
825.207	13815.55
825.535	13761.32
825.862	13853.75
826.189	13712.28
826.516	13913.63
826.843	13844.25
827.17	13783.01
827.497	13921.77
827.824	13851.71
828.151	13838.61
828.478	13929.22
828.805	13899.85
829.131	13789.34
829.458	13834.31
829.785	13775.33
830.111	13893.74
830.438	13830.92
830.764	13876.34
831.09	13913.86
831.417	13782.79
831.743	13874.54
832.069	13846.74
832.395	13766.74
832.722	13832.96
833.048	13770.58
833.374	13757.25
833.7	13651.27
834.026	13771.49
834.351	13773.07
834.677	13819.4
835.003	13781.21
835.329	13747.99
835.654	13682.68
835.98	13689
836.306	13663.02
836.631	13627.31
836.956	13712.05
837.282	13719.96
837.607	13628.89
837.932	13578.27
838.258	13562.45
838.583	13544.38
838.908	13497.15
839.233	13548.44
839.558	13498.73
839.883	13481.33
840.208	13387.09
840.533	13392.74
840.858	13357.94
841.182	13376.47
841.507	13402.68
841.832	13274.33
842.156	13302.57
842.481	13329.69
842.805	13373.98
843.13	13226.42
843.454	13173.54
843.778	13189.58
844.103	13202.01
844.427	13148.68
844.751	13116.36
845.075	13043.37
845.399	12993.43
845.723	12976.48
846.047	12976.25
846.371	12844.51
846.695	12894.22
847.019	12796.6
847.343	12721.57
847.666	12638.64
847.99	12580.11
848.313	12617.85
848.637	12497.4
848.96	12535.81
849.284	12529.71
849.607	12339.89
849.931	12409.94
850.254	12319.55
850.577	12185.77
850.9	12149.38
851.223	12172.43
851.546	12109.61
851.869	12002.04
852.192	12070.29
852.515	11918.66
852.838	11852.67
853.161	11936.73
853.483	11836.4
853.806	11853.35
854.129	11798.88
854.451	11710.98
854.774	11589.17
855.096	11611.09
855.419	11558.89
855.741	11571.09
856.063	11572.68
856.385	11415.39
856.708	11435.5
857.03	11427.37
857.352	11404.54
857.674	11380.14
857.996	11261.5
858.318	11139.47
858.64	11256.53
858.961	11245.45
859.283	11226.92
859.605	11184.66
859.926	11132.69
860.248	11174.27
860.57	11091.78
860.891	11063.54
861.212	11075.51
861.534	11002.07
861.855	10948.74
862.176	10977.21
862.498	10952.35
862.819	10888.85
863.14	10904.22
863.461	10875.52
863.782	10882.07
864.103	10884.11
864.424	10793.49
864.745	10816.31
865.065	10722.98
865.386	10720.49
865.707	10708.29
866.027	10637.33
866.348	10678.91
866.668	10656.09
866.989	10654.96
867.309	10596.66
867.63	10610.22
867.95	10643.89
868.27	10513.04
868.59	10592.59
868.91	10585.58
869.23	10552.82
869.55	10413.84
869.87	10513.04
870.19	10506.72
870.51	10522.76
870.83	10462.2
871.15	10363.44
871.469	10470.11
871.789	10403.67
872.109	10485.02
872.428	10332.71
872.748	10328.87
873.067	10348.08
873.386	10320.28
873.706	10321.86
874.025	10286.38
874.344	10293.16
874.663	10242.32
874.982	10234.63
875.301	10194.63
875.62	10197.8
875.939	10124.58
876.258	10215.42
876.577	10162.77
876.896	10192.15
877.214	10112.38
877.533	10109.21
877.852	10079.61
878.17	10111.47
878.489	10022.66
878.807	10069.21
879.125	10017.46
879.444	10033.73
879.762	10009.1
880.08	9994.41
880.398	9894.75
880.716	10003.68
881.034	9954.41
881.352	9948.31
881.67	9857.92
881.988	9801.65
882.306	9886.39
882.624	9769.11
882.941	9738.83
883.259	9775.21
883.577	9755.1
883.894	9806.17
884.212	9687.53
884.529	9680.52
884.846	9677.58
885.164	9640.98
885.481	9646.62
885.798	9606.17
886.115	9558.72
886.432	9545.38
886.75	9576.8
887.067	9529.34
887.383	9435.56
887.7	9489.57
888.017	9440.98
888.334	9462.67
888.651	9383.58
888.967	9363.92
889.284	9334.09
889.6	9376.8
889.917	9288.89
890.233	9283.92
890.55	9174.55
890.866	9274.88
891.182	9210.25
891.498	9155.11
891.815	9137.26
892.131	9060.65
892.447	9147.43
892.763	9054.32
893.079	9043.02
893.395	8995.12
893.71	8964.38
894.026	8992.86
894.342	8937.27
894.657	8897.49
894.973	8818.62
895.289	8784.05
895.604	8885.51
895.92	8773.88
896.235	8719.19
896.55	8750.15
896.865	8657.95
897.181	8622.25
897.496	8598.97
897.811	8561.23
898.126	8515.13
898.441	8516.49
898.756	8476.94
899.071	8450.5
899.386	8499.76
899.7	8379.31
900.015	8411.18
900.33	8252.99
900.644	8335.7
900.959	8246.66
901.273	8208.24
901.588	8235.81
901.902	8141.58
902.216	8224.52
902.531	8128.47
902.845	8111.98
903.159	8049.83
903.473	8022.71
903.787	8011.41
904.101	7987.91
904.415	7937.29
904.729	7872.43
905.042	7846.67
905.356	7841.93
905.67	7760.57
905.984	7800.12
906.297	7807.35
906.611	7690.29
906.924	7728.26
907.237	7740.46
907.551	7679.67
907.864	7584.98
908.177	7625.21
908.491	7521.26
908.804	7528.71
909.117	7502.73
909.43	7404.88
909.743	7429.73
910.056	7426.57
910.368	7342.28
910.681	7299.57
910.994	7287.59
911.307	7249.17
911.619	7234.48
911.932	7193.36
912.244	7175.96
912.557	7188.38
912.869	7087.37
913.181	7071.78
913.494	7077.2
913.806	7048.95
914.118	7004.21
914.43	6954.72
914.742	6987.49
915.054	6930.99
915.366	6928.05
915.678	6827.72
915.99	6839.24
916.302	6787.49
916.613	6783.65
916.925	6801.5
917.236	6771.22
917.548	6698.68
917.859	6664.56
918.171	6577.1
918.482	6659.81
918.794	6585.46
919.105	6552.24
919.416	6513.83
919.727	6462.53
920.038	6434.96
920.349	6447.84
920.66	6461.85
920.971	6414.17
921.282	6384.56
921.593	6347.95
921.903	6333.04
922.214	6314.51
922.525	6243.32
922.835	6276.54
923.146	6212.82
923.456	6213.49
923.767	6171.46
924.077	6145.02
924.387	6154.97
924.697	6040.62
925.008	6049.43
925.318	6036.55
925.628	6046.49
925.938	6018.92
926.248	5931.24
926.558	5971.47
926.867	5945.93
927.177	5870.23
927.487	5846.05
927.796	5853.05
928.106	5831.81
928.416	5870.23
928.725	5814.86
929.034	5738.71
929.344	5756.11
929.653	5739.16
929.962	5694.86
930.271	5665.49
930.581	5672.49
930.89	5617.13
931.199	5596.11
931.508	5626.84
931.817	5592.04
932.125	5545.72
932.434	5550.69
932.743	5533.29
933.051	5442.67
933.36	5478.82
933.669	5427.53
933.977	5389.34
934.286	5385.49
934.594	5385.49
934.902	5313.41
935.21	5302.78
935.519	5319.06
935.827	5304.37
936.135	5189.79
936.443	5216.91
936.751	5224.37
937.059	5226.4
937.367	5113.86
937.674	5181.43
937.982	5192.05
938.29	5118.16
938.597	5130.59
938.905	5038.84
939.213	5037.03
939.52	4980.76
939.827	5005.17
940.135	4973.08
940.442	4948.22
940.749	4955
941.056	4999.06
941.363	4868.67
941.67	4886.3
941.977	4843.36
942.284	4779.63
942.591	4804.94
942.898	4773.76
943.205	4757.94
943.511	4759.75
943.818	4778.28
944.125	4718.17
944.431	4630.94
944.738	4663.03
945.044	4630.71
945.35	4590.49
945.657	4579.41
945.963	4549.81
946.269	4540.32
946.575	4552.97
946.881	4543.48
947.187	4486.31
947.493	4489.47
947.799	4482.47
948.105	4445.63
948.41	4450.6
948.716	4447.21
949.022	4401.34
949.327	4395.01
949.633	4373.77
949.938	4335.8
950.244	4323.6
950.549	4317.73
950.854	4302.36
951.16	4265.3
951.465	4234.11
951.77	4244.28
952.075	4256.48
952.38	4210.16
952.685	4180.78
952.99	4145.53
953.294	4166.09
953.599	4104.85
953.904	4105.08
954.209	4105.53
954.513	4086.77
954.818	4036.15
955.122	4048.81
955.426	3975.59
955.731	4012.2
956.035	3941.24
956.339	3996.6
956.643	3985.53
956.948	3940.79
957.252	3872.54
957.556	3908.24
957.86	3877.96
958.163	3899.21
958.467	3848.36
958.771	3823.05
959.075	3824.18
959.378	3827.12
959.682	3778.3
959.985	3767.01
960.289	3788.93
960.592	3746.22
960.896	3731.07
961.199	3721.13
961.502	3725.88
961.805	3688.36
962.108	3657.86
962.411	3653.79
962.714	3611.76
963.017	3623.28
963.32	3623.51
963.623	3579.67
963.926	3557.29
964.228	3541.7
964.531	3542.6
964.833	3517.75
965.136	3477.3
965.438	3485.43
965.741	3477.97
966.043	3457.64
966.345	3487.46
966.648	3440.69
966.95	3429.39
967.252	3416.05
967.554	3384.19
967.856	3388.94
968.158	3344.64
968.46	3348.03
968.761	3329.73
969.063	3333.12
969.365	3315.49
969.666	3279.79
969.968	3243.4
970.269	3238.43
970.571	3271.88
970.872	3257.41
971.174	3235.72
971.475	3211.09
971.776	3180.81
972.077	3180.81
972.378	3148.49
972.679	3143.29
972.98	3140.13
973.281	3124.31
973.582	3073.24
973.883	3076.18
974.183	3063.97
974.484	3080.47
974.785	3044.09
975.085	3027.36
975.386	3075.72
975.686	3024.88
975.986	3009.29
976.287	3003.18
976.587	2990.98
976.887	2949.4
977.187	2943.07
977.487	2961.38
977.787	2914.82
978.087	2911.89
978.387	2919.12
978.687	2904.2
978.987	2873.02
979.286	2886.8
979.586	2861.04
979.885	2814.26
980.185	2829.85
980.484	2807.93
980.784	2834.15
981.083	2794.15
981.382	2780.59
981.682	2758.44
981.981	2765.45
982.28	2732.91
982.579	2748.95
982.878	2701.72
983.177	2727.26
983.475	2704.89
983.774	2671.67
984.073	2664.21
984.372	2656.53
984.67	2628.28
984.969	2599.58
985.267	2620.37
985.566	2608.39
985.864	2593.25
986.162	2587.38
986.461	2549.18
986.759	2515.29
987.057	2518.22
987.355	2500.82
987.653	2512.12
987.951	2484.78
988.249	2503.31
988.547	2487.04
988.844	2473.93
989.142	2499.02
989.44	2450.2
989.737	2421.05
990.035	2407.95
990.332	2432.8
990.63	2405.23
990.927	2411.79
991.224	2400.49
991.521	2369.75
991.819	2368.85
992.116	2358.91
992.413	2381.05
992.71	2324.11
993.006	2352.13
993.303	2327.5
993.6	2302.86
993.897	2267.16
994.193	2289.76
994.49	2271.23
994.787	2256.54
995.083	2233.03
995.379	2221.06
995.676	2219.48
995.972	2200.04
996.268	2188.06
996.565	2182.41
996.861	2189.65
997.157	2170.89
997.453	2153.04
997.749	2160.72
998.044	2156.2
998.34	2146.48
998.636	2111.68
998.932	2085.92
999.227	2094.06
999.523	2108.07
999.818	2078.01
1000.114	2048.86
1000.409	2051.57
1000.704	2076.65
1001	2059.25
1001.295	2015.19
1001.59	2074.85
1001.885	2024
1002.18	2000.05
1002.475	1981.97
1002.77	1987.39
1003.065	1952.59
1003.359	1904.68
1003.654	1947.17
1003.949	1914.17
1004.243	1959.37
1004.538	1914.4
1004.832	1914.85
1005.127	1897.68
1005.421	1857.45
1005.715	1865.81
1006.009	1871.24
1006.304	1834.4
1006.598	1820.16
1006.892	1828.75
1007.186	1810.22
1007.48	1799.83
1007.773	1775.65
1008.067	1766.38
1008.361	1753.73
1008.655	1754.4
1008.948	1752.14
1009.242	1725.7
1009.535	1733.39
1009.829	1736.1
1010.122	1684.57
1010.415	1717.12
1010.708	1697.68
1011.001	1662.65
1011.295	1677.57
1011.588	1680.73
1011.881	1645.71
1012.173	1662.65
1012.466	1667.17
1012.759	1639.83
1013.052	1625.82
1013.344	1622.66
1013.637	1652.71
1013.93	1572.49
1014.222	1579.04
1014.514	1554.41
1014.807	1561.64
1015.099	1536.33
1015.391	1529.78
1015.683	1510.57
1015.976	1508.08
1016.268	1521.64
1016.56	1487.07
1016.851	1487.52
1017.143	1515.09
1017.435	1493.62
1017.727	1461.98
1018.018	1463.79
1018.31	1465.6
1018.602	1420.17
1018.893	1444.58
1019.185	1457.69
1019.476	1442.09
1019.767	1392.83
1020.058	1392.38
1020.35	1414.3
1020.641	1386.96
1020.932	1395.09
1021.223	1341.98
1021.514	1335.43
1021.804	1336.79
1022.095	1335.21
1022.386	1322.78
1022.677	1318.93
1022.967	1324.81
1023.258	1300.18
1023.548	1295.21
1023.839	1279.39
1024.129	1271.25
1024.419	1265.83
1024.709	1248.88
1025	1248.2
1025.29	1278.48
1025.58	1245.94
1025.87	1247.75
1026.16	1239.16
1026.449	1232.83
1026.739	1235.55
1027.029	1207.3
1027.319	1180.63
1027.608	1187.86
1027.898	1182.89
1028.187	1162.1
1028.477	1168.88
1028.766	1157.58
1029.055	1130.24
1029.344	1150.35
1029.634	1138.6
1029.923	1121.65
1030.212	1142.44
1030.501	1135.89
1030.79	1101.54
1031.078	1093.63
1031.367	1091.6
1031.656	1079.84
1031.945	1054.31
1032.233	1081.65
1032.522	1040.07
1032.81	1063.12
1033.099	1038.72
1033.387	1055.21
1033.675	1035.78
1033.963	1017.7
1034.251	1018.38
1034.54	1012.05
1034.828	1021.99
1035.116	1018.83
1035.403	972.5
1035.691	988.55
1035.979	959.62
1036.267	989
1036.554	963.46
1036.842	965.05
1037.129	967.98
1037.417	920.75
1037.704	928.89
1037.992	940.19
1038.279	916.68
1038.566	919.85
1038.853	919.85
1039.14	919.85
