Data from hue_350_FLMS001491_81.txt Node
Date: Mon Feb 06 15:38:38 GMT 2017
User: dcchb
Spectrometer: FLMS00149
Trigger mode: 0
Integration Time (sec): 2.000000E-2
Scans to average: 10
Electric dark correction enabled: true
Nonlinearity correction enabled: false
Boxcar width: 0
XAxis mode: Wavelengths
Number of Pixels in Spectrum: 2048
>>>>>Begin Spectral Data<<<<<
341.393	-15.93
341.776	-15.93
342.16	-15.93
342.543	-76.72
342.927	-54.8
343.31	-96.38
343.693	-61.58
344.077	-76.95
344.46	-54.12
344.843	-57.06
345.226	-46.21
345.61	-18.42
345.993	-18.19
346.376	-3.28
346.759	16.84
347.142	29.26
347.525	45.99
347.908	60
348.291	75.14
348.674	92.31
349.057	112.65
349.44	104.29
349.823	149.49
350.206	177.06
350.588	197.85
350.971	204.63
351.354	226.55
351.737	232.88
352.119	266.55
352.502	259.99
352.884	264.29
353.267	302.03
353.65	285.3
354.032	306.09
354.414	295.25
354.797	314.68
355.179	312.42
355.562	316.94
355.944	323.27
356.326	334.79
356.709	342.02
357.091	337.51
357.473	324.4
357.855	318.52
358.238	327.11
358.62	329.82
359.002	325.98
359.384	339.54
359.766	345.19
360.148	335.7
360.53	332.31
360.912	336.38
361.294	328.92
361.676	328.01
362.057	318.75
362.439	328.92
362.821	329.14
363.203	319.2
363.584	322.36
363.966	323.72
364.348	324.17
364.729	319.88
365.111	309.03
365.493	316.26
365.874	304.74
366.256	319.2
366.637	329.6
367.019	325.53
367.4	290.95
367.781	312.2
368.163	317.84
368.544	299.99
368.925	318.75
369.306	323.95
369.688	307.45
370.069	302.7
370.45	304.74
370.831	308.81
371.212	317.17
371.593	319.2
371.974	305.87
372.355	302.03
372.736	311.97
373.117	291.86
373.498	317.62
373.879	340.22
374.26	325.75
374.641	308.13
375.021	318.97
375.402	324.17
375.783	323.95
376.163	330.27
376.544	306.09
376.925	323.27
377.305	328.47
377.686	323.49
378.066	337.51
378.447	322.59
378.827	321.69
379.208	316.49
379.588	325.98
379.968	340.89
380.349	344.28
380.729	328.01
381.109	328.24
381.489	321.91
381.87	325.3
382.25	347.45
382.63	340.89
383.01	349.48
383.39	344.51
383.77	327.11
384.15	335.92
384.53	323.72
384.91	331.86
385.29	352.42
385.67	342.25
386.049	358.3
386.429	337.05
386.809	343.61
387.189	344.06
387.568	341.57
387.948	342.48
388.328	356.04
388.707	351.06
389.087	362.82
389.466	339.54
389.846	363.27
390.225	341.8
390.605	346.09
390.984	347.22
391.363	360.1
391.743	343.38
392.122	366.43
392.501	356.71
392.881	374.34
393.26	345.19
393.639	367.33
394.018	372.53
394.397	347
394.776	367.56
395.155	356.71
395.534	361.46
395.913	383.83
396.292	365.08
396.671	395.36
397.05	368.01
397.429	376.15
397.808	363.27
398.186	399.65
398.565	391.74
398.944	372.76
399.323	373.66
399.701	394.45
400.08	379.76
400.458	375.47
400.837	372.76
401.215	405.75
401.594	393.32
401.972	398.52
402.351	398.75
402.729	396.03
403.107	406.2
403.486	411.4
403.864	401.01
404.242	394.68
404.62	412.53
404.999	401.01
405.377	418.18
405.755	413.44
406.133	412.31
406.511	402.36
406.889	411.63
407.267	433.1
407.645	431.51
408.023	415.02
408.401	435.13
408.779	409.14
409.156	421.8
409.534	436.49
409.912	439.2
410.29	424.06
410.667	430.16
411.045	439.88
411.422	439.88
411.8	443.49
412.178	454.79
412.555	463.6
412.933	460.44
413.31	451.17
413.687	450.27
414.065	480.1
414.442	466.54
414.819	479.65
415.197	467.9
415.574	501.34
415.951	480.78
416.328	504.73
416.705	501.57
417.082	477.61
417.46	473.77
417.837	517.61
418.214	501.12
418.591	496.37
418.967	516.26
419.344	519.65
419.721	535.69
420.098	511.96
420.475	513.55
420.852	541.34
421.228	515.13
421.605	538.4
421.982	535.47
422.358	537.73
422.735	555.13
423.111	526.2
423.488	545.18
423.864	528.91
424.241	555.35
424.617	559.87
424.994	541.79
425.37	565.97
425.746	541.79
426.123	568.91
426.499	580.44
426.875	583.6
427.251	603.03
427.627	585.86
428.003	612.07
428.379	601
428.756	603.26
429.132	611.4
429.507	612.53
429.883	619.31
430.259	615.69
430.635	600.32
431.011	638.29
431.387	622.7
431.763	642.58
432.138	647.33
432.514	640.77
432.89	661.11
433.265	646.65
433.641	646.65
434.016	657.27
434.392	695.69
434.767	679.42
435.143	683.71
435.518	692.3
435.894	679.87
436.269	700.66
436.644	728.46
437.02	699.08
437.395	709.02
437.77	714.9
438.145	747.89
438.52	765.52
438.895	729.13
439.271	737.27
439.646	770.49
440.021	760.54
440.395	747.21
440.77	760.77
441.145	762.58
441.52	808.91
441.895	785.63
442.27	775.91
442.645	794.89
443.019	784.05
443.394	803.93
443.769	799.87
444.143	790.15
444.518	779.08
444.892	786.98
445.267	797.61
445.641	827.44
446.016	833.54
446.39	825.4
446.764	830.37
447.139	822.92
447.513	847.32
447.887	892.74
448.262	840.99
448.636	838.06
449.01	854.1
449.384	869.02
449.758	857.27
450.132	871.05
450.506	854.55
450.88	869.24
451.254	874.44
451.628	890.94
452.002	888.23
452.376	901.56
452.75	889.58
453.123	867.21
453.497	900.65
453.871	926.19
454.244	921.67
454.618	940.88
454.992	940.43
455.365	916.02
455.739	958.96
456.112	963.25
456.486	970.03
456.859	994.66
457.232	993.31
457.606	977.71
457.979	1005.96
458.352	1007.77
458.725	1031.05
459.099	1014.55
459.472	1082.34
459.845	1029.01
460.218	1049.58
460.591	1067.2
460.964	1068.56
461.337	1081.89
461.71	1089.35
462.083	1074.89
462.456	1121.67
462.829	1115.11
463.201	1156.47
463.574	1137.94
463.947	1171.61
464.32	1161.44
464.692	1162.79
465.065	1168.9
465.438	1203.47
465.81	1209.57
466.183	1194.21
466.555	1246.18
466.928	1257.93
467.3	1262
467.672	1289.12
468.045	1289.8
468.417	1290.25
468.789	1301.1
469.161	1313.75
469.534	1353.52
469.906	1373.18
470.278	1364.14
470.65	1382.68
471.022	1412.51
471.394	1447.53
471.766	1456.8
472.138	1463.58
472.51	1492.5
472.882	1490.24
473.253	1553.52
473.625	1536.8
473.997	1552.84
474.369	1570.24
474.74	1587.64
475.112	1652.05
475.484	1650.24
475.855	1671.93
476.227	1683.46
476.598	1746.28
476.97	1716
477.341	1777.24
477.713	1802.55
478.084	1840.29
478.455	1865.6
478.827	1867.41
479.198	1892.94
479.569	1951.47
479.94	1974.3
480.311	2004.58
480.682	2066.27
481.053	2086.39
481.424	2146.5
481.795	2136.1
482.166	2160.73
482.537	2208.87
482.908	2273.27
483.279	2277.34
483.65	2344.46
484.021	2357.34
484.391	2376.32
484.762	2445.02
485.133	2463.1
485.503	2466.26
485.874	2529.54
486.244	2566.83
486.615	2624
486.985	2612.7
487.356	2639.37
487.726	2696.54
488.097	2757.33
488.467	2746.71
488.837	2789.64
489.207	2886.82
489.578	2848.85
489.948	2941.28
490.318	2997.32
490.688	2973.59
491.058	3044.33
491.428	3054.95
491.798	3092.01
492.168	3153.48
492.538	3156.19
492.908	3147.83
493.278	3216.3
493.648	3233.02
494.017	3289.52
494.387	3328.16
494.757	3330.19
495.126	3372.68
495.496	3402.74
495.866	3439.8
496.235	3470.3
496.605	3519.34
496.974	3501.04
497.344	3519.79
497.713	3595.95
498.082	3598.89
498.452	3610.64
498.821	3657.87
499.19	3666.46
499.559	3730.86
499.928	3762.27
500.298	3749.84
500.667	3765.89
501.036	3757.98
501.405	3816.51
501.774	3806.57
502.143	3802.27
502.512	3862.84
502.88	3917.3
503.249	3885.21
503.618	3934.92
503.987	3909.84
504.356	3947.58
504.724	3971.53
505.093	3965.43
505.462	3957.75
505.83	3993.45
506.199	4058.54
506.567	4086.79
506.936	4070.51
507.304	4160.68
507.672	4143.73
508.041	4146.44
508.409	4162.04
508.777	4186.44
509.145	4221.7
509.514	4221.7
509.882	4282.94
510.25	4229.15
510.618	4297.18
510.986	4294.69
511.354	4312.54
511.722	4301.24
512.09	4334.24
512.458	4338.53
512.826	4411.3
513.193	4387.79
513.561	4436.38
513.929	4439.09
514.297	4504.4
514.664	4491.97
515.032	4524.51
515.4	4544.17
515.767	4496.27
516.135	4551.41
516.502	4508.02
516.869	4557.51
517.237	4581.01
517.604	4584.4
517.972	4598.64
518.339	4654.68
518.706	4665.75
519.073	4650.84
519.44	4661.91
519.808	4715.47
520.175	4713.89
520.542	4782.59
520.909	4745.52
521.276	4815.58
521.643	4810.16
522.009	4807.44
522.376	4872.75
522.743	4898.97
523.11	4931.51
523.477	4940.1
523.843	4947.1
524.21	4951.17
524.577	5004.73
524.943	5038.4
525.31	5003.6
525.676	5060.77
526.043	5168.34
526.409	5123.59
526.776	5176.02
527.142	5150.03
527.508	5228.9
527.874	5283.59
528.241	5221.9
528.607	5246.53
528.973	5302.35
529.339	5342.8
529.705	5306.64
530.071	5388.45
530.437	5389.12
530.803	5432.06
531.169	5476.35
531.535	5475.68
531.901	5532.4
532.267	5490.82
532.632	5534.43
532.998	5558.84
533.364	5619.85
533.73	5604.94
534.095	5679.29
534.461	5689.68
534.826	5714.31
535.192	5725.39
535.557	5762.22
535.923	5718.38
536.288	5813.29
536.653	5766.74
537.019	5841.09
537.384	5879.51
537.749	5868.43
538.114	5875.44
538.479	5883.12
538.845	5933.29
539.21	5922.9
539.575	5978.49
539.94	6046.06
540.305	6048.77
540.67	6011.25
541.034	6081.99
541.399	6102.33
541.764	6144.13
542.129	6132.16
542.494	6139.84
542.858	6202.89
543.223	6143.68
543.587	6223.9
543.952	6249.44
544.316	6258.71
544.681	6288.76
545.045	6317.46
545.41	6376.67
545.774	6357.46
546.138	6387.29
546.503	6434.75
546.867	6446.72
547.231	6458.25
547.595	6519.26
547.959	6540.73
548.324	6522.2
548.688	6601.75
549.052	6582.31
549.416	6588.64
549.779	6627.28
550.143	6632.25
550.507	6713.16
550.871	6695.53
551.235	6673.16
551.599	6755.64
551.962	6753.38
552.326	6806.94
552.689	6841.29
553.053	6811.46
553.417	6857.33
553.78	6905.24
554.143	6820.05
554.507	6941.17
554.87	6886.03
555.234	6979.82
555.597	6961.74
555.96	6941.4
556.323	7012.58
556.686	6998.57
557.05	7066.14
557.413	7066.14
557.776	7111.56
558.139	7083.09
558.502	7147.27
558.865	7182.3
559.228	7236.31
559.59	7228.85
559.953	7255.52
560.316	7338.23
560.679	7308.62
561.041	7333.03
561.404	7444.21
561.767	7442.86
562.129	7395.17
562.492	7471.78
562.854	7381.39
563.217	7466.81
563.579	7511.1
563.941	7525.11
564.304	7495.74
564.666	7649.4
565.028	7594.49
565.39	7625
565.753	7655.96
566.115	7657.99
566.477	7748.84
566.839	7747.93
567.201	7807.37
567.563	7778.21
567.925	7870.19
568.287	7864.54
568.648	7858.66
569.01	7973.46
569.372	7992.45
569.734	8015.27
570.095	8061.6
570.457	8056.4
570.819	8054.14
571.18	8110.86
571.542	8164.42
571.903	8229.05
572.265	8239.44
572.626	8313.57
572.987	8349.95
573.349	8382.27
573.71	8404.19
574.071	8453.9
574.432	8519.66
574.794	8582.26
575.155	8616.16
575.516	8587.46
575.877	8683.05
576.238	8750.84
576.599	8752.88
576.96	8894.57
577.32	8922.82
577.681	8994
578.042	9080.55
578.403	9154
578.763	9237.84
579.124	9310.15
579.485	9427.21
579.845	9494.1
580.206	9586.98
580.566	9737.71
580.927	9828.78
581.287	9942.45
581.648	10026.74
582.008	10164.82
582.368	10385.83
582.728	10407.97
583.089	10524.58
583.449	10652.04
583.809	10831.92
584.169	11025.36
584.529	11106.26
584.889	11347.61
585.249	11435.52
585.609	11585.57
585.969	11866.24
586.329	12027.59
586.688	12224.65
587.048	12421.93
587.408	12631.42
587.768	12867.12
588.127	13002.93
588.487	13203.83
588.846	13543.49
589.206	13610.83
589.565	13926.3
589.925	14193.41
590.284	14458.49
590.643	14677.02
591.003	14968.76
591.362	15249.88
591.721	15456.88
592.08	15706.82
592.44	16039.92
592.799	16362.62
593.158	16531.43
593.517	16832.89
593.876	17164.18
594.235	17417.96
594.593	17678.74
594.952	17883.71
595.311	18273.53
595.67	18504.71
596.029	18797.13
596.387	19187.18
596.746	19446.16
597.104	19649.31
597.463	20040.04
597.822	20258.11
598.18	20553.47
598.538	20842.95
598.897	21270.74
599.255	21378.08
599.613	21854.23
599.972	21991.4
600.33	22307.78
600.688	22613.3
601.046	22860.75
601.404	23335.32
601.762	23400.85
602.12	23831.12
602.478	24057.56
602.836	24363.31
603.194	24585.68
603.552	24790.2
603.91	25024.99
604.268	25314.48
604.625	25528.03
604.983	25941.8
605.341	25938.41
605.698	26461.11
606.056	26580.88
606.413	26896.35
606.771	27189.23
607.128	27377.7
607.485	27528.65
607.843	27755.99
608.2	28166.15
608.557	28428.07
608.914	28521.17
609.272	28941.95
609.629	29000.71
609.986	29398.21
610.343	29540.13
610.7	29892.89
611.057	29981.02
611.414	30110.51
611.771	30375.81
612.127	30692.41
612.484	30841.56
612.841	31128.56
613.198	31098.28
613.554	31239.29
613.911	31662.11
614.267	31884.7
614.624	31978.03
614.98	32131.7
615.337	32433.61
615.693	32450.79
616.05	32580.27
616.406	32955.63
616.762	32928.96
617.118	33060.26
617.475	33282.85
617.831	33546.58
618.187	33571.43
618.543	33755.16
618.899	34156.28
619.255	33954.93
619.611	34265.2
619.967	34329.15
620.323	34543.61
620.678	34640.78
621.034	34617.96
621.39	34786.99
621.746	34781.8
622.101	35302.24
622.457	35081
622.812	35358.28
623.168	35373.87
623.523	35462.68
623.879	35672.17
624.234	35591.49
624.589	35704.94
624.945	35817.02
625.3	36040.3
625.655	36154.87
626.01	36044.81
626.365	36222.89
626.72	36086.4
627.075	36254.75
627.43	36391.7
627.785	36346.5
628.14	36308.54
628.495	36596.66
628.85	36579.94
629.205	36500.62
629.559	36770.22
629.914	36634.63
630.269	36825.13
630.623	36757.34
630.978	36695.87
631.332	36967.05
631.687	37036.2
632.041	36920.95
632.396	37027.39
632.75	36866.71
633.104	37022.42
633.459	36845.47
633.813	36816.77
634.167	37010.67
634.521	37064.22
634.875	37165.92
635.229	37005.47
635.583	37001.85
635.937	36985.36
636.291	37102.64
636.645	37075.97
636.999	36944.68
637.352	37113.71
637.706	36786.04
638.06	37065.81
638.413	37129.31
638.767	36950.78
639.121	37022.87
639.474	36719.15
639.828	36875.98
640.181	37188.51
640.534	37073.04
640.888	36895.64
641.241	36804.34
641.594	36844.12
641.947	37010.67
642.301	36966.82
642.654	36790.78
643.007	36882.99
643.36	36977.22
643.713	36877.56
644.066	36935.64
644.419	36845.25
644.771	36576.78
645.124	36378.59
645.477	36156.68
645.83	36034.42
646.182	35919.85
646.535	35857.02
646.888	35963.91
647.24	35697.93
647.593	35883.24
647.945	35860.19
648.298	35687.31
648.65	35648.22
649.002	35593.3
649.355	35747.65
649.707	35645.5
650.059	35838.04
650.411	36277.58
650.763	36178.82
651.115	36761.18
651.467	36548.3
651.819	36697.68
652.171	36535.65
652.523	36489.78
652.875	36512.37
653.227	36362.32
653.578	36582.2
653.93	36467.4
654.282	36391.02
654.633	36240.52
654.985	36287.07
655.337	36307.41
655.688	36207.75
656.039	36403.9
656.391	36118.49
656.742	36178.37
657.094	36258.82
657.445	36546.04
657.796	36308.08
658.147	36346.05
658.498	36207.07
658.849	36380.4
659.2	36277.58
659.551	36189.44
659.902	36369.33
660.253	36324.81
660.604	36317.8
660.955	36211.82
661.306	36374.52
661.656	36302.21
662.007	36235.32
662.358	36010.92
662.708	36121.65
663.059	36155.55
663.409	35997.13
663.76	36163
664.11	36205.71
664.461	36349.44
664.811	36208.88
665.161	36193.96
665.511	36049.33
665.862	36076.9
666.212	36292.04
666.562	36317.8
666.912	36209.56
667.262	36147.41
667.612	36238.93
667.962	36138.15
668.312	36091.82
668.662	36167.98
669.011	36089.56
669.361	36036
669.711	35969.79
670.06	35987.64
670.41	36026.96
670.76	35937.47
671.109	36060.86
671.459	35945.61
671.808	35920.98
672.157	36021.54
672.507	35648.22
672.856	35808.89
673.205	35925.5
673.554	36014.99
673.904	35824.71
674.253	36005.95
674.602	35875.1
674.951	35408.45
675.3	35263.14
675.649	35906.97
675.998	35801.21
676.346	35824.26
676.695	35802.79
677.044	35679.85
677.393	35593.98
677.741	35921.2
678.09	35619.52
678.438	35625.16
678.787	35729.79
679.135	35698.61
679.484	35351.73
679.832	35588.78
680.181	35313.99
680.529	35483.02
680.877	35348.11
681.225	35286.19
681.573	35511.95
681.922	35229.47
682.27	35143.37
682.618	35209.58
682.966	35056.59
683.314	35103.6
683.661	34950.61
684.009	34794.45
684.357	34889.82
684.705	34804.85
685.053	34773.21
685.4	34772.08
685.748	34543.61
686.095	34715.58
686.443	34438.76
686.79	34409.15
687.138	34380.68
687.485	34438.08
687.832	34243.28
688.18	34347.46
688.527	34242.15
688.874	34198.31
689.221	34059.33
689.568	34035.6
689.915	34005.09
690.262	33933.23
690.609	33857.98
690.956	33687.36
691.303	33761.03
691.65	33487.14
691.997	33571.66
692.344	33452.11
692.69	33398.1
693.037	33369.86
693.383	33068.62
693.73	33310.2
694.077	33121.28
694.423	33155.63
694.769	33010.32
695.116	32851
695.462	32892.36
695.808	32731.23
696.155	32870.44
696.501	32512.03
696.847	32557.68
697.193	32346.38
697.539	32549.09
697.885	32217.12
698.231	32255.99
698.577	32242.88
698.923	32020.06
699.269	31916.34
699.614	31766.51
699.96	31658.26
700.306	31851.03
700.651	31454.88
700.997	31504.6
701.342	31486.52
701.688	31349.35
702.033	31250.59
702.379	31255.11
702.724	31225.51
703.069	31240.65
703.415	30908.45
703.76	30848.12
704.105	30852.41
704.45	30755.91
704.795	30667.56
705.14	30585.07
705.485	30525.64
705.83	30510.05
706.175	30408.58
706.52	30430.5
706.865	30197.06
707.209	30244.29
707.554	30094.01
707.899	30225.53
708.243	29983.73
708.588	30063.05
708.932	29762.27
709.277	29865.77
709.621	29828.03
709.966	29629.16
710.31	29675.72
710.654	29512.11
710.998	29570.86
711.342	29345.33
711.687	29360.7
712.031	29249.29
712.375	29150.76
712.719	29274.6
713.063	29088.84
713.407	29235.73
713.75	29054.04
714.094	29074.38
714.438	28894.95
714.782	28909.86
715.125	28702.41
715.469	28792.12
715.812	28675.29
716.156	28497.22
716.499	28562.07
716.843	28643.43
717.186	28365.47
717.53	28527.95
717.873	28445.24
718.216	28310.78
718.559	28273.72
718.902	28096.1
719.246	28214.96
719.589	28162.31
719.932	27866.27
720.275	27968.42
720.617	27979.04
720.96	27867.4
721.303	27775.65
721.646	27833.51
721.989	27543.8
722.331	27757.58
722.674	27617.47
723.016	27687.75
723.359	27625.15
723.701	27649.1
724.044	27441.2
724.386	27415.66
724.729	27500.63
725.071	27436
725.413	27419.73
725.755	27450.24
726.097	27257.02
726.439	27135.9
726.782	27155.56
727.124	27228.55
727.465	27044.6
727.807	27036.92
728.149	27061.77
728.491	26899.07
728.833	26998.95
729.175	26811.61
729.516	26768.67
729.858	26728
730.199	26728.9
730.541	26674.89
730.882	26674.21
731.224	26820.65
731.565	26601.22
731.906	26663.14
732.248	26596.25
732.589	26346.31
732.93	26327.56
733.271	26402.36
733.612	26344.73
733.953	26328.91
734.294	26244.85
734.635	26189.71
734.976	26282.36
735.317	26168.24
735.658	26222.25
735.999	26093.44
736.339	26047.79
736.68	26190.38
737.021	26058.86
737.361	25977.51
737.702	26107.45
738.042	25894.35
738.383	25833.56
738.723	25867.91
739.063	25830.39
739.404	25913.33
739.744	25764.63
740.084	25597.18
740.424	25656.61
740.764	25639.66
741.104	25782.71
741.444	25638.31
741.784	25425.21
742.124	25513.11
742.464	25382.95
742.804	25415.72
743.143	25338.66
743.483	25379.33
743.823	25378.65
744.162	25309.96
744.502	25331.65
744.841	25149.51
745.181	25261.14
745.52	25127.14
745.86	25280.13
746.199	25092.33
746.538	25031.55
746.877	24991.32
747.216	25159.45
747.556	24963.98
747.895	25033.58
748.234	24852.57
748.573	24914.94
748.911	24728.73
749.25	24773.92
749.589	24799.69
749.928	24739.35
750.267	24711.33
750.605	24556.3
750.944	24504.33
751.283	24515.17
751.621	24508.17
751.96	24439.92
752.298	24325.8
752.636	24361.51
752.975	24224.33
753.313	24150.44
753.651	24429.98
753.989	24109.54
754.327	24095.3
754.666	23966.26
755.004	24044.45
755.342	24018.24
755.679	23946.15
756.017	23799.04
756.355	23949.99
756.693	23813.72
757.031	23828.64
757.368	23669.32
757.706	23620.96
758.044	23527.86
758.381	23564.24
758.719	23495.09
759.056	23525.14
759.394	23404.02
759.731	23345.94
760.068	23195.66
760.405	23147.98
760.743	23061.2
761.08	23121.99
761.417	23045.38
761.754	22970.81
762.091	22869.12
762.428	22744.83
762.765	22670.48
763.102	22738.72
763.438	22648.56
763.775	22560.88
764.112	22653.53
764.449	22460.77
764.785	22428.45
765.122	22388.9
765.458	22222.58
765.795	22109.59
766.131	22199.53
766.467	22051.96
766.804	21942.36
767.14	21911.4
767.476	21924.96
767.812	21719.54
768.148	21758.18
768.485	21536.72
768.821	21583.27
769.157	21454.01
769.492	21431.64
769.828	21410.62
770.164	21178.09
770.5	21219.22
770.836	21200.46
771.171	21013.57
771.507	21004.53
771.842	20893.8
772.178	20887.25
772.513	20890.64
772.849	20675.73
773.184	20572.91
773.519	20675.73
773.855	20554.37
774.19	20459.24
774.525	20410.65
774.86	20383.31
775.195	20314.16
775.53	20238.22
775.865	20042.07
776.2	20047.27
776.535	19844.56
776.87	19907.61
777.205	19816.09
777.539	19764.79
777.874	19765.92
778.209	19383.11
778.543	19431.01
778.878	19421.98
779.212	19363.45
779.547	19222.43
779.881	19256.56
780.215	19158.71
780.55	19154.19
780.884	19039.39
781.218	19016.34
781.552	18935.89
781.886	18849.56
782.22	18746.51
782.554	18660.87
782.888	18560.75
783.222	18540.64
783.556	18475.79
783.889	18366.64
784.223	18276.92
784.557	18158.05
784.89	18211.84
785.224	18193.31
785.557	17986.98
785.891	17997.61
786.224	17922.35
786.558	17989.92
786.891	17756.71
787.224	17665.64
787.557	17605.98
787.891	17654.34
788.224	17614.34
788.557	17623.15
788.89	17466.32
789.223	17468.13
789.556	17340.67
789.888	17338.19
790.221	17187.46
790.554	17084.18
790.887	17152.88
791.219	17009.61
791.552	16971.19
791.884	16928.93
792.217	16884.87
792.549	16729.62
792.882	16712.22
793.214	16620.24
793.546	16663.4
793.879	16533.69
794.211	16490.98
794.543	16496.85
794.875	16468.15
795.207	16426.12
795.539	16282.85
795.871	16343.64
796.203	16172.8
796.535	16172.12
796.867	16043.98
797.198	16021.16
797.53	16058.9
797.862	15915.4
798.193	15912.91
798.525	15846.25
798.856	15845.12
799.188	15693.03
799.519	15690.55
799.85	15545.24
800.182	15614.84
800.513	15527.61
800.844	15400.16
801.175	15514.73
801.506	15507.95
801.837	15436.77
802.168	15365.58
802.499	15296.21
802.83	15266.83
803.161	15255.08
803.491	15197.23
803.822	15127.85
804.153	15117.91
804.483	14939.16
804.814	14868.65
805.145	14844.69
805.475	14893.05
805.805	14800.85
806.136	14819.38
806.466	14725.83
806.796	14815.77
807.126	14617.36
807.457	14509.56
807.787	14549.11
808.117	14501.88
808.447	14469.56
808.777	14479.96
809.107	14498.71
809.436	14435.89
809.766	14354.31
810.096	14324.26
810.426	14334.43
810.755	14338.27
811.085	14188.44
811.414	14217.37
811.744	14130.36
812.073	14035.68
812.403	13991.38
812.732	13994.77
813.061	13942.8
813.39	13900.31
813.719	13772.86
814.049	13889.47
814.378	13833.42
814.707	13750.49
815.036	13774.67
815.365	13780.32
815.693	13603.6
816.022	13598.85
816.351	13582.58
816.68	13480.21
817.008	13457.39
817.337	13291.06
817.665	13260.1
817.994	13419.65
818.322	13478.85
818.651	13308.69
818.979	13259.88
819.307	13317.73
819.636	13291.51
819.964	13197.96
820.292	13152.54
820.62	13236.15
820.948	13096.72
821.276	13079.54
821.604	13128.36
821.932	13208.13
822.259	13201.57
822.587	13087
822.915	13069.6
823.243	13127
823.57	13108.24
823.898	13013.1
824.225	13016.72
824.553	13018.53
824.88	13068.7
825.207	13064.85
825.535	13052.65
825.862	13091.07
826.189	13074.35
826.516	13122.71
826.843	13159.99
827.17	13123.84
827.497	13078.41
827.824	13059.43
828.151	13059.66
828.478	13055.81
828.805	13122.25
829.131	13067.11
829.458	13023.05
829.785	12996.61
830.111	13049.49
830.438	13078.19
830.764	12990.05
831.09	13041.58
831.417	12932.2
831.743	13050.39
832.069	13049.26
832.395	12997.06
832.722	13082.93
833.048	12917.06
833.374	13015.36
833.7	12942.15
834.026	12940.56
834.351	12946.44
834.677	12902.82
835.003	12898.53
835.329	12883.84
835.654	12905.99
835.98	12757.74
836.306	12796.84
836.631	12761.59
836.956	12754.13
837.282	12804.75
837.607	12790.74
837.932	12741.25
838.258	12680.23
838.583	12667.35
838.908	12592.55
839.233	12635.71
839.558	12658.99
839.883	12582.83
840.208	12513.91
840.533	12505.77
840.858	12548.26
841.182	12520.91
841.507	12501.71
841.832	12402.5
842.156	12424.19
842.481	12392.78
842.805	12433.68
843.13	12300.13
843.454	12333.12
843.778	12218.77
844.103	12341.48
844.427	12256.29
844.751	12270.75
845.075	12141.94
845.399	12124.31
845.723	12054.49
846.047	12120.47
846.371	11988.72
846.695	12006.8
847.019	11957.09
847.343	11915.05
847.666	11811.78
847.99	11741.05
848.313	11649.75
848.637	11650.43
848.96	11638.9
849.284	11550.54
849.607	11424.45
849.931	11531.11
850.254	11377.21
850.577	11385.58
850.9	11247.95
851.223	11228.07
851.546	11193.49
851.869	11099.48
852.192	11234.85
852.515	11025.81
852.838	11078.92
853.161	11014.29
853.483	10947.62
853.806	10962.76
854.129	10962.76
854.451	10880.28
854.774	10819.04
855.096	10782.65
855.419	10794.86
855.741	10683.22
856.063	10706.72
856.385	10613.39
856.708	10648.87
857.03	10579.04
857.352	10563.68
857.674	10562.1
857.996	10498.59
858.318	10508.31
858.64	10427.86
858.961	10451.14
859.283	10381.76
859.605	10385.83
859.926	10304.7
860.248	10307.19
860.57	10261.09
860.891	10247.08
861.212	10228.54
861.534	10237.58
861.855	10149
862.176	10237.36
862.498	10168.89
862.819	10183.57
863.14	10136.34
863.461	10052.96
863.782	10058.15
864.103	9998.27
864.424	10000.3
864.745	10040.07
865.065	9954.2
865.386	9957.59
865.707	9933.41
866.027	9866.97
866.348	9885.05
866.668	9859.74
866.989	9894.99
867.309	9753.53
867.63	9812.74
867.95	9825.62
868.27	9695.68
868.59	9786.97
868.91	9795.11
869.23	9773.19
869.55	9701.1
869.87	9806.63
870.19	9765.96
870.51	9683.7
870.83	9733.42
871.15	9680.08
871.469	9628.56
871.789	9720.99
872.109	9634.89
872.428	9586.98
872.748	9607.09
873.067	9613.87
873.386	9625.85
873.706	9635.11
874.025	9512.18
874.344	9536.59
874.663	9555.57
874.982	9449.13
875.301	9482.8
875.62	9452.07
875.939	9378.17
876.258	9400.77
876.577	9391.5
876.896	9337.49
877.214	9367.55
877.533	9346.99
877.852	9307.44
878.17	9275.8
878.489	9355.35
878.807	9338.85
879.125	9275.35
879.444	9281.22
879.762	9203.94
880.08	9212.3
880.398	9129.36
880.716	9250.04
881.034	9152.87
881.352	9180.21
881.67	9030.38
881.988	9168.46
882.306	9123.49
882.624	9083.26
882.941	9048.46
883.259	8994
883.577	8953.55
883.894	8997.39
884.212	8924.4
884.529	8959.2
884.846	8934.79
885.164	8897.05
885.481	8839.88
885.798	8896.38
886.115	8792.2
886.432	8880.33
886.75	8852.99
887.067	8799.2
887.383	8756.94
887.7	8706.32
888.017	8742.71
888.334	8735.02
888.651	8722.6
888.967	8683.05
889.284	8574.58
889.6	8581.58
889.917	8562.83
890.233	8499.55
890.55	8525.99
890.866	8486.67
891.182	8444.64
891.498	8454.35
891.815	8512.21
892.131	8434.47
892.447	8353.79
892.763	8325.32
893.079	8336.62
893.395	8315.15
893.71	8271.08
894.026	8245.55
894.342	8197.86
894.657	8174.59
894.973	8187.02
895.289	8216.62
895.604	8114.7
895.92	8074.93
896.235	8055.95
896.55	8005.33
896.865	7989.06
897.181	8003.07
897.496	7996.74
897.811	7956.29
898.126	7952.22
898.441	7859.57
898.756	7889.4
899.071	7836.97
899.386	7860.02
899.7	7759.68
900.015	7719.46
900.33	7681.49
900.644	7709.74
900.959	7669.74
901.273	7611.44
901.588	7620.93
901.902	7564.43
902.216	7582.06
902.531	7514.72
902.845	7521.27
903.159	7501.16
903.473	7485.11
903.787	7415.96
904.101	7394.72
904.415	7392.01
904.729	7301.39
905.042	7287.38
905.356	7247.61
905.67	7252.8
905.984	7176.42
906.297	7185.01
906.611	7175.97
906.924	7149.76
907.237	7126.25
907.551	7093.49
907.864	7039.48
908.177	7075.18
908.491	7027.5
908.804	6995.18
909.117	6961.74
909.43	6921.51
909.743	6929.87
910.056	6836.54
910.368	6876.99
910.681	6793.61
910.994	6792.02
911.307	6728.52
911.619	6741.86
911.932	6763.55
912.244	6647.4
912.557	6676.77
912.869	6612.14
913.181	6565.59
913.494	6556.32
913.806	6544.12
914.118	6532.82
914.43	6496.89
914.742	6471.36
915.054	6504.8
915.366	6427.51
915.678	6367.86
915.99	6391.81
916.302	6333.28
916.613	6320.62
916.925	6297.35
917.236	6288.99
917.548	6239.27
917.859	6337.35
918.171	6197.69
918.482	6158.82
918.794	6196.56
919.105	6133.06
919.416	6063.23
919.727	6096.68
920.038	6115.21
920.349	5998.83
920.66	5956.79
920.971	5984.81
921.282	5969.9
921.593	5892.84
921.903	5865.27
922.214	5881.31
922.525	5920.41
922.835	5826.4
923.146	5762.9
923.456	5791.83
923.767	5727.42
924.077	5747.31
924.387	5698.04
924.697	5660.76
925.008	5633.41
925.318	5590.93
925.628	5596.12
925.938	5576.46
926.248	5558.61
926.558	5530.36
926.867	5482.23
927.177	5464.15
927.487	5475.45
927.796	5412.63
928.106	5413.3
928.416	5430.25
928.725	5436.13
929.034	5328.79
929.344	5382.12
929.653	5340.54
929.962	5258.73
930.271	5274.78
930.581	5228.45
930.89	5220.99
931.199	5199.3
931.508	5160.88
931.817	5216.7
932.125	5136.25
932.434	5127.21
932.743	5086.08
933.051	5032.07
933.36	5031.62
933.669	4965.18
933.977	5005.63
934.286	4997.72
934.594	4988
934.902	4943.49
935.21	4915.69
935.519	4897.16
935.827	4907.1
936.135	4844.05
936.443	4806.09
936.751	4814
937.059	4786.65
937.367	4785.98
937.674	4780.33
937.982	4767.45
938.29	4711.63
938.597	4694.9
938.905	4640.22
939.213	4699.88
939.52	4624.17
939.827	4642.48
940.135	4604.96
940.442	4600.44
940.749	4516.83
941.056	4599.77
941.363	4529.03
941.67	4507.79
941.977	4491.07
942.284	4434.8
942.591	4451.75
942.898	4428.7
943.205	4370.39
943.511	4344.41
943.818	4364.29
944.125	4328.36
944.431	4327
944.738	4333.33
945.044	4282.26
945.35	4292.43
945.657	4263.28
945.963	4230.06
946.269	4234.8
946.575	4216.5
946.881	4177.63
947.187	4195.48
947.493	4145.09
947.799	4116.39
948.105	4092.21
948.41	4091.76
948.716	4143.96
949.022	4018.31
949.327	4060.57
949.633	3988.71
949.938	3999.78
950.244	3991.65
950.549	3966.79
950.854	3941.7
951.16	3954.13
951.465	3911.65
951.77	3925.43
952.075	3919.33
952.38	3891.99
952.685	3889.05
952.99	3796.4
953.294	3819.45
953.599	3806.11
953.904	3774.03
954.209	3711.2
954.513	3735.83
954.818	3749.84
955.122	3732.9
955.426	3737.42
955.731	3697.87
956.035	3650.64
956.339	3676.17
956.643	3649.73
956.948	3674.37
957.252	3652.67
957.556	3616.52
957.86	3581.49
958.163	3568.38
958.467	3553.92
958.771	3571.09
959.075	3536.07
959.378	3536.07
959.682	3508.72
959.985	3485.9
960.289	3465.56
960.592	3453.81
960.896	3438.44
961.199	3433.47
961.502	3399.12
961.805	3423.75
962.108	3376.52
962.411	3344.66
962.714	3346.47
963.017	3294.72
963.32	3329.07
963.623	3318.22
963.926	3308.05
964.228	3292.46
964.531	3269.41
964.833	3263.53
965.136	3276.19
965.438	3218.56
965.741	3195.74
966.043	3198.45
966.345	3207.26
966.648	3150.76
966.95	3134.49
967.252	3110.77
967.554	3134.95
967.856	3113.25
968.158	3117.32
968.46	3094.49
968.761	3041.39
969.063	3066.02
969.365	3073.03
969.666	3037.32
969.968	3040.71
970.269	3000.03
970.571	2957.55
970.872	2976.31
971.174	2980.83
971.475	2979.24
971.776	2954.16
972.077	2939.02
972.378	2921.17
972.679	2908.96
972.98	2900.38
973.281	2890.21
973.582	2843.2
973.883	2877.1
974.183	2840.72
974.484	2824.45
974.785	2798.91
975.085	2818.8
975.386	2806.82
975.686	2790.77
975.986	2774.5
976.287	2748.97
976.587	2753.94
976.887	2733.37
977.187	2698.12
977.487	2712.58
977.787	2697.22
978.087	2660.83
978.387	2709.19
978.687	2699.03
978.987	2656.54
979.286	2622.42
979.586	2629.42
979.885	2582.42
980.185	2586.49
980.484	2548.52
980.784	2595.07
981.083	2573.83
981.382	2602.08
981.682	2545.36
981.981	2537.45
982.28	2543.32
982.579	2503.1
982.878	2494.51
983.177	2512.36
983.475	2485.47
983.774	2444.12
984.073	2482.53
984.372	2471.91
984.67	2471.23
984.969	2430.11
985.267	2405.93
985.566	2423.33
985.864	2389.65
986.162	2400.5
986.461	2389.65
986.759	2377.68
987.057	2354.85
987.355	2320.5
987.653	2351.24
987.951	2365.93
988.249	2308.75
988.547	2333.84
988.844	2257.68
989.142	2262.88
989.44	2283.89
989.737	2276.89
990.035	2258.13
990.332	2238.02
990.63	2241.86
990.927	2235.53
991.224	2226.04
991.521	2208.87
991.819	2190.79
992.116	2190.79
992.413	2188.76
992.71	2181.3
993.006	2153.95
993.303	2163.9
993.6	2160.51
993.897	2138.81
994.193	2134.07
994.49	2087.97
994.787	2085.93
995.083	2081.64
995.379	2086.16
995.676	2041.42
995.972	2059.04
996.268	2018.37
996.565	2062.21
996.861	2003
997.157	2006.61
997.453	2014.98
997.749	2000.74
998.044	2010.91
998.34	1976.11
998.636	1958.03
998.932	1980.4
999.227	1945.37
999.523	1940.63
999.818	1893.4
1000.114	1929.55
1000.409	1910.35
1000.704	1919.61
1001	1876
1001.295	1859.5
1001.59	1878.93
1001.885	1864.47
1002.18	1854.75
1002.475	1851.82
1002.77	1826.05
1003.065	1851.82
1003.359	1816.11
1003.654	1812.04
1003.949	1792.38
1004.243	1773.63
1004.538	1773.85
1004.832	1765.49
1005.127	1774.3
1005.421	1747.64
1005.715	1729.79
1006.009	1712.38
1006.304	1738.15
1006.598	1692.72
1006.892	1712.61
1007.186	1697.7
1007.48	1686.62
1007.773	1650.01
1008.067	1671.48
1008.361	1643.23
1008.655	1644.59
1008.948	1620.41
1009.242	1623.12
1009.535	1633.74
1009.829	1609.11
1010.122	1611.37
1010.415	1570.92
1010.708	1524.14
1011.001	1576.79
1011.295	1562.78
1011.588	1567.76
1011.881	1563.01
1012.173	1523.24
1012.466	1527.76
1012.759	1522.78
1013.052	1512.84
1013.344	1503.58
1013.637	1494.99
1013.93	1505.84
1014.222	1466.52
1014.514	1473.97
1014.807	1465.84
1015.099	1454.99
1015.391	1427.42
1015.683	1453.86
1015.976	1440.53
1016.268	1438.72
1016.56	1398.04
1016.851	1414.31
1017.143	1396.23
1017.435	1386.52
1017.727	1350.13
1018.018	1363.92
1018.31	1320.08
1018.602	1345.39
1018.893	1362.11
1019.185	1329.34
1019.476	1314.88
1019.767	1348.55
1020.058	1314.65
1020.35	1279.4
1020.641	1289.57
1020.932	1309.23
1021.223	1294.32
1021.514	1258.61
1021.804	1242.57
1022.095	1245.96
1022.386	1249.8
1022.677	1237.14
1022.967	1228.78
1023.258	1215
1023.548	1217.71
1023.839	1216.13
1024.129	1200.53
1024.419	1201.66
1024.709	1170.25
1025	1180.42
1025.29	1168.44
1025.58	1168.22
1025.87	1181.78
1026.16	1125.51
1026.449	1133.87
1026.739	1136.13
1027.029	1112.17
1027.319	1146.75
1027.608	1111.95
1027.898	1125.73
1028.187	1104.94
1028.477	1103.81
1028.766	1105.85
1029.055	1068.11
1029.344	1079.41
1029.634	1053.64
1029.923	1053.19
1030.212	1039.63
1030.501	1045.06
1030.79	1034.89
1031.078	1062.01
1031.367	1033.98
1031.656	1010.93
1031.945	1011.39
1032.233	1022.91
1032.522	1005.28
1032.81	1010.26
1033.099	1004.83
1033.387	966.64
1033.675	996.47
1033.963	958.51
1034.251	958.28
1034.54	1001.44
1034.828	985.4
1035.116	950.6
1035.403	935
1035.691	932.97
1035.979	930.94
1036.267	930.71
1036.554	924.83
1036.842	909.92
1037.129	911.5
1037.417	909.24
1037.704	904.72
1037.992	904.04
1038.279	880.54
1038.566	880.77
1038.853	880.77
1039.14	880.77
