Data from hue_170_FLMS001491_00063.txt Node
Date: Tue Feb 07 16:49:01 GMT 2017
User: dcchb
Spectrometer: FLMS00149
Trigger mode: 0
Integration Time (sec): 2.000000E-2
Scans to average: 10
Electric dark correction enabled: true
Nonlinearity correction enabled: false
Boxcar width: 0
XAxis mode: Wavelengths
Number of Pixels in Spectrum: 2048
>>>>>Begin Spectral Data<<<<<
341.393	-17.64
341.776	-17.64
342.16	-17.64
342.543	-63.29
342.927	-55.38
343.31	-58.32
343.693	-63.06
344.077	-66.91
344.46	-55.38
344.843	-51.31
345.226	-40.69
345.61	-27.36
345.993	-32.78
346.376	-19
346.759	25.07
347.142	30.27
347.525	59.42
347.908	57.61
348.291	53.32
348.674	80.89
349.057	108.23
349.44	115.92
349.823	131.06
350.206	160.66
350.588	190.49
350.971	216.93
351.354	243.14
351.737	229.36
352.119	232.52
352.502	265.52
352.884	251.96
353.267	281.11
353.65	291.96
354.032	304.61
354.414	290.6
354.797	306.42
355.179	304.16
355.562	318.4
355.944	333.31
356.326	335.8
356.709	324.5
357.091	326.98
357.473	343.93
357.855	337.83
358.238	310.94
358.62	338.96
359.002	357.94
359.384	333.99
359.766	340.54
360.148	334.89
360.53	323.82
360.912	327.89
361.294	329.92
361.676	344.61
362.057	326.53
362.439	327.89
362.821	336.25
363.203	304.16
363.584	315.01
363.966	317.49
364.348	325.18
364.729	317.72
365.111	318.4
365.493	308.23
365.874	311.84
366.256	303.03
366.637	323.37
367.019	303.71
367.4	312.97
367.781	305.06
368.163	317.04
368.544	319.07
368.925	307.1
369.306	324.5
369.688	296.48
370.069	305.51
370.45	305.06
370.831	331.05
371.212	301.67
371.593	325.18
371.974	326.08
372.355	310.71
372.736	315.68
373.117	314.1
373.498	322.24
373.879	319.3
374.26	292.86
374.641	323.14
375.021	307.1
375.402	310.49
375.783	308.23
376.163	325.18
376.544	327.43
376.925	331.5
377.305	336.93
377.686	345.97
378.066	337.15
378.447	313.88
378.827	342.12
379.208	322.46
379.588	331.95
379.968	336.93
380.349	320.43
380.729	348
381.109	352.52
381.489	343.25
381.87	336.47
382.25	345.74
382.63	333.99
383.01	341.67
383.39	368.79
383.77	360.65
384.15	340.32
384.53	354.78
384.91	349.13
385.29	350.03
385.67	339.41
386.049	344.84
386.429	359.07
386.809	362.91
387.189	353.2
387.568	355.46
387.948	351.16
388.328	344.61
388.707	357.26
389.087	366.3
389.466	355
389.846	363.59
390.225	373.08
390.605	371.05
390.984	368.11
391.363	392.07
391.743	379.18
392.122	380.99
392.501	363.37
392.881	383.7
393.26	390.71
393.639	386.19
394.018	381.44
394.397	394.33
394.776	389.58
395.155	377.83
395.534	365.85
395.913	395
396.292	427.09
396.671	401.78
397.05	417.6
397.429	386.19
397.808	402.24
398.186	384.16
398.565	408.56
398.944	420.09
399.323	409.92
399.701	398.62
400.08	396.81
400.458	401.11
400.837	423.25
401.215	417.6
401.594	408.34
401.972	433.19
402.351	427.55
402.729	428
403.107	423.25
403.486	437.04
403.864	431.16
404.242	434.32
404.62	434.32
404.999	443.59
405.377	442.01
405.755	453.08
406.133	429.81
406.511	420.77
406.889	471.61
407.267	461.67
407.645	450.14
408.023	456.92
408.401	466.64
408.779	465.74
409.156	476.13
409.534	492.63
409.912	506.19
410.29	498.5
410.667	498.96
411.045	528.56
411.422	509.35
411.8	505.28
412.178	521.1
412.555	544.83
412.933	503.93
413.31	526.3
413.687	545.51
414.065	567.88
414.442	527.66
414.819	530.59
415.197	569.91
415.574	550.71
415.951	584.83
416.328	569.24
416.705	584.38
417.082	594.09
417.46	590.93
417.837	595
418.214	614.43
418.591	599.97
418.967	606.98
419.344	609.01
419.721	622.79
420.098	638.16
420.475	636.13
420.852	642
421.228	640.42
421.605	671.38
421.982	628.44
422.358	684.04
422.735	665.28
423.111	704.15
423.488	701.21
423.864	698.72
424.241	702.79
424.617	724.71
424.994	707.54
425.37	730.14
425.746	723.13
426.123	743.24
426.499	738.5
426.875	732.17
427.251	766.75
427.627	778.27
428.003	762.23
428.379	799.51
428.756	794.09
429.132	796.12
429.507	799.96
429.883	801.77
430.259	812.17
430.635	841.77
431.011	859.85
431.387	851.26
431.763	885.84
432.138	887.19
432.514	870.92
432.89	887.19
433.265	916.8
433.641	896.91
434.016	916.35
434.392	935.1
434.767	968.77
435.143	947.76
435.518	955.89
435.894	979.4
436.269	977.81
436.644	1018.04
437.02	1025.5
437.395	1035.89
437.77	1043.57
438.145	1057.59
438.52	1069.56
438.895	1090.8
439.271	1088.54
439.646	1089
440.021	1104.36
440.395	1109.79
440.77	1103.91
441.145	1155.21
441.52	1176.23
441.895	1162.22
442.27	1159.5
442.645	1198.37
443.019	1199.5
443.394	1182.55
443.769	1239.28
444.143	1217.35
444.518	1232.72
444.892	1270.69
445.267	1260.97
445.641	1280.18
446.016	1251.25
446.39	1274.08
446.764	1292.38
447.139	1293.29
447.513	1267.07
447.887	1331.02
448.262	1310.23
448.636	1324.24
449.01	1345.49
449.384	1328.99
449.758	1369.89
450.132	1377.58
450.506	1397.24
450.88	1426.84
451.254	1388.65
451.628	1434.52
452.002	1452.83
452.376	1423.9
452.75	1468.42
453.123	1499.83
453.497	1512.04
453.871	1535.31
454.244	1521.75
454.618	1540.74
454.992	1558.81
455.365	1589.55
455.739	1631.81
456.112	1648.53
456.486	1636.78
456.859	1668.42
457.232	1713.84
457.606	1698.25
457.979	1719.26
458.352	1747.28
458.725	1753.16
459.099	1780.28
459.472	1789.09
459.845	1829.32
460.218	1866.83
460.591	1897.34
460.964	1872.48
461.337	1932.59
461.71	1961.52
462.083	1992.7
462.456	1987.5
462.829	2015.53
463.201	2017.11
463.574	2051.91
463.947	2103.66
464.32	2156.09
464.692	2153.83
465.065	2215.52
465.438	2207.61
465.81	2289.19
466.183	2292.58
466.555	2370.09
466.928	2390.21
467.3	2373.26
467.672	2441.28
468.045	2530.77
468.417	2483.31
468.789	2519.92
469.161	2594.95
469.534	2616.64
469.906	2676.98
470.278	2718.56
470.65	2809.18
471.022	2814.15
471.394	2890.76
471.766	2936.63
472.138	2950.42
472.51	3042.84
472.882	3109.73
473.253	3118.32
473.625	3187.25
473.997	3279.67
474.369	3300.92
474.74	3387.24
475.112	3467.69
475.484	3563.06
475.855	3631.3
476.227	3660
476.598	3774.58
476.97	3837.63
477.341	3927.57
477.713	4016.6
478.084	4049.82
478.455	4216.6
478.827	4237.16
479.198	4439.42
479.569	4441
479.94	4585.18
480.311	4655
480.682	4786.07
481.053	4934.09
481.424	4995.33
481.795	5100.64
482.166	5210.24
482.537	5334.08
482.908	5460.86
483.279	5531.59
483.65	5715.09
484.021	5886.38
484.391	5970.22
484.762	6048.64
485.133	6136.55
485.503	6274.62
485.874	6438.91
486.244	6545.12
486.615	6674.84
486.985	6765.91
487.356	6970.2
487.726	7065.34
488.097	7235.95
488.467	7266.24
488.837	7506
489.207	7587.13
489.578	7779.22
489.948	7955.03
490.318	8105.54
490.688	8127.46
491.058	8270.95
491.428	8434.11
491.798	8529.93
492.168	8771.05
492.538	8811.28
492.908	9014.89
493.278	9120.42
493.648	9088.79
494.017	9294.43
494.387	9402.68
494.757	9465.73
495.126	9676.34
495.496	9723.8
495.866	9853.74
496.235	9946.39
496.605	10085.6
496.974	10132.6
497.344	10366.27
497.713	10359.94
498.082	10450.56
498.452	10531.69
498.821	10643.1
499.19	10712.47
499.559	10796.54
499.928	10846.93
500.298	11001.05
500.667	11115.4
501.036	11051.9
501.405	11206.02
501.774	11227.71
502.143	11390.19
502.512	11439.01
502.88	11555.84
503.249	11528.72
503.618	11677.19
503.987	11720.58
504.356	11784.76
504.724	11833.12
505.093	11890.75
505.462	11873.57
505.83	11944.98
506.199	12029.73
506.567	12217.97
506.936	12173
507.304	12401.69
507.672	12365.76
508.041	12380.23
508.409	12443.27
508.777	12578.41
509.145	12626.32
509.514	12658.41
509.882	12776.83
510.25	12700.44
510.618	12753.32
510.986	12785.19
511.354	12879.42
511.722	12954.67
512.09	13059.3
512.458	13011.85
512.826	13125.52
513.193	13137.49
513.561	13193.54
513.929	13210.71
514.297	13345.4
514.664	13347.43
515.032	13452.97
515.4	13473.53
515.767	13469.01
516.135	13519.4
516.502	13446.86
516.869	13596.24
517.237	13552.85
517.604	13530.93
517.972	13692.28
518.339	13692.73
518.706	13744.71
519.073	13741.77
519.44	13778.61
519.808	13898.15
520.175	13847.08
520.542	13892.05
520.909	13967.08
521.276	13883.91
521.643	13985.61
522.009	14004.82
522.376	14129.33
522.743	14079.84
523.11	14198.48
523.477	14295.88
523.843	14215.21
524.21	14362.55
524.577	14293.85
524.943	14394.86
525.31	14444.8
525.676	14391.02
526.043	14550.34
526.409	14465.82
526.776	14617.91
527.142	14489.32
527.508	14565.48
527.874	14553.5
528.241	14636.44
528.607	14585.82
528.973	14738.36
529.339	14653.39
529.705	14711.92
530.071	14648.41
530.437	14646.83
530.803	14701.75
531.169	14743.33
531.535	14626.72
531.901	14639.83
532.267	14603.44
532.632	14673.72
532.998	14677.34
533.364	14627.4
533.73	14697.9
534.095	14600.28
534.461	14663.78
534.826	14607.06
535.192	14617.45
535.557	14665.59
535.923	14535.87
536.288	14487.51
536.653	14614.74
537.019	14494.52
537.384	14457.23
537.749	14437.57
538.114	14521.64
538.479	14374.52
538.845	14381.3
539.21	14308.31
539.575	14270.57
539.94	14274.86
540.305	14304.92
540.67	14262.66
541.034	14247.29
541.399	14184.92
541.764	14119.61
542.129	14118.26
542.494	14151.25
542.858	14118.94
543.223	14034.87
543.587	14031.26
543.952	13928.89
544.316	14005.72
544.681	13879.62
545.045	13867.87
545.41	13905.61
545.774	13832.39
546.138	13789.91
546.503	13707.65
546.867	13654.54
547.231	13706.74
547.595	13675.56
547.959	13725.95
548.324	13659.97
548.688	13575.9
549.052	13530.03
549.416	13604.37
549.779	13405.96
550.143	13453.42
550.507	13421.78
550.871	13398.73
551.235	13363.48
551.599	13328.67
551.962	13321.9
552.326	13265.4
552.689	13242.8
553.053	13162.13
553.417	13122.58
553.78	13265.4
554.143	13103.6
554.507	13111.51
554.87	13123.93
555.234	13199.64
555.597	13015.69
555.96	13115.57
556.323	12986.99
556.686	13041.22
557.05	13094.1
557.413	13059.53
557.776	13064.95
558.139	13028.57
558.502	13011.62
558.865	13003.03
559.228	13014.78
559.59	12956.03
559.953	12942.92
560.316	13110.15
560.679	13058.63
561.041	13003.71
561.404	12981.34
561.767	13023.37
562.129	12973.88
562.492	13057.04
562.854	12987.67
563.217	12974.33
563.579	12973.2
563.941	13026.31
564.304	13010.49
564.666	13071.05
565.028	13076.03
565.39	13025.41
565.753	13083.26
566.115	13041.9
566.477	13086.65
566.839	12996.71
567.201	13106.31
567.563	13074.9
567.925	13202.35
568.287	13147.21
568.648	13161.22
569.01	13194.89
569.372	13274.67
569.734	13167.1
570.095	13177.94
570.457	13220.2
570.819	13190.6
571.18	13252.07
571.542	13280.77
571.903	13262.69
572.265	13295.46
572.626	13284.38
572.987	13283.25
573.349	13213.65
573.71	13341.56
574.071	13238.28
574.432	13295.23
574.794	13351.73
575.155	13378.39
575.516	13281.9
575.877	13300.88
576.238	13307.43
576.599	13415.23
576.96	13334.1
577.32	13328
577.681	13324.83
578.042	13269.47
578.403	13340.43
578.763	13334.32
579.124	13360.99
579.485	13385.4
579.845	13433.08
580.206	13332.97
580.566	13384.49
580.927	13395.57
581.287	13350.6
581.648	13327.77
582.008	13410.93
582.368	13319.18
582.728	13361.22
583.089	13359.18
583.449	13236.02
583.809	13355.79
584.169	13295
584.529	13277.83
584.889	13288.9
585.249	13267.66
585.609	13223.14
585.969	13368.67
586.329	13260.88
586.688	13244.84
587.048	13212.97
587.408	13230.6
587.768	13176.36
588.127	13243.93
588.487	13086.2
588.846	13226.3
589.206	13219.53
589.565	13229.24
589.925	13197.38
590.284	13156.93
590.643	13136.82
591.003	13172.29
591.362	13196.02
591.721	13102.47
592.08	13139.98
592.44	13131.17
592.799	13106.08
593.158	13048.91
593.517	13055.46
593.876	13074.67
594.235	13010.27
594.593	13068.12
594.952	13015.01
595.311	13031.06
595.67	13102.69
596.029	13120.32
596.387	13060.21
596.746	13138.85
597.104	12946.54
597.463	13095.91
597.822	13122.8
598.18	12945.41
598.538	12924.62
598.897	13075.57
599.255	12889.82
599.613	13115.57
599.972	12978.4
600.33	12931.4
600.688	12922.13
601.046	13007.78
601.404	13063.37
601.762	13001.9
602.12	13085.97
602.478	12953.77
602.836	13005.75
603.194	12908.12
603.552	12906.99
603.91	12928.01
604.268	12986.09
604.625	12838.97
604.983	13005.07
605.341	12881.46
605.698	12907.9
606.056	12986.99
606.413	12959.65
606.771	12972.98
607.128	13028.8
607.485	12954.9
607.843	12950.15
608.2	12985.86
608.557	13010.27
608.914	12920.78
609.272	13036.03
609.629	12973.43
609.986	13116.48
610.343	13037.61
610.7	13133.88
611.057	13110.83
611.414	13120.32
611.771	13116.93
612.127	13194.89
612.484	13123.48
612.841	13150.6
613.198	13127.55
613.554	13171.84
613.911	13204.61
614.267	13193.76
614.624	13113.77
614.98	13214.78
615.337	13294.78
615.693	13236.47
616.05	13237.15
616.406	13224.72
616.762	13199.64
617.118	13236.7
617.475	13271.73
617.831	13265.63
618.187	13263.14
618.543	13281.44
618.899	13299.3
619.255	13309.92
619.611	13311.05
619.967	13324.38
620.323	13324.83
620.678	13299.3
621.034	13356.02
621.39	13324.38
621.746	13285.29
622.101	13462.46
622.457	13382.46
622.812	13411.38
623.168	13325.51
623.523	13306.08
623.879	13331.39
624.234	13236.25
624.589	13396.47
624.945	13312.63
625.3	13328.45
625.655	13342.46
626.01	13295.23
626.365	13384.27
626.72	13327.32
627.075	13290.26
627.43	13317.38
627.785	13305.62
628.14	13299.52
628.495	13246.64
628.85	13232.63
629.205	13233.54
629.559	13337.49
629.914	13184.05
630.269	13282.57
630.623	13198.28
630.978	13179.3
631.332	13231.73
631.687	13281.9
632.041	13145.63
632.396	13141.79
632.75	13170.04
633.104	13186.08
633.459	13066.99
633.813	13104.05
634.167	13052.07
634.521	13127.55
634.875	13039.19
635.229	13073.09
635.583	12978.18
635.937	13001.9
636.291	12944.05
636.645	12973.88
636.999	12957.84
637.352	12932.53
637.706	12893.88
638.06	12898.86
638.413	12928.46
638.767	12882.13
639.121	12846.88
639.474	12861.12
639.828	12817.95
640.181	12796.49
640.534	12822.93
640.888	12786.32
641.241	12670.16
641.594	12762.59
641.947	12816.15
642.301	12773.89
642.654	12737.5
643.007	12734.79
643.36	12735.24
643.713	12699.09
644.066	12732.98
644.419	12688.24
644.771	12545.42
645.124	12544.06
645.477	12448.47
645.83	12329.38
646.182	12326.44
646.535	12236.05
646.888	12393.33
647.24	12240.57
647.593	12284.86
647.945	12275.6
648.298	12229.49
648.65	12205.31
649.002	12148.14
649.355	12282.37
649.707	12282.15
650.059	12383.62
650.411	12426.55
650.763	12512.2
651.115	12503.84
651.467	12478.3
651.819	12523.05
652.171	12521.24
652.523	12572.76
652.875	12518.98
653.227	12428.81
653.578	12551.07
653.93	12563.95
654.282	12506.78
654.633	12358.76
654.985	12428.59
655.337	12533.44
655.688	12530.05
656.039	12572.99
656.391	12547.9
656.742	12538.87
657.094	12505.42
657.445	12608.02
657.796	12563.72
658.147	12500.45
658.498	12572.76
658.849	12530.73
659.2	12491.63
659.551	12559.66
659.902	12592.42
660.253	12606.66
660.604	12563.27
660.955	12504.29
661.306	12539.32
661.656	12509.71
662.007	12513.33
662.358	12530.05
662.708	12511.07
663.059	12534.8
663.409	12510.39
663.76	12559.43
664.11	12601.69
664.461	12557.62
664.811	12636.26
665.161	12570.05
665.511	12569.15
665.862	12623.38
666.212	12637.39
666.562	12567.34
666.912	12591.07
667.262	12632.87
667.612	12692.76
667.962	12590.16
668.312	12616.6
668.662	12632.87
669.011	12701.57
669.361	12609.6
669.711	12612.54
670.06	12563.95
670.41	12507.23
670.76	12469.49
671.109	12653.89
671.459	12561.92
671.808	12506.32
672.157	12535.48
672.507	12463.39
672.856	12508.58
673.205	12549.49
673.554	12457.29
673.904	12445.76
674.253	12501.35
674.602	12500.67
674.951	12263.62
675.3	12255.26
675.649	12412.77
675.998	12414.57
676.346	12474.91
676.695	12412.54
677.044	12254.8
677.393	12361.24
677.741	12350.17
678.09	12412.99
678.438	12308.14
678.787	12362.6
679.135	12266.33
679.484	12206.9
679.832	12371.64
680.181	12192.66
680.529	12259.1
680.877	12233.79
681.225	12168.93
681.573	12175.03
681.922	12143.17
682.27	12163.73
682.618	12135.26
682.966	12083.51
683.314	12121.02
683.661	12045.77
684.009	11982.04
684.357	11967.81
684.705	11898.66
685.053	11897.75
685.4	11902.05
685.748	11842.39
686.095	11922.16
686.443	11806.91
686.79	11735.04
687.138	11736.17
687.485	11819.79
687.832	11682.84
688.18	11845.78
688.527	11635.84
688.874	11679.9
689.221	11626.35
689.568	11570.53
689.915	11609.4
690.262	11505.22
690.609	11516.07
690.956	11416.41
691.303	11443.75
691.65	11354.04
691.997	11327.6
692.344	11269.97
692.69	11233.81
693.037	11272.23
693.383	11120.82
693.73	11194.27
694.077	11090.54
694.423	11119.47
694.769	11016.42
695.116	11079.69
695.462	10905.24
695.808	10942.3
696.155	10893.26
696.501	10786.37
696.847	10790.44
697.193	10756.99
697.539	10740.49
697.885	10705.24
698.231	10734.84
698.577	10686.26
698.923	10598.58
699.269	10625.02
699.614	10485.81
699.96	10463.21
700.306	10538.01
700.651	10487.62
700.997	10378.47
701.342	10306.83
701.688	10281.3
702.033	10253.73
702.379	10327.62
702.724	10226.61
703.069	10241.07
703.415	10111.36
703.76	10037.91
704.105	10077.01
704.45	10012.83
704.795	10054.64
705.14	10021.64
705.485	9929.89
705.83	9921.53
706.175	9898.93
706.52	9891.25
706.865	9817.58
707.209	9822.78
707.554	9721.99
707.899	9841.31
708.243	9743.91
708.588	9673.18
708.932	9599.51
709.277	9631.15
709.621	9599.28
709.966	9558.15
710.31	9633.18
710.654	9416.69
710.998	9486.97
711.342	9453.07
711.687	9419.85
712.031	9386.41
712.375	9292.4
712.719	9359.06
713.063	9400.19
713.407	9451.71
713.75	9319.29
714.094	9208.11
714.438	9286.07
714.782	9248.33
715.125	9240.19
715.469	9218.05
715.812	9133.53
716.156	9147.77
716.499	9171.72
716.843	9144.38
717.186	9043.59
717.53	9128.11
717.873	9122.68
718.216	9080.43
718.559	9063.02
718.902	8994.78
719.246	8964.72
719.589	8994.33
719.932	8962.69
720.275	9000.2
720.617	8981.22
720.96	8993.42
721.303	8913.65
721.646	8990.94
721.989	8945.97
722.331	8909.13
722.674	8873.88
723.016	8897.61
723.359	8868.91
723.701	8920.2
724.044	8832.07
724.386	8860.32
724.729	8816.7
725.071	8769.25
725.413	8797.49
725.755	8827.55
726.097	8778.51
726.439	8793.43
726.782	8755.01
727.124	8804.73
727.465	8806.08
727.807	8713.66
728.149	8696.25
728.491	8736.93
728.833	8722.69
729.175	8776.03
729.516	8751.85
729.858	8748.68
730.199	8712.07
730.541	8776.25
730.882	8689.02
731.224	8762.92
731.565	8712.98
731.906	8695.35
732.248	8737.84
732.589	8736.93
732.93	8665.52
733.271	8766.31
733.612	8752.98
733.953	8727.89
734.294	8665.75
734.635	8698.97
734.976	8742.81
735.317	8683.83
735.658	8716.14
735.999	8797.49
736.339	8698.06
736.68	8743.48
737.021	8698.51
737.361	8739.42
737.702	8790.49
738.042	8753.2
738.383	8719.76
738.723	8863.26
739.063	8765.41
739.404	8774.44
739.744	8799.08
740.084	8770.38
740.424	8789.36
740.764	8851.28
741.104	8800.88
741.444	8821.9
741.784	8834.33
742.124	8870.49
742.464	8850.37
742.804	8858.06
743.143	8922.24
743.483	8896.02
743.823	8896.25
744.162	8937.38
744.502	8991.39
744.841	8982.57
745.181	9070.93
745.52	9110.25
745.86	9181.44
746.199	9131.05
746.538	9151.38
746.877	9282
747.216	9284.26
747.556	9287.43
747.895	9465.05
748.234	9477.93
748.573	9430.92
748.911	9606.51
749.25	9516.8
749.589	9617.36
749.928	9738.49
750.267	9848.09
750.605	9933.51
750.944	9939.61
751.283	9981.87
751.621	10060.51
751.96	10111.36
752.298	10292.6
752.636	10388.19
752.975	10461.18
753.313	10520.39
753.651	10608.07
753.989	10827.27
754.327	10824.33
754.666	10923.09
755.004	11099.81
755.342	11221.84
755.679	11312
756.017	11381.61
756.355	11566.69
756.693	11661.6
757.031	11841.71
757.368	12065.21
757.706	12094.13
758.044	12295.48
758.381	12509.94
758.719	12514.91
759.056	12786.09
759.394	12840.78
759.731	13029.47
760.068	13196.02
760.405	13265.17
760.743	13427.43
761.08	13640.08
761.417	13770.02
761.754	13949.68
762.091	14093.17
762.428	14303.34
762.765	14405.26
763.102	14730.67
763.438	14808.41
763.775	14998.46
764.112	15091.34
764.449	15332.01
764.785	15428.73
765.122	15486.13
765.458	15623.98
765.795	15817.88
766.131	15956.18
766.467	16069.85
766.804	16239.11
767.14	16309.39
767.476	16486.33
767.812	16528.36
768.148	16749.6
768.485	16820.56
768.821	16921.12
769.157	17039.76
769.492	17094.9
769.828	17350.49
770.164	17227.56
770.5	17492.18
770.836	17609.69
771.171	17587.55
771.507	17783.02
771.842	17804.04
772.178	18002.68
772.513	18056.23
772.849	18151.82
773.184	18169.9
773.519	18267.53
773.855	18322.44
774.19	18392.27
774.525	18400.63
774.86	18594.98
775.195	18700.96
775.53	18600.63
775.865	18658.25
776.2	18527.86
776.535	18630
776.87	18728.53
777.205	18803.56
777.539	18701.64
777.874	18951.35
778.209	18706.16
778.543	18853.95
778.878	18842.2
779.212	18880.39
779.547	18822.32
779.881	18958.36
780.215	18942.09
780.55	18987.06
780.884	18877.91
781.218	18962.88
781.552	19031.8
781.886	19036.1
782.22	18964.01
782.554	18954.52
782.888	18941.63
783.222	18889.88
783.556	18840.62
783.889	18895.76
784.223	18848.53
784.557	18854.18
784.89	18908.19
785.224	18819.38
785.557	18797.46
785.891	18785.48
786.224	18786.16
786.558	18793.39
786.891	18692.83
787.224	18628.65
787.557	18616.67
787.891	18627.97
788.224	18765.14
788.557	18658.48
788.89	18726.27
789.223	18581.64
789.556	18509.1
789.888	18562.21
790.221	18435.21
790.554	18281.09
790.887	18425.26
791.219	18282.22
791.552	18326.06
791.884	18290.13
792.217	18256
792.549	18227.53
792.882	18071.6
793.214	18123.13
793.546	18118.61
793.879	18049.23
794.211	17947.54
794.543	18080.19
794.875	17995.44
795.207	18055.33
795.539	17861.66
795.871	17890.36
796.203	17806.75
796.535	17752.74
796.867	17675.68
797.198	17649.24
797.53	17606.3
797.862	17549.58
798.193	17562.91
798.525	17534.21
798.856	17600.65
799.188	17345.07
799.519	17256.03
799.85	17227.1
800.182	17196.6
800.513	17301.68
800.844	17118.63
801.175	17256.71
801.506	17246.31
801.837	17027.79
802.168	17109.14
802.499	17093.55
802.83	17042.02
803.161	16919.99
803.491	16932.42
803.822	16936.49
804.153	16824.4
804.483	16743.73
804.814	16706.44
805.145	16756.16
805.475	16739.88
805.805	16604.52
806.136	16690.17
806.466	16578.08
806.796	16638.87
807.126	16482.94
807.457	16458.54
807.787	16458.76
808.117	16418.99
808.447	16317.3
808.777	16326.56
809.107	16286.11
809.436	16242.95
809.766	16235.94
810.096	16177.41
810.426	16143.52
810.755	16155.72
811.085	16162.95
811.414	16113.23
811.744	16043.18
812.073	15929.96
812.403	15915.05
812.732	15864.65
813.061	15814.03
813.39	15733.36
813.719	15741.94
814.049	15855.39
814.378	15805.45
814.707	15650.87
815.036	15699.69
815.365	15632.8
815.693	15394.61
816.022	15545.11
816.351	15448.17
816.68	15345.8
817.008	15469.64
817.337	15304.67
817.665	15286.82
817.994	15324.1
818.322	15258.34
818.651	15207.27
818.979	15193.71
819.307	15261.73
819.636	15169.53
819.964	15181.96
820.292	15178.12
820.62	15191.45
820.948	15077.33
821.276	15131.57
821.604	15060.61
821.932	15225.57
822.259	15181.28
822.587	15129.08
822.915	15160.72
823.243	15125.92
823.57	15159.14
823.898	15081.17
824.225	15012.02
824.553	15024
824.88	15053.38
825.207	15183.77
825.535	15169.08
825.862	15187.38
826.189	15078.69
826.516	15229.19
826.843	15174.95
827.17	15223.09
827.497	15223.99
827.824	15249.98
828.151	15338.57
828.478	15146.71
828.805	15179.93
829.131	15204.56
829.458	15120.94
829.785	15035.3
830.111	15117.55
830.438	15256.31
830.764	15145.58
831.09	15223.99
831.417	15083.43
831.743	15219.02
832.069	15228.74
832.395	15141.73
832.722	15155.75
833.048	15036.2
833.374	15100.38
833.7	15006.6
834.026	14998.24
834.351	15047.5
834.677	15013.6
835.003	14994.85
835.329	15085.01
835.654	14956.88
835.98	14982.19
836.306	15010.44
836.631	14901.74
836.956	14868.3
837.282	14964.79
837.607	14825.13
837.932	14891.35
838.258	14919.59
838.583	14868.07
838.908	14704.91
839.233	14819.26
839.558	14590.79
839.883	14670.79
840.208	14596.66
840.533	14619.04
840.858	14619.26
841.182	14597.57
841.507	14604.35
841.832	14566.61
842.156	14473.96
842.481	14536.1
842.805	14469.44
843.13	14467.4
843.454	14393.73
843.778	14351.25
844.103	14323.68
844.427	14259.95
844.751	14342.43
845.075	14308.76
845.399	14244.13
845.723	14065.6
846.047	14062.67
846.371	14055.21
846.695	13992.61
847.019	13969.56
847.343	13876.91
847.666	13817.7
847.99	13727.08
848.313	13693.64
848.637	13631.94
848.96	13668.1
849.284	13541.1
849.607	13506.98
849.931	13427.88
850.254	13253.2
850.577	13337.04
850.9	13238.28
851.223	13214.55
851.546	13139.08
851.869	13071.05
852.192	13117.83
852.515	12950.61
852.838	12898.4
853.161	12943.15
853.483	12841.23
853.806	12847.78
854.129	12822.7
854.451	12771.4
854.774	12706.54
855.096	12566.21
855.419	12642.14
855.741	12561.92
856.063	12539.54
856.385	12466.32
856.708	12427.46
857.03	12313.56
857.352	12358.98
857.674	12342.26
857.996	12270.62
858.318	12223.17
858.64	12241.92
858.961	12189.5
859.283	12180.46
859.605	12038.99
859.926	12179.55
860.248	12046.45
860.57	12036.28
860.891	12111.31
861.212	11938.43
861.534	11998.09
861.855	11876.51
862.176	11924.42
862.498	11920.12
862.819	11855.49
863.14	11918.32
863.461	11866.34
863.782	11794.25
864.103	11798.55
864.424	11774.82
864.745	11874.7
865.065	11759.68
865.386	11683.07
865.707	11687.36
866.027	11647.82
866.348	11652.33
866.668	11633.13
866.989	11633.13
867.309	11542.51
867.63	11573.47
867.95	11450.53
868.27	11424.32
868.59	11449.85
868.91	11414.6
869.23	11432.45
869.55	11440.36
869.87	11432.23
870.19	11380.25
870.51	11417.99
870.83	11402.85
871.15	11301.84
871.469	11361.72
871.789	11378.22
872.109	11312.23
872.428	11221.39
872.748	11249.18
873.067	11195.4
873.386	11192.46
873.706	11281.95
874.025	11114.95
874.344	11061.84
874.663	11112.01
874.982	11154.04
875.301	11105.91
875.62	11064.78
875.939	11081.5
876.258	11042.86
876.577	11073.59
876.896	11006.25
877.214	10992.47
877.533	11006.02
877.852	10931.68
878.17	10898.91
878.489	10957.21
878.807	10877.67
879.125	10886.93
879.444	10899.81
879.762	10801.28
880.08	10817.55
880.398	10822.75
880.716	10826.59
881.034	10675.86
881.352	10740.49
881.67	10719.7
881.988	10721.74
882.306	10628.63
882.624	10668.41
882.941	10562.19
883.259	10580.72
883.577	10564.45
883.894	10491.24
884.212	10521.52
884.529	10521.97
884.846	10406.49
885.164	10500.95
885.481	10397.9
885.798	10413.05
886.115	10324.01
886.432	10391.58
886.75	10347.28
887.067	10442.42
887.383	10291.01
887.7	10342.76
888.017	10286.95
888.334	10249.66
888.651	10174.41
888.967	10115.65
889.284	10041.53
889.6	10168.98
889.917	10034.07
890.233	10034.52
890.55	9935.54
890.866	10092.38
891.182	9938.71
891.498	9949.55
891.815	9866.62
892.131	9869.33
892.447	9863.91
892.763	9794.76
893.079	9764.02
893.395	9706.85
893.71	9744.59
894.026	9673.4
894.342	9608.09
894.657	9642.67
894.973	9615.1
895.289	9571.49
895.604	9509.57
895.92	9546.85
896.235	9399.29
896.55	9387.76
896.865	9416.91
897.181	9317.03
897.496	9470.7
897.811	9376.46
898.126	9293.3
898.441	9242.68
898.756	9240.19
899.071	9166.07
899.386	9150.71
899.7	9137.82
900.015	9123.81
900.33	9013.31
900.644	8969.69
900.959	9042.69
901.273	9009.24
901.588	8887.21
901.902	8855.8
902.216	8845.85
902.531	8839.3
902.845	8788.91
903.159	8747.33
903.473	8739.42
903.787	8649.02
904.101	8596.82
904.415	8621.45
904.729	8624.17
905.042	8597.05
905.356	8572.19
905.67	8503.04
905.984	8513.43
906.297	8445.19
906.611	8345.76
906.924	8388.24
907.237	8366.32
907.551	8277.28
907.864	8244.51
908.177	8277.73
908.491	8178.08
908.804	8199.77
909.117	8089.49
909.43	8085.65
909.743	8086.1
910.056	8025.54
910.368	7964.52
910.681	7963.39
910.994	7909.38
911.307	7940.12
911.619	7851.98
911.932	7876.61
912.244	7758.88
912.557	7768.37
912.869	7756.17
913.181	7661.71
913.494	7655.38
913.806	7552.78
914.118	7636.62
914.43	7528.15
914.742	7531.99
915.054	7517.53
915.366	7513.23
915.678	7495.83
915.99	7443.63
916.302	7369.96
916.613	7320.25
916.925	7335.16
917.236	7299.68
917.548	7265.56
917.859	7225.56
918.171	7193.92
918.482	7193.24
918.794	7129.06
919.105	7125.67
919.416	7062.85
919.727	7057.65
920.038	7028.95
920.349	6994.6
920.66	6933.59
920.971	6923.87
921.282	6988.05
921.593	6882.52
921.903	6866.02
922.214	6796.64
922.525	6798.9
922.835	6761.16
923.146	6750.09
923.456	6768.85
923.767	6726.14
924.077	6721.84
924.387	6635.74
924.697	6578.12
925.008	6532.24
925.318	6537.67
925.628	6555.97
925.938	6522.75
926.248	6459.25
926.558	6467.16
926.867	6437.78
927.177	6407.5
927.487	6376.09
927.796	6306.03
928.106	6297.45
928.416	6295.87
928.725	6266.49
929.034	6241.4
929.344	6267.84
929.653	6231.23
929.962	6178.81
930.271	6131.12
930.581	6132.03
930.89	6079.15
931.199	6028.53
931.508	6063.78
931.817	6032.6
932.125	5992.14
932.434	5965.93
932.743	5969.09
933.051	5906.05
933.36	5891.58
933.669	5885.93
933.977	5869.89
934.286	5790.34
934.594	5812.49
934.902	5731.59
935.21	5771.36
935.519	5718.03
935.827	5702.43
936.135	5695.2
936.443	5598.48
936.751	5586.96
937.059	5624.92
937.367	5545.38
937.674	5561.2
937.982	5544.25
938.29	5537.47
938.597	5542.89
938.905	5434.65
939.213	5459.5
939.52	5352.39
939.827	5449.11
940.135	5372.27
940.442	5352.61
940.749	5349.45
941.056	5323.69
941.363	5229
941.67	5251.37
941.977	5227.87
942.284	5151.04
942.591	5131.38
942.898	5172.96
943.205	5132.28
943.511	5110.59
943.818	5110.59
944.125	5076.69
944.431	5055.67
944.738	5045.5
945.044	4995.79
945.35	4962.34
945.657	4960.08
945.963	4976.35
946.269	4903.13
946.575	4878.5
946.881	4902.46
947.187	4912.17
947.493	4821.33
947.799	4865.17
948.105	4819.97
948.41	4768.22
948.716	4819.75
949.022	4708.34
949.327	4762.57
949.633	4691.16
949.938	4692.97
950.244	4694.55
950.549	4658.85
950.854	4597.83
951.16	4633.76
951.465	4553.09
951.77	4628.11
952.075	4519.42
952.38	4543.14
952.685	4537.72
952.99	4473.54
953.294	4474.67
953.599	4432.64
953.904	4389.02
954.209	4364.84
954.513	4422.24
954.818	4355.13
955.122	4307.44
955.426	4302.02
955.731	4300.89
956.035	4267.22
956.339	4290.72
956.643	4243.94
956.948	4192.19
957.252	4230.16
957.556	4208.01
957.86	4190.84
958.163	4161.68
958.467	4132.31
958.771	4093.44
959.075	4109.26
959.378	4078.52
959.682	4100.89
959.985	4046.66
960.289	4020.45
960.592	4049.14
960.896	4060.9
961.199	4012.99
961.502	3942.03
961.805	3933.89
962.108	3954.23
962.411	3929.83
962.714	3913.56
963.017	3875.59
963.32	3888.7
963.623	3856.61
963.926	3865.65
964.228	3802.15
964.531	3827.68
964.833	3819.32
965.136	3722.15
965.438	3745.2
965.741	3744.52
966.043	3705.65
966.345	3681.02
966.648	3705.43
966.95	3684.63
967.252	3681.47
967.554	3585.2
967.856	3625.43
968.158	3593.56
968.46	3587.69
968.761	3572.77
969.063	3554.69
969.365	3553.34
969.666	3486.45
969.968	3480.57
970.269	3484.19
970.571	3519.44
970.872	3433.34
971.174	3449.39
971.475	3447.35
971.776	3453.45
972.077	3409.39
972.378	3403.96
972.679	3382.27
972.98	3389.28
973.281	3337.07
973.582	3341.59
973.883	3348.6
974.183	3304.31
974.484	3304.76
974.785	3294.14
975.085	3286.45
975.386	3270.18
975.686	3253.23
975.986	3244.19
976.287	3262.72
976.587	3174.14
976.887	3157.42
977.187	3163.29
977.487	3171.65
977.787	3165.1
978.087	3127.36
978.387	3093.01
978.687	3102.96
978.987	3102.28
979.286	3064.99
979.586	3057.76
979.885	3066.12
980.185	3002.39
980.484	3022.28
980.784	3003.07
981.083	2978.21
981.382	2983.64
981.682	2959.23
981.981	2938.44
982.28	2972.79
982.579	2938.89
982.878	2925.33
983.177	2871.77
983.475	2916.97
983.774	2846.92
984.073	2830.87
984.372	2902.06
984.67	2862.96
984.969	2832.45
985.267	2792.45
985.566	2797.43
985.864	2772.34
986.162	2794.49
986.461	2738.9
986.759	2750.87
987.057	2669.97
987.355	2711.55
987.653	2683.08
987.951	2708.39
988.249	2689.18
988.547	2668.39
988.844	2676.98
989.142	2649.86
989.44	2623.19
989.737	2638.79
990.035	2579.13
990.332	2600.82
990.63	2584.55
990.927	2570.31
991.224	2543.87
991.521	2541.61
991.819	2525.34
992.116	2513.37
992.413	2487.15
992.71	2522.63
993.006	2512.24
993.303	2466.59
993.6	2451.22
993.897	2474.27
994.193	2396.31
994.49	2422.52
994.787	2449.41
995.083	2392.47
995.379	2380.71
995.676	2366.03
995.972	2388.17
996.268	2359.02
996.565	2363.99
996.861	2342.3
997.157	2347.49
997.453	2323.77
997.749	2322.18
998.044	2300.49
998.34	2287.16
998.636	2279.47
998.932	2265.46
999.227	2246.25
999.523	2215.29
999.818	2192.24
1000.114	2225.92
1000.409	2170.32
1000.704	2175.52
1001	2159.25
1001.295	2149.08
1001.59	2146.6
1001.885	2172.36
1002.18	2126.71
1002.475	2095.98
1002.77	2116.99
1003.065	2070.67
1003.359	2088.29
1003.654	2072.47
1003.949	2065.92
1004.243	2067.5
1004.538	2046.94
1004.832	2023.89
1005.127	2000.61
1005.421	2005.58
1005.715	2005.13
1006.009	1970.56
1006.304	1942.99
1006.598	1972.82
1006.892	1944.12
1007.186	1937.56
1007.48	1919.26
1007.773	1912.25
1008.067	1914.06
1008.361	1872.48
1008.655	1856.89
1008.948	1877.45
1009.242	1864.57
1009.535	1854.85
1009.829	1825.47
1010.122	1820.73
1010.415	1816.21
1010.708	1845.36
1011.001	1798.13
1011.295	1787.51
1011.588	1782.54
1011.881	1760.17
1012.173	1753.84
1012.466	1766.49
1012.759	1768.3
1013.052	1726.27
1013.344	1725.36
1013.637	1707.51
1013.93	1693.27
1014.222	1705.93
1014.514	1684.91
1014.807	1662.54
1015.099	1650.79
1015.391	1638.36
1015.683	1635.88
1015.976	1651.69
1016.268	1632.94
1016.56	1593.62
1016.851	1599.27
1017.143	1592.71
1017.435	1588.64
1017.727	1580.28
1018.018	1557.91
1018.31	1567.85
1018.602	1551.36
1018.893	1517.91
1019.185	1501.42
1019.476	1487.86
1019.767	1509.1
1020.058	1484.47
1020.35	1482.43
1020.641	1472.94
1020.932	1427.74
1021.223	1462.55
1021.514	1439.5
1021.804	1453.51
1022.095	1383.9
1022.386	1394.3
1022.677	1400.18
1022.967	1410.8
1023.258	1377.12
1023.548	1364.47
1023.839	1375.77
1024.129	1363.11
1024.419	1345.04
1024.709	1337.35
1025	1329.22
1025.29	1356.11
1025.58	1310.69
1025.87	1306.39
1026.16	1323.57
1026.449	1287.41
1026.739	1297.13
1027.029	1285.38
1027.319	1272.04
1027.608	1250.12
1027.898	1274.08
1028.187	1250.12
1028.477	1244.25
1028.766	1248.31
1029.055	1223.46
1029.344	1211.03
1029.634	1194.98
1029.923	1194.53
1030.212	1209.22
1030.501	1157.92
1030.79	1166.51
1031.078	1163.35
1031.367	1149.79
1031.656	1166.73
1031.945	1138.94
1032.233	1142.78
1032.522	1126.74
1032.81	1104.82
1033.099	1095.32
1033.387	1093.52
1033.675	1085.61
1033.963	1061.2
1034.251	1083.8
1034.54	1079.51
1034.828	1048.55
1035.116	1070.24
1035.403	1053.97
1035.691	1033.86
1035.979	1041.31
1036.267	1034.08
1036.554	1030.47
1036.842	1016.91
1037.129	1007.87
1037.417	997.7
1037.704	1014.2
1037.992	974.2
1038.279	991.6
1038.566	994.99
1038.853	994.99
1039.14	994.99
