Data from hue_80_FLMS001491_17.txt Node
Date: Mon Feb 06 15:22:33 GMT 2017
User: dcchb
Spectrometer: FLMS00149
Trigger mode: 0
Integration Time (sec): 2.000000E-2
Scans to average: 10
Electric dark correction enabled: true
Nonlinearity correction enabled: false
Boxcar width: 0
XAxis mode: Wavelengths
Number of Pixels in Spectrum: 2048
>>>>>Begin Spectral Data<<<<<
341.393	-1.95
341.776	-1.95
342.16	-1.95
342.543	-72
342.927	-62.96
343.31	-60.48
343.693	-64.09
344.077	-48.5
344.46	-48.95
344.843	-56.41
345.226	-48.73
345.61	-35.39
345.993	-32.23
346.376	-15.06
346.759	-5.79
347.142	30.37
347.525	43.25
347.908	78.27
348.291	59.97
348.674	98.84
349.057	104.94
349.44	121.44
349.823	167.09
350.206	164.15
350.588	194.66
350.971	212.73
351.354	221.77
351.737	231.04
352.119	239.17
352.502	262.45
352.884	271.26
353.267	271.49
353.65	291.6
354.032	301.77
354.414	306.52
354.797	309.68
355.179	327.76
355.562	331.38
355.944	309
356.326	310.81
356.709	322.79
357.091	344.71
357.473	349.68
357.855	315.33
358.238	334.77
358.62	342.9
359.002	337.03
359.384	329.34
359.766	339.51
360.148	340.41
360.53	347.65
360.912	327.99
361.294	327.99
361.676	312.39
362.057	344.03
362.439	329.12
362.821	317.82
363.203	331.6
363.584	305.61
363.966	325.73
364.348	313.75
364.729	328.66
365.111	299.51
365.493	302.68
365.874	315.78
366.256	325.05
366.637	297.7
367.019	310.36
367.4	303.58
367.781	304.48
368.163	315.1
368.544	310.59
368.925	299.74
369.306	323.24
369.688	299.29
370.069	312.17
370.45	299.29
370.831	318.72
371.212	315.33
371.593	320.53
371.974	310.36
372.355	308.78
372.736	313.75
373.117	304.03
373.498	322.11
373.879	323.24
374.26	282.56
374.641	295.67
375.021	326.63
375.402	327.08
375.783	342.22
376.163	300.87
376.544	314.65
376.925	319.62
377.305	324.6
377.686	316.23
378.066	327.99
378.447	330.02
378.827	327.08
379.208	329.34
379.588	342
379.968	322.56
380.349	334.54
380.729	325.95
381.109	324.37
381.489	324.82
381.87	319.17
382.25	323.92
382.63	344.93
383.01	339.06
383.39	353.52
383.77	329.12
384.15	342.45
384.53	345.61
384.91	344.93
385.29	342.45
385.67	331.38
386.049	330.92
386.429	353.52
386.809	345.16
387.189	344.26
387.568	332.51
387.948	332.28
388.328	354.65
388.707	352.17
389.087	335.9
389.466	359.62
389.846	354.88
390.225	368.66
390.605	351.04
390.984	374.31
391.363	345.16
391.743	354.43
392.122	360.53
392.501	376.57
392.881	375.67
393.26	389.45
393.639	375.89
394.018	362.56
394.397	357.36
394.776	378.83
395.155	367.98
395.534	369.79
395.913	380.19
396.292	366.63
396.671	356.46
397.05	397.36
397.429	367.76
397.808	388.1
398.186	365.95
398.565	366.63
398.944	375.44
399.323	396.23
399.701	382.67
400.08	383.8
400.458	384.26
400.837	409.11
401.215	388.55
401.594	407.08
401.972	396.91
402.351	391.71
402.729	410.24
403.107	404.14
403.486	391.26
403.864	399.17
404.242	407.53
404.62	413.41
404.999	389.23
405.377	421.54
405.755	401.88
406.133	402.11
406.511	411.37
406.889	410.02
407.267	411.15
407.645	412.05
408.023	405.05
408.401	417.25
408.779	435.78
409.156	439.85
409.534	417.7
409.912	426.29
410.29	415.67
410.667	440.98
411.045	451.37
411.422	436.01
411.8	450.47
412.178	443.01
412.555	445.72
412.933	455.89
413.31	467.19
413.687	453.63
414.065	456.12
414.442	475.1
414.819	477.36
415.197	484.82
415.574	465.84
415.951	473.29
416.328	473.52
416.705	475.1
417.082	482.78
417.46	468.55
417.837	487.53
418.214	473.07
418.591	495.44
418.967	499.51
419.344	499.51
419.721	501.09
420.098	492.05
420.475	499.96
420.852	510.81
421.228	521.43
421.605	523.46
421.982	536.57
422.358	501.31
422.735	503.12
423.111	519.39
423.488	537.92
423.864	550.58
424.241	527.75
424.617	540.41
424.994	549.67
425.37	544.48
425.746	527.75
426.123	541.09
426.499	546.51
426.875	575.89
427.251	556
427.627	549.67
428.003	580.86
428.379	568.66
428.756	572.95
429.132	584.02
429.507	580.18
429.883	566.17
430.259	568.43
430.635	600.29
431.011	620.41
431.387	613.18
431.763	628.99
432.138	614.98
432.514	610.24
432.89	609.33
433.265	618.15
433.641	619.05
434.016	643.91
434.392	652.95
434.767	643.23
435.143	648.2
435.518	645.72
435.894	668.77
436.269	655.66
436.644	687.75
437.02	670.8
437.395	677.36
437.77	699.28
438.145	703.57
438.52	688.88
438.895	710.57
439.271	704.02
439.646	703.12
440.021	737.69
440.395	725.72
440.77	706.51
441.145	735.88
441.52	709.9
441.895	730.01
442.27	734.08
442.645	747.86
443.019	740.86
443.394	751.25
443.769	741.99
444.143	745.38
444.518	767.07
444.892	748.31
445.267	767.07
445.641	765.94
446.016	785.15
446.39	805.49
446.764	784.7
447.139	794.41
447.513	790.35
447.887	794.64
448.262	803.45
448.636	823.34
449.01	794.19
449.384	779.95
449.758	827.86
450.132	829.22
450.506	850.46
450.88	826.5
451.254	836.9
451.628	823.34
452.002	860.4
452.376	881.64
452.75	862.66
453.123	867.63
453.497	894.75
453.871	886.84
454.244	908.99
454.618	920.51
454.992	907.63
455.365	949.21
455.739	942.43
456.112	956.67
456.486	961.64
456.859	971.13
457.232	974.3
457.606	979.72
457.979	976.1
458.352	998.93
458.725	1006.39
459.099	986.95
459.472	1048.87
459.845	1033.96
460.218	1053.84
460.591	1075.08
460.964	1070.57
461.337	1093.62
461.71	1088.19
462.083	1103.78
462.456	1123.67
462.829	1116.67
463.201	1141.07
463.574	1151.92
463.947	1174.29
464.32	1205.93
464.692	1242.54
465.065	1220.39
465.438	1211.58
465.81	1258.13
466.183	1268.53
466.555	1323.89
466.928	1293.38
467.3	1352.59
467.672	1334.29
468.045	1387.84
468.417	1389.65
468.789	1391.46
469.161	1401.86
469.534	1444.34
469.906	1504.9
470.278	1507.84
470.65	1508.75
471.022	1547.84
471.394	1596.43
471.766	1620.83
472.138	1614.96
472.51	1685.46
472.882	1681.4
473.253	1725.01
473.625	1753.71
473.997	1821.05
474.369	1843.2
474.74	1896.08
475.112	1908.06
475.484	1948.28
475.855	1975.4
476.227	2022.4
476.598	2066.7
476.97	2118
477.341	2222.63
477.713	2250.2
478.084	2319.35
478.455	2365.22
478.827	2387.37
479.198	2495.61
479.569	2532.67
479.94	2647.02
480.311	2696.51
480.682	2796.62
481.053	2859.9
481.424	2941.93
481.795	2992.32
482.166	3101.7
482.537	3160.68
482.908	3275.7
483.279	3301.69
483.65	3415.14
484.021	3585.08
484.391	3606.09
484.762	3687.9
485.133	3749.59
485.503	3872.3
485.874	4007.89
486.244	4099.41
486.615	4246.3
486.985	4330.82
487.356	4427.31
487.726	4549.12
488.097	4686.52
488.467	4757.02
488.837	4932.61
489.207	5048.77
489.578	5145.49
489.948	5240.4
490.318	5399.49
490.688	5492.6
491.058	5650.33
491.428	5773.04
491.798	5966.71
492.168	6053.71
492.538	6147.72
492.908	6276.98
493.278	6447.6
493.648	6576.41
494.017	6698.89
494.387	6814.14
494.757	6954.03
495.126	7158.77
495.496	7159.22
495.866	7306.33
496.235	7413.9
496.605	7539.77
496.974	7740.45
497.344	7800.56
497.713	8001.23
498.082	8035.35
498.452	8261.79
498.821	8282.58
499.19	8444.83
499.559	8553.98
499.928	8667.65
500.298	8803.47
500.667	8947.42
501.036	9008.21
501.405	9070.13
501.774	9189
502.143	9335.88
502.512	9396.67
502.88	9518.93
503.249	9629.66
503.618	9648.19
503.987	9825.82
504.356	9933.38
504.724	10067.39
505.093	10061.74
505.462	10138.12
505.83	10283.43
506.199	10452.24
506.567	10622.18
506.936	10573.37
507.304	10710.99
507.672	10745.56
508.041	10832.57
508.409	11035.73
508.777	11084.54
509.145	11185.78
509.514	11266.46
509.882	11369.28
510.25	11394.36
510.618	11520.23
510.986	11618.08
511.354	11742.83
511.722	11762.94
512.09	11914.57
512.458	11892.88
512.826	11923.39
513.193	12086.32
513.561	12138.3
513.929	12253.1
514.297	12286.09
514.664	12449.7
515.032	12411.96
515.4	12527.66
515.767	12654.44
516.135	12644.72
516.502	12655.57
516.869	12827.54
517.237	12889.24
517.604	12820.09
517.972	12983.47
518.339	13087.2
518.706	13081.77
519.073	13149.12
519.44	13229.79
519.808	13367.64
520.175	13322.45
520.542	13432.73
520.909	13544.81
521.276	13514.53
521.643	13576.9
522.009	13666.62
522.376	13738.71
522.743	13904.13
523.11	13897.12
523.477	14047.17
523.843	14108.41
524.21	14158.13
524.577	14217.34
524.943	14220.5
525.31	14322.65
525.676	14437.45
526.043	14534.62
526.409	14507.5
526.776	14609.19
527.142	14560.15
527.508	14710.66
527.874	14733.71
528.241	14815.51
528.607	14757.44
528.973	14899.35
529.339	14892.12
529.705	14997.43
530.071	15045.11
530.437	15092.8
530.803	15165.56
531.169	15205.79
531.535	15033.36
531.901	15171.44
532.267	15200.59
532.632	15219.57
532.998	15209.4
533.364	15297.54
533.73	15232.45
534.095	15365.78
534.461	15340.02
534.826	15448.94
535.192	15399.45
535.557	15439.68
535.923	15385.89
536.288	15434.93
536.653	15522.84
537.019	15433.35
537.384	15381.38
537.749	15560.58
538.114	15451.43
538.479	15593.12
538.845	15513.58
539.21	15459.57
539.575	15540.47
539.94	15498.21
540.305	15570.75
540.67	15509.51
541.034	15513.12
541.399	15565.33
541.764	15521.94
542.129	15462.5
542.494	15522.16
542.858	15481.03
543.223	15472.67
543.587	15529.62
543.952	15411.2
544.316	15500.69
544.681	15575.49
545.045	15509.96
545.41	15515.61
545.774	15537.76
546.138	15556.96
546.503	15563.97
546.867	15423.63
547.231	15537.53
547.595	15444.65
547.959	15536.63
548.324	15545.21
548.688	15483.97
549.052	15506.34
549.416	15455.72
549.779	15484.88
550.143	15482.39
550.507	15441.94
550.871	15507.02
551.235	15442.84
551.599	15516.06
551.962	15573.46
552.326	15505.89
552.689	15597.41
553.053	15488.94
553.417	15399.68
553.78	15609.62
554.143	15449.85
554.507	15528.94
554.87	15573.01
555.234	15619.79
555.597	15445.78
555.96	15485.1
556.323	15550.18
556.686	15502.73
557.05	15547.92
557.413	15617.08
557.776	15601.26
558.139	15612.1
558.502	15634.48
558.865	15588.6
559.228	15751.08
559.59	15757.64
559.953	15673.57
560.316	15911.53
560.679	15843.96
561.041	15870.18
561.404	15961.92
561.767	15869.27
562.129	15848.71
562.492	15965.09
562.854	15989.04
563.217	15918.99
563.579	16002.6
563.941	16050.74
564.304	15988.14
564.666	16127.8
565.028	16060.45
565.39	16003.05
565.753	16070.4
566.115	16174.8
566.477	16234.23
566.839	16247.57
567.201	16294.35
567.563	16243.27
567.925	16387.22
568.287	16321.69
568.648	16338.41
569.01	16338.86
569.372	16489.14
569.734	16459.09
570.095	16440.78
570.457	16488.01
570.819	16552.64
571.18	16606.65
571.542	16641.68
571.903	16669.02
572.265	16674.22
572.626	16705.41
572.987	16710.15
573.349	16800.32
573.71	16869.02
574.071	16887.1
574.432	16880.09
574.794	16936.81
575.155	16967.32
575.516	16808.46
575.877	16949.92
576.238	16856.59
576.599	16932.52
576.96	16972.52
577.32	16960.54
577.681	17077.38
578.042	16954.67
578.403	16998.51
578.763	16896.14
579.124	17053.87
579.485	17132.06
579.845	17077.15
580.206	17052.74
580.566	17126.19
580.927	17094.1
581.287	17125.74
581.648	17053.87
582.008	17092.52
582.368	17058.62
582.728	17100.88
583.089	17083.48
583.449	17032.41
583.809	16926.42
584.169	17083.7
584.529	17057.26
584.889	17112.18
585.249	17071.05
585.609	17036.47
585.969	17078.51
586.329	16996.47
586.688	17004.61
587.048	16996.25
587.408	17003.03
587.768	17013.87
588.127	17034.67
588.487	16925.52
588.846	17091.61
589.206	16915.35
589.565	16937.72
589.925	16974.55
590.284	16949.7
590.643	16984.72
591.003	16976.14
591.362	17038.96
591.721	16916.48
592.08	17013.42
592.44	17008.23
592.799	16911.96
593.158	16915.57
593.517	16937.72
593.876	16999.41
594.235	16864.95
594.593	16895.01
594.952	17033.54
595.311	16829.92
595.67	16917.61
596.029	16963.03
596.387	16993.08
596.746	16981.56
597.104	16912.86
597.463	16861.79
597.822	16993.31
598.18	16864.95
598.538	16851.85
598.897	16920.32
599.255	16777.04
599.613	17019.07
599.972	16976.36
600.33	16958.96
600.688	16901.56
601.046	16954.67
601.404	16962.12
601.762	16982.69
602.12	17049.81
602.478	17086.19
602.836	17044.61
603.194	16913.09
603.552	17047.55
603.91	16926.42
604.268	16955.35
604.625	16923.03
604.983	16944.05
605.341	16934.78
605.698	17056.59
606.056	17037.15
606.413	17007.77
606.771	17077.6
607.128	17074.89
607.485	16986.53
607.843	17017.26
608.2	17065.4
608.557	17018.62
608.914	17079.18
609.272	17184.04
609.629	17225.39
609.986	17267.43
610.343	17137.26
610.7	17314.21
611.057	17338.39
611.414	17320.76
611.771	17252.51
612.127	17275.56
612.484	17340.19
612.841	17393.3
613.198	17192.4
613.554	17297.26
613.911	17317.82
614.267	17353.3
614.624	17337.93
614.98	17401.21
615.337	17473.75
615.693	17408.89
616.05	17396.46
616.406	17577.7
616.762	17473.75
617.118	17433.75
617.475	17353.75
617.831	17558.49
618.187	17507.87
618.543	17700.86
618.899	17716
619.255	17581.32
619.611	17649.34
619.967	17633.29
620.323	17660.86
620.678	17695.89
621.034	17555.1
621.39	17563.24
621.746	17583.58
622.101	17777.47
622.457	17735.89
622.812	17731.6
623.168	17687.3
623.523	17730.47
623.879	17727.08
624.234	17618.38
624.589	17688.66
624.945	17685.5
625.3	17715.33
625.655	17675.1
626.01	17718.71
626.365	17714.2
626.72	17661.54
627.075	17672.39
627.43	17663.58
627.785	17650.02
628.14	17678.49
628.495	17695.21
628.85	17664.03
629.205	17644.14
629.559	17762.78
629.914	17673.97
630.269	17690.24
630.623	17594.2
630.978	17519.62
631.332	17665.38
631.687	17635.1
632.041	17509.23
632.396	17568.89
632.75	17512.17
633.104	17609.11
633.459	17504.94
633.813	17440.53
634.167	17420.19
634.521	17410.93
634.875	17433.3
635.229	17472.39
635.583	17349.69
635.937	17380.87
636.291	17394.66
636.645	17304.71
636.999	17406.41
637.352	17273.3
637.706	17158.73
638.06	17313.3
638.413	17286.18
638.767	17222.68
639.121	17221.55
639.474	17110.14
639.828	17286.64
640.181	17177.94
640.534	17202.57
640.888	17072.4
641.241	17026.53
641.594	16970.03
641.947	17224.26
642.301	17106.75
642.654	17109.47
643.007	17042.8
643.36	17126.87
643.713	17087.32
644.066	17147.88
644.419	17004.38
644.771	16881
645.124	16695.69
645.477	16757.84
645.83	16621.79
646.182	16556.03
646.535	16578.18
646.888	16532.31
647.24	16426.32
647.593	16589.93
647.945	16575.47
648.298	16463.83
648.65	16430.16
649.002	16268.36
649.355	16427.22
649.707	16479.43
650.059	16487.33
650.411	16712.41
650.763	16721
651.115	16855.69
651.467	16851.39
651.819	16854.78
652.171	16772.75
652.523	16879.19
652.875	16856.59
653.227	16758.06
653.578	16876.93
653.93	16846.87
654.282	16669.48
654.633	16639.87
654.985	16732.53
655.337	16823.82
655.688	16805.52
656.039	16847.33
656.391	16710.61
656.742	16633.77
657.094	16767.78
657.445	16836.03
657.796	16645.97
658.147	16660.66
658.498	16721.45
658.849	16741.11
659.2	16744.5
659.551	16766.88
659.902	16740.89
660.253	16723.71
660.604	16786.76
660.955	16704.73
661.306	16932.29
661.656	16767.1
662.007	16846.87
662.358	16716.93
662.708	16776.82
663.059	16740.89
663.409	16792.41
663.76	16911.96
664.11	16724.16
664.461	16864.95
664.811	16911.05
665.161	16932.97
665.511	16831.05
665.862	16897.95
666.212	16901.79
666.562	16952.41
666.912	16841.22
667.262	16839.42
667.612	16773.88
667.962	16881.67
668.312	16786.76
668.662	16844.16
669.011	16852.07
669.361	16771.62
669.711	16799.19
670.06	16798.74
670.41	16717.84
670.76	16818.17
671.109	16820.66
671.459	16736.59
671.808	16790.83
672.157	16831.73
672.507	16564.39
672.856	16685.52
673.205	16721.23
673.554	16695.92
673.904	16671.96
674.253	16782.92
674.602	16644.17
674.951	16432.42
675.3	16290.5
675.649	16578.18
675.998	16660.44
676.346	16537.95
676.695	16578.63
677.044	16535.7
677.393	16506.77
677.741	16571.17
678.09	16534.57
678.438	16498.86
678.787	16573.21
679.135	16480.56
679.484	16383.38
679.832	16496.83
680.181	16354.23
680.529	16427.9
680.877	16377.96
681.225	16376.38
681.573	16471.29
681.922	16318.75
682.27	16299.77
682.618	16281.92
682.966	16195.37
683.314	16208.7
683.661	16208.92
684.009	16110.4
684.357	16156.72
684.705	16063.62
685.053	16003.51
685.4	16051.19
685.748	15928.25
686.095	15796.28
686.443	15860.01
686.79	15775.04
687.138	15836.5
687.485	15803.74
687.832	15657.53
688.18	15760.12
688.527	15725.1
688.874	15556.06
689.221	15549.28
689.568	15599
689.915	15473.58
690.262	15550.64
690.609	15362.62
690.956	15361.04
691.303	15368.72
691.65	15345.44
691.997	15296.18
692.344	15241.72
692.69	15207.37
693.037	15282.39
693.383	15015.28
693.73	15086.24
694.077	14934.61
694.423	14996.53
694.769	14912.46
695.116	14858
695.462	14857.77
695.808	14825.23
696.155	14738.91
696.501	14775.74
696.847	14649.64
697.193	14566.26
697.539	14572.36
697.885	14407.16
698.231	14421.63
698.577	14441.51
698.923	14333.27
699.269	14298.24
699.614	14102.76
699.96	14178.02
700.306	14025.48
700.651	14033.61
700.997	14038.81
701.342	13950.68
701.688	13982.99
702.033	13930.57
702.379	13860.96
702.724	13837.46
703.069	13794.75
703.415	13670.91
703.76	13719.05
704.105	13692.83
704.45	13639.95
704.795	13541.65
705.14	13547.53
705.485	13406.74
705.83	13408.77
706.175	13452.39
706.52	13377.81
706.865	13321.99
707.209	13302.79
707.554	13269.34
707.899	13324.48
708.243	13172.39
708.588	13191.38
708.932	13104.82
709.277	13117.71
709.621	13030.7
709.966	12941.67
710.31	13026.41
710.654	12874.32
710.998	12962
711.342	12853.76
711.687	12839.07
712.031	12776.25
712.375	12697.6
712.719	12721.56
713.063	12708.23
713.407	12684.27
713.75	12695.8
714.094	12668
714.438	12606.53
714.782	12653.54
715.125	12516.59
715.469	12575.12
715.812	12473.43
716.156	12437.72
716.499	12441.11
716.843	12421.68
717.186	12358.63
717.53	12379.19
717.873	12473.66
718.216	12437.95
718.559	12296.48
718.902	12203.38
719.246	12301
719.589	12207.45
719.932	12204.96
720.275	12207
720.617	12242.02
720.96	12197.73
721.303	12182.14
721.646	12244.06
721.989	12134.68
722.331	12156.15
722.674	12083.61
723.016	12172.42
723.359	12135.36
723.701	12127.22
724.044	12069.37
724.386	11985.76
724.729	12087.22
725.071	11980.56
725.413	12048.81
725.755	11971.3
726.097	11957.96
726.439	11894.24
726.782	11850.39
727.124	11933.1
727.465	11915.25
727.807	11840.45
728.149	11861.92
728.491	11859.43
728.833	11885.65
729.175	11808.59
729.516	11788.25
729.858	11742.15
730.199	11787.57
730.541	11866.89
730.882	11760.45
731.224	11859.66
731.565	11717.52
731.906	11780.79
732.248	11779.66
732.589	11734.01
732.93	11701.47
733.271	11808.14
733.612	11751.87
733.953	11810.17
734.294	11763.84
734.635	11693.56
734.976	11760.68
735.317	11694.92
735.658	11715.03
735.999	11691.08
736.339	11690.4
736.68	11781.7
737.021	11715.03
737.361	11744.86
737.702	11766.1
738.042	11784.41
738.383	11814.01
738.723	11704.64
739.063	11672.09
739.404	11782.6
739.744	11710.74
740.084	11724.07
740.424	11814.46
740.764	11759.1
741.104	11783.28
741.444	11877.29
741.784	11812.43
742.124	11833.22
742.464	11767.46
742.804	11812.66
743.143	11882.71
743.483	11864.41
743.823	11819.21
744.162	11909.38
744.502	11940.34
744.841	11825.31
745.181	11978.53
745.52	12031.86
745.86	12094.46
746.199	12018.53
746.538	12110.5
746.877	12131.74
747.216	12213.1
747.556	12175.36
747.895	12268.69
748.234	12296.48
748.573	12335.81
748.911	12478.17
749.25	12517.04
749.589	12522.69
749.928	12586.19
750.267	12728.79
750.605	12650.15
750.944	12691.73
751.283	12658.73
751.621	12885.85
751.96	12870.48
752.298	13059.18
752.636	13120.87
752.975	13147.76
753.313	13061.89
753.651	13342.11
753.989	13414.2
754.327	13407.64
754.666	13460.07
755.004	13655.32
755.342	13795.2
755.679	13879.49
756.017	13887.86
756.355	14034.97
756.693	14091.24
757.031	14252.82
757.368	14337.11
757.706	14333.72
758.044	14463.21
758.381	14656.87
758.719	14662.52
759.056	14825.01
759.394	14872.46
759.731	14972.57
760.068	15031.78
760.405	15090.76
760.743	15308.83
761.08	15462.28
761.417	15432
761.754	15597.64
762.091	15731.42
762.428	15713.12
762.765	15775.04
763.102	16017.06
763.438	16048.48
763.775	16096.38
764.112	16203.95
764.449	16377.51
764.785	16335.47
765.122	16401.46
765.458	16437.17
765.795	16641.46
766.131	16728.23
766.467	16722.36
766.804	16834.22
767.14	16821.56
767.476	16963.71
767.812	16915.57
768.148	17126.19
768.485	17120.99
768.821	17006.87
769.157	17215.68
769.492	17176.13
769.828	17304.26
770.164	17247.99
770.5	17343.58
770.836	17361.66
771.171	17315.11
771.507	17389.01
771.842	17359.85
772.178	17405.5
772.513	17430.81
772.849	17509.45
773.184	17391.49
773.519	17586.29
773.855	17494.99
774.19	17539.06
774.525	17498.83
774.86	17525.27
775.195	17593.07
775.53	17570.92
775.865	17458.38
776.2	17543.35
776.535	17443.47
776.87	17323.25
777.205	17366.63
777.539	17406.63
777.874	17436.91
778.209	17322.34
778.543	17267.88
778.878	17273.3
779.212	17233.3
779.547	17245.96
779.881	17303.13
780.215	17199.41
780.55	17205.28
780.884	17029.92
781.218	17167.32
781.552	17179.75
781.886	17141.33
782.22	17011.39
782.554	17088.45
782.888	16876.93
783.222	16922.8
783.556	16909.24
783.889	16813.43
784.223	16675.13
784.557	16618.63
784.89	16743.6
785.224	16633.77
785.557	16595.13
785.891	16568.46
786.224	16633.55
786.558	16524.17
786.891	16386.09
787.224	16450.05
787.557	16346.55
787.891	16385.42
788.224	16360.33
788.557	16313.55
788.89	16303.84
789.223	16274.01
789.556	16070.4
789.888	16107.91
790.221	16070.4
790.554	16021.58
790.887	16048.02
791.219	15980.23
791.552	15933.9
791.884	15875.15
792.217	15867.69
792.549	15786.34
792.882	15619.34
793.214	15692.78
793.546	15686.9
793.879	15631.54
794.211	15518.32
794.543	15563.74
794.875	15497.3
795.207	15534.14
795.539	15436.97
795.871	15419.11
796.203	15274.26
796.535	15279.01
796.867	15263.64
797.198	15234.03
797.53	15136.86
797.862	15009.63
798.193	15083.08
798.525	15000.37
798.856	15023.19
799.188	14872.01
799.519	14819.36
799.85	14783.88
800.182	14802.63
800.513	14798.57
800.844	14672.47
801.175	14748.85
801.506	14769.64
801.837	14678.12
802.168	14673.82
802.499	14535.97
802.83	14436.77
803.161	14398.12
803.491	14447.39
803.822	14512.25
804.153	14350.67
804.483	14293.27
804.814	14244.68
805.145	14232.25
805.475	14249.43
805.805	14164.46
806.136	14248.07
806.466	14150.9
806.796	14056.66
807.126	13982.99
807.457	14023.22
807.787	13928.08
808.117	13925.59
808.447	13836.78
808.777	13818.7
809.107	13869.55
809.436	13766.28
809.766	13832.72
810.096	13754.07
810.426	13784.36
810.755	13722.44
811.085	13677.24
811.414	13681.31
811.744	13547.07
812.073	13537.58
812.403	13527.64
812.732	13443.12
813.061	13487.19
813.39	13372.61
813.719	13339.17
814.049	13408.09
814.378	13333.52
814.707	13271.6
815.036	13291.03
815.365	13187.76
815.693	13019.4
816.022	13076.58
816.351	13048.1
816.68	13033.19
817.008	13066.18
817.337	12931.27
817.665	12921.55
817.994	12893.98
818.322	12895.34
818.651	12803.59
818.979	12788.22
819.307	12813.08
819.636	12776.47
819.964	12671.62
820.292	12748.22
820.62	12804.95
820.948	12723.14
821.276	12760.2
821.604	12655.12
821.932	12715.23
822.259	12767.88
822.587	12719.75
822.915	12710.49
823.243	12717.94
823.57	12694.67
823.898	12694.89
824.225	12644.95
824.553	12617.15
824.88	12654.89
825.207	12672.52
825.535	12660.09
825.862	12746.64
826.189	12645.85
826.516	12728.56
826.843	12766.08
827.17	12686.08
827.497	12745.51
827.824	12717.72
828.151	12706.42
828.478	12654.67
828.805	12773.53
829.131	12665.06
829.458	12698.73
829.785	12602.47
830.111	12646.08
830.438	12691.73
830.764	12668.68
831.09	12703.48
831.417	12610.83
831.743	12720.65
832.069	12738.73
832.395	12616.02
832.722	12623.71
833.048	12672.07
833.374	12549.59
833.7	12514.56
834.026	12653.09
834.351	12489.47
834.677	12547.55
835.003	12613.76
835.329	12576.25
835.654	12579.87
835.98	12511.85
836.306	12422.81
836.631	12471.62
836.956	12442.7
837.282	12427.1
837.607	12449.93
837.932	12362.25
838.258	12354.34
838.583	12381
838.908	12268.46
839.233	12378.29
839.558	12322.92
839.883	12223.94
840.208	12244.73
840.533	12175.81
840.858	12194.57
841.182	12216.03
841.507	12141.01
841.832	12131.07
842.156	12068.24
842.481	12090.39
842.805	12059.43
843.13	11977.62
843.454	12026.89
843.778	11880
844.103	12006.32
844.427	11980.79
844.751	11903.73
845.075	11887
845.399	11832.77
845.723	11749.38
846.047	11810.4
846.371	11703.96
846.695	11693.34
847.019	11660.34
847.343	11570.85
847.666	11466.45
847.99	11477.52
848.313	11487.69
848.637	11371.31
848.96	11306
849.284	11391.65
849.607	11183.75
849.931	11165.44
850.254	11205.67
850.577	11155.05
850.9	11014.26
851.223	11016.74
851.546	10972.23
851.869	10874.83
852.192	10903.53
852.515	10821.5
852.838	10762.29
853.161	10809.29
853.483	10722.29
853.806	10668.05
854.129	10651.33
854.451	10599.13
854.774	10582.63
855.096	10614.49
855.419	10494.05
855.741	10438.23
856.063	10478.91
856.385	10450.88
856.708	10405.91
857.03	10403.2
857.352	10325.24
857.674	10306.71
857.996	10312.58
858.318	10177.22
858.64	10193.72
858.961	10199.59
859.283	10144
859.605	10097.9
859.926	10124.34
860.248	10083.44
860.57	10012.02
860.891	10044.57
861.212	10016.09
861.534	9869.66
861.855	9958.47
862.176	9953.27
862.498	9955.08
862.819	10000.27
863.14	9825.59
863.461	9852.93
863.782	9791.01
864.103	9802.31
864.424	9804.8
864.745	9824.91
865.065	9749.88
865.386	9684.8
865.707	9659.27
866.027	9726.61
866.348	9745.37
866.668	9704.46
866.989	9705.59
867.309	9591.92
867.63	9662.43
867.95	9575.88
868.27	9558.93
868.59	9520.96
868.91	9531.13
869.23	9572.49
869.55	9443.23
869.87	9506.28
870.19	9457.92
870.51	9523.22
870.83	9488.42
871.15	9447.07
871.469	9402.32
871.789	9427.41
872.109	9414.3
872.428	9388.31
872.748	9418.14
873.067	9421.31
873.386	9397.13
873.706	9307.64
874.025	9314.19
874.344	9293.85
874.663	9347.41
874.982	9235.32
875.301	9253.85
875.62	9230.35
875.939	9135.44
876.258	9184.25
876.577	9158.94
876.896	9171.14
877.214	9136.57
877.533	9133.18
877.852	9181.31
878.17	9096.57
878.489	9071.94
878.807	9116
879.125	9074.65
879.444	9085.72
879.762	9036.68
880.08	9064.71
880.398	8993.29
880.716	8977.02
881.034	8929.79
881.352	8945.39
881.67	8956.01
881.988	8888.44
882.306	8859.51
882.624	8894.54
882.941	8805.5
883.259	8783.81
883.577	8774.32
883.894	8770.25
884.212	8773.64
884.529	8763.92
884.846	8754.66
885.164	8699.97
885.481	8704.94
885.798	8685.96
886.115	8649.8
886.432	8639.86
886.75	8583.36
887.067	8624.26
887.383	8520.09
887.7	8622.46
888.017	8498.39
888.334	8521.22
888.651	8460.43
888.967	8418.85
889.284	8444.83
889.6	8363.93
889.917	8319.41
890.233	8365.97
890.55	8319.64
890.866	8343.14
891.182	8299.08
891.498	8288.91
891.815	8232.64
892.131	8192.19
892.447	8180.66
892.763	8165.07
893.079	8102.24
893.395	8188.12
893.71	8054.34
894.026	8096.6
894.342	8066.99
894.657	8023.38
894.973	8017.95
895.289	7973.66
895.604	7981.34
895.92	7892.08
896.235	7922.81
896.55	7879.2
896.865	7855.92
897.181	7822.25
897.496	7823.38
897.811	7833.1
898.126	7747.9
898.441	7711.75
898.756	7706.1
899.071	7714.68
899.386	7695.7
899.7	7587.68
900.015	7564.86
900.33	7496.38
900.644	7500.23
900.959	7537.97
901.273	7501.13
901.588	7439.89
901.902	7403.05
902.216	7396.5
902.531	7331.64
902.845	7304.3
903.159	7332.77
903.473	7280.12
903.787	7246.67
904.101	7235.15
904.415	7227.92
904.729	7225.66
905.042	7138.88
905.356	7064.98
905.67	7091.65
905.984	7090.97
906.297	7041.71
906.611	7005.32
906.924	7018.21
907.237	6944.31
907.551	7003.74
907.864	6946.34
908.177	6926.91
908.491	6794.48
908.804	6827.93
909.117	6770.53
909.43	6750.19
909.743	6768.27
910.056	6714.71
910.368	6719.68
910.681	6626.8
910.994	6619.8
911.307	6587.93
911.619	6578.44
911.932	6502.29
912.244	6503.42
912.557	6458.67
912.869	6499.57
913.181	6387.26
913.494	6384.32
913.806	6298
914.118	6379.58
914.43	6339.35
914.742	6374.83
915.054	6293.7
915.366	6288.51
915.678	6208.96
915.99	6199.47
916.302	6186.36
916.613	6096.42
916.925	6179.81
917.236	6142.75
917.548	6091.9
917.859	6096.42
918.171	6042.41
918.482	6022.3
918.794	5980.72
919.105	5967.61
919.416	5925.13
919.727	5869.53
920.038	5891.23
920.349	5860.27
920.66	5892.13
920.971	5832.02
921.282	5805.58
921.593	5798.12
921.903	5748.86
922.214	5717.45
922.525	5719.03
922.835	5663.66
923.146	5642.65
923.456	5671.57
923.767	5624.8
924.077	5637.45
924.387	5572.14
924.697	5493.27
925.008	5502.54
925.318	5506.15
925.628	5522.88
925.938	5483.78
926.248	5389.55
926.558	5408.08
926.867	5387.29
927.177	5364.46
927.487	5343.9
927.796	5254.86
928.106	5336.22
928.416	5267.06
928.725	5233.62
929.034	5231.36
929.344	5224.13
929.653	5228.42
929.962	5164.69
930.271	5148.2
930.581	5114.3
930.89	5082.89
931.199	5092.15
931.508	5053.74
931.817	5021.87
932.125	5005.83
932.434	4996.11
932.743	4960.41
933.051	4903.68
933.36	4890.58
933.669	4873.18
933.977	4916.11
934.286	4908.2
934.594	4842.22
934.902	4792.73
935.21	4787.53
935.519	4776.68
935.827	4790.69
936.135	4770.81
936.443	4701.88
936.751	4691.03
937.059	4711.6
937.367	4692.39
937.674	4652.84
937.982	4628.44
938.29	4631.15
938.597	4637.93
938.905	4564.26
939.213	4516.58
939.52	4513.64
939.827	4566.52
940.135	4446.97
940.442	4467.09
940.749	4457.82
941.056	4489.68
941.363	4418.95
941.67	4395.22
941.977	4383.92
942.284	4352.29
942.591	4352.51
942.898	4290.82
943.205	4329.46
943.511	4270.25
943.818	4300.31
944.125	4248.79
944.431	4232.29
944.738	4190.48
945.044	4186.19
945.35	4158.85
945.657	4158.85
945.963	4143.7
946.269	4147.55
946.575	4121.33
946.881	4085.18
947.187	4097.38
947.493	4075.91
947.799	4035.68
948.105	4060.99
948.41	4010.37
948.716	3969.47
949.022	3959.75
949.327	3952.07
949.633	3936.03
949.938	3924.05
950.244	3940.55
950.549	3875.01
950.854	3914.11
951.16	3898.06
951.465	3839.31
951.77	3855.35
952.075	3775.8
952.38	3778.74
952.685	3785.07
952.99	3768.8
953.294	3751.17
953.599	3713.43
953.904	3696.48
954.209	3694.9
954.513	3684.96
954.818	3641.12
955.122	3631.85
955.426	3643.38
955.731	3603.38
956.035	3574.45
956.339	3625.07
956.643	3607
956.948	3568.35
957.252	3550.05
957.556	3519.77
957.86	3496.72
958.163	3540.1
958.467	3530.16
958.771	3505.98
959.075	3486.77
959.378	3454.91
959.682	3430.05
959.985	3367.91
960.289	3428.7
960.592	3407.68
960.896	3333.33
961.199	3397.74
961.502	3354.12
961.805	3356.83
962.108	3309.6
962.411	3297.17
962.714	3300.11
963.017	3235.25
963.32	3254.46
963.623	3210.4
963.926	3216.5
964.228	3205.65
964.531	3198.19
964.833	3176.27
965.136	3147.8
965.438	3155.71
965.741	3167.23
966.043	3089.27
966.345	3127.91
966.648	3132.88
966.95	3070.06
967.252	3094.69
967.554	3060.34
967.856	3044.98
968.158	3037.29
968.46	3042.94
968.761	3044.3
969.063	3001.81
969.365	2991.19
969.666	2997.97
969.968	2930.63
970.269	2945.09
970.571	2969.05
970.872	2944.41
971.174	2906
971.475	2885.66
971.776	2903.29
972.077	2896.96
972.378	2844.08
972.679	2866.9
972.98	2851.08
973.281	2814.7
973.582	2818.54
973.883	2834.36
974.183	2807.69
974.484	2785.1
974.785	2771.76
975.085	2751.65
975.386	2761.59
975.686	2746.23
975.986	2753.01
976.287	2716.85
976.587	2719.56
976.887	2692.67
977.187	2671.43
977.487	2659
977.787	2615.61
978.087	2653.57
978.387	2653.8
978.687	2625.78
978.987	2580.58
979.286	2599.79
979.586	2547.36
979.885	2569.73
980.185	2563.41
980.484	2514.59
980.784	2546.46
981.083	2557.53
981.382	2522.96
981.682	2519.57
981.981	2488.38
982.28	2455.16
982.579	2466.69
982.878	2465.78
983.177	2428.72
983.475	2464.2
983.774	2409.51
984.073	2429.17
984.372	2383.3
984.67	2395.5
984.969	2404.09
985.267	2369.29
985.566	2389.63
985.864	2368.38
986.162	2367.93
986.461	2355.5
986.759	2369.29
987.057	2316.41
987.355	2277.54
987.653	2265.56
987.951	2292.45
988.249	2265.79
988.547	2241.16
988.844	2250.2
989.142	2217.65
989.44	2216.3
989.737	2207.48
990.035	2208.39
990.332	2214.72
990.63	2162.97
990.927	2160.71
991.224	2148.05
991.521	2160.93
991.819	2149.41
992.116	2151.21
992.413	2116.41
992.71	2138.11
993.006	2129.75
993.303	2134.04
993.6	2121.38
993.897	2115.74
994.193	2076.87
994.49	2079.35
994.787	2098.79
995.083	2026.92
995.379	2022.18
995.676	2015.85
995.972	2007.49
996.268	2032.57
996.565	1978.79
996.861	1983.31
997.157	1966.59
997.453	1927.72
997.749	1957.1
998.044	1920.94
998.34	1942.86
998.636	1929.75
998.932	1920.49
999.227	1911.67
999.523	1888.4
999.818	1911.22
1000.114	1888.62
1000.409	1873.71
1000.704	1871.22
1001	1866.93
1001.295	1833.26
1001.59	1811.11
1001.885	1824.22
1002.18	1845.91
1002.475	1799.59
1002.77	1800.94
1003.065	1782.41
1003.359	1787.61
1003.654	1796.87
1003.949	1762.07
1004.243	1756.2
1004.538	1705.58
1004.832	1729.3
1005.127	1751
1005.421	1696.09
1005.715	1675.75
1006.009	1704.45
1006.304	1687.27
1006.598	1678.46
1006.892	1656.54
1007.186	1665.13
1007.48	1645.47
1007.773	1658.8
1008.067	1658.57
1008.361	1591
1008.655	1589.42
1008.948	1612.7
1009.242	1594.62
1009.535	1604.11
1009.829	1585.13
1010.122	1550.55
1010.415	1556.43
1010.708	1568.41
1011.001	1569.99
1011.295	1516.43
1011.588	1519.59
1011.881	1520.72
1012.173	1506.49
1012.466	1522.98
1012.759	1527.73
1013.052	1465.58
1013.344	1490.89
1013.637	1491.8
1013.93	1439.37
1014.222	1458.8
1014.514	1464
1014.807	1490.22
1015.099	1444.57
1015.391	1388.52
1015.683	1400.5
1015.976	1401.63
1016.268	1375.19
1016.56	1381.29
1016.851	1366.83
1017.143	1369.77
1017.435	1373.83
1017.727	1357.79
1018.018	1321.41
1018.31	1354.85
1018.602	1324.12
1018.893	1339.26
1019.185	1333.83
1019.476	1307.17
1019.767	1306.49
1020.058	1301.29
1020.35	1282.54
1020.641	1258.13
1020.932	1279.15
1021.223	1280.96
1021.514	1247.51
1021.804	1209.77
1022.095	1244.8
1022.386	1223.78
1022.677	1225.36
1022.967	1226.27
1023.258	1202.54
1023.548	1219.26
1023.839	1189.66
1024.129	1179.94
1024.419	1173.16
1024.709	1140.62
1025	1176.55
1025.29	1155.31
1025.58	1161.18
1025.87	1122.32
1026.16	1113.73
1026.449	1105.82
1026.739	1138.13
1027.029	1134.29
1027.319	1085.48
1027.608	1115.99
1027.898	1090.68
1028.187	1089.32
1028.477	1099.49
1028.766	1048.64
1029.055	1079.83
1029.344	1060.17
1029.634	1027.18
1029.923	1050.9
1030.212	1046.61
1030.501	1008.65
1030.79	1021.3
1031.078	1000.74
1031.367	1014.75
1031.656	985.82
1031.945	1008.42
1032.233	1006.39
1032.522	975.65
1032.81	962.32
1033.099	985.6
1033.387	970.45
1033.675	968.87
1033.963	969.78
1034.251	950.12
1034.54	956.44
1034.828	907.63
1035.116	936.33
1035.403	918.7
1035.691	901.53
1035.979	935.2
1036.267	914.19
1036.554	904.24
1036.842	911.47
1037.129	878.25
1037.417	867.86
1037.704	869.67
1037.992	859.72
1038.279	875.77
1038.566	861.08
1038.853	861.08
1039.14	861.08
