Data from hue_250_FLMS001491_00081.txt Node
Date: Tue Feb 07 16:01:34 GMT 2017
User: dcchb
Spectrometer: FLMS00149
Trigger mode: 0
Integration Time (sec): 2.000000E-2
Scans to average: 10
Electric dark correction enabled: true
Nonlinearity correction enabled: false
Boxcar width: 0
XAxis mode: Wavelengths
Number of Pixels in Spectrum: 2048
>>>>>Begin Spectral Data<<<<<
341.393	-11.93
341.776	-11.93
342.16	-11.93
342.543	-74.53
342.927	-76.34
343.31	-54.87
343.693	-79.05
344.077	-58.49
344.46	-55.32
344.843	-39.28
345.226	-40.86
345.61	-37.92
345.993	-30.01
346.376	-1.09
346.759	4.56
347.142	18.35
347.525	60.61
347.908	40.27
348.291	89.31
348.674	86.59
349.057	97.21
349.44	129.3
349.823	147.84
350.206	165.24
350.588	178.12
350.971	188.74
351.354	206.59
351.737	235.97
352.119	231.45
352.502	257.44
352.884	274.39
353.267	253.6
353.65	261.28
354.032	279.13
354.414	293.14
354.797	292.92
355.179	315.51
355.562	301.5
355.944	320.26
356.326	307.38
356.709	307.83
357.091	304.89
357.473	329.07
357.855	324.33
358.238	346.47
358.62	330.2
359.002	330.88
359.384	325.68
359.766	347.38
360.148	326.81
360.53	320.71
360.912	319.36
361.294	317.32
361.676	302.86
362.057	308.06
362.439	324.78
362.821	298.57
363.203	329.53
363.584	304.44
363.966	299.92
364.348	313.48
364.729	318.68
365.111	297.89
365.493	284.78
365.874	303.31
366.256	300.83
366.637	302.86
367.019	306.25
367.4	302.18
367.781	311.9
368.163	315.51
368.544	319.58
368.925	314.61
369.306	316.87
369.688	299.7
370.069	305.35
370.45	301.96
370.831	304.44
371.212	293.59
371.593	305.35
371.974	319.13
372.355	283.88
372.736	294.5
373.117	289.98
373.498	302.63
373.879	310.32
374.26	315.97
374.641	303.99
375.021	295.63
375.402	303.09
375.783	301.5
376.163	315.06
376.544	331.11
376.925	322.52
377.305	306.02
377.686	325.46
378.066	316.42
378.447	320.71
378.827	316.87
379.208	329.75
379.588	301.96
379.968	330.66
380.349	303.09
380.729	313.03
381.109	330.88
381.489	309.41
381.87	317.1
382.25	332.24
382.63	308.96
383.01	314.61
383.39	327.94
383.77	337.89
384.15	341.5
384.53	336.3
384.91	329.07
385.29	339.24
385.67	338.11
386.049	350.09
386.429	321.62
386.809	340.6
387.189	353.48
387.568	345.57
387.948	350.99
388.328	361.39
388.707	360.71
389.087	339.24
389.466	340.15
389.846	371.11
390.225	366.59
390.605	356.19
390.984	358.9
391.363	362.74
391.743	336.08
392.122	370.65
392.501	348.28
392.881	384.44
393.26	365.46
393.639	350.32
394.018	371.56
394.397	378.11
394.776	354.38
395.155	380.82
395.534	374.95
395.913	360.26
396.292	374.27
396.671	385.79
397.05	379.92
397.429	376.08
397.808	397.32
398.186	405.46
398.565	389.41
398.944	400.26
399.323	385.57
399.701	395.29
400.08	397.55
400.458	400.48
400.837	381.05
401.215	396.42
401.594	398.45
401.972	435.06
402.351	426.47
402.729	404.55
403.107	421.27
403.486	425.57
403.864	399.13
404.242	438.9
404.62	442.29
404.999	440.26
405.377	440.93
405.755	429.86
406.133	465.34
406.511	439.58
406.889	451.33
407.267	467.6
407.645	464.21
408.023	457.88
408.401	481.39
408.779	489.07
409.156	468.96
409.534	477.54
409.912	485.68
410.29	505.57
410.667	505.57
411.045	506.47
411.422	533.14
411.8	504.44
412.178	518.9
412.555	526.13
412.933	552.8
413.31	537.88
413.687	549.86
414.065	556.64
414.442	556.64
414.819	582.17
415.197	583.76
415.574	581.72
415.951	579.69
416.328	602.74
416.705	590.54
417.082	575.85
417.46	610.42
417.837	625.79
418.214	632.12
418.591	631.44
418.967	626.92
419.344	630.53
419.721	650.87
420.098	659.23
420.475	648.39
420.852	670.08
421.228	681.15
421.605	669.86
421.982	680.48
422.358	693.58
422.735	693.13
423.111	706.69
423.488	728.61
423.864	717.54
424.241	758.67
424.617	763.86
424.994	760.02
425.37	776.75
425.746	776.07
426.123	816.74
426.499	796.18
426.875	821.94
427.251	804.32
427.627	843.64
428.003	840.7
428.379	857.65
428.756	844.54
429.132	877.53
429.507	885.22
429.883	888.83
430.259	905.78
430.635	913.24
431.011	926.8
431.387	911.66
431.763	938.1
432.138	958.66
432.514	958.21
432.89	982.62
433.265	1007.93
433.641	1014.25
434.016	1006.12
434.392	1034.37
434.767	1052.22
435.143	1075.49
435.518	1075.49
435.894	1099.22
436.269	1125.21
436.644	1147.13
437.02	1142.61
437.395	1154.14
437.77	1164.31
438.145	1169.28
438.52	1186.68
438.895	1213.12
439.271	1217.64
439.646	1238.43
440.021	1264.19
440.395	1263.96
440.77	1280.91
441.145	1271.65
441.52	1338.31
441.895	1341.93
442.27	1345.09
442.645	1331.76
443.019	1347.8
443.394	1343.06
443.769	1370.4
444.143	1370.85
444.518	1383.06
444.892	1379.67
445.267	1438.2
445.641	1421.47
446.016	1437.29
446.39	1415.15
446.764	1463.05
447.139	1454.92
447.513	1490.17
447.887	1494.01
448.262	1475.71
448.636	1496.73
449.01	1502.38
449.384	1501.25
449.758	1538.76
450.132	1548.02
450.506	1556.84
450.88	1579.89
451.254	1581.02
451.628	1598.87
452.002	1621.92
452.376	1642.94
452.75	1624.18
453.123	1647.23
453.497	1706.21
453.871	1684.07
454.244	1742.14
454.618	1729.26
454.992	1710.73
455.365	1733.78
455.739	1800.22
456.112	1799.09
456.486	1805.64
456.859	1848.36
457.232	1882.7
457.606	1853.33
457.979	1857.62
458.352	1925.87
458.725	1944.4
459.099	1935.81
459.472	1974.23
459.845	1963.83
460.218	2020.33
460.591	2024.85
460.964	2035.7
461.337	2059.2
461.71	2081.34
462.083	2168.35
462.456	2134.68
462.829	2126.99
463.201	2160.44
463.574	2209.48
463.947	2213.32
464.32	2246.09
464.692	2263.49
465.065	2284.95
465.438	2321.79
465.81	2331.05
466.183	2371.73
466.555	2402.47
466.928	2427.78
467.3	2426.19
467.672	2462.8
468.045	2535.57
468.417	2499.86
468.789	2559.98
469.161	2616.92
469.534	2618.28
469.906	2644.94
470.278	2667.77
470.65	2694.21
471.022	2695.11
471.394	2748.67
471.766	2802.45
472.138	2803.13
472.51	2844.04
472.882	2893.3
473.253	2930.81
473.625	2975.11
473.997	3009
474.369	3050.36
474.74	3052.84
475.112	3080.64
475.484	3140.98
475.855	3255.78
476.227	3239.51
476.598	3331.48
476.97	3358.6
477.341	3426.84
477.713	3424.13
478.084	3469.33
478.455	3531.47
478.827	3632.49
479.198	3649.66
479.569	3641.53
479.94	3793.16
480.311	3741.86
480.682	3844.91
481.053	3897.34
481.424	3923.33
481.795	3974.63
482.166	4027.06
482.537	4116.32
482.908	4144.11
483.279	4206.71
483.65	4261.85
484.021	4329.42
484.391	4359.02
484.762	4359.48
485.133	4415.07
485.503	4462.52
485.874	4576.19
486.244	4626.81
486.615	4682.18
486.985	4739.8
487.356	4847.37
487.726	4850.76
488.097	4897.77
488.467	4918.78
488.837	5012.79
489.207	5107.03
489.578	5077.65
489.948	5144.77
490.318	5243.75
490.688	5227.02
491.058	5291.65
491.428	5384.99
491.798	5430.86
492.168	5539.33
492.538	5508.15
492.908	5547.47
493.278	5609.16
493.648	5649.16
494.017	5662.49
494.387	5694.58
494.757	5757.18
495.126	5817.74
495.496	5838.98
495.866	5864.75
496.235	5909.72
496.605	5970.51
496.974	5959.89
497.344	6019.77
497.713	6097.74
498.082	6083.5
498.452	6141.58
498.821	6170.05
499.19	6153.55
499.559	6212.99
499.928	6278.3
500.298	6258.86
500.667	6281.23
501.036	6330.72
501.405	6348.58
501.774	6390.38
502.143	6401.91
502.512	6423.83
502.88	6474
503.249	6472.41
503.618	6506.76
503.987	6494.79
504.356	6573.2
504.724	6555.8
505.093	6577.72
505.462	6582.24
505.83	6609.81
506.199	6706.98
506.567	6758.06
506.936	6711.73
507.304	6789.47
507.672	6805.74
508.041	6797.38
508.409	6894.78
508.777	6871.73
509.145	6976.13
509.514	6928.45
509.882	6974.55
510.25	6963.25
510.618	6983.59
510.986	7010.93
511.354	6978.84
511.722	7031.04
512.09	7121.21
512.458	7094.09
512.826	7102
513.193	7149.01
513.561	7159.63
513.929	7191.94
514.297	7232.85
514.664	7204.37
515.032	7235.78
515.4	7311.71
515.767	7264.26
516.135	7315.33
516.502	7203.92
516.869	7341.77
517.237	7366.4
517.604	7278.27
517.972	7396.68
518.339	7378.15
518.706	7431.26
519.073	7424.25
519.44	7425.16
519.808	7521.65
520.175	7419.06
520.542	7560.97
520.909	7591.71
521.276	7478.49
521.643	7504.93
522.009	7624.7
522.376	7590.58
522.743	7653.17
523.11	7702.44
523.477	7713.96
523.843	7710.35
524.21	7739.05
524.577	7807.97
524.943	7868.99
525.31	7857.46
525.676	7875.32
526.043	7900.17
526.409	7936.1
526.776	7983.79
527.142	7886.39
527.508	7941.53
527.874	7964.13
528.241	7951.7
528.607	7966.16
528.973	8003.45
529.339	7963.9
529.705	8038.7
530.071	8106.5
530.437	8054.52
530.803	8087.51
531.169	8134.52
531.535	8096.1
531.901	8140.62
532.267	8184.69
532.632	8155.31
532.998	8195.08
533.364	8170.67
533.73	8197.79
534.095	8235.31
534.461	8227.17
534.826	8168.42
535.192	8142.88
535.557	8242.09
535.923	8184.91
536.288	8197.57
536.653	8188.08
537.019	8134.97
537.384	8171.58
537.749	8194.86
538.114	8121.86
538.479	8153.73
538.845	8203.67
539.21	8181.52
539.575	8170.22
539.94	8180.84
540.305	8191.01
540.67	8184.23
541.034	8154.63
541.399	8224.01
541.764	8190.11
542.129	8201.41
542.494	8148.08
542.858	8168.87
543.223	8151.47
543.587	8156.21
543.952	8096.78
544.316	8175.19
544.681	8174.52
545.045	8086.84
545.41	8132.03
545.774	8140.85
546.138	8122.77
546.503	8128.87
546.867	8134.74
547.231	8124.57
547.595	8143.33
547.959	8134.74
548.324	8144.46
548.688	8078.02
549.052	8149.88
549.416	8144.46
549.779	8103.78
550.143	8123.9
550.507	8092.03
550.871	8115.54
551.235	8066.5
551.599	8131.81
551.962	8175.42
552.326	8113.05
552.689	8148.3
553.053	8040.06
553.417	8089.1
553.78	8148.3
554.143	8063.33
554.507	8138.59
554.87	8140.62
555.234	8166.16
555.597	8143.11
555.96	8172.93
556.323	8130
556.686	8165.03
557.05	8203.89
557.413	8200.05
557.776	8135.42
558.139	8237.79
558.502	8206.38
558.865	8250.67
559.228	8210.45
559.59	8268.75
559.953	8230.11
560.316	8274.18
560.679	8311.46
561.041	8306.04
561.404	8379.03
561.767	8412.48
562.129	8378.81
562.492	8404.57
562.854	8420.16
563.217	8357.56
563.579	8388.97
563.941	8400.5
564.304	8435.07
564.666	8521.17
565.028	8475.98
565.39	8484.34
565.753	8607.5
566.115	8545.81
566.477	8555.75
566.839	8568.86
567.201	8611.57
567.563	8653.37
567.925	8621.96
568.287	8775.4
568.648	8690.66
569.01	8711.68
569.372	8802.07
569.734	8702.41
570.095	8816.53
570.457	8857.89
570.819	8864.44
571.18	8758.23
571.542	8882.75
571.903	8965.46
572.265	8969.52
572.626	8933.37
572.987	8981.5
573.349	9009.97
573.71	8946.7
574.071	8995.74
574.432	9045.23
574.794	9096.07
575.155	9098.33
575.516	9057.43
575.877	9094.27
576.238	9136.3
576.599	9138.11
576.96	9206.35
577.32	9169.52
577.681	9163.64
578.042	9158.22
578.403	9222.17
578.763	9273.7
579.124	9291.1
579.485	9367.93
579.845	9368.16
580.206	9271.89
580.566	9258.56
580.927	9316.18
581.287	9425.11
581.648	9355.05
582.008	9387.14
582.368	9453.35
582.728	9382.17
583.089	9452
583.449	9404.09
583.809	9498.55
584.169	9521.6
584.529	9498.32
584.889	9541.94
585.249	9511.43
585.609	9448.16
585.969	9505.1
586.329	9532.67
586.688	9543.52
587.048	9561.82
587.408	9508.27
587.768	9598.89
588.127	9516.85
588.487	9575.84
588.846	9657.64
589.206	9598.43
589.565	9662.84
589.925	9649.96
590.284	9690.41
590.643	9684.76
591.003	9739.67
591.362	9775.6
591.721	9671.88
592.08	9691.09
592.44	9685.89
592.799	9761.14
593.158	9703.97
593.517	9768.37
593.876	9781.25
594.235	9802.72
594.593	9772.44
594.952	9787.58
595.311	9765.21
595.67	9747.81
596.029	9842.72
596.387	9863.06
596.746	9876.39
597.104	9830.52
597.463	9783.06
597.822	9837.52
598.18	9809.73
598.538	9767.7
598.897	9816.51
599.255	9780.8
599.613	9916.84
599.972	9821.03
600.33	9871.2
600.688	9856.73
601.046	9942.61
601.404	9914.13
601.762	9913.23
602.12	9963.4
602.478	10011.98
602.836	9997.07
603.194	9928.82
603.552	9954.36
603.91	9984.41
604.268	9900.57
604.625	9962.94
604.983	9977.18
605.341	9900.35
605.698	9966.79
606.056	10013.79
606.413	9941.02
606.771	10003.17
607.128	9970.4
607.485	9893.12
607.843	9926.56
608.2	10004.3
608.557	10054.92
608.914	10016.5
609.272	10058.53
609.629	10025.09
609.986	10090.17
610.343	10059.66
610.7	10153.22
611.057	10081.36
611.414	10080.46
611.771	10150.28
612.127	10216.95
612.484	10120.91
612.841	10181.02
613.198	10210.62
613.554	10155.03
613.911	10229.83
614.267	10176.95
614.624	10216.95
614.98	10222.15
615.337	10316.61
615.693	10238.64
616.05	10223.05
616.406	10274.57
616.762	10172.43
617.118	10209.94
617.475	10278.19
617.831	10284.52
618.187	10298.75
618.543	10221.92
618.899	10334.46
619.255	10303.5
619.611	10307.79
619.967	10311.64
620.323	10387.34
620.678	10290.85
621.034	10294.46
621.39	10329.49
621.746	10193.67
622.101	10395.48
622.457	10262.37
622.812	10347.79
623.168	10349.15
623.523	10335.59
623.879	10368.58
624.234	10255.59
624.589	10325.42
624.945	10311.18
625.3	10324.74
625.655	10311.64
626.01	10355.7
626.365	10321.8
626.72	10229.6
627.075	10282.03
627.43	10308.92
627.785	10280.68
628.14	10344.86
628.495	10273.9
628.85	10257.85
629.205	10266.44
629.559	10367.68
629.914	10268.47
630.269	10328.13
630.623	10233.9
630.978	10195.25
631.332	10252.88
631.687	10314.35
632.041	10251.07
632.396	10211.98
632.75	10176.95
633.104	10213.56
633.459	10076.39
633.813	10147.35
634.167	10093.56
634.521	10101.25
634.875	10158.87
635.229	10091.3
635.583	10002.49
635.937	10112.77
636.291	10135.14
636.645	10072.32
636.999	10035.26
637.352	10092.21
637.706	9973.79
638.06	10055.6
638.413	10035.94
638.767	9987.58
639.121	10061.02
639.474	9946
639.828	9895.15
640.181	9950.29
640.534	9919.78
640.888	9944.64
641.241	9846.56
641.594	9851.76
641.947	9916.39
642.301	9873.68
642.654	9915.94
643.007	9790.97
643.36	9864.42
643.713	9843.85
644.066	9808.6
644.419	9781.25
644.771	9727.47
645.124	9662.61
645.477	9626.91
645.83	9633.69
646.182	9570.64
646.535	9523.18
646.888	9547.81
647.24	9436.63
647.593	9494.26
647.945	9494.03
648.298	9504.43
648.65	9465.33
649.002	9444.54
649.355	9466.69
649.707	9484.76
650.059	9505.78
650.411	9637.76
650.763	9590.07
651.115	9736.06
651.467	9621.71
651.819	9606.57
652.171	9654.03
652.523	9601.82
652.875	9593.01
653.227	9610.86
653.578	9673.69
653.93	9707.58
654.282	9614.03
654.633	9618.77
654.985	9656.06
655.337	9614.25
655.688	9642.73
656.039	9687.02
656.391	9619.22
656.742	9668.26
657.094	9600.92
657.445	9715.49
657.796	9663.29
658.147	9652.9
658.498	9642.73
658.849	9658.32
659.2	9664.2
659.551	9602.73
659.902	9667.81
660.253	9611.99
660.604	9605.67
660.955	9586.46
661.306	9611.99
661.656	9634.82
662.007	9613.35
662.358	9653.8
662.708	9612.9
663.059	9640.24
663.409	9525.22
663.76	9648.38
664.11	9559.11
664.461	9561.15
664.811	9600.47
665.161	9591.65
665.511	9564.08
665.862	9561.37
666.212	9613.35
666.562	9552.33
666.912	9589.39
667.262	9543.52
667.612	9596.17
667.962	9531.77
668.312	9625.78
668.662	9659.45
669.011	9642.73
669.361	9586.46
669.711	9583.29
670.06	9554.82
670.41	9538.1
670.76	9562.05
671.109	9547.14
671.459	9595.04
671.808	9575.61
672.157	9568.38
672.507	9455.16
672.856	9601.15
673.205	9452.22
673.554	9541.71
673.904	9508.04
674.253	9473.69
674.602	9428.5
674.951	9355.5
675.3	9273.02
675.649	9467.14
675.998	9475.05
676.346	9426.69
676.695	9486.57
677.044	9365.22
677.393	9368.16
677.741	9391.66
678.09	9394.15
678.438	9343.53
678.787	9430.75
679.135	9411.32
679.484	9321.83
679.832	9323.64
680.181	9262.4
680.529	9370.87
680.877	9283.41
681.225	9278.67
681.573	9329.97
681.922	9244.32
682.27	9106.92
682.618	9262.4
682.966	9147.82
683.314	9180.59
683.661	9183.3
684.009	9157.77
684.357	9103.53
684.705	9116.64
685.053	9175.17
685.4	9112.57
685.748	9075.06
686.095	9114.6
686.443	9058.11
686.79	8987.83
687.138	9020.82
687.485	9066.02
687.832	8952.35
688.18	8948.73
688.527	8947.15
688.874	8922.75
689.221	8902.18
689.568	8893.59
689.915	8824.67
690.262	8789.19
690.609	8757.1
690.956	8730.66
691.303	8696.76
691.65	8652.47
691.997	8704.67
692.344	8589.42
692.69	8616.99
693.037	8566.6
693.383	8558.91
693.73	8595.97
694.077	8456.09
694.423	8552.59
694.769	8397.34
695.116	8460.16
695.462	8442.98
695.808	8392.36
696.155	8427.84
696.501	8361.63
696.847	8348.3
697.193	8298.36
697.539	8296.77
697.885	8261.07
698.231	8206.38
698.577	8206.83
698.923	8156.44
699.269	8091.36
699.614	8102.2
699.96	8056.55
700.306	8092.26
700.651	8063.33
700.997	8013.62
701.342	8015.42
701.688	7977.91
702.033	7934.3
702.379	7891.13
702.724	7888.2
703.069	7869.44
703.415	7858.82
703.76	7792.61
704.105	7769.33
704.45	7774.53
704.795	7754.19
705.14	7669.67
705.485	7711.48
705.83	7622.67
706.175	7631.93
706.52	7627.19
706.865	7602.33
707.209	7586.51
707.554	7568.66
707.899	7587.19
708.243	7563.69
708.588	7495.44
708.932	7461.99
709.277	7428.55
709.621	7403.46
709.966	7410.47
710.31	7363.24
710.654	7342.45
710.998	7360.98
711.342	7313.07
711.687	7313.97
712.031	7334.76
712.375	7288.44
712.719	7330.25
713.063	7215.9
713.407	7289.34
713.75	7186.07
714.094	7240.3
714.438	7199.85
714.782	7259.29
715.125	7178.84
715.469	7199.63
715.812	7200.53
716.156	7172.28
716.499	7177.25
716.843	7123.92
717.186	7103.36
717.53	7096.35
717.873	7137.71
718.216	7035.79
718.559	7020.2
718.902	7033.53
719.246	7020.42
719.589	7042.57
719.932	6921.22
720.275	6964.83
720.617	6947.66
720.96	6985.62
721.303	6953.53
721.646	6916.92
721.989	6891.61
722.331	6916.02
722.674	6883.03
723.016	6951.5
723.359	6936.81
723.701	6884.16
724.044	6888.67
724.386	6789.69
724.729	6869.69
725.071	6822.91
725.413	6833.99
725.755	6830.37
726.097	6811.84
726.439	6861.56
726.782	6814.78
727.124	6823.59
727.465	6835.79
727.807	6852.74
728.149	6828.79
728.491	6776.59
728.833	6791.73
729.175	6824.72
729.516	6855
729.858	6737.04
730.199	6712.18
730.541	6732.75
730.882	6779.53
731.224	6805.51
731.565	6752.41
731.906	6821.78
732.248	6771.39
732.589	6738.17
732.93	6687.32
733.271	6730.71
733.612	6763.48
733.953	6743.82
734.294	6707.89
734.635	6713.99
734.976	6744.72
735.317	6768.68
735.658	6680.77
735.999	6734.33
736.339	6700.43
736.68	6712.63
737.021	6702.92
737.361	6662.92
737.702	6732.97
738.042	6782.01
738.383	6689.13
738.723	6706.08
739.063	6665.4
739.404	6738.17
739.744	6714.22
740.084	6755.8
740.424	6727.78
740.764	6687.78
741.104	6768.23
741.444	6711.73
741.784	6688.45
742.124	6745.4
742.464	6737.49
742.804	6778.4
743.143	6825.4
743.483	6834.66
743.823	6757.38
744.162	6835.79
744.502	6847.09
744.841	6822.01
745.181	6829.69
745.52	6833.76
745.86	6884.38
746.199	6899.07
746.538	6960.76
746.877	6973.19
747.216	6942.23
747.556	7012.29
747.895	7052.51
748.234	7005.73
748.573	7026.07
748.911	7085.28
749.25	7149.01
749.589	7198.27
749.928	7235.11
750.267	7291.15
750.605	7316.46
750.944	7357.59
751.283	7330.25
751.621	7395.1
751.96	7510.13
752.298	7532.95
752.636	7569.33
752.975	7677.81
753.313	7739.05
753.651	7838.25
753.989	7822.66
754.327	7888.87
754.666	7974.3
755.004	8118.25
755.342	8138.81
755.679	8171.8
756.017	8305.59
756.355	8365.25
756.693	8431.46
757.031	8527.28
757.368	8574.05
757.706	8753.48
758.044	8811.34
758.381	8891.11
758.719	8990.77
759.056	9089.07
759.394	9228.5
759.731	9258.78
760.068	9338.33
760.405	9453.81
760.743	9579.9
761.08	9706.45
761.417	9706.68
761.754	9815.6
762.091	9992.1
762.428	10026.9
762.765	10111.87
763.102	10223.5
763.438	10321.35
763.775	10358.19
764.112	10465.08
764.449	10688.8
764.785	10713.43
765.122	10790.49
765.458	10857.84
765.795	11017.38
766.131	11118.85
766.467	11164.72
766.804	11260.54
767.14	11356.13
767.476	11412.4
767.812	11464.37
768.148	11604.48
768.485	11711.6
768.821	11652.39
769.157	11798.38
769.492	11853.74
769.828	11858.49
770.164	11891.03
770.5	11931.48
770.836	12101.19
771.171	12100.97
771.507	12134.19
771.842	12138.93
772.178	12263.67
772.513	12228.42
772.849	12364.91
773.184	12361.98
773.519	12431.58
773.855	12420.96
774.19	12463.44
774.525	12429.55
774.86	12525.36
775.195	12590.9
775.53	12569.88
775.865	12548.41
776.2	12600.39
776.535	12536.21
776.87	12620.05
777.205	12673.16
777.539	12628.41
777.874	12708.86
778.209	12663.66
778.543	12701.86
778.878	12682.42
779.212	12687.39
779.547	12632.93
779.881	12654.85
780.215	12630.22
780.55	12720.84
780.884	12653.95
781.218	12742.76
781.552	12799.03
781.886	12797.22
782.22	12677.68
782.554	12743.66
782.888	12540.96
783.222	12563.33
783.556	12480.62
783.889	12561.75
784.223	12493.95
784.557	12492.82
784.89	12533.5
785.224	12563.55
785.557	12399.26
785.891	12448.75
786.224	12529.66
786.558	12438.36
786.891	12358.36
787.224	12358.59
787.557	12419.83
787.891	12413.05
788.224	12438.13
788.557	12378.47
788.89	12462.09
789.223	12351.81
789.556	12308.42
789.888	12342.09
790.221	12254.64
790.554	12234.75
790.887	12208.99
791.219	12188.65
791.552	12181.19
791.884	12114.07
792.217	12179.38
792.549	12039.95
792.882	11978.48
793.214	12037.47
793.546	12006.05
793.879	11963.34
794.211	11868.66
794.543	11908.2
794.875	11891.26
795.207	11927.41
795.539	11852.84
795.871	11910.01
796.203	11820.07
796.535	11780.52
796.867	11710.47
797.198	11690.36
797.53	11657.14
797.862	11603.81
798.193	11645.61
798.525	11576.69
798.856	11630.7
799.188	11507.99
799.519	11449.01
799.85	11411.04
800.182	11397.26
800.513	11404.49
800.844	11329.01
801.175	11364.94
801.506	11361.78
801.837	11380.76
802.168	11246.07
802.499	11284.72
802.83	11235.68
803.161	11261.89
803.491	11134.89
803.822	11160.88
804.153	11145.74
804.483	11042.46
804.814	11059.19
805.145	11049.7
805.475	11024.39
805.805	11031.62
806.136	10978.51
806.466	11009.24
806.796	10983.48
807.126	10847.67
807.457	10828.68
807.787	10876.37
808.117	10856.03
808.447	10787.78
808.777	10869.59
809.107	10799.08
809.436	10764.05
809.766	10748.91
810.096	10735.13
810.426	10692.64
810.755	10687.9
811.085	10663.49
811.414	10598.18
811.744	10547.34
812.073	10536.26
812.403	10536.94
812.732	10538.07
813.061	10496.04
813.39	10502.59
813.719	10528.81
814.049	10535.58
814.378	10487.68
814.707	10404.97
815.036	10376.27
815.365	10376.94
815.693	10285.65
816.022	10270.05
816.351	10243.84
816.68	10216.04
817.008	10240.23
817.337	10199.32
817.665	10171.98
817.994	10223.05
818.322	10219.21
818.651	10167.46
818.979	10082.04
819.307	10185.31
819.636	10059.21
819.964	10042.04
820.292	10129.49
820.62	10130.4
820.948	10055.15
821.276	10081.81
821.604	10071.19
821.932	10061.25
822.259	10015.82
822.587	10022.38
822.915	9996.62
823.243	10046.78
823.57	9950.74
823.898	10049.5
824.225	9980.8
824.553	9980.12
824.88	10023.96
825.207	10025.99
825.535	10054.92
825.862	10025.54
826.189	9954.58
826.516	10027.8
826.843	10037.52
827.17	9982.38
827.497	10082.26
827.824	10005.43
828.151	10006.56
828.478	10026.22
828.805	10101.47
829.131	9911.87
829.458	10018.31
829.785	9961.36
830.111	9950.97
830.438	10091.3
830.764	9989.61
831.09	10005.2
831.417	9935.6
831.743	9997.52
832.069	10006.33
832.395	9934.7
832.722	9963.85
833.048	9992.77
833.374	9981.7
833.7	9907.13
834.026	9938.54
834.351	9965.66
834.677	9991.42
835.003	9931.98
835.329	9887.01
835.654	9887.69
835.98	9901.93
836.306	9884.75
836.631	9872.55
836.956	9931.98
837.282	9923.62
837.607	9822.83
837.932	9794.81
838.258	9804.08
838.583	9876.17
838.908	9772.67
839.233	9750.97
839.558	9790.97
839.883	9696.74
840.208	9747.13
840.533	9630.07
840.858	9690.41
841.182	9612.44
841.507	9654.25
841.832	9623.97
842.156	9680.01
842.481	9607.02
842.805	9550.3
843.13	9604.99
843.454	9601.15
843.778	9510.98
844.103	9494.26
844.427	9458.32
844.751	9437.08
845.075	9431.88
845.399	9396.63
845.723	9376.07
846.047	9367.03
846.371	9264.21
846.695	9337.42
847.019	9226.92
847.343	9247.93
847.666	9058.34
847.99	9127.49
848.313	9122.06
848.637	8980.82
848.96	9025.79
849.284	9045.91
849.607	8980.82
849.931	8955.74
850.254	8823.77
850.577	8827.38
850.9	8768.63
851.223	8743.32
851.546	8689.53
851.869	8682.98
852.192	8775.4
852.515	8656.76
852.838	8569.76
853.161	8594.84
853.483	8536.32
853.806	8565.47
854.129	8501.06
854.451	8513.72
854.774	8408.18
855.096	8454.51
855.419	8403.66
855.741	8391.46
856.063	8371.8
856.385	8341.29
856.708	8323.44
857.03	8283.67
857.352	8297.9
857.674	8219.26
857.996	8217.23
858.318	8131.81
858.64	8142.65
858.961	8139.26
859.283	8066.72
859.605	8022.66
859.926	8068.3
860.248	8047.06
860.57	8029.44
860.891	8078.7
861.212	7944.01
861.534	7957.8
861.855	7946.95
862.176	7954.64
862.498	7887.52
862.819	7993.96
863.14	7861.53
863.461	7833.51
863.782	7832.83
864.103	7858.82
864.424	7837.12
864.745	7811.14
865.065	7787.86
865.386	7825.15
865.707	7733.4
866.027	7818.82
866.348	7763.45
866.668	7733.4
866.989	7754.41
867.309	7621.31
867.63	7680.74
867.95	7656.79
868.27	7679.84
868.59	7676.9
868.91	7605.04
869.23	7652.5
869.55	7505.61
869.87	7665.38
870.19	7668.99
870.51	7598.26
870.83	7602.33
871.15	7549.67
871.469	7547.41
871.789	7576.79
872.109	7549.22
872.428	7495.21
872.748	7621.99
873.067	7555.78
873.386	7522.33
873.706	7500.41
874.025	7483.46
874.344	7463.57
874.663	7406.18
874.982	7480.07
875.301	7432.84
875.62	7412.05
875.939	7401.66
876.258	7400.3
876.577	7367.08
876.896	7321.21
877.214	7356.01
877.533	7409.57
877.852	7355.56
878.17	7306.52
878.489	7385.84
878.807	7295.9
879.125	7297.93
879.444	7254.31
879.762	7262.22
880.08	7231.72
880.398	7214.32
880.716	7241.43
881.034	7223.36
881.352	7202.11
881.67	7147.65
881.988	7165.28
882.306	7171.83
882.624	7068.78
882.941	7099.74
883.259	7090.03
883.577	7086.18
883.894	7090.48
884.212	7050.25
884.529	7038.95
884.846	7038.95
885.164	7026.07
885.481	6977.26
885.798	7001.89
886.115	6920.54
886.432	6906.08
886.75	6870.14
887.067	6908.56
887.383	6859.75
887.7	6908.79
888.017	6883.7
888.334	6840.99
888.651	6838.05
888.967	6812.29
889.284	6771.84
889.6	6743.59
889.917	6740.2
890.233	6743.82
890.55	6700.66
890.866	6702.01
891.182	6690.94
891.498	6690.71
891.815	6676.93
892.131	6618.85
892.447	6645.52
892.763	6578.85
893.079	6544.28
893.395	6557.38
893.71	6526.65
894.026	6520.32
894.342	6470.61
894.657	6448.91
894.973	6449.14
895.289	6450.72
895.604	6454.34
895.92	6379.99
896.235	6412.98
896.55	6342.47
896.865	6329.14
897.181	6327.56
897.496	6334.79
897.811	6313.32
898.126	6232.19
898.441	6169.82
898.756	6221.57
899.071	6166.89
899.386	6177.96
899.7	6111.52
900.015	6122.37
900.33	6059.54
900.644	6095.48
900.959	6089.83
901.273	6102.48
901.588	6041.47
901.902	6002.37
902.216	5957.85
902.531	5943.84
902.845	5886.44
903.159	5868.14
903.473	5853.22
903.787	5890.28
904.101	5807.8
904.415	5813.67
904.729	5762.15
905.042	5717.86
905.356	5752.66
905.67	5714.69
905.984	5727.58
906.297	5733.68
906.611	5616.39
906.924	5620.91
907.237	5594.47
907.551	5570.74
907.864	5549.73
908.177	5518.99
908.491	5563.51
908.804	5472.21
909.117	5510.41
909.43	5467.02
909.743	5418.88
910.056	5452.33
910.368	5399.45
910.681	5402.16
910.994	5425.21
911.307	5369.62
911.619	5365.55
911.932	5321.03
912.244	5322.84
912.557	5298.89
912.869	5273.8
913.181	5272.22
913.494	5228.15
913.806	5132.11
914.118	5128.04
914.43	5137.99
914.742	5131.43
915.054	5128.95
915.366	5095.5
915.678	5090.3
915.99	4999.23
916.302	5030.19
916.613	5053.02
916.925	4975.05
917.236	4958.33
917.548	4935.05
917.859	4978.89
918.171	4955.39
918.482	4875.85
918.794	4894.6
919.105	4907.26
919.416	4817.32
919.727	4835.4
920.038	4765.11
920.349	4801.05
920.66	4773.93
920.971	4779.58
921.282	4758.56
921.593	4694.38
921.903	4700.03
922.214	4657.1
922.525	4615.51
922.835	4646.7
923.146	4609.41
923.456	4568.74
923.767	4574.16
924.077	4590.2
924.387	4544.56
924.697	4525.35
925.008	4509.53
925.318	4468.17
925.628	4483.31
925.938	4441.73
926.248	4418.23
926.558	4450.09
926.867	4434.95
927.177	4412.13
927.487	4382.3
927.796	4328.97
928.106	4328.52
928.416	4330.32
928.725	4310.89
929.034	4247.84
929.344	4254.17
929.653	4277.9
929.962	4213.04
930.271	4226.6
930.581	4185.92
930.89	4155.19
931.199	4152.02
931.508	4144.57
931.817	4139.37
932.125	4090.33
932.434	4082.19
932.743	4064.57
933.051	4101.4
933.36	4040.39
933.669	4012.59
933.977	4029.99
934.286	3969.66
934.594	3964.01
934.902	3980.95
935.21	3966.04
935.519	3953.38
935.827	3933.72
936.135	3875.87
936.443	3854.4
936.751	3873.84
937.059	3850.34
937.367	3853.27
937.674	3821.41
937.982	3818.7
938.29	3783.67
938.597	3800.62
938.905	3760.62
939.213	3741.41
939.52	3722.2
939.827	3735.31
940.135	3742.99
940.442	3647.4
940.749	3649.66
941.056	3677.46
941.363	3646.73
941.67	3621.87
941.977	3630.68
942.284	3544.13
942.591	3599.72
942.898	3583.45
943.205	3557.01
943.511	3549.55
943.818	3518.82
944.125	3516.11
944.431	3514.53
944.738	3468.88
945.044	3460.74
945.35	3440.86
945.657	3417.13
945.963	3445.15
946.269	3394.53
946.575	3414.19
946.881	3350.69
947.187	3330.8
947.493	3415.77
947.799	3370.35
948.105	3334.42
948.41	3305.94
948.716	3296
949.022	3263.23
949.327	3301.65
949.633	3228.21
949.938	3267.53
950.244	3237.92
950.549	3211.71
950.854	3166.74
951.16	3157.25
951.465	3197.02
951.77	3134.65
952.075	3138.49
952.38	3126.06
952.685	3131.94
952.99	3111.15
953.294	3103.92
953.599	3067.98
953.904	3045.84
954.209	3061.88
954.513	3047.42
954.818	3018.27
955.122	2990.25
955.426	3008.1
955.731	3001.77
956.035	2982.79
956.339	2971.72
956.643	2978.27
956.948	2934.65
957.252	2929.91
957.556	2931.49
957.86	2911.83
958.163	2891.49
958.467	2908.44
958.771	2876.58
959.075	2854.2
959.378	2852.4
959.682	2845.84
959.985	2809.46
960.289	2789.35
960.592	2820.53
960.896	2793.19
961.199	2756.35
961.502	2796.8
961.805	2766.75
962.108	2735.34
962.411	2743.25
962.714	2688.11
963.017	2690.37
963.32	2717.26
963.623	2667.77
963.926	2668.22
964.228	2651.5
964.531	2684.49
964.833	2641.33
965.136	2632.29
965.438	2587.09
965.741	2589.58
966.043	2626.41
966.345	2578.96
966.648	2583.03
966.95	2601.33
967.252	2541.44
967.554	2549.13
967.856	2517.49
968.158	2532.18
968.46	2527.66
968.761	2484.27
969.063	2481.11
969.365	2484.04
969.666	2498.73
969.968	2466.19
970.269	2446.53
970.571	2470.03
970.872	2423.26
971.174	2405.4
971.475	2424.61
971.776	2415.57
972.077	2365.86
972.378	2354.1
972.679	2370.15
972.98	2392.3
973.281	2351.39
973.582	2345.97
973.883	2321.34
974.183	2292.86
974.484	2312.52
974.785	2343.26
975.085	2307.1
975.386	2308.91
975.686	2291.51
975.986	2254.67
976.287	2257.16
976.587	2266.65
976.887	2249.02
977.187	2226.65
977.487	2216.93
977.787	2227.33
978.087	2228.46
978.387	2177.16
978.687	2164.28
978.987	2177.61
979.286	2144.84
979.586	2169.25
979.885	2123.38
980.185	2129.93
980.484	2114.79
980.784	2113.66
981.083	2120.21
981.382	2108.24
981.682	2099.2
981.981	2070.04
982.28	2075.24
982.579	2040.67
982.878	2081.12
983.177	2051.51
983.475	2042.7
983.774	2026.43
984.073	2032.53
984.372	2018.07
984.67	1993.66
984.969	1980.56
985.267	2004.74
985.566	2048.12
985.864	1984.4
986.162	1939.88
986.461	1967
986.759	1974.68
987.057	1922.48
987.355	1915.7
987.653	1943.72
987.951	1929.26
988.249	1905.98
988.547	1900.11
988.844	1909.6
989.142	1884.96
989.44	1871.41
989.737	1852.42
990.035	1822.14
990.332	1851.29
990.63	1825.08
990.927	1825.31
991.224	1840.67
991.521	1839.09
991.819	1804.51
992.116	1820.33
992.413	1817.62
992.71	1790.05
993.006	1767.45
993.303	1809.03
993.6	1781.46
993.897	1781.01
994.193	1742.14
994.49	1746.44
994.787	1719.55
995.083	1700.11
995.379	1696.04
995.676	1712.31
995.972	1666.21
996.268	1676.61
996.565	1678.64
996.861	1671.64
997.157	1684.74
997.453	1654.24
997.749	1672.99
998.044	1643.39
998.34	1658.3
998.636	1618.98
998.932	1637.29
999.227	1620.79
999.523	1600.9
999.818	1616.72
1000.114	1602.26
1000.409	1587.35
1000.704	1596.38
1001	1575.82
1001.295	1581.92
1001.59	1571.07
1001.885	1562.26
1002.18	1543.05
1002.475	1500.57
1002.77	1534.47
1003.065	1519.78
1003.359	1472.55
1003.654	1527.69
1003.949	1488.36
1004.243	1505.54
1004.538	1485.43
1004.832	1451.76
1005.127	1467.8
1005.421	1431.19
1005.715	1443.17
1006.009	1447.24
1006.304	1426.67
1006.598	1403.4
1006.892	1383.51
1007.186	1398.88
1007.48	1400.01
1007.773	1417.86
1008.067	1373.57
1008.361	1372.66
1008.655	1382.6
1008.948	1367.69
1009.242	1376.05
1009.535	1350.29
1009.829	1363.62
1010.122	1315.71
1010.415	1314.13
1010.708	1320.23
1011.001	1337.63
1011.295	1317.07
1011.588	1295.15
1011.881	1280.01
1012.173	1295.83
1012.466	1291.08
1012.759	1281.36
1013.052	1270.52
1013.344	1255.6
1013.637	1251.31
1013.93	1259.44
1014.222	1265.55
1014.514	1273.23
1014.807	1225.55
1015.099	1209.5
1015.391	1222.61
1015.683	1226.45
1015.976	1188.49
1016.268	1167.47
1016.56	1216.96
1016.851	1169.73
1017.143	1167.47
1017.435	1146.9
1017.727	1165.89
1018.018	1119.79
1018.31	1146
1018.602	1141.26
1018.893	1143.06
1019.185	1111.43
1019.476	1129.05
1019.767	1115.27
1020.058	1091.77
1020.35	1115.27
1020.641	1086.12
1020.932	1067.36
1021.223	1085.21
1021.514	1073.01
1021.804	1073.91
1022.095	1050.41
1022.386	1066
1022.677	1046.34
1022.967	1023.74
1023.258	1048.38
1023.548	1029.62
1023.839	1011.54
1024.129	1018.55
1024.419	1005.89
1024.709	999.34
1025	1000.92
1025.29	993.69
1025.58	981.03
1025.87	986.68
1026.16	974.25
1026.449	962.05
1026.739	949.85
1027.029	972.9
1027.319	975.84
1027.608	963.41
1027.898	945.1
1028.187	931.77
1028.477	927.48
1028.766	918.21
1029.055	935.61
1029.344	911.2
1029.634	927.48
1029.923	913.46
1030.212	910.3
1030.501	905.78
1030.79	869.85
1031.078	872.79
1031.367	856.97
1031.656	870.53
1031.945	897.87
1032.233	868.49
1032.522	874.14
1032.81	864.2
1033.099	840.92
1033.387	847.03
1033.675	849.06
1033.963	829.85
1034.251	821.04
1034.54	814.26
1034.828	799.8
1035.116	824.2
1035.403	804.32
1035.691	796.86
1035.979	783.07
1036.267	806.8
1036.554	795.05
1036.842	791.89
1037.129	805.22
1037.417	801.83
1037.704	780.59
1037.992	738.33
1038.279	749.63
1038.566	791.66
1038.853	791.66
1039.14	791.66
