Data from hue_330_FLMS001491_49.txt Node
Date: Mon Feb 06 15:45:27 GMT 2017
User: dcchb
Spectrometer: FLMS00149
Trigger mode: 0
Integration Time (sec): 2.000000E-2
Scans to average: 10
Electric dark correction enabled: true
Nonlinearity correction enabled: false
Boxcar width: 0
XAxis mode: Wavelengths
Number of Pixels in Spectrum: 2048
>>>>>Begin Spectral Data<<<<<
341.393	-13.71
341.776	-13.71
342.16	-13.71
342.543	-51.91
342.927	-68.18
343.31	-62.98
343.693	-70.89
344.077	-67.05
344.46	-71.11
344.843	-66.82
345.226	-39.02
345.61	-31.79
345.993	-0.83
346.376	-4.22
346.759	19.96
347.142	23.12
347.525	61.09
347.908	72.84
348.291	63.12
348.674	76.68
349.057	97.92
349.44	133.85
349.823	143.57
350.206	169.11
350.588	181.08
350.971	206.62
351.354	205.49
351.737	233.74
352.119	263.34
352.502	272.15
352.884	264.24
353.267	280.06
353.65	268.76
354.032	298.59
354.414	291.36
354.797	316.67
355.179	301.98
355.562	309.89
355.944	306.96
356.326	323.9
356.709	325.49
357.091	333.17
357.473	340.4
357.855	325.03
358.238	315.77
358.62	304.7
359.002	340.85
359.384	330.91
359.766	331.81
360.148	339.95
360.53	330.46
360.912	347.63
361.294	318.25
361.676	316.22
362.057	317.35
362.439	328.42
362.821	313.51
363.203	328.42
363.584	311.93
363.966	314.86
364.348	314.64
364.729	316.9
365.111	311.47
365.493	303.11
365.874	306.96
366.256	309.44
366.637	305.15
367.019	297.24
367.4	283.23
367.781	325.03
368.163	313.96
368.544	314.86
368.925	303.11
369.306	302.66
369.688	305.37
370.069	314.19
370.45	305.83
370.831	299.27
371.212	304.47
371.593	306.05
371.974	317.35
372.355	302.66
372.736	293.85
373.117	322.55
373.498	311.02
373.879	320.97
374.26	323.9
374.641	304.7
375.021	303.34
375.402	306.5
375.783	319.38
376.163	329.78
376.544	332.04
376.925	312.15
377.305	309.67
377.686	331.59
378.066	313.06
378.447	326.84
378.827	318.03
379.208	325.49
379.588	322.77
379.968	338.59
380.349	319.84
380.729	345.15
381.109	327.97
381.489	344.02
381.87	343.56
382.25	353.73
382.63	317.58
383.01	338.37
383.39	321.64
383.77	320.06
384.15	353.96
384.53	331.81
384.91	351.7
385.29	321.19
385.67	348.54
386.049	333.85
386.429	333.4
386.809	375.88
387.189	359.16
387.568	348.54
387.948	355.99
388.328	353.51
388.707	343.11
389.087	345.37
389.466	382.89
389.846	355.32
390.225	360.74
390.605	349.67
390.984	342.66
391.363	362.55
391.743	363.68
392.122	372.94
392.501	364.81
392.881	356.67
393.26	365.94
393.639	359.38
394.018	374.98
394.397	356.67
394.776	401.64
395.155	365.26
395.534	369.1
395.913	384.69
396.292	360.97
396.671	385.6
397.05	391.25
397.429	383.79
397.808	390.34
398.186	375.43
398.565	396.22
398.944	379.27
399.323	386.28
399.701	392.6
400.08	399.38
400.458	398.93
400.837	381.76
401.215	407.29
401.594	372.94
401.972	399.38
402.351	386.5
402.729	408.2
403.107	386.95
403.486	393.73
403.864	418.14
404.242	414.52
404.62	417.69
404.999	417.69
405.377	433.51
405.755	402.32
406.133	435.31
406.511	440.06
406.889	428.99
407.267	430.79
407.645	431.92
408.023	445.48
408.401	421.75
408.779	446.39
409.156	454.97
409.534	452.94
409.912	427.18
410.29	456.78
410.667	487.52
411.045	479.83
411.422	471.47
411.8	492.94
412.178	497.91
412.555	479.83
412.933	508.76
413.31	519.15
413.687	516.89
414.065	495.65
414.442	506.5
414.819	541.98
415.197	538.14
415.574	548.98
415.951	528.19
416.328	526.61
416.705	552.15
417.082	558.93
417.46	553.05
417.837	557.12
418.214	570
418.591	586.5
418.967	577.23
419.344	563.67
419.721	582.65
420.098	587.85
420.475	597.34
420.852	616.55
421.228	607.29
421.605	629.88
421.982	596.89
422.358	638.47
422.735	646.61
423.111	649.55
423.488	655.65
423.864	652.93
424.241	662.65
424.617	672.14
424.994	673.73
425.37	677.34
425.746	679.37
426.123	668.75
426.499	690.22
426.875	677.79
427.251	704.23
427.627	694.52
428.003	718.24
428.379	713.27
428.756	734.51
429.132	748.3
429.507	749.66
429.883	740.16
430.259	757.56
430.635	757.79
431.011	768.64
431.387	781.07
431.763	784
432.138	808.86
432.514	806.15
432.89	828.07
433.265	816.09
433.641	844.79
434.016	864.91
434.392	853.61
434.767	866.49
435.143	870.56
435.518	883.21
435.894	899.93
436.269	874.62
436.644	910.56
437.02	880.95
437.395	918.01
437.77	931.57
438.145	926.6
438.52	940.61
438.895	952.14
439.271	940.38
439.646	975.64
440.021	967.5
440.395	972.47
440.77	979.48
441.145	971.34
441.52	979.71
441.895	1007.95
442.27	1017.44
442.645	964.79
443.019	1000.04
443.394	997.56
443.769	1036.88
444.143	1014.06
444.518	1026.71
444.892	1001.63
445.267	1026.26
445.641	1007.28
446.016	1031.46
446.39	1053.83
446.764	1055.18
447.139	1067.61
447.513	1065.81
447.887	1070.32
448.262	1090.89
448.636	1074.62
449.01	1042.3
449.384	1094.28
449.758	1076.43
450.132	1099.02
450.506	1086.37
450.88	1094.05
451.254	1087.05
451.628	1116.2
452.002	1126.37
452.376	1145.13
452.75	1146.26
453.123	1135.63
453.497	1165.46
453.871	1155.97
454.244	1154.16
454.618	1174.95
454.992	1180.83
455.365	1201.62
455.739	1205.91
456.112	1220.38
456.486	1200.49
456.859	1230.77
457.232	1247.72
457.606	1261.96
457.979	1245.01
458.352	1273.71
458.725	1287.72
459.099	1294.73
459.472	1306.7
459.845	1292.01
460.218	1313.03
460.591	1336.53
460.964	1333.82
461.337	1373.14
461.71	1361.62
462.083	1417.43
462.456	1369.3
462.829	1377.44
463.201	1400.49
463.574	1415.4
463.947	1410.65
464.32	1428.28
464.692	1467.15
465.065	1480.94
465.438	1459.92
465.81	1521.61
466.183	1511.9
466.555	1530.43
466.928	1522.97
467.3	1516.64
467.672	1564.1
468.045	1581.95
468.417	1541.72
468.789	1558.22
469.161	1607.71
469.534	1615.17
469.906	1651.1
470.278	1656.3
470.65	1675.51
471.022	1706.92
471.394	1688.61
471.766	1720.03
472.138	1745.56
472.51	1788.5
472.882	1813.36
473.253	1808.84
473.625	1818.1
473.997	1875.28
474.369	1871.21
474.74	1876.41
475.112	1929.29
475.484	1921.38
475.855	1945.78
476.227	1978.78
476.598	2002.73
476.97	2014.71
477.341	2056.29
477.713	2070.52
478.084	2102.61
478.455	2126.12
478.827	2158.21
479.198	2197.53
479.569	2223.74
479.94	2272.1
480.311	2294.7
480.682	2302.61
481.053	2354.36
481.424	2393
481.795	2411.31
482.166	2436.39
482.537	2451.31
482.908	2488.37
483.279	2525.65
483.65	2510.06
484.021	2588.48
484.391	2592.54
484.762	2635.26
485.133	2623.73
485.503	2691.98
485.874	2737.4
486.244	2723.61
486.615	2783.27
486.985	2850.39
487.356	2802.48
487.726	2852.65
488.097	2911.41
488.467	2938.52
488.837	2961.35
489.207	2977.85
489.578	2997.96
489.948	3054.91
490.318	3091.06
490.688	3079.09
491.058	3125.86
491.428	3162.47
491.798	3224.62
492.168	3239.31
492.538	3293.32
492.908	3322.24
493.278	3312.3
493.648	3331.28
494.017	3385.97
494.387	3391.39
494.757	3381.45
495.126	3415.35
495.496	3456.25
495.866	3481.56
496.235	3517.94
496.605	3520.2
496.974	3564.27
497.344	3577.6
497.713	3584.61
498.082	3613.31
498.452	3638.84
498.821	3665.06
499.19	3636.36
499.559	3676.13
499.928	3666.19
500.298	3693.76
500.667	3731.05
501.036	3724.94
501.405	3794.77
501.774	3790.48
502.143	3793.64
502.512	3811.72
502.88	3838.39
503.249	3834.32
503.618	3875.22
503.987	3900.98
504.356	3914.32
504.724	3873.42
505.093	3956.35
505.462	3985.28
505.83	3971.49
506.199	3948.89
506.567	4008.1
506.936	4013.75
507.304	4085.16
507.672	4055.11
508.041	4031.6
508.409	4101.88
508.777	4126.97
509.145	4120.41
509.514	4093.97
509.882	4158.15
510.25	4191.37
510.618	4138.72
510.986	4160.64
511.354	4227.08
511.722	4237.7
512.09	4263.01
512.458	4236.57
512.826	4301.2
513.193	4254.42
513.561	4240.19
513.929	4279.96
514.297	4344.36
514.664	4308.66
515.032	4354.31
515.4	4319.96
515.767	4380.75
516.135	4372.84
516.502	4399.73
516.869	4433.17
517.237	4424.81
517.604	4430.24
517.972	4488.31
518.339	4472.95
518.706	4458.48
519.073	4475.89
519.44	4481.53
519.808	4548.43
520.175	4545.04
520.542	4568.76
520.909	4573.51
521.276	4564.7
521.643	4613.51
522.009	4624.81
522.376	4614.86
522.743	4654.41
523.11	4678.82
523.477	4721.08
523.843	4753.84
524.21	4805.14
524.577	4783.22
524.943	4813.73
525.31	4790.68
525.676	4848.76
526.043	4856.67
526.409	4910.22
526.776	4946.83
527.142	4955.42
527.508	4967.4
527.874	4970.56
528.241	4988.19
528.607	5010.33
528.973	5091.01
529.339	5040.39
529.705	5112.93
530.071	5100.05
530.437	5155.87
530.803	5157.45
531.169	5201.74
531.535	5202.42
531.901	5263.44
532.267	5293.94
532.632	5292.59
532.998	5283.1
533.364	5316.77
533.73	5339.37
534.095	5411.68
534.461	5424.11
534.826	5426.14
535.192	5447.16
535.557	5483.77
535.923	5441.74
536.288	5463.43
536.653	5540.94
537.019	5543.43
537.384	5551.56
537.749	5574.39
538.114	5581.62
538.479	5617.1
538.845	5646.48
539.21	5619.13
539.575	5657.55
539.94	5668.62
540.305	5722.63
540.67	5740.94
541.034	5775.29
541.399	5840.82
541.764	5826.81
542.129	5834.49
542.494	5818.22
542.858	5862.74
543.223	5915.4
543.587	5935.96
543.952	5877.88
544.316	5972.57
544.681	5996.75
545.045	6015.96
545.41	6083.75
545.774	6060.7
546.138	6074.94
546.503	6077.42
546.867	6119.23
547.231	6157.42
547.595	6164.88
547.959	6185.9
548.324	6183.64
548.688	6196.97
549.052	6282.17
549.416	6236.74
549.779	6322.84
550.143	6348.6
550.507	6360.36
550.871	6374.59
551.235	6364.88
551.599	6378.66
551.962	6401.71
552.326	6473.12
552.689	6491.2
553.053	6461.82
553.417	6499.11
553.78	6541.82
554.143	6550.41
554.507	6588.6
554.87	6507.02
555.234	6634.92
555.597	6620.46
555.96	6667.92
556.323	6695.26
556.686	6625.21
557.05	6717.86
557.413	6753.79
557.776	6732.1
558.139	6782.04
558.502	6796.28
558.865	6796.28
559.228	6805.54
559.59	6827.01
559.953	6890.51
560.316	6935.48
560.679	6895.03
561.041	6953.79
561.404	7056.61
561.767	7022.03
562.129	7035.14
562.492	7067.23
562.854	7041.02
563.217	7130.5
563.579	7134.8
563.941	7102.48
564.304	7181.8
564.666	7238.75
565.028	7236.49
565.39	7181.35
565.753	7249.6
566.115	7280.56
566.477	7306.77
566.839	7268.81
567.201	7336.6
567.563	7343.83
567.925	7362.59
568.287	7411.85
568.648	7482.36
569.01	7428.35
569.372	7498.86
569.734	7504.73
570.095	7574.79
570.457	7661.34
570.819	7601
571.18	7677.83
571.542	7723.26
571.903	7707.21
572.265	7746.76
572.626	7872.63
572.987	7854.78
573.349	7956.7
573.71	7924.16
574.071	7927.55
574.432	8051.84
574.794	8135.9
575.155	8146.07
575.516	8165.96
575.877	8260.19
576.238	8347.87
576.599	8378.61
576.96	8400.75
577.32	8524.59
577.681	8560.3
578.042	8695.21
578.403	8719.39
578.763	8846.62
579.124	8913.51
579.485	8990.34
579.845	9167.97
580.206	9244.12
580.566	9345.81
580.927	9428.52
581.287	9507.17
581.648	9667.84
582.008	9871.22
582.368	9969.07
582.728	10128.17
583.089	10242.97
583.449	10419.23
583.809	10495.84
584.169	10722.05
584.529	10811.99
584.889	11110.06
585.249	11245.65
585.609	11389.38
585.969	11654
586.329	11783.04
586.688	12070.26
587.048	12196.59
587.408	12478.39
587.768	12670.7
588.127	12886.51
588.487	13105.26
588.846	13403.56
589.206	13517.68
589.565	13789.54
589.925	14190.43
590.284	14355.63
590.643	14579.12
591.003	14852.11
591.362	15143.4
591.721	15370.97
592.08	15603.5
592.44	15949.71
592.799	16168.01
593.158	16466.53
593.517	16739.52
593.876	17122.33
594.235	17310.58
594.593	17549.44
594.952	17885.25
595.311	18089.54
595.67	18485.01
596.029	18879.57
596.387	19116.63
596.746	19517.3
597.104	19652.89
597.463	19935.59
597.822	20305.75
598.18	20466.2
598.538	20786.19
598.897	21132.85
599.255	21201.1
599.613	21723.57
599.972	22020.28
600.33	22262.76
600.688	22402.19
601.046	22832.01
601.404	23236.07
601.762	23316.52
602.12	23754.47
602.478	23927.35
602.836	24309.71
603.194	24492.53
603.552	24798.29
603.91	24957.38
604.268	25329.12
604.625	25389.91
604.983	25638.94
605.341	25795.32
605.698	26250.23
606.056	26567.06
606.413	26709.2
606.771	27052.24
607.128	27277.32
607.485	27464.89
607.843	27646.8
608.2	27986.91
608.557	28360
608.914	28408.14
609.272	28543.05
609.629	28811.29
609.986	29204.05
610.343	29173.09
610.7	29667.09
611.057	29770.81
611.414	29840.42
611.771	30201.99
612.127	30435.65
612.484	30624.12
612.841	30797.23
613.198	30909.54
613.554	31121.06
613.911	31369.64
614.267	31561.95
614.624	31705.45
614.98	31856.86
615.337	32158.1
615.693	32111.32
616.05	32222.73
616.406	32686.22
616.762	32603.96
617.118	32835.82
617.475	32859.32
617.831	33192.64
618.187	33330.95
618.543	33424.73
618.899	33706.53
619.255	33716.7
619.611	33864.94
619.967	34048.21
620.323	34164.82
620.678	34098.84
621.034	34147.42
621.39	34349
621.746	34428.09
622.101	34887.29
622.457	34747.86
622.812	34874.86
623.168	35007.74
623.523	35128.41
623.879	35276.43
624.234	35084.8
624.589	35409.08
624.945	35501.51
625.3	35626.48
625.655	35626.7
626.01	35632.58
626.365	35797.77
626.72	35740.37
627.075	35838.68
627.43	35869.18
627.785	35962.74
628.14	36065.56
628.495	36214.26
628.85	36027.15
629.205	36038.45
629.559	36270.76
629.914	36176.52
630.269	36256.74
630.623	36258.1
630.978	36200.7
631.332	36492.9
631.687	36624.64
632.041	36370.19
632.396	36433.24
632.75	36294.48
633.104	36618.77
633.459	36451.09
633.813	36468.94
634.167	36459.9
634.521	36518.88
634.875	36605.89
635.229	36606.79
635.583	36415.16
635.937	36453.58
636.291	36451.09
636.645	36505.33
636.999	36432.78
637.352	36643.85
637.706	36375.61
638.06	36652.44
638.413	36476.17
638.767	36372
639.121	36492.22
639.474	36374.03
639.828	36412.45
640.181	36379.91
640.534	36571.76
640.888	36352.34
641.241	36279.34
641.594	36358.66
641.947	36398.21
642.301	36407.02
642.654	36388.04
643.007	36454.48
643.36	36448.83
643.713	36420.58
644.066	36487.25
644.419	36318.66
644.771	36087.03
645.124	35752.8
645.477	35730.88
645.83	35605.24
646.182	35446.6
646.535	35462.42
646.888	35415.18
647.24	35200.28
647.593	35485.69
647.945	35453.6
648.298	35233.04
648.65	35192.14
649.002	35014.29
649.355	35324.79
649.707	35172.93
650.059	35352.81
650.411	35727.72
650.763	35765.91
651.115	36155.96
651.467	35997.09
651.819	36026.69
652.171	35998.9
652.523	36104.66
652.875	35978.11
653.227	35858.56
653.578	36010.65
653.93	36011.78
654.282	35780.15
654.633	35735.18
654.985	35935.62
655.337	35928.17
655.688	35808.62
656.039	35896.08
656.391	35773.14
656.742	35732.69
657.094	35823.08
657.445	35900.14
657.796	35806.81
658.147	35787.6
658.498	35695.18
658.849	35743.09
659.2	35626.93
659.551	35687.49
659.902	35835.96
660.253	35706.93
660.604	35703.54
660.955	35475.75
661.306	35588.51
661.656	35675.52
662.007	35577.44
662.358	35672.35
662.708	35534.05
663.059	35753.25
663.409	35372.25
663.76	35637.1
664.11	35648.62
664.461	35726.81
664.811	35653.82
665.161	35642.3
665.511	35531.57
665.862	35568.85
666.212	35747.38
666.562	35608.85
666.912	35575.63
667.262	35528.4
667.612	35505.58
667.962	35665.8
668.312	35510.1
668.662	35678
669.011	35496.31
669.361	35423.55
669.711	35555.07
670.06	35520.04
670.41	35454.73
670.76	35356.66
671.109	35519.81
671.459	35456.54
671.808	35388.97
672.157	35491.11
672.507	35242.76
672.856	35316.88
673.205	35373.38
673.554	35370.21
673.904	35384.9
674.253	35456.54
674.602	35393.26
674.951	34872.83
675.3	34701.98
675.649	35287.28
675.998	35227.17
676.346	35200.5
676.695	35195.3
677.044	35007.51
677.393	35206.15
677.741	35186.04
678.09	35080.96
678.438	35057
678.787	35014.29
679.135	35134.29
679.484	34971.35
679.832	35074.4
680.181	34756.9
680.529	34891.81
680.877	34775.65
681.225	34697.24
681.573	34912.6
681.922	34744.69
682.27	34563
682.618	34665.6
682.966	34587.18
683.314	34696.11
683.661	34489.79
684.009	34380.86
684.357	34259.96
684.705	34325.27
685.053	34281.66
685.4	34145.61
685.748	33947.65
686.095	33963.7
686.443	34018.39
686.79	33895.9
687.138	34061.1
687.485	33942
687.832	33839.86
688.18	33862.91
688.527	33633.31
688.874	33713.76
689.221	33654.55
689.568	33593.76
689.915	33466.99
690.262	33497.04
690.609	33303.6
690.956	33352.87
691.303	33265.86
691.65	33077.62
691.997	33135.24
692.344	32889.38
692.69	32958.3
693.037	32902.03
693.383	32723.73
693.73	32868.81
694.077	32594.47
694.423	32609.38
694.769	32419.56
695.116	32457.3
695.462	32370.97
695.808	32244.65
696.155	32274.7
696.501	31928.5
696.847	32145.89
697.193	31885.33
697.539	31975.05
697.885	31586.58
698.231	31678.56
698.577	31612.35
698.923	31592.46
699.269	31490.54
699.614	31310.43
699.96	31287.61
700.306	31201.74
700.651	31222.53
700.997	31150.44
701.342	31044
701.688	30984.57
702.033	30794.06
702.379	30723.56
702.724	30782.54
703.069	30858.47
703.415	30520.62
703.76	30443.34
704.105	30497.12
704.45	30349.1
704.795	30288.54
705.14	30212.38
705.485	30118.6
705.83	29918.83
706.175	30039.51
706.52	30000.86
706.865	29775.78
707.209	29655.56
707.554	29624.15
707.899	29797.48
708.243	29599.29
708.588	29528.79
708.932	29396.13
709.277	29407.66
709.621	29401.78
709.966	29246.53
710.31	29301.67
710.654	29023.94
710.998	29112.3
711.342	28980.1
711.687	29017.61
712.031	28835.47
712.375	28716.15
712.719	28828.01
713.063	28743.95
713.407	28800.44
713.75	28682.71
714.094	28547.57
714.438	28497.85
714.782	28607.68
715.125	28467.57
715.469	28359.78
715.812	28270.51
716.156	28140.57
716.499	28129.73
716.843	28181.25
717.186	27869.85
717.53	28226
717.873	28145.77
718.216	28050.63
718.559	27873.91
718.902	27719.57
719.246	27679.57
719.589	27696.07
719.932	27507.37
720.275	27622.85
720.617	27599.34
720.96	27585.79
721.303	27436.64
721.646	27541.95
721.989	27338.11
722.331	27461.27
722.674	27359.13
723.016	27390.99
723.359	27242.07
723.701	27246.36
724.044	27179.24
724.386	26954.39
724.729	27016.99
725.071	27148.06
725.413	27022.18
725.755	26943.32
726.097	26861.96
726.439	26718.24
726.782	26652.25
727.124	26787.16
727.465	26627.62
727.807	26792.59
728.149	26591.24
728.491	26580.16
728.833	26573.61
729.175	26396.44
729.516	26384.24
729.858	26347.85
730.199	26465.82
730.541	26267.63
730.882	26303.79
731.224	26339.72
731.565	26169.33
731.906	26144.92
732.248	26186.95
732.589	26029.89
732.93	25964.81
733.271	25928.2
733.612	26061.08
733.953	25997.13
734.294	25885.72
734.635	25821.31
734.976	25930.24
735.317	25738.15
735.658	25662.67
735.999	25708.55
736.339	25584.93
736.68	25718.94
737.021	25600.75
737.361	25504.48
737.702	25587.65
738.042	25570.7
738.383	25529.34
738.723	25509.23
739.063	25376.58
739.404	25413.64
739.744	25390.36
740.084	25261.33
740.424	25264.04
740.764	25185.4
741.104	25198.28
741.444	25036.7
741.784	25059.98
742.124	25172.74
742.464	25108.34
742.804	24971.17
743.143	24982.24
743.483	24990.15
743.823	24941.11
744.162	24841.9
744.502	24923.26
744.841	24724.62
745.181	24817.05
745.52	24603.27
745.86	24709.25
746.199	24765.52
746.538	24475.36
746.877	24667.22
747.216	24679.87
747.556	24483.72
747.895	24450.73
748.234	24343.84
748.573	24380.45
748.911	24360.79
749.25	24393.1
749.589	24174.35
749.928	24175.25
750.267	24186.55
750.605	24083.51
750.944	24118.31
751.283	24040.57
751.621	24070.4
751.96	23864.98
752.298	23912.89
752.636	23959.89
752.975	23817.52
753.313	23610.07
753.651	23780.46
753.989	23598.32
754.327	23622.73
754.666	23556.51
755.004	23533.92
755.342	23539.11
755.679	23500.92
756.017	23356.74
756.355	23432
756.693	23281.49
757.031	23207.82
757.368	23104.1
757.706	23119.69
758.044	23155.39
758.381	23133.25
758.719	22925.34
759.056	23067.26
759.394	22882.18
759.731	22664.79
760.068	22735.29
760.405	22610.78
760.743	22589.99
761.08	22658.23
761.417	22592.24
761.754	22512.7
762.091	22381.85
762.428	22261.18
762.765	22100.51
763.102	22214.4
763.438	22054.86
763.775	21989.77
764.112	21940.74
764.449	21992.26
764.785	21890.12
765.122	21837.46
765.458	21663.46
765.795	21675.43
766.131	21564.02
766.467	21553.63
766.804	21380.75
767.14	21371.26
767.476	21320.64
767.812	21213.07
768.148	21392.95
768.485	21065.28
768.821	20971.95
769.157	21000.87
769.492	20940.08
769.828	20879.07
770.164	20731.95
770.5	20745.74
770.836	20754.33
771.171	20554.78
771.507	20377.39
771.842	20406.77
772.178	20384.17
772.513	20282.48
772.849	20267.56
773.184	20078.41
773.519	20083.84
773.855	20046.78
774.19	19946.89
774.525	19988.7
774.86	19908.7
775.195	19811.3
775.53	19743.51
775.865	19671.64
776.2	19542.16
776.535	19423.29
776.87	19397.3
777.205	19300.81
777.539	19264.87
777.874	19251.77
778.209	19018.55
778.543	18985.56
778.878	18943.53
779.212	18969.74
779.547	18859.69
779.881	18827.82
780.215	18708.51
780.55	18671.67
780.884	18533.82
781.218	18574.95
781.552	18461.73
781.886	18399.59
782.22	18351.23
782.554	18269.19
782.888	18142.42
783.222	18051.12
783.556	17954.4
783.889	17878.92
784.223	17757.57
784.557	17851.58
784.89	17776.33
785.224	17696.55
785.557	17512.83
785.891	17547.86
786.224	17546.5
786.558	17555.09
786.891	17354.19
787.224	17298.82
787.557	17189
787.891	17234.65
788.224	17135.44
788.557	17123.69
788.89	17085.27
789.223	17003.24
789.556	16873.53
789.888	16875.79
790.221	16809.35
790.554	16682.34
790.887	16772.51
791.219	16717.6
791.552	16614.77
791.884	16536.58
792.217	16499.75
792.549	16453.2
792.882	16227.89
793.214	16257.27
793.546	16331.17
793.879	16173.66
794.211	16012.3
794.543	16055.92
794.875	16029.71
795.207	16115.35
795.539	15948.58
795.871	15940.44
796.203	15792.2
796.535	15683.27
796.867	15695.03
797.198	15647.57
797.53	15660
797.862	15512.21
798.193	15506.1
798.525	15360.8
798.856	15492.09
799.188	15324.64
799.519	15216.62
799.85	15196.51
800.182	15176.39
800.513	15251.2
800.844	15026.79
801.175	15130.29
801.506	15034.48
801.837	14898.89
802.168	14946.57
802.499	14894.82
802.83	14871.09
803.161	14752.68
803.491	14787.7
803.822	14744.77
804.153	14694.15
804.483	14567.6
804.814	14557.43
805.145	14521.27
805.475	14429.3
805.805	14419.35
806.136	14394.27
806.466	14420.03
806.796	14370.09
807.126	14266.59
807.457	14207.83
807.787	14269.07
808.117	14079.7
808.447	14137.33
808.777	14075.63
809.107	14079.47
809.436	14027.72
809.766	13996.76
810.096	13948.18
810.426	13868.86
810.755	13896.88
811.085	13875.41
811.414	13812.14
811.744	13734.17
812.073	13695.53
812.403	13672.93
812.732	13585.02
813.061	13623.67
813.39	13534.86
813.719	13528.75
814.049	13546.61
814.378	13527.85
814.707	13398.59
815.036	13436.55
815.365	13370.57
815.693	13196.79
816.022	13245.15
816.351	13241.3
816.68	13147.3
817.008	13160.85
817.337	13006.73
817.665	13038.37
817.994	13097.81
818.322	13035.89
818.651	12954.31
818.979	13041.76
819.307	12936.91
819.636	12978.03
819.964	12809.45
820.292	12831.15
820.62	12809.23
820.948	12844.03
821.276	12820.52
821.604	12891.94
821.932	12808.1
822.259	12787.53
822.587	12733.52
822.915	12834.08
823.243	12846.74
823.57	12807.64
823.898	12831.82
824.225	12765.38
824.553	12753.86
824.88	12760.64
825.207	12811.49
825.535	12700.3
825.862	12764.25
826.189	12652.17
826.516	12748.89
826.843	12751.37
827.17	12785.95
827.497	12766.06
827.824	12662.79
828.151	12743.69
828.478	12722.9
828.805	12759.74
829.131	12648.33
829.458	12660.3
829.785	12691.26
830.111	12643.35
830.438	12695.1
830.764	12742.11
831.09	12729
831.417	12649
831.743	12714.99
832.069	12684.03
832.395	12618.72
832.722	12637.03
833.048	12624.15
833.374	12651.94
833.7	12495.56
834.026	12533.53
834.351	12565.39
834.677	12572.62
835.003	12629.12
835.329	12553.86
835.654	12547.99
835.98	12466.18
836.306	12528.78
836.631	12451.27
836.956	12566.52
837.282	12457.37
837.607	12444.26
837.932	12333.76
838.258	12323.36
838.583	12341.22
838.908	12349.35
839.233	12333.31
839.558	12282.91
839.883	12306.19
840.208	12231.61
840.533	12253.31
840.858	12183.93
841.182	12206.76
841.507	12184.61
841.832	12072.97
842.156	12069.36
842.481	12067.1
842.805	12070.71
843.13	12049.02
843.454	12042.69
843.778	11915.01
844.103	11912.75
844.427	11885.18
844.751	11935.12
845.075	11895.13
845.399	11828.91
845.723	11792.53
846.047	11692.87
846.371	11680.89
846.695	11634.79
847.019	11599.77
847.343	11544.4
847.666	11421.24
847.99	11406.78
848.313	11405.19
848.637	11303.95
848.96	11273.9
849.284	11331.52
849.607	11219.44
849.931	11193.22
850.254	11083.85
850.577	11098.76
850.9	11034.36
851.223	10992.32
851.546	10871.2
851.869	10815.15
852.192	11015.15
852.515	10807.47
852.838	10746.45
853.161	10677.76
853.483	10633.01
853.806	10663.07
854.129	10635.05
854.451	10564.99
854.774	10492
855.096	10429.85
855.419	10465.11
855.741	10443.64
856.063	10407.71
856.385	10429.85
856.708	10360.7
857.03	10249.29
857.352	10319.12
857.674	10280.25
857.996	10167.49
858.318	10210.42
858.64	10146.7
858.961	10149.18
859.283	10112.8
859.605	10038.9
859.926	10038.45
860.248	9968.62
860.57	9997.32
860.891	10052.24
861.212	9984.44
861.534	9899.47
861.855	9943.76
862.176	9942.18
862.498	9919.13
862.819	9893.82
863.14	9842.3
863.461	9823.32
863.782	9753.94
864.103	9731.79
864.424	9778.57
864.745	9713.04
865.065	9719.36
865.386	9656.77
865.707	9671.23
866.027	9714.62
866.348	9588.75
866.668	9631.91
866.989	9593.72
867.309	9557.11
867.63	9532.25
867.95	9606.15
868.27	9520.05
868.59	9464.68
868.91	9511.91
869.23	9492.25
869.55	9418.13
869.87	9497.67
870.19	9391.69
870.51	9464.45
870.83	9390.56
871.15	9383.33
871.469	9397.11
871.789	9448.41
872.109	9357.11
872.428	9350.79
872.748	9303.33
873.067	9347.62
873.386	9358.02
873.706	9310.79
874.025	9313.27
874.344	9260.17
874.663	9291.58
874.982	9301.52
875.301	9297.23
875.62	9234.63
875.939	9190.34
876.258	9215.2
876.577	9128.19
876.896	9189.43
877.214	9085.03
877.533	9108.98
877.852	9072.15
878.17	9105.82
878.489	9146.72
878.807	9078.48
879.125	9021.08
879.444	9054.3
879.762	8980.85
880.08	8972.26
880.398	8880.06
880.716	8939.95
881.034	8977.24
881.352	8958.03
881.67	8915.99
881.988	8908.54
882.306	8838.03
882.624	8767.98
882.941	8784.25
883.259	8765.49
883.577	8777.69
883.894	8754.42
884.212	8739.5
884.529	8735.21
884.846	8728.43
885.164	8672.16
885.481	8661.09
885.798	8703.8
886.115	8619.5
886.432	8605.49
886.75	8554.2
887.067	8599.84
887.383	8522.33
887.7	8488.89
888.017	8513.52
888.334	8491.15
888.651	8481.43
888.967	8484.59
889.284	8424.71
889.6	8399.85
889.917	8336.35
890.233	8344.26
890.55	8297.25
890.866	8330.93
891.182	8289.57
891.498	8282.56
891.815	8188.78
892.131	8182.68
892.447	8176.35
892.763	8150.36
893.079	8126.86
893.395	8136.13
893.71	8058.84
894.026	8082.57
894.342	8032.63
894.657	7994.44
894.973	7966.19
895.289	7994.21
895.604	7882.35
895.92	7873.54
896.235	7857.72
896.55	7847.55
896.865	7837.38
897.181	7812.97
897.496	7780.43
897.811	7751.51
898.126	7742.01
898.441	7682.13
898.756	7688.46
899.071	7640.1
899.386	7637.61
899.7	7530.04
900.015	7508.12
900.33	7439.65
900.644	7421.8
900.959	7444.17
901.273	7432.42
901.588	7374.79
901.902	7302.03
902.216	7361.46
902.531	7350.16
902.845	7276.49
903.159	7267
903.473	7271.07
903.787	7172.54
904.101	7176.15
904.415	7184.51
904.729	7149.94
905.042	7107.91
905.356	7019.55
905.67	7104.97
905.984	7036.27
906.297	7038.98
906.611	7044.86
906.924	7009.38
907.237	6943.39
907.551	6942.71
907.864	6888.03
908.177	6886.44
908.491	6830.85
908.804	6808.93
909.117	6799.67
909.43	6686.9
909.743	6716.73
910.056	6741.36
910.368	6671.31
910.681	6672.66
910.994	6640.12
911.307	6589.73
911.619	6581.82
911.932	6508.6
912.244	6485.55
912.557	6496.62
912.869	6484.87
913.181	6475.61
913.494	6414.59
913.806	6362.84
914.118	6408.04
914.43	6351.32
914.742	6310.41
915.054	6264.54
915.366	6298.21
915.678	6284.88
915.99	6207.59
916.302	6127.37
916.613	6189.51
916.925	6211.66
917.236	6093.02
917.548	6106.12
917.859	6094.6
918.171	6020.25
918.482	6021.83
918.794	6035.84
919.105	5975.96
919.416	5940.71
919.727	5951.55
920.038	5906.58
920.349	5887.37
920.66	5852.35
920.971	5843.98
921.282	5842.85
921.593	5775.96
921.903	5738.22
922.214	5698
922.525	5713.37
922.835	5629.98
923.146	5645.8
923.456	5655.74
923.767	5624.1
924.077	5617.78
924.387	5586.36
924.697	5529.64
925.008	5541.39
925.318	5489.19
925.628	5520.15
925.938	5459.14
926.248	5437.22
926.558	5388.4
926.867	5388.86
927.177	5386.37
927.487	5347.27
927.796	5281.74
928.106	5274.96
928.416	5287.39
928.725	5212.81
929.034	5250.55
929.344	5184.57
929.653	5180.95
929.962	5147.96
930.271	5119.48
930.581	5091.24
930.89	5094.4
931.199	5008.3
931.508	5064.12
931.817	5048.75
932.125	4984.12
932.434	4986.38
932.743	4970.11
933.051	4940.73
933.36	4878.59
933.669	4860.06
933.977	4882.65
934.286	4844.46
934.594	4839.04
934.902	4818.93
935.21	4818.47
935.519	4787.74
935.827	4755.88
936.135	4743.9
936.443	4672.94
936.751	4655.99
937.059	4635.2
937.367	4644.92
937.674	4668.42
937.982	4642.89
938.29	4590.46
938.597	4611.7
938.905	4533.28
939.213	4502.78
939.52	4509.56
939.827	4499.16
940.135	4492.16
940.442	4435.66
940.749	4474.08
941.056	4433.85
941.363	4397.24
941.67	4378.49
941.977	4357.47
942.284	4350.69
942.591	4356.11
942.898	4328.32
943.205	4285.83
943.511	4267.3
943.818	4260.3
944.125	4232.95
944.431	4218.72
944.738	4227.53
945.044	4194.76
945.35	4149.57
945.657	4131.49
945.963	4140.75
946.269	4143.01
946.575	4117.02
946.881	4101.66
947.187	4041.55
947.493	4050.59
947.799	4071.6
948.105	3988.89
948.41	3995.45
948.716	3980.3
949.022	3983.47
949.327	3962.45
949.633	3907.76
949.938	3934.43
950.244	3938.95
950.549	3847.65
950.854	3859.63
951.16	3847.65
951.465	3827.77
951.77	3805.17
952.075	3810.82
952.38	3767.66
952.685	3807.88
952.99	3716.58
953.294	3771.95
953.599	3691.72
953.904	3682.23
954.209	3700.09
954.513	3664.16
954.818	3641.56
955.122	3598.39
955.426	3613.76
955.731	3570.82
956.035	3590.26
956.339	3591.84
956.643	3582.35
956.948	3555.46
957.252	3532.86
957.556	3531.28
957.86	3513.42
958.163	3480.88
958.467	3486.08
958.771	3415.12
959.075	3454.67
959.378	3460.54
959.682	3393.88
959.985	3374.9
960.289	3399.53
960.592	3391.85
960.896	3395.91
961.199	3354.33
961.502	3334.9
961.805	3325.86
962.108	3268.69
962.411	3276.37
962.714	3271.62
963.017	3256.03
963.32	3248.35
963.623	3220.55
963.926	3218.97
964.228	3193.43
964.531	3191.17
964.833	3209.25
965.136	3136.94
965.438	3142.13
965.741	3087.67
966.043	3105.07
966.345	3101.23
966.648	3106.43
966.95	3080.89
967.252	3101.01
967.554	3101.46
967.856	3069.59
968.158	3029.82
968.46	3000.44
968.761	3001.57
969.063	2983.49
969.365	2970.61
969.666	2960.67
969.968	2901.92
970.269	2895.14
970.571	2919.09
970.872	2914.8
971.174	2920.9
971.475	2898.53
971.776	2867.11
972.077	2845.65
972.378	2847.68
972.679	2806.32
972.98	2806.78
973.281	2805.42
973.582	2838.87
973.883	2787.79
974.183	2783.5
974.484	2762.71
974.785	2719.55
975.085	2738.53
975.386	2720
975.686	2720
975.986	2699.89
976.287	2691.53
976.587	2690.62
976.887	2644.75
977.187	2644.29
977.487	2664.41
977.787	2604.52
978.087	2604.3
978.387	2612.43
978.687	2577.18
978.987	2544.64
979.286	2563.17
979.586	2568.82
979.885	2562.26
980.185	2528.14
980.484	2504.19
980.784	2512.09
981.083	2538.76
981.382	2480.68
981.682	2503.06
981.981	2480.91
982.28	2490.63
982.579	2469.16
982.878	2448.14
983.177	2448.59
983.475	2465.32
983.774	2428.03
984.073	2421.48
984.372	2419.22
984.67	2408.14
984.969	2357.75
985.267	2375.6
985.566	2371.76
985.864	2345.09
986.162	2314.59
986.461	2332.44
986.759	2301.93
987.057	2292.67
987.355	2263.29
987.653	2291.08
987.951	2288.15
988.249	2241.14
988.547	2260.12
988.844	2219.9
989.142	2215.38
989.44	2253.57
989.737	2202.27
990.035	2181.71
990.332	2158.21
990.63	2160.24
990.927	2171.54
991.224	2145.32
991.521	2162.95
991.819	2125.66
992.116	2137.42
992.413	2133.12
992.71	2101.94
993.006	2094.7
993.303	2112.56
993.6	2101.26
993.897	2070.3
994.193	2089.28
994.49	2072.11
994.787	2040.02
995.083	2063.29
995.379	2026.91
995.676	2037.76
995.972	2008.61
996.268	1999.34
996.565	1999.11
996.861	1964.09
997.157	1934.71
997.453	1960.7
997.749	1950.75
998.044	1936.06
998.34	1922.73
998.636	1936.29
998.932	1895.84
999.227	1887.48
999.523	1889.74
999.818	1903.75
1000.114	1846.35
1000.409	1862.85
1000.704	1853.58
1001	1862.62
1001.295	1839.34
1001.59	1826.01
1001.885	1791.89
1002.18	1770.19
1002.475	1777.43
1002.77	1764.32
1003.065	1792.57
1003.359	1787.59
1003.654	1770.65
1003.949	1745.34
1004.243	1741.49
1004.538	1733.58
1004.832	1731.78
1005.127	1711.89
1005.421	1707.37
1005.715	1672.12
1006.009	1682.06
1006.304	1656.98
1006.598	1681.16
1006.892	1665.11
1007.186	1658.11
1007.48	1639.12
1007.773	1620.59
1008.067	1648.16
1008.361	1616.75
1008.655	1612.01
1008.948	1584.66
1009.242	1579.01
1009.535	1581.5
1009.829	1579.69
1010.122	1547.37
1010.415	1594.15
1010.708	1562.74
1011.001	1535.17
1011.295	1553.25
1011.588	1537.66
1011.881	1522.97
1012.173	1487.72
1012.466	1506.7
1012.759	1492.91
1013.052	1480.03
1013.344	1496.98
1013.637	1473.93
1013.93	1470.54
1014.222	1469.86
1014.514	1436.19
1014.807	1444.1
1015.099	1398.23
1015.391	1429.19
1015.683	1408.85
1015.976	1412.01
1016.268	1396.42
1016.56	1384.67
1016.851	1391.9
1017.143	1368.62
1017.435	1364.33
1017.727	1368.62
1018.018	1375.4
1018.31	1363.88
1018.602	1335.4
1018.893	1324.33
1019.185	1329.75
1019.476	1301.96
1019.767	1295.86
1020.058	1292.47
1020.35	1269.42
1020.641	1267.61
1020.932	1258.34
1021.223	1271.9
1021.514	1232.13
1021.804	1238.91
1022.095	1253.15
1022.386	1200.04
1022.677	1217.67
1022.967	1220.38
1023.258	1198.23
1023.548	1201.39
1023.839	1188.97
1024.129	1184.67
1024.419	1190.77
1024.709	1165.92
1025	1178.34
1025.29	1161.85
1025.58	1126.82
1025.87	1145.13
1026.16	1134.28
1026.449	1156.2
1026.739	1104.45
1027.029	1116.88
1027.319	1087.95
1027.608	1110.1
1027.898	1098.35
1028.187	1095.41
1028.477	1076.65
1028.766	1097.22
1029.055	1059.25
1029.344	1060.83
1029.634	1050.66
1029.923	1024.45
1030.212	1046.82
1030.501	1025.35
1030.79	1030.55
1031.078	1010.89
1031.367	1019.03
1031.656	999.59
1031.945	999.82
1032.233	1004.79
1032.522	989.2
1032.81	977.9
1033.099	974.28
1033.387	964.57
1033.675	974.28
1033.963	995.75
1034.251	949.42
1034.54	952.81
1034.828	943.55
1035.116	958.24
1035.403	933.15
1035.691	931.8
1035.979	908.75
1036.267	905.13
1036.554	885.7
1036.842	878.47
1037.129	864.23
1037.417	880.05
1037.704	881.63
1037.992	889.54
1038.279	861.97
1038.566	861.06
1038.853	861.06
1039.14	861.06
