Data from hue_40_FLMS001491_100.txt Node
Date: Mon Feb 06 15:08:52 GMT 2017
User: dcchb
Spectrometer: FLMS00149
Trigger mode: 0
Integration Time (sec): 2.000000E-2
Scans to average: 10
Electric dark correction enabled: true
Nonlinearity correction enabled: false
Boxcar width: 0
XAxis mode: Wavelengths
Number of Pixels in Spectrum: 2048
>>>>>Begin Spectral Data<<<<<
341.393	6.84
341.776	6.84
342.16	6.84
342.543	-46.72
342.927	-45.14
343.31	-86.49
343.693	-60.28
344.077	-52.37
344.46	-65.48
344.843	-35.87
345.226	-45.82
345.61	-32.94
345.993	-1.3
346.376	17.91
346.759	-4.46
347.142	16.33
347.525	35.08
347.908	43.9
348.291	63.56
348.674	107.85
349.057	100.39
349.44	130
349.823	150.11
350.206	170.22
350.588	196.66
350.971	198.02
351.354	220.16
351.737	257.68
352.119	253.38
352.502	277.34
352.884	288.86
353.267	275.98
353.65	297.45
354.032	296.77
354.414	312.36
354.797	325.7
355.179	337.45
355.562	335.19
355.944	331.12
356.326	348.75
356.709	353.49
357.091	345.58
357.473	334.28
357.855	337
358.238	353.49
358.62	335.87
359.002	354.85
359.384	345.58
359.766	343.55
360.148	337
360.53	358.01
360.912	342.65
361.294	337.45
361.676	337
362.057	337.67
362.439	344.91
362.821	331.35
363.203	335.41
363.584	332.03
363.966	315.08
364.348	333.38
364.729	326.15
365.111	300.16
365.493	313.04
365.874	301.29
366.256	321.86
366.637	316.88
367.019	330.9
367.4	334.06
367.781	339.48
368.163	327.05
368.544	329.99
368.925	302.87
369.306	302.2
369.688	311.69
370.069	313.27
370.45	330.67
370.831	311.46
371.212	330.9
371.593	311.69
371.974	308.3
372.355	341.97
372.736	318.24
373.117	338.8
373.498	340.16
373.879	328.41
374.26	329.31
374.641	293.61
375.021	321.4
375.402	339.03
375.783	319.82
376.163	343.78
376.544	332.25
376.925	325.25
377.305	332.48
377.686	315.3
378.066	329.99
378.447	346.49
378.827	332.03
379.208	344.91
379.588	323.44
379.968	334.74
380.349	339.71
380.729	344
381.109	348.07
381.489	350.78
381.87	326.6
382.25	366.6
382.63	324.79
383.01	353.72
383.39	361.63
383.77	338.13
384.15	384.91
384.53	348.07
384.91	360.5
385.29	355.53
385.67	350.1
386.049	369.31
386.429	367.05
386.809	355.53
387.189	341.52
387.568	352.82
387.948	373.15
388.328	361.4
388.707	352.14
389.087	375.19
389.466	386.04
389.846	386.49
390.225	368.41
390.605	380.39
390.984	386.49
391.363	370.89
391.743	375.87
392.122	372.48
392.501	383.1
392.881	398.46
393.26	378.35
393.639	407.96
394.018	381.97
394.397	384.23
394.776	406.37
395.155	384.91
395.534	397.33
395.913	390.1
396.292	394.4
396.671	403.89
397.05	399.59
397.429	412.25
397.808	403.21
398.186	394.85
398.565	402.08
398.944	395.53
399.323	411.12
399.701	411.8
400.08	409.31
400.458	425.58
400.837	393.04
401.215	409.76
401.594	393.04
401.972	415.19
402.351	413.6
402.729	416.54
403.107	428.97
403.486	411.8
403.864	414.73
404.242	420.61
404.62	423.32
404.999	427.62
405.377	445.47
405.755	427.16
406.133	425.81
406.511	433.49
406.889	437.11
407.267	450.89
407.645	440.04
408.023	461.51
408.401	466.48
408.779	444.56
409.156	453.83
409.534	459.03
409.912	467.16
410.29	468.52
410.667	477.33
411.045	470.33
411.422	479.59
411.8	484.34
412.178	500.61
412.555	485.47
412.933	500.83
413.31	478.69
413.687	485.24
414.065	477.33
414.442	497.9
414.819	503.55
415.197	528.18
415.574	508.97
415.951	520.27
416.328	515.52
416.705	513.04
417.082	549.42
417.46	521.4
417.837	499.93
418.214	534.05
418.591	525.24
418.967	572.24
419.344	525.92
419.721	552.36
420.098	528.4
420.475	556.65
420.852	556.65
421.228	548.29
421.605	542.87
421.982	554.62
422.358	583.32
422.735	576.76
423.111	555.07
423.488	578.12
423.864	598.46
424.241	589.19
424.617	593.26
424.994	596.88
425.37	598.01
425.746	600.49
426.123	618.57
426.499	623.99
426.875	599.81
427.251	614.05
427.627	624.9
428.003	641.17
428.379	637.1
428.756	658.8
429.132	619.7
429.507	657.44
429.883	663.09
430.259	653.6
430.635	678.46
431.011	643.88
431.387	658.8
431.763	673.03
432.138	709.42
432.514	692.92
432.89	703.31
433.265	680.72
433.641	697.89
434.016	704.44
434.392	730.21
434.767	732.69
435.143	721.39
435.518	739.7
435.894	740.15
436.269	756.65
436.644	737.44
437.02	769.53
437.395	771.56
437.77	773.6
438.145	765.23
438.52	779.92
438.895	768.4
439.271	803.2
439.646	800.04
440.021	802.52
440.395	824.67
440.77	813.59
441.145	813.82
441.52	828.96
441.895	836.87
442.27	839.36
442.645	850.66
443.019	835.97
443.394	855.63
443.769	873.48
444.143	867.38
444.518	889.75
444.892	863.99
445.267	867.15
445.641	889.75
446.016	872.12
446.39	870.09
446.764	893.14
447.139	896.76
447.513	891.56
447.887	901.73
448.262	896.3
448.636	936.53
449.01	936.76
449.384	929.07
449.758	938.79
450.132	952.8
450.506	943.31
450.88	951.67
451.254	953.93
451.628	987.83
452.002	981.73
452.376	985.79
452.75	1007.49
453.123	1009.97
453.497	1017.43
453.871	1019.46
454.244	1036.64
454.618	1052.23
454.992	1049.97
455.365	1043.19
455.739	1070.31
456.112	1075.06
456.486	1096.3
456.859	1110.08
457.232	1120.93
457.606	1120.03
457.979	1130.65
458.352	1152.57
458.725	1134.04
459.099	1165.68
459.472	1200.48
459.845	1216.3
460.218	1200.93
460.591	1233.92
460.964	1233.02
461.337	1235.73
461.71	1269.4
462.083	1263.75
462.456	1296.52
462.829	1312.79
463.201	1317.54
463.574	1328.38
463.947	1340.36
464.32	1350.98
464.692	1371.77
465.065	1397.76
465.438	1407.93
465.81	1405.22
466.183	1427.82
466.555	1465.55
466.928	1477.76
467.3	1515.5
467.672	1513.01
468.045	1578.09
468.417	1546.46
468.789	1594.82
469.161	1601.6
469.534	1628.71
469.906	1669.62
470.278	1663.06
470.65	1697.19
471.022	1733.57
471.394	1766.56
471.766	1777.18
472.138	1806.79
472.51	1856.05
472.882	1884.07
473.253	1904.41
473.625	1964.98
473.997	2006.11
474.369	2009.95
474.74	2052.43
475.112	2089.49
475.484	2138.08
475.855	2180.11
476.227	2195.48
476.598	2308.24
476.97	2322.03
477.341	2364.06
477.713	2407.9
478.084	2465.98
478.455	2576.03
478.827	2577.16
479.198	2671.62
479.569	2677.73
479.94	2794.33
480.311	2841.34
480.682	2940.32
481.053	3002.01
481.424	3116.13
481.795	3144.15
482.166	3225.06
482.537	3284.94
482.908	3372.17
483.279	3472.51
483.65	3535.33
484.021	3635.22
484.391	3703.01
484.762	3799.28
485.133	3836.11
485.503	3928.77
485.874	4096.22
486.244	4121.08
486.615	4261.87
486.985	4384.12
487.356	4475.19
487.726	4531.24
488.097	4647.62
488.467	4748.86
488.837	4895.97
489.207	4950.89
489.578	5113.82
489.948	5156.31
490.318	5288.51
490.688	5389.29
491.058	5443.53
491.428	5608.04
491.798	5706.35
492.168	5878.55
492.538	5953.57
492.908	6019.56
493.278	6132.32
493.648	6218.65
494.017	6321.47
494.387	6422.94
494.757	6558.3
495.126	6639.66
495.496	6726.66
495.866	6828.13
496.235	6918.97
496.605	7019.98
496.974	7132.75
497.344	7266.53
497.713	7337.72
498.082	7406.19
498.452	7610.93
498.821	7684.83
499.19	7655
499.559	7770.02
499.928	7887.31
500.298	7991.26
500.667	8143.12
501.036	8169.11
501.405	8280.06
501.774	8331.59
502.143	8404.13
502.512	8487.74
502.88	8570.23
503.249	8625.14
503.618	8770.22
503.987	8821.29
504.356	8924.34
504.724	9066.26
505.093	9085.69
505.462	9105.58
505.83	9202.3
506.199	9371.79
506.567	9476.64
506.936	9493.82
507.304	9639.58
507.672	9723.42
508.041	9730.2
508.409	9879.8
508.777	9930.64
509.145	9982.17
509.514	10056.97
509.882	10154.14
510.25	10224.19
510.618	10288.15
510.986	10348.48
511.354	10436.17
511.722	10529.27
512.09	10601.36
512.458	10654.92
512.826	10744.41
513.193	10772.43
513.561	10843.84
513.929	10918.87
514.297	11052.2
514.664	11131.74
515.032	11200.44
515.4	11225.52
515.767	11269.14
516.135	11369.93
516.502	11329.02
516.869	11590.26
517.237	11569.02
517.604	11595.46
517.972	11700.54
518.339	11738.96
518.706	11784.15
519.073	11859.41
519.44	11955.67
519.808	12067.54
520.175	12034.99
520.542	12285.61
520.909	12353.86
521.276	12387.98
521.643	12433.85
522.009	12467.75
522.376	12615.54
522.743	12699.16
523.11	12769.66
523.477	12915.88
523.843	12966.27
524.21	13051.69
524.577	13204.46
524.943	13237.22
525.31	13274.74
525.676	13408.52
526.043	13534.84
526.409	13538.91
526.776	13734.84
527.142	13761.95
527.508	13800.82
527.874	13941.16
528.241	13978.9
528.607	14000.37
528.973	14155.62
529.339	14132.79
529.705	14297.31
530.071	14451.88
530.437	14467.47
530.803	14616.4
531.169	14681.93
531.535	14659.56
531.901	14689.61
532.267	14783.62
532.632	14882.83
532.998	14888.7
533.364	15072.2
533.73	15047.34
534.095	15159.43
534.461	15273.33
534.826	15312.87
535.192	15358.3
535.557	15485.75
535.923	15447.33
536.288	15608.46
536.653	15633.54
537.019	15570.72
537.384	15761.45
537.749	15850.71
538.114	15784.05
538.479	15886.19
538.845	15995.79
539.21	15979.52
539.575	16031.95
539.94	16114.21
540.305	16274.2
540.67	16247.54
541.034	16285.73
541.399	16407.76
541.764	16399.85
542.129	16483.01
542.494	16537.7
542.858	16572.73
543.223	16647.98
543.587	16789.9
543.952	16757.58
544.316	16822.67
544.681	16890.23
545.045	17032.6
545.41	17193.28
545.774	17088.87
546.138	17190.79
546.503	17300.17
546.867	17259.04
547.231	17449.09
547.595	17495.64
547.959	17567.73
548.324	17475.98
548.688	17502.65
549.052	17615.41
549.416	17680.04
549.779	17773.37
550.143	17774.5
550.507	17917.33
550.871	18039.81
551.235	17946.93
551.599	18149.41
551.962	18102.86
552.326	18204.78
552.689	18343.75
553.053	18334.49
553.417	18257.43
553.78	18583.07
554.143	18512.34
554.507	18609.74
554.87	18635.95
555.234	18789.17
555.597	18691.99
555.96	18821.93
556.323	18876.4
556.686	18843.4
557.05	19023.29
557.413	19073.45
557.776	19054.24
558.139	19220.12
558.502	19261.24
558.865	19370.39
559.228	19526.32
559.59	19525.42
559.953	19515.02
560.316	19755.47
560.679	19703.27
561.041	19890.61
561.404	19881.12
561.767	20027.55
562.129	20019.42
562.492	20196.14
562.854	20099.64
563.217	20220.09
563.579	20251.5
563.941	20433.42
564.304	20560.65
564.666	20648.33
565.028	20583.92
565.39	20797.48
565.753	20877.7
566.115	20849.23
566.477	21002.44
566.839	21138.48
567.201	21076.11
567.563	21123.57
567.925	21398.59
568.287	21406.27
568.648	21380.74
569.01	21476.78
569.372	21664.35
569.734	21619.83
570.095	21660.28
570.457	21889.42
570.819	21937.56
571.18	21986.15
571.542	22013.04
571.903	22120.15
572.265	22266.59
572.626	22358.11
572.987	22413.7
573.349	22554.27
573.71	22610.08
574.071	22708.84
574.432	22801.72
574.794	22970.07
575.155	22907.25
575.516	23049.62
575.877	23189.96
576.238	23231.99
576.599	23444.64
576.96	23497.52
577.32	23607.35
577.681	23714.46
578.042	23987
578.403	24126.2
578.763	24046.66
579.124	24353.54
579.485	24461.79
579.845	24604.38
580.206	24669.24
580.566	24811.61
580.927	24982
581.287	25193.97
581.648	25210.24
582.008	25501.98
582.368	25630.12
582.728	25735.43
583.089	25869.88
583.449	26047.73
583.809	26240.72
584.169	26567.04
584.529	26636.87
584.889	27033.02
585.249	27023.98
585.609	27250.19
585.969	27515.94
586.329	27567.92
586.688	27810.17
587.048	27923.16
587.408	28170.62
587.768	28384.17
588.127	28519.53
588.487	28740.77
588.846	29028.45
589.206	29053.98
589.565	29330.13
589.925	29655.77
590.284	29746.39
590.643	30004.47
591.003	30297.79
591.362	30540.5
591.721	30496.66
592.08	30853.48
592.44	31248.5
592.799	31349.97
593.158	31443.52
593.517	31635.61
593.876	32014.58
594.235	32053.45
594.593	32309.49
594.952	32656.6
595.311	32656.37
595.67	32867.67
596.029	33164.38
596.387	33296.81
596.746	33593.3
597.104	33729.79
597.463	33841.65
597.822	34184.24
598.18	34243.45
598.538	34336.1
598.897	34587.17
599.255	34486.16
599.613	35172.69
599.972	35129.08
600.33	35426.92
600.688	35494.49
601.046	35732.9
601.404	35973.35
601.762	36031.2
602.12	36289.27
602.478	36489.72
602.836	36540.56
603.194	36493.79
603.552	36843.61
603.91	36850.61
604.268	37159.53
604.625	37208.12
604.983	37336.25
605.341	37431.39
605.698	37791.61
606.056	38018.49
606.413	37989.34
606.771	38197.47
607.128	38207.64
607.485	38225.72
607.843	38405.15
608.2	38752.03
608.557	38800.17
608.914	38895.98
609.272	39164
609.629	39303.88
609.986	39559.92
610.343	39546.59
610.7	39831.1
611.057	39765.34
611.414	39874.49
611.771	39906.58
612.127	40153.8
612.484	40172.56
612.841	40390.86
613.198	40320.8
613.554	40385.21
613.911	40745.65
614.267	40750.17
614.624	40876.95
614.98	40913.33
615.337	41261.12
615.693	41174.57
616.05	41133.89
616.406	41426.09
616.762	41353.32
617.118	41538.4
617.475	41471.51
617.831	41687.77
618.187	41797.83
618.543	41944.72
618.899	42105.16
619.255	42042.79
619.611	42185.84
619.967	42277.81
620.323	42396.23
620.678	42273.3
621.034	42234.88
621.39	42404.37
621.746	42451.14
622.101	42895.43
622.457	42587.19
622.812	42686.17
623.168	42873.96
623.523	42894.75
623.879	43021.98
624.234	42827.18
624.589	42990.56
624.945	43068.08
625.3	43049.77
625.655	43090.22
626.01	43089.32
626.365	43264.68
626.72	43117.57
627.075	43313.04
627.43	43181.75
627.785	43252.93
628.14	43312.59
628.495	43370.67
628.85	43312.59
629.205	43341.06
629.559	43512.58
629.914	43251.8
630.269	43382.87
630.623	43330.22
630.978	43293.38
631.332	43437.56
631.687	43516.88
632.041	43319.14
632.396	43331.12
632.75	43346.49
633.104	43341.29
633.459	43305.58
633.813	43292.25
634.167	43405.92
634.521	43317.79
634.875	43285.02
635.229	43294.29
635.583	43207.51
635.937	43097.91
636.291	43204.12
636.645	43199.6
636.999	43142.65
637.352	43190.56
637.706	42925.48
638.06	43157.79
638.413	43115.76
638.767	42980.4
639.121	43088.87
639.474	42743.57
639.828	42917.12
640.181	43068.75
640.534	42973.62
640.888	42874.64
641.241	42755.99
641.594	42849.33
641.947	42958.25
642.301	42851.59
642.654	42622.89
643.007	42977.23
643.36	42763.9
643.713	42721.87
644.066	42922.32
644.419	42519.62
644.771	42287.98
645.124	42073.3
645.477	41971.38
645.83	41810.03
646.182	41600.77
646.535	41387.89
646.888	41541.56
647.24	41363.04
647.593	41516.48
647.945	41453.43
648.298	41397.16
648.65	41153.1
649.002	41161.69
649.355	41276.49
649.707	41128.69
650.059	41441.23
650.411	42038.95
650.763	42011.83
651.115	42376.12
651.467	42244.6
651.819	42166.63
652.171	41985.85
652.523	41993.3
652.875	41894.55
653.227	41828.79
653.578	42107.88
653.93	41876.92
654.282	41910.14
654.633	41791.73
654.985	41841.89
655.337	41879.18
655.688	41808.45
656.039	41926.64
656.391	41591.51
656.742	41729.13
657.094	41766.87
657.445	41897.03
657.796	41772.97
658.147	41671.05
658.498	41817.49
658.849	41729.13
659.2	41625.4
659.551	41603.48
659.902	41769.35
660.253	41651.62
660.604	41811.16
660.955	41485.97
661.306	41623.82
661.656	41570.26
662.007	41667.89
662.358	41542.92
662.708	41426.76
663.059	41519.42
663.409	41216.83
663.76	41703.37
664.11	41537.04
664.461	41454.79
664.811	41590.83
665.161	41517.83
665.511	41361.91
665.862	41389.02
666.212	41569.36
666.562	41446.42
666.912	41562.58
667.262	41332.76
667.612	41461.34
667.962	41480.77
668.312	41472.86
668.662	41507.89
669.011	41466.08
669.361	41345.64
669.711	41341.79
670.06	41262.93
670.41	41246.88
670.76	41172.76
671.109	41410.04
671.459	41356.94
671.808	41264.28
672.157	41314.68
672.507	41007.11
672.856	41209.82
673.205	41111.74
673.554	41337.73
673.904	41087.11
674.253	41343.38
674.602	41094.34
674.951	40684.64
675.3	40359.45
675.649	41047.34
675.998	40902.26
676.346	41068.13
676.695	41165.53
677.044	40717.18
677.393	40945.87
677.741	40901.13
678.09	40852.77
678.438	40710.62
678.787	40805.76
679.135	40927.34
679.484	40570.74
679.832	40657.74
680.181	40586.79
680.529	40635.37
680.877	40513.57
681.225	40393.57
681.573	40677.86
681.922	40385.89
682.27	40285.55
682.618	40288.71
682.966	40112.67
683.314	40295.27
683.661	40073.13
684.009	40015.5
684.357	39864.77
684.705	39916.3
685.053	39873.81
685.4	39986.58
685.748	39577.09
686.095	39633.36
686.443	39480.83
686.79	39411.22
687.138	39682.63
687.485	39602.63
687.832	39383.43
688.18	39446.48
688.527	39213.71
688.874	39286.71
689.221	39084.9
689.568	39124
689.915	38877
690.262	39009.88
690.609	38664.8
690.956	38767.4
691.303	38760.39
691.65	38447.63
691.997	38526.5
692.344	38242.89
692.69	38188.88
693.037	38222.78
693.383	37998.61
693.73	38023.24
694.077	37954.09
694.423	37835.22
694.769	37694.21
695.116	37732.85
695.462	37668.67
695.808	37475.23
696.155	37462.57
696.501	37259.42
696.847	37272.52
697.193	36936.03
697.539	37176.03
697.885	36902.81
698.231	36680
698.577	36837.51
698.923	36730.16
699.269	36449.72
699.614	36377.63
699.96	36352.32
700.306	36338.99
700.651	36051.31
700.997	36139.22
701.342	36058.32
701.688	35912.33
702.033	35784.43
702.379	35710.08
702.724	35722.51
703.069	35695.39
703.415	35311.22
703.76	35294.27
704.105	35333.82
704.45	35295.4
704.795	34983.77
705.14	35032.36
705.485	34944
705.83	34811.8
706.175	34906.03
706.52	34733.38
706.865	34577.23
707.209	34674.4
707.554	34476.66
707.899	34637.56
708.243	34301.75
708.588	34414.52
708.932	34142.66
709.277	34128.42
709.621	34099.27
709.966	33884.82
710.31	34020.18
710.654	33795.55
710.998	33864.93
711.342	33759.17
711.687	33647.31
712.031	33539.29
712.375	33356.69
712.719	33504.94
713.063	33469.46
713.407	33485.73
713.75	33258.39
714.094	33270.37
714.438	33058.4
714.782	33045.97
715.125	32871.28
715.469	32985.4
715.812	32742.7
716.156	32702.02
716.499	32757.39
716.843	32690.27
717.186	32491.86
717.53	32755.81
717.873	32618.41
718.216	32518.75
718.559	32243.5
718.902	32268.59
719.246	32248.02
719.589	32177.74
719.932	32050.74
720.275	32072.66
720.617	31971.65
720.96	31949.95
721.303	31934.13
721.646	31920.57
721.989	31635.38
722.331	31875.15
722.674	31665.89
723.016	31822.95
723.359	31550.19
723.701	31515.61
724.044	31461.38
724.386	31367.59
724.729	31400.59
725.071	31236.75
725.413	31312
725.755	31290.53
726.097	31165.34
726.439	31019.58
726.782	31144.77
727.124	31151.33
727.465	30916.53
727.807	30945.46
728.149	30905.68
728.491	30889.87
728.833	30929.41
729.175	30695.97
729.516	30739.36
729.858	30668.63
730.199	30655.52
730.541	30611.91
730.882	30604.22
731.224	30571
731.565	30382.31
731.906	30473.15
732.248	30424.12
732.589	30234.06
732.93	30220.96
733.271	30171.92
733.612	30213.73
733.953	30188.87
734.294	29996.1
734.635	29934.41
734.976	30072.71
735.317	29828.2
735.658	30033.17
735.999	29891.02
736.339	29826.16
736.68	29888.31
737.021	29791.14
737.361	29709.33
737.702	29689.67
738.042	29664.14
738.383	29549.11
738.723	29694.42
739.063	29382.56
739.404	29506.4
739.744	29460.75
740.084	29367.19
740.424	29377.14
740.764	29429.11
741.104	29331.49
741.444	29124.94
741.784	29157.03
742.124	29158.84
742.464	29170.59
742.804	29086.75
743.143	29008.56
743.483	29015.11
743.823	28901.9
744.162	28867.09
744.502	28903.93
744.841	28698.51
745.181	28907.32
745.52	28863.25
745.86	28826.42
746.199	28727.44
746.538	28632.3
746.877	28697.61
747.216	28652.64
747.556	28465.97
747.895	28592.07
748.234	28394.56
748.573	28446.99
748.911	28318.18
749.25	28344.85
749.589	28314.11
749.928	28215.13
750.267	28270.5
750.605	28101.46
750.944	28029.83
751.283	28087.68
751.621	28010.85
751.96	27958.87
752.298	27822.38
752.636	27816.5
752.975	27706.67
753.313	27536.73
753.651	27705.77
753.989	27540.35
754.327	27468.49
754.666	27417.64
755.004	27455.38
755.342	27434.82
755.679	27439.11
756.017	27127.25
756.355	27319.34
756.693	27102.39
757.031	27099.68
757.368	26994.83
757.706	27020.81
758.044	26763.19
758.381	27024.2
758.719	26757.32
759.056	26867.15
759.394	26748.51
759.731	26594.39
760.068	26503.09
760.405	26420.83
760.743	26343.54
761.08	26440.27
761.417	26133.38
761.754	26182.64
762.091	26138.13
762.428	26145.58
762.765	25927.06
763.102	25909.43
763.438	25857.68
763.775	25622.89
764.112	25698.59
764.449	25680.96
764.785	25498.82
765.122	25389.67
765.458	25259.96
765.795	25258.38
766.131	25226.29
766.467	25125.95
766.804	25063.13
767.14	24882.57
767.476	24914.2
767.812	24736.36
768.148	24833.98
768.485	24735
768.821	24514.89
769.157	24504.04
769.492	24416.59
769.828	24440.32
770.164	24332.07
770.5	24161
770.836	24173.21
771.171	24011.85
771.507	24009.37
771.842	23794.46
772.178	23802.82
772.513	23637.4
772.849	23575.03
773.184	23589.72
773.519	23542.49
773.855	23445.32
774.19	23335.71
774.525	23174.14
774.86	23267.69
775.195	23083.07
775.53	23037.64
775.865	22814.37
776.2	22799.68
776.535	22655.05
776.87	22500.71
777.205	22480.6
777.539	22486.7
777.874	22605.56
778.209	22263.2
778.543	22327.61
778.878	22272.01
779.212	22105.46
779.547	21888.29
779.881	22012.81
780.215	21779.37
780.55	21811.01
780.884	21603.78
781.218	21602.88
781.552	21617.34
781.886	21465.93
782.22	21368.76
782.554	21372.38
782.888	21064.14
783.222	21007.64
783.556	20978.71
783.889	20891.71
784.223	20795.67
784.557	20718.38
784.89	20806.29
785.224	20664.6
785.557	20471.16
785.891	20601.32
786.224	20394.77
786.558	20477.48
786.891	20161.11
787.224	20171.28
787.557	20119.3
787.891	20110.94
788.224	20138.06
788.557	19982.81
788.89	19909.59
789.223	19891.28
789.556	19744.85
789.888	19726.77
790.221	19591.63
790.554	19563.16
790.887	19499.88
791.219	19438.19
791.552	19296.05
791.884	19283.39
792.217	19183.05
792.549	19137.41
792.882	19002.27
793.214	18938.32
793.546	18941.25
793.879	18774.93
794.211	18711.2
794.543	18755.27
794.875	18665.33
795.207	18896.96
795.539	18560.47
795.871	18490.19
796.203	18467.37
796.535	18352.34
796.867	18312.34
797.198	18325
797.53	18311.67
797.862	18143.53
798.193	18210.43
798.525	18126.13
798.856	18022.86
799.188	17776.54
799.519	17848.17
799.85	17650.44
800.182	17725.92
800.513	17696.31
800.844	17601.63
801.175	17647.28
801.506	17519.6
801.837	17485.7
802.168	17457.22
802.499	17384.23
802.83	17304.23
803.161	17171.58
803.491	17231.69
803.822	17264.69
804.153	17106.5
804.483	16972.04
804.814	17003.23
805.145	16955.99
805.475	16937.46
805.805	16826.28
806.136	16874.87
806.466	16788.99
806.796	16867.18
807.126	16565.72
807.457	16595.55
807.787	16450.02
808.117	16531.83
808.447	16384.48
808.777	16468.55
809.107	16339.97
809.436	16346.29
809.766	16252.74
810.096	16183.59
810.426	16187.43
810.755	16067.43
811.085	16198.95
811.414	16137.26
811.744	16004.16
812.073	15892.52
812.403	15892.75
812.732	15863.59
813.061	15910.6
813.39	15746.54
813.719	15732.98
814.049	15787.66
814.378	15690.27
814.707	15640.55
815.036	15568.69
815.365	15532.53
815.693	15476.49
816.022	15476.03
816.351	15356.04
816.68	15336.6
817.008	15281.91
817.337	15249.15
817.665	15216.83
817.994	15219.32
818.322	15167.34
818.651	15190.84
818.979	15062.49
819.307	15124.86
819.636	15007.8
819.964	14901.59
820.292	15024.52
820.62	15016.61
820.948	14929.16
821.276	15029.94
821.604	14916.27
821.932	14900.91
822.259	14927.57
822.587	14903.39
822.915	14845.54
823.243	14887.12
823.57	14844.86
823.898	14892.77
824.225	14742.72
824.553	14863.39
824.88	14769.16
825.207	14875.15
825.535	14860.46
825.862	14922.15
826.189	14731.19
826.516	14833.34
826.843	14867.24
827.17	14863.62
827.497	14886.22
827.824	14902.26
828.151	14962.6
828.478	14853.23
828.805	14768.71
829.131	14801.48
829.458	14812.77
829.785	14782.49
830.111	14759.89
830.438	14884.64
830.764	14822.27
831.09	14774.81
831.417	14746.34
831.743	14689.61
832.069	14797.86
832.395	14718.54
832.722	14736.39
833.048	14600.35
833.374	14646.9
833.7	14630.86
834.026	14664.98
834.351	14689.16
834.677	14649.39
835.003	14702.95
835.329	14639.9
835.654	14638.99
835.98	14561.03
836.306	14608.94
836.631	14435.84
836.956	14555.61
837.282	14472.22
837.607	14448.72
837.932	14358.77
838.258	14431.99
838.583	14381.83
838.908	14313.35
839.233	14323.52
839.558	14349.96
839.883	14229.74
840.208	14272
840.533	14238.78
840.858	14213.47
841.182	14229.06
841.507	14156.97
841.832	14175.28
842.156	14036.07
842.481	14121.95
842.805	14093.47
843.13	13939.35
843.454	13966.69
843.778	13914.27
844.103	13781.16
844.427	13861.84
844.751	13788.17
845.075	13857.77
845.399	13727.83
845.723	13621.17
846.047	13770.09
846.371	13600.38
846.695	13569.42
847.019	13475.18
847.343	13387.05
847.666	13340.04
847.99	13199.94
848.313	13302.08
848.637	13259.59
848.96	13179.82
849.284	13263.21
849.607	13013.5
849.931	13029.54
850.254	12966.72
850.577	12817.8
850.9	12682.21
851.223	12809.44
851.546	12717.69
851.869	12625.04
852.192	12754.07
852.515	12627.07
852.838	12561.53
853.161	12586.62
853.483	12397.7
853.806	12507.75
854.129	12426.85
854.451	12347.98
854.774	12353.63
855.096	12215.1
855.419	12200.64
855.741	12229.11
856.063	12117.7
856.385	12037.48
856.708	12051.27
857.03	11968.1
857.352	12012.62
857.674	11977.37
857.996	11913.42
858.318	11833.64
858.64	11809.46
858.961	11834.32
859.283	11697.83
859.605	11699.64
859.926	11752.97
860.248	11714.55
860.57	11641.78
860.891	11604.05
861.212	11585.74
861.534	11523.6
861.855	11487.44
862.176	11517.49
862.498	11493.77
862.819	11541.45
863.14	11392.3
863.461	11430.49
863.782	11349.81
864.103	11409.7
864.424	11359.53
864.745	11438.4
865.065	11330.15
865.386	11256.94
865.707	11314.56
866.027	11263.72
866.348	11171.74
866.668	11197.28
866.989	11197.28
867.309	11120.44
867.63	11118.63
867.95	11099.43
868.27	11125.87
868.59	11075.47
868.91	11056.71
869.23	11071.18
869.55	10994.34
869.87	11096.71
870.19	11003.83
870.51	11008.81
870.83	11018.3
871.15	10908.24
871.469	10953.21
871.789	10964.06
872.109	10909.37
872.428	10881.35
872.748	10906.21
873.067	10871.41
873.386	10811.98
873.706	10865.76
874.025	10735.82
874.344	10731.98
874.663	10756.16
874.982	10725.2
875.301	10696.95
875.62	10671.41
875.939	10675.03
876.258	10592.55
876.577	10609.95
876.896	10573.34
877.214	10567.69
877.533	10631.42
877.852	10595.48
878.17	10552.1
878.489	10499.89
878.807	10536.05
879.125	10479.78
879.444	10473.68
879.762	10524.3
880.08	10389.61
880.398	10383.51
880.716	10421.93
881.034	10349.84
881.352	10369.28
881.67	10365.89
881.988	10366.79
882.306	10252.89
882.624	10283.18
882.941	10241.37
883.259	10136.06
883.577	10240.92
883.894	10202.95
884.212	10134.71
884.529	10219.45
884.846	10114.82
885.164	10094.25
885.481	10089.96
885.798	10069.85
886.115	10000.92
886.432	9985.56
886.75	9915.05
887.067	9964.54
887.383	9958.66
887.7	9934.71
888.017	9897.88
888.334	9866.01
888.651	9851.77
888.967	9852.45
889.284	9767.94
889.6	9732.46
889.917	9692.91
890.233	9759.8
890.55	9632.35
890.866	9680.03
891.182	9633.48
891.498	9568.17
891.815	9473.03
892.131	9512.12
892.447	9524.78
892.763	9367.95
893.079	9470.99
893.395	9389.87
893.71	9400.04
894.026	9340.83
894.342	9359.36
894.657	9288.85
894.973	9262.19
895.289	9253.37
895.604	9215.18
895.92	9160.49
896.235	9122.75
896.55	9115.07
896.865	9152.58
897.181	9027.39
897.496	9008.18
897.811	8956.21
898.126	8964.79
898.441	8894.06
898.756	8913.04
899.071	8842.31
899.386	8828.98
899.7	8760.96
900.015	8776.1
900.33	8694.07
900.644	8725.48
900.959	8673.5
901.273	8632.6
901.588	8621.07
901.902	8575.88
902.216	8581.98
902.531	8496.33
902.845	8497.23
903.159	8504.47
903.473	8426.05
903.787	8360.51
904.101	8381.98
904.415	8373.17
904.729	8326.62
905.042	8250.24
905.356	8233.51
905.67	8261.08
905.984	8262.21
906.297	8191.25
906.611	8125.04
906.924	8142.67
907.237	8119.17
907.551	8101.09
907.864	8065.61
908.177	8014.99
908.491	7956.68
908.804	7902.9
909.117	7837.36
909.43	7786.74
909.743	7761.89
910.056	7837.14
910.368	7765.28
910.681	7703.81
910.994	7725.73
911.307	7641.21
911.619	7607.31
911.932	7636.01
912.244	7544.94
912.557	7575.68
912.869	7441.67
913.181	7511.72
913.494	7511.5
913.806	7401.9
914.118	7343.14
914.43	7299.53
914.742	7324.61
915.054	7321.45
915.366	7265.85
915.678	7228.12
915.99	7224.5
916.302	7113.77
916.613	7082.58
916.925	7066.99
917.236	7085.97
917.548	7014.11
917.859	7032.19
918.171	6992.87
918.482	6978.4
918.794	6904.73
919.105	6886.43
919.416	6856.15
919.727	6887.33
920.038	6841.01
920.349	6793.78
920.66	6748.13
920.971	6753.55
921.282	6683.04
921.593	6624.74
921.903	6676.27
922.214	6648.92
922.525	6644.85
922.835	6550.39
923.146	6516.04
923.456	6515.82
923.767	6466.78
924.077	6495.7
924.387	6441.02
924.697	6413.67
925.008	6404.63
925.318	6363.05
925.628	6386.56
925.938	6300
926.248	6212.77
926.558	6220.46
926.867	6250.29
927.177	6223.85
927.487	6152.44
927.796	6084.42
928.106	6063.4
928.416	6072.44
928.725	6054.81
929.034	5998.99
929.344	6001.71
929.653	5994.02
929.962	5978.43
930.271	5913.12
930.581	5880.81
930.89	5872.67
931.199	5820.92
931.508	5828.6
931.817	5842.16
932.125	5748.61
932.434	5765.55
932.743	5709.28
933.051	5687.14
933.36	5654.15
933.669	5591.1
933.977	5589.06
934.286	5578.67
934.594	5577.99
934.902	5547.71
935.21	5542.28
935.519	5511.78
935.827	5495.96
936.135	5442.17
936.443	5421.83
936.751	5386.58
937.059	5446.47
937.367	5369.41
937.674	5376.41
937.982	5297.32
938.29	5271.33
938.597	5309.3
938.905	5218.68
939.213	5242.86
939.52	5243.53
939.827	5222.74
940.135	5166.47
940.442	5128.06
940.749	5163.08
941.056	5077.21
941.363	5083.54
941.67	5070.66
941.977	5053.93
942.284	4965.35
942.591	5015.97
942.898	4974.84
943.205	4945.69
943.511	4945.69
943.818	4933.26
944.125	4875.18
944.431	4869.08
944.738	4848.52
945.044	4858.01
945.35	4793.6
945.657	4801.96
945.963	4717.45
946.269	4698.69
946.575	4736.43
946.881	4693.49
947.187	4691.01
947.493	4641.97
947.799	4620.05
948.105	4644.91
948.41	4584.79
948.716	4638.58
949.022	4555.42
949.327	4575.08
949.633	4486.94
949.938	4507.96
950.244	4485.36
950.549	4458.02
950.854	4422.31
951.16	4395.42
951.465	4413.05
951.77	4398.81
952.075	4342.77
952.38	4353.16
952.685	4342.77
952.99	4279.94
953.294	4292.15
953.599	4259.61
953.904	4267.74
954.209	4237.01
954.513	4253.5
954.818	4171.02
955.122	4165.37
955.426	4157.91
955.731	4178.25
956.035	4120.17
956.339	4130.57
956.643	4064.36
956.948	4038.37
957.252	4073.4
957.556	4034.75
957.86	4016.45
958.163	4062.32
958.467	4006.05
958.771	3988.2
959.075	3952.95
959.378	3930.57
959.682	3898.94
959.985	3919.28
960.289	3897.58
960.592	3835.21
960.896	3846.51
961.199	3825.94
961.502	3808.09
961.805	3773.52
962.108	3734.65
962.411	3774.65
962.714	3756.57
963.017	3733.29
963.32	3764.7
963.623	3666.63
963.926	3681.32
964.228	3651.03
964.531	3676.8
964.833	3641.09
965.136	3557.03
965.438	3569.23
965.741	3566.74
966.043	3587.08
966.345	3558.38
966.648	3514.99
966.95	3532.39
967.252	3494.43
967.554	3492.17
967.856	3480.64
968.158	3443.81
968.46	3406.52
968.761	3428.44
969.063	3424.37
969.365	3414.66
969.666	3402.68
969.968	3380.98
970.269	3366.07
970.571	3345.28
970.872	3329.69
971.174	3310.25
971.475	3320.42
971.776	3286.52
972.077	3289.69
972.378	3222.12
972.679	3256.02
972.98	3212.85
973.281	3176.02
973.582	3200.65
973.883	3199.07
974.183	3228.9
974.484	3160.2
974.785	3187.09
975.085	3142.12
975.386	3134.44
975.686	3130.14
975.986	3077.26
976.287	3054.67
976.587	3046.53
976.887	3061.67
977.187	3025.29
977.487	3045.4
977.787	3025.06
978.087	3000.43
978.387	2998.85
978.687	2988
978.987	2949.58
979.286	2934.67
979.586	2913.2
979.885	2901.9
980.185	2875.01
980.484	2911.17
980.784	2877.95
981.083	2887.21
981.382	2829.36
981.682	2844.05
981.981	2806.08
982.28	2849.93
982.579	2789.59
982.878	2792.3
983.177	2792.53
983.475	2770.61
983.774	2732.87
984.073	2733.54
984.372	2764.05
984.67	2721.11
984.969	2735.13
985.267	2709.36
985.566	2671.62
985.864	2676.37
986.162	2652.64
986.461	2652.19
986.759	2628.01
987.057	2594.79
987.355	2596.37
987.653	2606.77
987.951	2583.72
988.249	2576.94
988.547	2563.15
988.844	2555.92
989.142	2573.55
989.44	2533.32
989.737	2533.55
990.035	2502.36
990.332	2470.5
990.63	2479.09
990.927	2480.44
991.224	2464.85
991.521	2456.94
991.819	2447.22
992.116	2417.62
992.413	2416.04
992.71	2392.76
993.006	2383.5
993.303	2408.35
993.6	2374.91
993.897	2374.68
994.193	2350.05
994.49	2345.76
994.787	2345.53
995.083	2302.37
995.379	2290.62
995.676	2299.66
995.972	2292.2
996.268	2249.49
996.565	2249.49
996.861	2248.36
997.157	2223.27
997.453	2238.19
997.749	2222.37
998.044	2207.68
998.34	2208.36
998.636	2178.53
998.932	2160.9
999.227	2163.62
999.523	2137.85
999.818	2151.64
1000.114	2083.17
1000.409	2112.09
1000.704	2068.93
1001	2083.17
1001.295	2074.13
1001.59	2072.32
1001.885	2063.96
1002.18	2053.79
1002.475	2032.55
1002.77	2041.81
1003.065	2002.04
1003.359	1997.52
1003.654	1993.45
1003.949	1993.45
1004.243	1985.99
1004.538	1951.19
1004.832	1974.47
1005.127	1935.6
1005.421	1944.86
1005.715	1918.88
1006.009	1917.97
1006.304	1882.49
1006.598	1909.38
1006.892	1903.06
1007.186	1858.76
1007.48	1884.07
1007.773	1894.92
1008.067	1837.75
1008.361	1817.41
1008.655	1828.03
1008.948	1795.04
1009.242	1800.01
1009.535	1815.15
1009.829	1774.93
1010.122	1778.77
1010.415	1761.14
1010.708	1749.16
1011.001	1749.16
1011.295	1707.81
1011.588	1725.66
1011.881	1710.97
1012.173	1704.64
1012.466	1701.03
1012.759	1673.91
1013.052	1701.93
1013.344	1668.94
1013.637	1669.62
1013.93	1628.71
1014.222	1648.15
1014.514	1627.13
1014.807	1614.93
1015.099	1568.6
1015.391	1574.25
1015.683	1592.78
1015.976	1567.47
1016.268	1606.34
1016.56	1551.88
1016.851	1571.54
1017.143	1565.44
1017.435	1563.86
1017.727	1508.04
1018.018	1529.73
1018.31	1480.7
1018.602	1487.7
1018.893	1482.5
1019.185	1445.22
1019.476	1473.69
1019.767	1436.63
1020.058	1446.8
1020.35	1428.49
1020.641	1439.34
1020.932	1436.63
1021.223	1424.65
1021.514	1404.99
1021.804	1388.27
1022.095	1385.1
1022.386	1403.86
1022.677	1353.02
1022.967	1353.69
1023.258	1359.34
1023.548	1374.48
1023.839	1339.68
1024.129	1328.84
1024.419	1296.52
1024.709	1275.28
1025	1296.07
1025.29	1306.24
1025.58	1273.7
1025.87	1295.16
1026.16	1259.23
1026.449	1256.52
1026.739	1221.04
1027.029	1231.89
1027.319	1235.28
1027.608	1220.82
1027.898	1212.91
1028.187	1205.67
1028.477	1208.61
1028.766	1184.66
1029.055	1184.43
1029.344	1184.66
1029.634	1173.36
1029.923	1160.7
1030.212	1155.51
1030.501	1165.68
1030.79	1165.22
1031.078	1144.89
1031.367	1101.5
1031.656	1136.75
1031.945	1082.51
1032.233	1082.74
1032.522	1107.15
1032.81	1087.26
1033.099	1068.73
1033.387	1045.45
1033.675	1052.01
1033.963	1053.14
1034.251	1041.61
1034.54	1036.87
1034.828	1026.7
1035.116	1038.67
1035.403	1015.4
1035.691	1021.27
1035.979	1008.17
1036.267	998.45
1036.554	993.02
1036.842	973.82
1037.129	1008.62
1037.417	990.31
1037.704	974.27
1037.992	999.58
1038.279	976.53
1038.566	936.98
1038.853	936.98
1039.14	936.98
