Data from hue_24_FLMS001491_00095.txt Node
Date: Tue Feb 07 17:13:01 GMT 2017
User: dcchb
Spectrometer: FLMS00149
Trigger mode: 0
Integration Time (sec): 2.000000E-2
Scans to average: 10
Electric dark correction enabled: true
Nonlinearity correction enabled: false
Boxcar width: 0
XAxis mode: Wavelengths
Number of Pixels in Spectrum: 2048
>>>>>Begin Spectral Data<<<<<
341.393	-8.63
341.776	-8.63
342.16	-8.63
342.543	-34.62
342.927	-53.6
343.31	-63.32
343.693	-72.13
344.077	-46.14
344.46	-66.03
344.843	-71.45
345.226	-44.79
345.61	-18.57
345.993	-17.67
346.376	-17.9
346.759	4.25
347.142	5.61
347.525	60.97
347.908	52.84
348.291	91.03
348.674	101.42
349.057	101.88
349.44	136.23
349.823	145.94
350.206	179.84
350.588	193.4
350.971	215.55
351.354	226.62
351.737	234.75
352.119	258.26
352.502	262.1
352.884	275.43
353.267	282.44
353.65	302.1
354.032	304.36
354.414	319.72
354.797	328.99
355.179	336.22
355.562	337.12
355.944	341.64
356.326	357.46
356.709	336.9
357.091	339.38
357.473	330.8
357.855	368.54
358.238	346.16
358.62	365.15
359.002	351.59
359.384	340.51
359.766	345.71
360.148	347.97
360.53	366.5
360.912	346.16
361.294	342.77
361.676	345.26
362.057	357.01
362.439	336.45
362.821	320.85
363.203	339.84
363.584	331.25
363.966	331.7
364.348	343.23
364.729	353.62
365.111	334.41
365.493	339.16
365.874	356.33
366.256	326.5
366.637	314.75
367.019	341.42
367.4	339.38
367.781	347.52
368.163	345.94
368.544	314.75
368.925	327.63
369.306	350
369.688	338.93
370.069	355.43
370.45	337.35
370.831	355.43
371.212	344.58
371.593	330.12
371.974	327.18
372.355	358.14
372.736	344.81
373.117	330.34
373.498	364.47
373.879	350.91
374.26	326.5
374.641	333.51
375.021	338.25
375.402	333.73
375.783	331.25
376.163	371.93
376.544	353.17
376.925	343.45
377.305	359.95
377.686	342.32
378.066	345.71
378.447	344.36
378.827	353.62
379.208	334.86
379.588	352.72
379.968	345.94
380.349	372.38
380.729	354.07
381.109	367.86
381.489	355.43
381.87	353.62
382.25	366.95
382.63	362.43
383.01	356.56
383.39	382.09
383.77	349.1
384.15	367.18
384.53	372.83
384.91	373.06
385.29	364.02
385.67	371.47
386.049	378.48
386.429	383
386.809	388.2
387.189	387.52
387.568	371.25
387.948	374.64
388.328	381.64
388.707	384.81
389.087	402.43
389.466	401.75
389.846	383.68
390.225	412.38
390.605	406.05
390.984	409.89
391.363	429.32
391.743	413.96
392.122	383.22
392.501	399.04
392.881	410.79
393.26	404.69
393.639	419.61
394.018	407.4
394.397	415.09
394.776	444.92
395.155	425.48
395.534	431.36
395.913	447.63
396.292	430
396.671	428.19
397.05	431.81
397.429	424.81
397.808	453.28
398.186	426.61
398.565	443.56
398.944	442.88
399.323	440.85
399.701	434.3
400.08	441.98
400.458	444.92
400.837	448.53
401.215	452.15
401.594	454.63
401.972	454.63
402.351	463.22
402.729	467.97
403.107	451.7
403.486	474.3
403.864	476.1
404.242	467.06
404.62	488.31
404.999	478.82
405.377	492.83
405.755	475.43
406.133	483.56
406.511	494.86
406.889	483.56
407.267	491.92
407.645	479.95
408.023	494.41
408.401	515.42
408.779	495.09
409.156	507.97
409.534	507.06
409.912	526.05
410.29	523.33
410.667	510.68
411.045	517.46
411.422	531.47
411.8	526.95
412.178	559.26
412.555	544.35
412.933	560.17
413.31	530.79
413.687	554.29
414.065	555.42
414.442	567.17
414.819	587.06
415.197	575.08
415.574	565.82
415.951	589.09
416.328	598.13
416.705	566.95
417.082	588.42
417.46	603.56
417.837	589.32
418.214	592.48
418.591	611.24
418.967	590.45
419.344	615.76
419.721	614.86
420.098	620.73
420.475	617.79
420.852	628.64
421.228	641.3
421.605	648.3
421.982	641.07
422.358	646.27
422.735	643.1
423.111	648.98
423.488	667.06
423.864	654.63
424.241	674.29
424.617	677.23
424.994	662.99
425.37	677.45
425.746	675.87
426.123	665.25
426.499	682.65
426.875	717.45
427.251	691.01
427.627	723.1
428.003	706.15
428.379	700.28
428.756	708.19
429.132	751.58
429.507	757
429.883	747.96
430.259	749.32
430.635	745.02
431.011	742.99
431.387	750.22
431.763	789.77
432.138	785.93
432.514	788.41
432.89	805.36
433.265	821.63
433.641	843.55
434.016	847.17
434.392	839.03
434.767	863.66
435.143	845.81
435.518	871.57
435.894	867.28
436.269	907.28
436.644	855.53
437.02	875.64
437.395	901.63
437.77	878.58
438.145	926.71
438.52	907.28
438.895	900.27
439.271	949.76
439.646	951.12
440.021	946.15
440.395	969.65
440.77	961.74
441.145	954.96
441.52	975.53
441.895	963.32
442.27	973.04
442.645	974.85
443.019	1000.61
443.394	982.76
443.769	1006.71
444.143	1011.68
444.518	1018.91
444.892	1011
445.267	1042.64
445.641	1025.47
446.016	1030.21
446.39	1036.99
446.764	1056.2
447.139	1051.46
447.513	1079.03
447.887	1076.31
448.262	1064.79
448.636	1060.49
449.01	1087.39
449.384	1081.06
449.758	1093.04
450.132	1137.55
450.506	1117.44
450.88	1133.04
451.254	1151.11
451.628	1147.5
452.002	1142.07
452.376	1165.58
452.75	1165.8
453.123	1181.85
453.497	1211.23
453.871	1216.2
454.244	1245.57
454.618	1222.07
454.992	1238.12
455.365	1258.91
455.739	1276.53
456.112	1295.74
456.486	1294.39
456.859	1314.05
457.232	1323.76
457.606	1321.73
457.979	1341.17
458.352	1353.37
458.725	1373.48
459.099	1416.42
459.472	1433.37
459.845	1415.06
460.218	1457.32
460.591	1446.93
460.964	1458.9
461.337	1460.03
461.71	1511.1
462.083	1511.33
462.456	1524.21
462.829	1554.49
463.201	1565.11
463.574	1562.85
463.947	1595.4
464.32	1618.45
464.692	1647.82
465.065	1655.73
465.438	1695.51
465.81	1697.54
466.183	1737.09
466.555	1737.31
466.928	1766.69
467.3	1752.68
467.672	1805.33
468.045	1811.21
468.417	1868.84
468.789	1831.55
469.161	1835.16
469.534	1904.31
469.906	1923.75
470.278	1944.54
470.65	2008.72
471.022	2019.11
471.394	2039.45
471.766	2077.64
472.138	2110.18
472.51	2117.19
472.882	2180.01
473.253	2186.11
473.625	2230.41
473.997	2278.99
474.369	2277.19
474.74	2331.65
475.112	2381.14
475.484	2431.08
475.855	2452.77
476.227	2475.82
476.598	2543.85
476.97	2570.96
477.341	2644.18
477.713	2647.12
478.084	2678.98
478.455	2791.97
478.827	2805.08
479.198	2896.38
479.569	2856.15
479.94	2978.86
480.311	3015.47
480.682	3116.49
481.053	3152.87
481.424	3200.1
481.795	3270.83
482.166	3309.93
482.537	3337.72
482.908	3430.15
483.279	3424.73
483.65	3528.9
484.021	3609.13
484.391	3682.57
484.762	3703.82
485.133	3775.68
485.503	3822.23
485.874	3898.16
486.244	3995.56
486.615	4044.37
486.985	4080.75
487.356	4137.02
487.726	4170.47
488.097	4318.04
488.467	4313.06
488.837	4448.88
489.207	4456.56
489.578	4539.5
489.948	4604.58
490.318	4693.17
490.688	4717.12
491.058	4789.89
491.428	4866.5
491.798	4883.22
492.168	4989.88
492.538	5037.11
492.908	5134.06
493.278	5173.15
493.648	5207.28
494.017	5236.66
494.387	5294.73
494.757	5396.88
495.126	5446.82
495.496	5444.56
495.866	5540.38
496.235	5584.67
496.605	5640.04
496.974	5699.92
497.344	5715.51
497.713	5795.74
498.082	5839.8
498.452	5838.9
498.821	5887.94
499.19	5946.69
499.559	6026.92
499.928	6065.79
500.298	6055.39
500.667	6174.26
501.036	6130.64
501.405	6233.92
501.774	6175.61
502.143	6305.1
502.512	6320.02
502.88	6429.17
503.249	6433.91
503.618	6459.9
503.987	6541.25
504.356	6546.45
504.724	6565.66
505.093	6578.99
505.462	6667.35
505.83	6692.21
506.199	6766.79
506.567	6819.89
506.936	6753
507.304	6879.78
507.672	6862.38
508.041	6959.32
508.409	6995.03
508.777	7046.33
509.145	7088.58
509.514	7076.16
509.882	7111.41
510.25	7144.85
510.618	7184.85
510.986	7192.31
511.354	7272.31
511.722	7293.78
512.09	7364.06
512.458	7340.1
512.826	7477.95
513.193	7482.7
513.561	7464.62
513.929	7534
514.297	7656.25
514.664	7628.68
515.032	7658.51
515.4	7717.04
515.767	7755.01
516.135	7821.67
516.502	7723.37
516.869	7846.76
517.237	7963.82
517.604	7911.61
517.972	7883.37
518.339	8026.41
518.706	7978.5
519.073	8051.95
519.44	8143.7
519.808	8182.57
520.175	8114.32
520.542	8249.46
520.909	8248.33
521.276	8306.18
521.643	8385.73
522.009	8387.76
522.376	8483.58
522.743	8521.99
523.11	8623.91
523.477	8624.36
523.843	8732.84
524.21	8841.53
524.577	8781.87
524.943	8890.35
525.31	8896.45
525.676	8975.99
526.043	9062.54
526.409	9015.77
526.776	9093.73
527.142	9280.84
527.508	9231.35
527.874	9288.3
528.241	9299.37
528.607	9315.64
528.973	9397.22
529.339	9470.44
529.705	9548.63
530.071	9618.69
530.437	9603.32
530.803	9674.73
531.169	9709.98
531.535	9743.43
531.901	9825.69
532.267	9779.14
532.632	9869.98
532.998	9841.05
533.364	9979.81
533.73	10074.27
534.095	10128.28
534.461	10116.98
534.826	10189.07
535.192	10209.63
535.557	10310.42
535.923	10302.96
536.288	10319.46
536.653	10419.57
537.019	10356.52
537.384	10454.82
537.749	10459.8
538.114	10517.42
538.479	10446.01
538.845	10622.28
539.21	10604.2
539.575	10685.55
539.94	10728.04
540.305	10800.8
540.67	10771.88
541.034	10830.18
541.399	10880.8
541.764	10907.47
542.129	10947.47
542.494	11012.1
542.858	11087.35
543.223	11104.52
543.587	11223.84
543.952	11129.83
544.316	11286.67
544.681	11208.25
545.045	11286.44
545.41	11431.07
545.774	11432.65
546.138	11448.47
546.503	11482.14
546.867	11512.42
547.231	11654.57
547.595	11626.54
547.959	11691.18
548.324	11638.75
548.688	11638.75
549.052	11703.38
549.416	11776.6
549.779	11871.96
550.143	11887.55
550.507	11925.52
550.871	11946.08
551.235	12077.83
551.599	12121.67
551.962	12141.79
552.326	12092.97
552.689	12151.5
553.053	12184.5
553.417	12238.28
553.78	12400.54
554.143	12275.34
554.507	12360.08
554.87	12455.68
555.234	12500.19
555.597	12483.25
555.96	12542.9
556.323	12633.98
556.686	12680.98
557.05	12689.57
557.413	12630.36
557.776	12797.14
558.139	12800.53
558.502	12853.4
558.865	12906.96
559.228	13006.4
559.59	13053.4
559.953	13050.24
560.316	13160.74
560.679	13233.28
561.041	13200.06
561.404	13359.15
561.767	13418.59
562.129	13324.58
562.492	13514.18
562.854	13441.19
563.217	13508.3
563.579	13565.25
563.941	13612.48
564.304	13673.04
564.666	13841.4
565.028	13731.57
565.39	13806.37
565.753	13895.86
566.115	13996.43
566.477	14048.4
566.839	14001.17
567.201	14140.6
567.563	14068.74
567.925	14216.76
568.287	14179.47
568.648	14299.47
569.01	14341.28
569.372	14477.09
569.734	14373.14
570.095	14583.98
570.457	14523.19
570.819	14587.37
571.18	14601.61
571.542	14732.9
571.903	14765.45
572.265	14897.19
572.626	14980.13
572.987	15036.85
573.349	15103.97
573.71	15077.08
574.071	15139.67
574.432	15286.34
574.794	15375.15
575.155	15370.17
575.516	15509.83
575.877	15534.24
576.238	15607
576.599	15768.13
576.96	15751.41
577.32	15838.19
577.681	15992.08
578.042	16137.16
578.403	16187.33
578.763	16325.18
579.124	16441.79
579.485	16619.41
579.845	16695.79
580.206	16735.56
580.566	16936.69
580.927	17018.72
581.287	17317.02
581.648	17391.59
582.008	17555.2
582.368	17674.52
582.728	17867.06
583.089	18047.62
583.449	18170.33
583.809	18350.89
584.169	18586.36
584.529	18774.15
584.889	19100.47
585.249	19075.61
585.609	19263.63
585.969	19673.56
586.329	19794.69
586.688	19978.87
587.048	20354.9
587.408	20474.22
587.768	20797.38
588.127	21017.03
588.487	21264.26
588.846	21586.28
589.206	21745.37
589.565	22104.69
589.925	22392.82
590.284	22601.62
590.643	22988.05
591.003	23364.77
591.362	23790.74
591.721	24174.24
592.08	24323.16
592.44	24672.08
592.799	24906.87
593.158	25227.77
593.517	25642.45
593.876	26009.44
594.235	26274.75
594.593	26588.64
594.952	27047.83
595.311	27273.36
595.67	27741.38
596.029	28176.62
596.387	28559.43
596.746	28929.82
597.104	29053.66
597.463	29314.89
597.822	29841.43
598.18	30066.06
598.538	30546.95
598.897	31068.52
599.255	31136.99
599.613	31763.64
599.972	31904.2
600.33	32522.72
600.688	32642.94
601.046	33148.92
601.404	33451.51
601.762	33699.86
602.12	34273.86
602.478	34532.38
602.836	34795.43
603.194	34945.03
603.552	35433.6
603.91	35577.33
604.268	36111.55
604.625	36413.01
604.983	36711.76
605.341	36913.79
605.698	37260.67
606.056	37718.06
606.413	37977.49
606.771	38376.58
607.128	38587.87
607.485	38763.46
607.843	39059.95
608.2	39511.91
608.557	39885.46
608.914	39998.23
609.272	40398.67
609.629	40617.65
609.986	41053.12
610.343	41077.75
610.7	41520.45
611.057	41663.72
611.414	41869.37
611.771	42084.95
612.127	42465.96
612.484	42637.25
612.841	43001.54
613.198	42941.88
613.554	43175.32
613.911	43644.46
614.267	43787.28
614.624	43837.68
614.98	44187.27
615.337	44536.41
615.693	44626.35
616.05	44787.03
616.406	45169.39
616.762	45091.88
617.118	45169.62
617.475	45458.42
617.831	45672.66
618.187	45902.48
618.543	46151.96
618.899	46405.74
619.255	46307.89
619.611	46487.55
619.967	46793.08
620.323	46964.82
620.678	46854.09
621.034	46916.46
621.39	47119.17
621.746	47124.14
622.101	47749.66
622.457	47530.46
622.812	47698.36
623.168	47843.22
623.523	47848.42
623.879	48131.8
624.234	47908.75
624.589	48164.34
624.945	48285.69
625.3	48470.55
625.655	48369.99
626.01	48501.73
626.365	48613.37
626.72	48618.57
627.075	48578.79
627.43	48781.95
627.785	48778.11
628.14	48937.88
628.495	48908.73
628.85	48950.31
629.205	48978.56
629.559	49153.02
629.914	49059.01
630.269	49164.99
630.623	49133.13
630.978	49100.36
631.332	49174.26
631.687	49348.04
632.041	49256.74
632.396	49383.74
632.75	49264.2
633.104	49265.33
633.459	49240.02
633.813	49142.85
634.167	49353.91
634.521	49384.65
634.875	49484.76
635.229	49409.05
635.583	49293.35
635.937	49413.8
636.291	49281.83
636.645	49377.87
636.999	49198.89
637.352	49460.35
637.706	49279.57
638.06	49337.87
638.413	49245.44
638.767	49124.09
639.121	49346
639.474	49154.37
639.828	49272.11
640.181	49254.26
640.534	49252.9
640.888	49209.74
641.241	48947.6
641.594	48992.57
641.947	49301.94
642.301	49196.63
642.654	49166.12
643.007	49294.25
643.36	49154.6
643.713	49146.91
644.066	49242.05
644.419	49014.49
644.771	48819.46
645.124	48514.61
645.477	48296.99
645.83	48286.15
646.182	48146.49
646.535	48050.9
646.888	48182.42
647.24	47936.78
647.593	48115.3
647.945	47969.09
648.298	47951.01
648.65	47908.08
649.002	47840.96
649.355	47824.46
649.707	47934.74
650.059	48018.81
650.411	48525.01
650.763	48560.26
651.115	48976.97
651.467	48788.73
651.819	48846.13
652.171	48726.59
652.523	48676.19
652.875	48763.87
653.227	48525.69
653.578	48779.47
653.93	48744.44
654.282	48550.55
654.633	48487.72
654.985	48548.51
655.337	48633.26
655.688	48606.36
656.039	48796.87
656.391	48454.28
656.742	48627.38
657.094	48471.23
657.445	48703.54
657.796	48508.51
658.147	48512.81
658.498	48487.5
658.849	48445.01
659.2	48442.98
659.551	48362.98
659.902	48534.05
660.253	48492.92
660.604	48454.5
660.955	48163.66
661.306	48487.27
661.656	48412.02
662.007	48406.14
662.358	48380.15
662.708	48464.22
663.059	48391.23
663.409	48171.8
663.76	48432.13
664.11	48385.8
664.461	48414.5
664.811	48277.56
665.161	48325.01
665.511	48264.23
665.862	48403.88
666.212	48369.99
666.562	48389.19
666.912	48185.36
667.262	48208.86
667.612	48267.39
667.962	48369.31
668.312	48419.02
668.662	48503.54
669.011	48305.58
669.361	48158.01
669.711	48169.54
670.06	48204.57
670.41	48101.29
670.76	48125.02
671.109	48198.24
671.459	48088.41
671.808	48180.61
672.157	48308.52
672.507	47908.53
672.856	47936.78
673.205	48144.68
673.554	48315.98
673.904	47944.01
674.253	48310.55
674.602	48080.5
674.951	47501.99
675.3	47413.4
675.649	47988.07
675.998	47836.21
676.346	47912.37
676.695	48099.26
677.044	47666.05
677.393	47900.85
677.741	47894.74
678.09	47819.27
678.438	47719.38
678.787	47720.51
679.135	47824.24
679.484	47485.49
679.832	47617.91
680.181	47473.74
680.529	47496.56
680.877	47445.04
681.225	47408.43
681.573	47598.93
681.922	47306.06
682.27	47133.86
682.618	47289.79
682.966	47130.7
683.314	47104.71
683.661	47143.58
684.009	46979.74
684.357	46760.99
684.705	46715.11
685.053	46991.26
685.4	46773.87
685.748	46591.95
686.095	46682.57
686.443	46456.59
686.79	46408
687.138	46497.27
687.485	46499.3
687.832	46313.32
688.18	46415.01
688.527	46106.77
688.874	46065.19
689.221	46150.61
689.568	46073.77
689.915	45857.73
690.262	45899.54
690.609	45780.22
690.956	45798.53
691.303	45538.65
691.65	45500.46
691.997	45377.75
692.344	45243.29
692.69	45144.53
693.037	45155.83
693.383	44759.01
693.73	44958.1
694.077	44643.98
694.423	44680.59
694.769	44643.53
695.116	44395.17
695.462	44384.33
695.808	44208.29
696.155	44395.17
696.501	44062.3
696.847	43937.11
697.193	43776.21
697.539	43911.35
697.885	43573.5
698.231	43450.57
698.577	43503.67
698.923	43520.17
699.269	43339.61
699.614	43214.41
699.96	43126.96
700.306	42991.37
700.651	42918.38
700.997	42880.64
701.342	42804.26
701.688	42646.07
702.033	42660.08
702.379	42495.79
702.724	42415.11
703.069	42399.29
703.415	41919.08
703.76	42173.09
704.105	42214.89
704.45	41966.54
704.795	41788.69
705.14	41695.81
705.485	41699.2
705.83	41433.9
706.175	41525.42
706.52	41523.16
706.865	41198.42
707.209	41210.85
707.554	41105.54
707.899	41186.67
708.243	40963.17
708.588	40872.78
708.932	40655.39
709.277	40570.64
709.621	40676.63
709.966	40338.78
710.31	40526.12
710.654	39991.45
710.998	40257.66
711.342	40255.62
711.687	40165
712.031	39872.13
712.375	39918.91
712.719	39885.91
713.063	39811.34
713.407	39848.63
713.75	39686.82
714.094	39639.14
714.438	39361.86
714.782	39455.42
715.125	39303.56
715.469	39501.97
715.812	39153.5
716.156	38999.84
716.499	39000.06
716.843	39070.57
717.186	38732.27
717.53	39029.89
717.873	39029.44
718.216	38848.88
718.559	38727.07
718.902	38434.2
719.246	38561.43
719.589	38339.06
719.932	38275.79
720.275	38249.35
720.617	38291.83
720.96	38062.69
721.303	38217.71
721.646	38169.58
721.989	37988.79
722.331	38143.81
722.674	37880.54
723.016	37897.94
723.359	37795.8
723.701	37782.69
724.044	37528.46
724.386	37376.15
724.729	37664.28
725.071	37403.95
725.413	37514.23
725.755	37381.8
726.097	37190.17
726.439	37008.93
726.782	37079.89
727.124	37272.65
727.465	37006.44
727.807	36921.47
728.149	36777.75
728.491	36856.84
728.833	36873.34
729.175	36808.48
729.516	36733
729.858	36682.83
730.199	36711.31
730.541	36671.76
730.882	36538.88
731.224	36690.52
731.565	36300.47
731.906	36523.74
732.248	36300.25
732.589	36110.65
732.93	36040.14
733.271	36129.4
733.612	36078.33
733.953	36293.47
734.294	36024.1
734.635	35820.03
734.976	35965.11
735.317	35713.82
735.658	35813.93
735.999	35713.59
736.339	35597.67
736.68	35771.45
737.021	35659.36
737.361	35552.47
737.702	35657.1
738.042	35477.89
738.383	35263.66
738.723	35476.76
739.063	35445.81
739.404	35424.11
739.744	35300.72
740.084	35205.13
740.424	35309.99
740.764	35279.71
741.104	35190.9
741.444	35047.17
741.784	34781.19
742.124	34967.63
742.464	35043.1
742.804	34878.14
743.143	34693.73
743.483	34749.78
743.823	34677.24
744.162	34716.11
744.502	34621.65
744.841	34416.45
745.181	34502.78
745.52	34364.7
745.86	34313.86
746.199	34356.79
746.538	34242.45
746.877	34349.56
747.216	34368.77
747.556	34321.77
747.895	34305.04
748.234	34087.65
748.573	33968.78
748.911	33995.9
749.25	33978.95
749.589	33867.77
749.928	33912.51
750.267	34003.13
750.605	33656.25
750.944	33851.5
751.283	33596.36
751.621	33700.77
751.96	33525.4
752.298	33469.59
752.636	33534.22
752.975	33359.53
753.313	33222.81
753.651	33268.01
753.989	33034.12
754.327	33024.4
754.666	32970.39
755.004	33017.85
755.342	32945.08
755.679	32858.98
756.017	32651.08
756.355	32883.39
756.693	32644.97
757.031	32560.46
757.368	32456.51
757.706	32361.59
758.044	32313.46
758.381	32411.53
758.719	32311.65
759.056	32302.39
759.394	32170.86
759.731	31969.29
760.068	31920.93
760.405	31855.62
760.743	31568.62
761.08	31786.01
761.417	31480.49
761.754	31473.71
762.091	31431
762.428	31325.46
762.765	31162.98
763.102	31302.19
763.438	31088.41
763.775	30876.89
764.112	30922.08
764.449	30979.03
764.785	30804.57
765.122	30613.62
765.458	30424.02
765.795	30499.95
766.131	30417.24
766.467	30416.33
766.804	30169.56
767.14	30201.65
767.476	30110.58
767.812	29899.28
768.148	29934.54
768.485	29716.24
768.821	29622
769.157	29481.89
769.492	29483.93
769.828	29487.77
770.164	29166.2
770.5	29110.83
770.836	29216.82
771.171	28899.76
771.507	28879.88
771.842	28672.42
772.178	28675.59
772.513	28627
772.849	28457.74
773.184	28373.67
773.519	28254.58
773.855	28225.88
774.19	28094.81
774.525	28017.53
774.86	28064.76
775.195	27927.58
775.53	27852.11
775.865	27593.36
776.2	27416.19
776.535	27379.58
776.87	27232.01
777.205	27133.93
777.539	27132.8
777.874	27087.16
778.209	26841.29
778.543	26878.35
778.878	26606.94
779.212	26629.77
779.547	26515.19
779.881	26554.74
780.215	26435.19
780.55	26389.55
780.884	26189.78
781.218	26176.22
781.552	26118.82
781.886	25918.37
782.22	25815.32
782.554	25773.97
782.888	25585.05
783.222	25593.63
783.556	25403.58
783.889	25309.12
784.223	25180.31
784.557	25084.95
784.89	25127.21
785.224	25036.59
785.557	24916.82
785.891	24679.76
786.224	24761.34
786.558	24641.8
786.891	24340.11
787.224	24426.43
787.557	24348.7
787.891	24202.94
788.224	24199.1
788.557	24264.86
788.89	24175.82
789.223	24047.69
789.556	23960.46
789.888	23829.61
790.221	23809.05
790.554	23571.32
790.887	23644.53
791.219	23414.03
791.552	23476.4
791.884	23336.52
792.217	23201.61
792.549	23139.46
792.882	23035.96
793.214	22925.68
793.546	23060.82
793.879	22865.8
794.211	22586.93
794.543	22658.57
794.875	22609.98
795.207	22594.62
795.539	22551.91
795.871	22572.02
796.203	22256.32
796.535	22098.59
796.867	22120.51
797.198	22135.19
797.53	22023.11
797.862	22013.16
798.193	21950.11
798.525	21826.95
798.856	21808.42
799.188	21648.2
799.519	21525.49
799.85	21486.85
800.182	21491.6
800.513	21421.77
800.844	21198.72
801.175	21373.86
801.506	21375.21
801.837	21209.57
802.168	21083.02
802.499	21009.35
802.83	20929.8
803.161	20867.43
803.491	20834.21
803.822	20883.7
804.153	20722.8
804.483	20602.13
804.814	20489.59
805.145	20453.66
805.475	20430.15
805.805	20339.54
806.136	20335.02
806.466	20360.78
806.796	20198.07
807.126	20126.89
807.457	20175.7
807.787	20161.24
808.117	19936.16
808.447	19961.01
808.777	20022.71
809.107	19925.08
809.436	19796.05
809.766	19701.13
810.096	19753.34
810.426	19528.26
810.755	19587.69
811.085	19568.48
811.414	19581.59
811.744	19400.58
812.073	19281.48
812.403	19340.47
812.732	19241.94
813.061	19268.38
813.39	19181.37
813.719	19105.44
814.049	19159.45
814.378	19074.71
814.707	19016.86
815.036	18919.69
815.365	18856.64
815.693	18738.67
816.022	18775.51
816.351	18644.44
816.68	18595.85
817.008	18607.38
817.337	18477.44
817.665	18447.38
817.994	18404.22
818.322	18437.66
818.651	18393.37
818.979	18316.54
819.307	18316.09
819.636	18321.28
819.964	18144.79
820.292	18214.39
820.62	18147.5
820.948	18076.54
821.276	18131.23
821.604	18005.59
821.932	18115.87
822.259	18123.77
822.587	18082.19
822.915	17994.96
823.243	18038.58
823.57	17942.99
823.898	18025.47
824.225	18043.1
824.553	17994.96
824.88	18080.39
825.207	18107.05
825.535	18009.2
825.862	18045.58
826.189	17930.11
826.516	18013.72
826.843	18001.29
827.17	18034.51
827.497	18034.06
827.824	18014.4
828.151	17976.66
828.478	17984.8
828.805	18013.72
829.131	17967.17
829.458	17963.33
829.785	17936.66
830.111	17941.63
830.438	18027.51
830.764	17931.46
831.09	17986.83
831.417	17863.67
831.743	17964.91
832.069	17869.77
832.395	17806.95
832.722	18028.41
833.048	17794.97
833.374	17940.73
833.7	17758.36
834.026	17883.1
834.351	17855.53
834.677	17739.83
835.003	17777.34
835.329	17732.6
835.654	17766.5
835.98	17627.52
836.306	17687.85
836.631	17717.46
836.956	17718.81
837.282	17682.2
837.607	17592.04
837.932	17517.24
838.258	17503
838.583	17482.44
838.908	17348.88
839.233	17492.61
839.558	17418.71
839.883	17332.84
840.208	17255.1
840.533	17251.71
840.858	17322.44
841.182	17223.69
841.507	17238.83
841.832	17108.89
842.156	17087.19
842.481	17169.45
842.805	17072.73
843.13	16989.34
843.454	16943.01
843.778	16830.7
844.103	16858.5
844.427	16799.52
844.751	16858.72
845.075	16699.41
845.399	16726.3
845.723	16595.23
846.047	16635
846.371	16364.5
846.695	16476.13
847.019	16354.78
847.343	16322.69
847.666	16234.11
847.99	16117.27
848.313	16122.02
848.637	15976.49
848.96	16001.8
849.284	15882.7
849.607	15753.22
849.931	15772.88
850.254	15691.3
850.577	15592.54
850.9	15565.65
851.223	15494.69
851.546	15377.63
851.869	15365.66
852.192	15413.11
852.515	15186.68
852.838	15155.04
853.161	15212.21
853.483	15115.04
853.806	15054.03
854.129	15022.61
854.451	14954.14
854.774	14905.78
855.096	14864.65
855.419	14819.23
855.741	14760.02
856.063	14779.68
856.385	14755.73
856.708	14683.19
857.03	14648.16
857.352	14609.74
857.674	14506.24
857.996	14429.86
858.318	14454.94
858.64	14437.54
858.961	14394.16
859.283	14292.01
859.605	14231
859.926	14197.32
860.248	14175.86
860.57	14208.85
860.891	14167.72
861.212	14083.2
861.534	14007.95
861.855	13941.96
862.176	13898.35
862.498	13897.45
862.819	13892.02
863.14	13876.43
863.461	13840.95
863.782	13833.94
864.103	13841.63
864.424	13742.65
864.745	13794.4
865.065	13706.94
865.386	13625.81
865.707	13671.69
866.027	13600.73
866.348	13571.13
866.668	13611.13
866.989	13543.1
867.309	13431.24
867.63	13496.78
867.95	13639.37
868.27	13482.77
868.59	13473.05
868.91	13457.23
869.23	13433.05
869.55	13349.21
869.87	13419.72
870.19	13344.69
870.51	13341.75
870.83	13357.35
871.15	13242.77
871.469	13304.01
871.789	13299.95
872.109	13302.88
872.428	13196.9
872.748	13087.52
873.067	13151.02
873.386	13168.65
873.706	13104.02
874.025	13032.84
874.344	12951.48
874.663	13030.35
874.982	12990.58
875.301	12958.94
875.62	12990.8
875.939	12906.96
876.258	12903.35
876.577	12902.44
876.896	12851.82
877.214	12811.37
877.533	12792.84
877.852	12844.59
878.17	12806.4
878.489	12760.75
878.807	12695.89
879.125	12702.22
879.444	12663.81
879.762	12684.6
880.08	12655.22
880.398	12563.7
880.716	12585.39
881.034	12579.51
881.352	12569.12
881.67	12519.63
881.988	12518.05
882.306	12503.13
882.624	12417.71
882.941	12376.81
883.259	12296.81
883.577	12359.86
883.894	12311.27
884.212	12316.02
884.529	12250.03
884.846	12283.7
885.164	12157.15
885.481	12162.12
885.798	12228.56
886.115	12052.07
886.432	12083.71
886.75	12074.89
887.067	12069.92
887.383	12119.86
887.7	12042.13
888.017	12002.81
888.334	12011.17
888.651	11957.16
888.967	11982.69
889.284	11852.08
889.6	11806.2
889.917	11680.1
890.233	11798.97
890.55	11641.46
890.866	11676.26
891.182	11651.18
891.498	11575.47
891.815	11571.86
892.131	11542.25
892.447	11462.26
892.763	11433.1
893.079	11432.43
893.395	11302.26
893.71	11369.38
894.026	11359.66
894.342	11260.9
894.657	11234.46
894.973	11205.99
895.289	11160.79
895.604	11128.48
895.92	11042.38
896.235	11058.88
896.55	11001.93
896.865	11053.68
897.181	10981.82
897.496	10925.77
897.811	10855.72
898.126	10807.13
898.441	10794.48
898.756	10784.53
899.071	10738.43
899.386	10721.94
899.7	10629.96
900.015	10574.37
900.33	10542.73
900.644	10456.41
900.959	10531.88
901.273	10443.07
901.588	10449.85
901.902	10409.85
902.216	10355.39
902.531	10341.83
902.845	10282.85
903.159	10185
903.473	10182.51
903.787	10161.72
904.101	10039.02
904.415	10113.59
904.729	10083.08
905.042	10065.23
905.356	9981.16
905.67	9959.47
905.984	9936.65
906.297	9858.23
906.611	9848.06
906.924	9823.2
907.237	9774.16
907.551	9780.72
907.864	9678.57
908.177	9672.47
908.491	9665.69
908.804	9535.75
909.117	9524.45
909.43	9495.98
909.743	9395.19
910.056	9315.64
910.368	9479.03
910.681	9342.76
910.994	9376.66
911.307	9342.54
911.619	9159.72
911.932	9151.58
912.244	9180.96
912.557	9111.58
912.869	9060.06
913.181	9034.97
913.494	9025.26
913.806	8986.16
914.118	8929.21
914.43	8923.34
914.742	8877.69
915.054	8840.18
915.366	8824.13
915.678	8733.97
915.99	8765.83
916.302	8647.87
916.613	8666.17
916.925	8602.9
917.236	8626.62
917.548	8535.55
917.859	8524.25
918.171	8489.9
918.482	8436.12
918.794	8440.19
919.105	8340.98
919.416	8251.04
919.727	8304.37
920.038	8319.96
920.349	8203.81
920.66	8201.32
920.971	8177.14
921.282	8127.65
921.593	8041.1
921.903	8011.27
922.214	8047.2
922.525	7959.3
922.835	7984.83
923.146	7935.79
923.456	7891.05
923.767	7790.94
924.077	7720.21
924.387	7769.47
924.697	7680.43
925.008	7696.93
925.318	7623.03
925.628	7619.42
925.938	7576.26
926.248	7531.51
926.558	7459.65
926.867	7536.48
927.177	7490.38
927.487	7411.51
927.796	7328.8
928.106	7313.21
928.416	7353.44
928.725	7301.69
929.034	7238.86
929.344	7282.7
929.653	7256.26
929.962	7128.36
930.271	7133.56
930.581	7094.69
930.89	7056.27
931.199	7025.99
931.508	7042.48
931.817	7004.07
932.125	7007.91
932.434	6933.79
932.743	6853.79
933.051	6803.39
933.36	6825.09
933.669	6806.78
933.977	6808.14
934.286	6766.33
934.594	6770.85
934.902	6674.36
935.21	6665.55
935.519	6705.09
935.827	6608.15
936.135	6576.06
936.443	6576.96
936.751	6515.49
937.059	6543.74
937.367	6473.01
937.674	6465.32
937.982	6405.89
938.29	6398.43
938.597	6406.57
938.905	6334.48
939.213	6304.88
939.52	6264.2
939.827	6277.31
940.135	6192.34
940.442	6181.26
940.749	6186.01
941.056	6150.08
941.363	6116.41
941.67	6058.78
941.977	6035.28
942.284	6049.52
942.591	5962.29
942.898	5959.8
943.205	6002.51
943.511	5892.91
943.818	5905.79
944.125	5868.5
944.431	5901.05
944.738	5831.44
945.044	5770.43
945.35	5738.34
945.657	5758.22
945.963	5738.79
946.269	5674.16
946.575	5659.02
946.881	5545.35
947.187	5593.03
947.493	5601.39
947.799	5605.23
948.105	5569.53
948.41	5507.16
948.716	5536.31
949.022	5448.63
949.327	5454.28
949.633	5414.73
949.938	5415.18
950.244	5418.12
950.549	5331.34
950.854	5376.54
951.16	5305.81
951.465	5272.59
951.77	5288.63
952.075	5214.51
952.38	5178.35
952.685	5216.77
952.99	5147.62
953.294	5145.13
953.599	5129.54
953.904	5073.27
954.209	5067.85
954.513	5060.16
954.818	5068.52
955.122	5005.93
955.426	4945.82
955.731	4932.71
956.035	4955.99
956.339	4919.83
956.643	4941.97
956.948	4861.98
957.252	4820.17
957.556	4841.41
957.86	4847.74
958.163	4806.84
958.467	4761.41
958.771	4727.74
959.075	4743.34
959.378	4704.24
959.682	4672.15
959.985	4668.31
960.289	4613.4
960.592	4650.23
960.896	4626.95
961.199	4590.57
961.502	4581.98
961.805	4506.73
962.108	4504.92
962.411	4529.1
962.714	4458.15
963.017	4466.73
963.32	4420.63
963.623	4437.13
963.926	4411.14
964.228	4390.35
964.531	4353.29
964.833	4358.71
965.136	4335.89
965.438	4296.79
965.741	4284.14
966.043	4295.44
966.345	4216.12
966.648	4196.68
966.95	4204.82
967.252	4180.64
967.554	4155.78
967.856	4163.01
968.158	4161.88
968.46	4127.08
968.761	4116.01
969.063	4042.11
969.365	4107.87
969.666	4097.48
969.968	4073.75
970.269	4045.5
970.571	3984.71
970.872	3970.25
971.174	3970.47
971.475	3992.85
971.776	3982.68
972.077	3888.89
972.378	3894.77
972.679	3863.36
972.98	3857.03
973.281	3843.92
973.582	3859.74
973.883	3816.35
974.183	3806.86
974.484	3786.07
974.785	3752.63
975.085	3741.78
975.386	3755.11
975.686	3740.65
975.986	3646.87
976.287	3669.69
976.587	3683.7
976.887	3612.29
977.187	3627.88
977.487	3603.25
977.787	3628.56
978.087	3578.85
978.387	3568.68
978.687	3506.76
978.987	3525.97
979.286	3506.08
979.586	3500.43
979.885	3473.31
980.185	3434.67
980.484	3473.99
980.784	3457.27
981.083	3421.11
981.382	3425.18
981.682	3387.21
981.981	3343.6
982.28	3372.98
982.579	3304.96
982.878	3296.37
983.177	3306.76
983.475	3275.35
983.774	3255.47
984.073	3255.69
984.372	3252.98
984.67	3253.66
984.969	3224.28
985.267	3205.75
985.566	3167.11
985.864	3178.18
986.162	3151.74
986.461	3167.33
986.759	3133.21
987.057	3131.17
987.355	3105.41
987.653	3062.25
987.951	3106.09
988.249	3050.05
988.547	3070.61
988.844	3001.46
989.142	3008.47
989.44	3003.72
989.737	2968.47
990.035	2972.99
990.332	2969.37
990.63	2961.91
990.927	2939.54
991.224	2910.39
991.521	2916.49
991.819	2900.67
992.116	2904.29
992.413	2846.66
992.71	2855.48
993.006	2847.34
993.303	2839.66
993.6	2832.88
993.897	2805.08
994.193	2791.07
994.49	2792.2
994.787	2761.92
995.083	2732.09
995.379	2751.98
995.676	2741.35
995.972	2715.59
996.268	2713.33
996.565	2687.8
996.861	2719.21
997.157	2666.55
997.453	2662.26
997.749	2631.75
998.044	2597.4
998.34	2589.95
998.636	2591.98
998.932	2587.01
999.227	2565.54
999.523	2533.45
999.818	2530.06
1000.114	2491.42
1000.409	2507.46
1000.704	2452.77
1001	2491.42
1001.295	2497.07
1001.59	2441.48
1001.885	2438.54
1002.18	2437.41
1002.475	2380.91
1002.77	2372.32
1003.065	2363.74
1003.359	2371.65
1003.654	2374.13
1003.949	2371.42
1004.243	2349.27
1004.538	2342.72
1004.832	2303.4
1005.127	2314.7
1005.421	2274.47
1005.715	2287.13
1006.009	2262.95
1006.304	2260.46
1006.598	2229.28
1006.892	2219.56
1007.186	2211.65
1007.48	2212.55
1007.773	2178.21
1008.067	2128.04
1008.361	2140.24
1008.655	2115.38
1008.948	2087.81
1009.242	2111.99
1009.535	2110.86
1009.829	2102.05
1010.122	2078.32
1010.415	2071.54
1010.708	2051.88
1011.001	2022.5
1011.295	2004.42
1011.588	2017.98
1011.881	2000.58
1012.173	2004.65
1012.466	1968.27
1012.759	1969.4
1013.052	1993.8
1013.344	1984.31
1013.637	1998.78
1013.93	1940.92
1014.222	1927.14
1014.514	1896.18
1014.807	1905.22
1015.099	1894.82
1015.391	1897.08
1015.683	1848.04
1015.976	1879
1016.268	1848.04
1016.56	1798.33
1016.851	1821.6
1017.143	1784.54
1017.435	1805.56
1017.727	1779.35
1018.018	1807.14
1018.31	1743.19
1018.602	1738.67
1018.893	1709.97
1019.185	1730.76
1019.476	1690.08
1019.767	1689.86
1020.058	1667.94
1020.35	1670.65
1020.641	1664.09
1020.932	1643.08
1021.223	1642.17
1021.514	1595.85
1021.804	1639.01
1022.095	1623.87
1022.386	1639.01
1022.677	1565.57
1022.967	1619.58
1023.258	1547.26
1023.548	1536.19
1023.839	1535.06
1024.129	1545.68
1024.419	1521.95
1024.709	1507.49
1025	1507.04
1025.29	1513.36
1025.58	1453.93
1025.87	1458.45
1026.16	1446.25
1026.449	1474.04
1026.739	1466.36
1027.029	1463.65
1027.319	1416.19
1027.608	1390.43
1027.898	1388.17
1028.187	1390.88
1028.477	1390.2
1028.766	1359.02
1029.055	1374.38
1029.344	1358.11
1029.634	1321.73
1029.923	1337.1
1030.212	1343.88
1030.501	1323.76
1030.79	1297.1
1031.078	1306.82
1031.367	1284.44
1031.656	1297.32
1031.945	1284.44
1032.233	1273.14
1032.522	1263.2
1032.81	1246.93
1033.099	1235.63
1033.387	1234.73
1033.675	1233.6
1033.963	1238.12
1034.251	1237.67
1034.54	1194.73
1034.828	1192.69
1035.116	1201.28
1035.403	1158.35
1035.691	1168.97
1035.979	1169.19
1036.267	1151.11
1036.554	1123.54
1036.842	1147.5
1037.129	1147.05
1037.417	1106.14
1037.704	1111.11
1037.992	1123.54
1038.279	1105.47
1038.566	1092.58
1038.853	1092.58
1039.14	1092.58
