Data from hue_260_FLMS001491_00055.txt Node
Date: Tue Feb 07 15:59:12 GMT 2017
User: dcchb
Spectrometer: FLMS00149
Trigger mode: 0
Integration Time (sec): 2.000000E-2
Scans to average: 10
Electric dark correction enabled: true
Nonlinearity correction enabled: false
Boxcar width: 0
XAxis mode: Wavelengths
Number of Pixels in Spectrum: 2048
>>>>>Begin Spectral Data<<<<<
341.393	-23.33
341.776	-23.33
342.16	-23.33
342.543	-67.17
342.927	-68.76
343.31	-59.49
343.693	-79.6
344.077	-73.73
344.46	-42.77
344.843	-68.76
345.226	-36.89
345.61	-31.92
345.993	-3.9
346.376	0.85
346.759	-2.99
347.142	-3.22
347.525	40.62
347.908	53.5
348.291	77
348.674	94.63
349.057	136.66
349.44	119.04
349.823	146.83
350.206	148.41
350.588	193.16
350.971	206.49
351.354	214.18
351.737	214.18
352.119	225.25
352.502	261.18
352.884	249.88
353.267	272.48
353.65	291.24
354.032	296.88
354.414	289.88
354.797	282.2
355.179	296.43
355.562	312.93
355.944	315.87
356.326	293.72
356.709	317.45
357.091	301.63
357.473	336.66
357.855	329.43
358.238	314.29
358.62	319.03
359.002	335.3
359.384	336.21
359.766	330.1
360.148	319.26
360.53	322.87
360.912	333.04
361.294	304.57
361.676	322.87
362.057	332.82
362.439	331.69
362.821	294.4
363.203	321.29
363.584	312.7
363.966	327.17
364.348	293.95
364.729	312.25
365.111	324
365.493	288.52
365.874	305.02
366.256	302.53
366.637	307.28
367.019	295.08
367.4	305.47
367.781	296.66
368.163	300.73
368.544	298.92
368.925	305.7
369.306	301.18
369.688	318.81
370.069	295.98
370.45	303.44
370.831	311.35
371.212	315.87
371.593	313.83
371.974	312.7
372.355	274.51
372.736	332.36
373.117	298.24
373.498	318.13
373.879	312.25
374.26	310.44
374.641	303.44
375.021	309.31
375.402	305.92
375.783	332.82
376.163	293.5
376.544	318.35
376.925	303.44
377.305	320.84
377.686	320.39
378.066	306.38
378.447	305.25
378.827	318.58
379.208	327.84
379.588	327.17
379.968	329.88
380.349	309.09
380.729	321.07
381.109	328.97
381.489	342.53
381.87	331.01
382.25	308.41
382.63	325.36
383.01	319.26
383.39	323.32
383.77	332.14
384.15	317.22
384.53	345.7
384.91	339.6
385.29	328.07
385.67	321.97
386.049	338.69
386.429	330.1
386.809	342.76
387.189	331.23
387.568	344.57
387.948	337.34
388.328	345.25
388.707	351.35
389.087	354.06
389.466	372.36
389.846	339.37
390.225	357.9
390.605	346.83
390.984	369.2
391.363	355.64
391.743	366.49
392.122	366.04
392.501	368.07
392.881	343.21
393.26	372.14
393.639	374.62
394.018	356.32
394.397	381.85
394.776	375.3
395.155	392.25
395.534	387.5
395.913	361.52
396.292	372.82
396.671	404.9
397.05	389.99
397.429	391.8
397.808	373.27
398.186	382.08
398.565	392.48
398.944	390.22
399.323	402.19
399.701	385.92
400.08	406.49
400.458	389.09
400.837	397
401.215	401.97
401.594	399.71
401.972	431.8
402.351	413.04
402.729	420.05
403.107	418.69
403.486	426.37
403.864	428.63
404.242	437.67
404.62	411.68
404.999	431.8
405.377	453.26
405.755	433.38
406.133	451.46
406.511	438.58
406.889	437.67
407.267	450.33
407.645	434.51
408.023	486.94
408.401	455.98
408.779	477.22
409.156	492.81
409.534	480.83
409.912	492.36
410.29	496.65
410.667	511.34
411.045	507.5
411.422	512.92
411.8	514.05
412.178	531.91
412.555	536.43
412.933	534.84
413.31	543.21
413.687	558.35
414.065	564.9
414.442	551.12
414.819	564.67
415.197	587.72
415.574	574.62
415.951	603.32
416.328	591.11
416.705	602.19
417.082	618.46
417.46	629.08
417.837	622.75
418.214	632.47
418.591	635.63
418.967	641.51
419.344	650.55
419.721	664.78
420.098	643.09
420.475	692.81
420.852	664.78
421.228	701.85
421.605	700.94
421.982	708.85
422.358	722.41
422.735	733.26
423.111	738
423.488	744.56
423.864	757.44
424.241	775.29
424.617	777.55
424.994	797.66
425.37	797.89
425.746	818
426.123	816.87
426.499	805.35
426.875	813.71
427.251	848.96
427.627	870.88
428.003	867.49
428.379	863.88
428.756	886.02
429.132	917.89
429.507	908.39
429.883	899.35
430.259	935.74
430.635	961.5
431.011	961.05
431.387	955.62
431.763	979.8
432.138	992.23
432.514	994.49
432.89	1004.66
433.265	1031.78
433.641	1056.19
434.016	1079.01
434.392	1081.72
434.767	1107.49
435.143	1154.94
435.518	1126.24
435.894	1146.13
436.269	1148.84
436.644	1181.83
437.02	1204.21
437.395	1205.56
437.77	1225.9
438.145	1262.06
438.52	1274.71
438.895	1269.74
439.271	1262.96
439.646	1302.06
440.021	1337.08
440.395	1342.28
440.77	1321.04
441.145	1365.33
441.52	1372.79
441.895	1384.99
442.27	1417.53
442.645	1408.95
443.019	1437.42
443.394	1437.65
443.769	1456.85
444.143	1453.69
444.518	1452.79
444.892	1480.13
445.267	1521.49
445.641	1515.16
446.016	1508.38
446.39	1526.68
446.764	1539.34
447.139	1528.49
447.513	1549.73
447.887	1566.23
448.262	1556.51
448.636	1570.75
449.01	1596.29
449.384	1605.55
449.758	1601.03
450.132	1647.13
450.506	1675.61
450.88	1689.39
451.254	1641.93
451.628	1702.72
452.002	1701.14
452.376	1706.57
452.75	1724.87
453.123	1706.79
453.497	1760.8
453.871	1779.78
454.244	1840.57
454.618	1846
454.992	1855.94
455.365	1863.62
455.739	1870.18
456.112	1875.37
456.486	1894.58
456.859	1927.35
457.232	1950.4
457.606	1958.99
457.979	1965.99
458.352	2018.65
458.725	2040.57
459.099	2060.23
459.472	2081.02
459.845	2093.45
460.218	2103.84
460.591	2116.05
460.964	2124.18
461.337	2189.94
461.71	2206.44
462.083	2218.87
462.456	2267
462.829	2262.71
463.201	2292.54
463.574	2286.89
463.947	2338.64
464.32	2354.68
464.692	2391.07
465.065	2418.64
465.438	2402.14
465.81	2465.19
466.183	2468.81
466.555	2528.24
466.928	2562.81
467.3	2562.81
467.672	2592.87
468.045	2633.09
468.417	2655.47
468.789	2642.81
469.161	2660.66
469.534	2721
469.906	2769.59
470.278	2836.71
470.65	2824.5
471.022	2870.6
471.394	2909.25
471.766	2936.36
472.138	2976.59
472.51	3025.63
472.882	3046.42
473.253	3076.92
473.625	3128
473.997	3173.19
474.369	3196.7
474.74	3238.73
475.112	3272.63
475.484	3284.83
475.855	3372.96
476.227	3408.44
476.598	3469.23
476.97	3474.43
477.341	3581.32
477.713	3567.76
478.084	3600.07
478.455	3682.78
478.827	3698.38
479.198	3787.19
479.569	3826.06
479.94	3906.51
480.311	3946.73
480.682	4016.34
481.053	4077.35
481.424	4158.03
481.795	4156.9
482.166	4223.79
482.537	4277.35
482.908	4325.25
483.279	4360.05
483.65	4440.96
484.021	4479.37
484.391	4546.49
484.762	4551.24
485.133	4602.53
485.503	4638.24
485.874	4757.78
486.244	4763.66
486.615	4869.65
486.985	4913.26
487.356	5036.65
487.726	5012.69
488.097	5171.11
488.467	5127.49
488.837	5195.74
489.207	5285.68
489.578	5295.85
489.948	5333.14
490.318	5409.07
490.688	5416.3
491.058	5482.06
491.428	5535.84
491.798	5609.74
492.168	5677.08
492.538	5683.18
492.908	5763.41
493.278	5813.8
493.648	5849.73
494.017	5863.29
494.387	5899.22
494.757	5971.76
495.126	6022.38
495.496	5992.55
495.866	6029.84
496.235	6103.06
496.605	6165.66
496.974	6125.43
497.344	6268.93
497.713	6248.59
498.082	6302.6
498.452	6341.92
498.821	6341.25
499.19	6337.18
499.559	6369.72
499.928	6460.34
500.298	6474.12
500.667	6520.9
501.036	6444.97
501.405	6571.3
501.774	6517.06
502.143	6590.96
502.512	6564.29
502.88	6651.07
503.249	6604.52
503.618	6690.62
503.987	6738.98
504.356	6716.38
504.724	6743.72
505.093	6759.31
505.462	6782.14
505.83	6809.03
506.199	6846.77
506.567	6947.33
506.936	6898.75
507.304	6959.08
507.672	6982.58
508.041	6944.17
508.409	7005.86
508.777	7067.1
509.145	7084.95
509.514	7112.98
509.882	7086.54
510.25	7116.14
510.618	7123.15
510.986	7088.34
511.354	7135.58
511.722	7198.17
512.09	7249.24
512.458	7246.08
512.826	7291.28
513.193	7337.6
513.561	7266.42
513.929	7331.05
514.297	7345.51
514.664	7428.22
515.032	7405.17
515.4	7407.43
515.767	7518.84
516.135	7429.58
516.502	7448.11
516.869	7559.52
517.237	7489.24
517.604	7497.15
517.972	7539.18
518.339	7547.77
518.706	7487.88
519.073	7550.93
519.44	7625.05
519.808	7598.84
520.175	7577.6
520.542	7703.92
520.909	7633.64
521.276	7655.56
521.643	7714.54
522.009	7671.15
522.376	7734.2
522.743	7791.38
523.11	7834.77
523.477	7847.87
523.843	7825.05
524.21	7906.63
524.577	7842.9
524.943	7987.08
525.31	7983.91
525.676	7944.82
526.043	7922
526.409	8004.48
526.776	8005.83
527.142	8006.06
527.508	8072.05
527.874	8118.37
528.241	8127.19
528.607	8002.22
528.973	8143.46
529.339	8118.37
529.705	8159.95
530.071	8179.62
530.437	8208.09
530.803	8194.98
531.169	8176.45
531.535	8171.25
531.901	8192.95
532.267	8185.94
532.632	8169.22
532.998	8267.07
533.364	8277.69
533.73	8209.22
534.095	8231.14
534.461	8206.96
534.826	8239.27
535.192	8260.07
535.557	8259.39
535.923	8241.53
536.288	8279.5
536.653	8355.66
537.019	8241.76
537.384	8234.53
537.749	8278.6
538.114	8313.4
538.479	8282.44
538.845	8238.6
539.21	8305.71
539.575	8191.14
539.94	8206.06
540.305	8282.66
540.67	8177.58
541.034	8155.66
541.399	8264.13
541.764	8232.27
542.129	8179.39
542.494	8218.71
542.858	8277.92
543.223	8256.9
543.587	8188.2
543.952	8181.88
544.316	8227.98
544.681	8213.06
545.045	8184.81
545.41	8177.58
545.774	8201.08
546.138	8145.49
546.503	8176.45
546.867	8178.49
547.231	8213.06
547.595	8137.58
547.959	8228.88
548.324	8227.07
548.688	8152.5
549.052	8181.2
549.416	8134.87
549.779	8190.46
550.143	8148.66
550.507	8197.92
550.871	8171.48
551.235	8134.64
551.599	8146.85
551.962	8130.13
552.326	8144.81
552.689	8147.07
553.053	8063.69
553.417	8116.11
553.78	8140.07
554.143	8119.5
554.507	8117.47
554.87	8086.51
555.234	8152.72
555.597	8154.31
555.96	8165.83
556.323	8209.45
556.686	8164.25
557.05	8192.5
557.413	8214.87
557.776	8165.6
558.139	8205.38
558.502	8219.61
558.865	8253.74
559.228	8247.86
559.59	8232.5
559.953	8212.38
560.316	8303.23
560.679	8297.35
561.041	8334.19
561.404	8315.88
561.767	8290.12
562.129	8289.22
562.492	8322.89
562.854	8339.84
563.217	8359.72
563.579	8366.96
563.941	8401.76
564.304	8468.2
564.666	8477.01
565.028	8484.24
565.39	8528.08
565.753	8507.74
566.115	8492.6
566.477	8549.1
566.839	8570.11
567.201	8626.16
567.563	8644.46
567.925	8671.58
568.287	8651.24
568.648	8671.13
569.01	8677
569.372	8696.66
569.734	8737.34
570.095	8782.76
570.457	8771.92
570.819	8784.35
571.18	8756.32
571.542	8872.7
571.903	8806.94
572.265	8958.35
572.626	8852.82
572.987	8942.76
573.349	8857.34
573.71	8955.19
574.071	8991.12
574.432	8987.96
574.794	9030.67
575.155	9083.77
575.516	9004.45
575.877	9089.2
576.238	9025.92
576.599	9141.4
576.96	9100.27
577.32	9156.54
577.681	9154.73
578.042	9164.45
578.403	9201.74
578.763	9235.86
579.124	9283.54
579.485	9252.58
579.845	9278.8
580.206	9222.3
580.566	9295.07
580.927	9311.56
581.287	9351.34
581.648	9335.52
582.008	9392.24
582.368	9366.48
582.728	9451.9
583.089	9362.41
583.449	9451.67
583.809	9452.58
584.169	9479.02
584.529	9501.16
584.889	9594.95
585.249	9514.27
585.609	9535.74
585.969	9568.51
586.329	9522.86
586.688	9545.23
587.048	9584.1
587.408	9547.49
587.768	9604.21
588.127	9622.52
588.487	9563.08
588.846	9594.04
589.206	9604.44
589.565	9623.42
589.925	9691.67
590.284	9664.55
590.643	9645.57
591.003	9780.93
591.362	9761.72
591.721	9768.5
592.08	9749.29
592.44	9781.61
592.799	9732.57
593.158	9840.59
593.517	9793.81
593.876	9716.52
594.235	9786.8
594.593	9859.12
594.952	9864.77
595.311	9839.91
595.67	9857.99
596.029	9887.14
596.387	9941.6
596.746	9942.05
597.104	9868.61
597.463	9901.38
597.822	9904.77
598.18	9889.4
598.538	9903.86
598.897	9998.1
599.255	9857.76
599.613	9969.4
599.972	9949.06
600.33	9903.86
600.688	9988.16
601.046	10011.43
601.404	10015.5
601.762	10031.09
602.12	10140.69
602.478	10088.94
602.836	9995.16
603.194	10065.44
603.552	10121.03
603.91	10099.34
604.268	10073.35
604.625	10032.67
604.983	10043.97
605.341	10027.25
605.698	10097.98
606.056	10099.11
606.413	10105.67
606.771	10111.54
607.128	10161.94
607.485	10110.86
607.843	10108.38
608.2	10173.69
608.557	10115.16
608.914	10133.01
609.272	10112.67
609.629	10263.63
609.986	10275.83
610.343	10245.32
610.7	10253.91
611.057	10286.45
611.414	10163.74
611.771	10175.27
612.127	10213.69
612.484	10277.41
612.841	10333.91
613.198	10278.54
613.554	10253.01
613.911	10344.08
614.267	10398.09
614.624	10327.81
614.98	10377.52
615.337	10362.83
615.693	10400.57
616.05	10384.3
616.406	10421.14
616.762	10373.23
617.118	10308.37
617.475	10417.07
617.831	10440.8
618.187	10424.75
618.543	10381.37
618.899	10512.89
619.255	10411.2
619.611	10455.26
619.967	10469.72
620.323	10542.72
620.678	10438.99
621.034	10350.63
621.39	10407.35
621.746	10370.52
622.101	10522.38
622.457	10431.08
622.812	10492.32
623.168	10525.32
623.523	10474.7
623.879	10564.64
624.234	10405.09
624.589	10476.28
624.945	10462.04
625.3	10440.8
625.655	10508.37
626.01	10530.06
626.365	10497.29
626.72	10424.3
627.075	10448.93
627.43	10464.98
627.785	10428.82
628.14	10415.49
628.495	10460.69
628.85	10480.8
629.205	10418.43
629.559	10471.31
629.914	10374.81
630.269	10455.94
630.623	10342.04
630.978	10284.64
631.332	10322.61
631.687	10416.39
632.041	10349.5
632.396	10352.89
632.75	10302.95
633.104	10349.95
633.459	10302.95
633.813	10208.71
634.167	10271.76
634.521	10252.78
634.875	10273.35
635.229	10177.08
635.583	10182.27
635.937	10171.88
636.291	10174.37
636.645	10189.51
636.999	10188.38
637.352	10230.86
637.706	10085.33
638.06	10167.81
638.413	10145.21
638.767	10171.2
639.121	10101.37
639.474	10046.01
639.828	10062.28
640.181	10063.41
640.534	10070.64
640.888	10039
641.241	10011.21
641.594	10025.22
641.947	10055.27
642.301	9990.19
642.654	9982.96
643.007	10029.74
643.36	10004.2
643.713	9956.07
644.066	9980.25
644.419	9929.17
644.771	9941.15
645.124	9803.53
645.477	9759.46
645.83	9729.18
646.182	9767.14
646.535	9683.76
646.888	9727.6
647.24	9598.56
647.593	9689.18
647.945	9633.59
648.298	9572.8
648.65	9648.28
649.002	9579.58
649.355	9582.29
649.707	9611.44
650.059	9632.01
650.411	9705.23
650.763	9786.13
651.115	9879.01
651.467	9843.07
651.819	9874.26
652.171	9764.66
652.523	9769.63
652.875	9855.5
653.227	9796.07
653.578	9888.95
653.93	9869.29
654.282	9807.37
654.633	9784.77
654.985	9743.42
655.337	9786.8
655.688	9798.1
656.039	9827.93
656.391	9781.61
656.742	9784.77
657.094	9783.64
657.445	9804.21
657.796	9769.18
658.147	9696.41
658.498	9737.77
658.849	9820.93
659.2	9807.6
659.551	9742.96
659.902	9767.37
660.253	9787.48
660.604	9768.05
660.955	9753.59
661.306	9790.87
661.656	9780.25
662.007	9738.9
662.358	9798.78
662.708	9748.16
663.059	9772.57
663.409	9703.87
663.76	9832
664.11	9851.21
664.461	9741.83
664.811	9783.19
665.161	9736.64
665.511	9754.94
665.862	9815.28
666.212	9813.92
666.562	9836.75
666.912	9778.67
667.262	9804.66
667.612	9840.36
667.962	9798.78
668.312	9805.56
668.662	9806.01
669.011	9814.15
669.361	9785.45
669.711	9784.77
670.06	9797.43
670.41	9739.8
670.76	9704.77
671.109	9783.19
671.459	9717.88
671.808	9682.4
672.157	9751.1
672.507	9719.01
672.856	9689.41
673.205	9714.94
673.554	9767.37
673.904	9716.75
674.253	9647.15
674.602	9675.62
674.951	9630.2
675.3	9498.45
675.649	9670.42
675.998	9658.9
676.346	9616.87
676.695	9660.71
677.044	9583.19
677.393	9555.4
677.741	9651.67
678.09	9530.54
678.438	9585.68
678.787	9530.77
679.135	9585.45
679.484	9537.09
679.832	9532.35
680.181	9497.77
680.529	9546.13
680.877	9462.75
681.225	9492.58
681.573	9476.53
681.922	9456.87
682.27	9403.99
682.618	9481.95
682.966	9412.13
683.314	9470.2
683.661	9415.52
684.009	9305.01
684.357	9320.15
684.705	9324.67
685.053	9258.46
685.4	9299.59
685.748	9274.05
686.095	9229.98
686.443	9165.13
686.79	9152.47
687.138	9172.81
687.485	9193.15
687.832	9129.19
688.18	9131.91
688.527	9040.61
688.874	9088.74
689.221	9035.19
689.568	9021.18
689.915	9012.14
690.262	8967.39
690.609	8888.75
690.956	8882.65
691.303	8893.72
691.65	8861.63
691.997	8827.28
692.344	8789.32
692.69	8777.11
693.037	8853.27
693.383	8693.05
693.73	8718.81
694.077	8677.91
694.423	8646.95
694.769	8584.35
695.116	8569.21
695.462	8604.69
695.808	8496.22
696.155	8543.22
696.501	8513.84
696.847	8405.6
697.193	8379.38
697.539	8393.17
697.885	8337.8
698.231	8259.61
698.577	8326.28
698.923	8307.52
699.269	8253.74
699.614	8194.76
699.96	8187.3
700.306	8177.81
700.651	8145.49
700.997	8109.11
701.342	8069.34
701.688	8073.4
702.033	8006.06
702.379	8050.58
702.724	7998.6
703.069	8018.49
703.415	7917.02
703.76	7926.74
704.105	7930.58
704.45	7899.17
704.795	7820.08
705.14	7796.8
705.485	7816.69
705.83	7776.46
706.175	7751.6
706.52	7753.41
706.865	7698.27
707.209	7748.89
707.554	7658.05
707.899	7682
708.243	7621.44
708.588	7589.8
708.932	7549.12
709.277	7521.78
709.621	7579.86
709.966	7449.01
710.31	7585.51
710.654	7471.61
710.998	7428.67
711.342	7451.95
711.687	7446.75
712.031	7373.53
712.375	7372.41
712.719	7414.89
713.063	7356.81
713.407	7364.95
713.75	7269.36
714.094	7330.37
714.438	7277.49
714.782	7304.16
715.125	7217.83
715.469	7261.22
715.812	7192.52
716.156	7164.95
716.499	7192.97
716.843	7199.98
717.186	7161.79
717.53	7210.83
717.873	7168.12
718.216	7197.72
718.559	7140.55
718.902	7110.49
719.246	7098.51
719.589	7097.16
719.932	7074.56
720.275	7081.11
720.617	7068.23
720.96	7016.48
721.303	7040.66
721.646	7013.77
721.989	6968.57
722.331	7012.19
722.674	6966.54
723.016	6956.14
723.359	6959.31
723.701	7009.02
724.044	6948.91
724.386	6969.03
724.729	6969.7
725.071	6942.36
725.413	6935.58
725.755	6922.47
726.097	6913.89
726.439	6908.91
726.782	6880.44
727.124	6966.99
727.465	6940.55
727.807	6855.13
728.149	6900.1
728.491	6858.75
728.833	6888.12
729.175	6874.11
729.516	6880.67
729.858	6870.27
730.199	6887.67
730.541	6851.97
730.882	6883.83
731.224	6886.54
731.565	6830.05
731.906	6848.35
732.248	6884.28
732.589	6798.63
732.93	6835.02
733.271	6757.51
733.612	6830.05
733.953	6818.3
734.294	6730.61
734.635	6843.38
734.976	6812.87
735.317	6742.82
735.658	6793.89
735.999	6776.71
736.339	6761.8
736.68	6764.74
737.021	6841.12
737.361	6730.39
737.702	6834.57
738.042	6827.56
738.383	6753.21
738.723	6814.45
739.063	6799.99
739.404	6839.31
739.744	6805.19
740.084	6821.69
740.424	6829.37
740.764	6890.84
741.104	6881.8
741.444	6847.67
741.784	6874.57
742.124	6863.72
742.464	6892.42
742.804	6881.12
743.143	6903.49
743.483	6912.76
743.823	6966.54
744.162	6938.29
744.502	6969.93
744.841	6984.39
745.181	7052.64
745.52	6975.58
745.86	7037.27
746.199	7088.8
746.538	7135.58
746.877	7153.88
747.216	7190.49
747.556	7231.84
747.895	7195.23
748.234	7178.74
748.573	7244.95
748.911	7282.69
749.25	7394.1
749.589	7384.61
749.928	7409.92
750.267	7528.56
750.605	7541.89
750.944	7590.7
751.283	7648.1
751.621	7743.47
751.96	7768.1
752.298	7857.14
752.636	7932.39
752.975	7958.38
753.313	7965.38
753.651	8081.09
753.989	8184.14
754.327	8251.93
754.666	8328.31
755.004	8447.18
755.342	8490.79
755.679	8682.2
756.017	8660.96
756.355	8833.38
756.693	8811.24
757.031	9035.64
757.368	9118.12
757.706	9189.53
758.044	9306.37
758.381	9449.64
758.719	9524.44
759.056	9653.93
759.394	9756.75
759.731	9836.3
760.068	9921.94
760.405	10060.7
760.743	10163.07
761.08	10383.4
761.417	10501.14
761.754	10567.35
762.091	10723.73
762.428	10815.93
762.765	10890.73
763.102	11117.84
763.438	11172.98
763.775	11294.11
764.112	11462.02
764.449	11604.16
764.785	11610.94
765.122	11665.63
765.458	11794.44
765.795	11944.71
766.131	12192.17
766.467	12145.61
766.804	12193.75
767.14	12279.85
767.476	12430.8
767.812	12548.54
768.148	12752.15
768.485	12738.59
768.821	12798.48
769.157	12890.23
769.492	13016.55
769.828	13168.18
770.164	13098.58
770.5	13277.33
770.836	13325.24
771.171	13334.06
771.507	13471.45
771.842	13425.58
772.178	13572.47
772.513	13654.95
772.849	13752.35
773.184	13729.53
773.519	13764.55
773.855	13850.88
774.19	13871.22
774.525	13940.82
774.86	13925.45
775.195	13989.63
775.53	14066.01
775.865	14109.85
776.2	14114.37
776.535	14116.41
776.87	14116.18
777.205	14156.86
777.539	14214.71
777.874	14247.25
778.209	14202.28
778.543	14281.6
778.878	14148.05
779.212	14252.68
779.547	14214.49
779.881	14356.63
780.215	14249.06
780.55	14331.54
780.884	14350.98
781.218	14318.66
781.552	14366.35
781.886	14334.93
782.22	14277.53
782.554	14304.2
782.888	14197.08
783.222	14221.04
783.556	14214.26
783.889	14269.17
784.223	14131.1
784.557	14139.68
784.89	14235.28
785.224	14123.41
785.557	14076.18
785.891	14083.19
786.224	14110.98
786.558	14091.1
786.891	14003.87
787.224	14028.28
787.557	14032.12
787.891	14014.94
788.224	13998.9
788.557	14042.51
788.89	14009.07
789.223	14017.43
789.556	13922.29
789.888	13932.01
790.221	13973.81
790.554	13830.54
790.887	13829.18
791.219	13912.57
791.552	13808.85
791.884	13785.8
792.217	13727.49
792.549	13788.06
792.882	13593.03
793.214	13640.94
793.546	13736.31
793.879	13619.92
794.211	13593.03
794.543	13566.59
794.875	13426.26
795.207	13499.93
795.539	13494.28
795.871	13558.46
796.203	13402.08
796.535	13412.92
796.867	13286.37
797.198	13355.75
797.53	13361.17
797.862	13261.06
798.193	13298.35
798.525	13186.26
798.856	13202.31
799.188	13028.3
799.519	13083.67
799.85	13008.87
800.182	13005.03
800.513	13040.73
800.844	12905.59
801.175	12992.37
801.506	12907.63
801.837	12933.16
802.168	12918.25
802.499	12840.28
802.83	12834.86
803.161	12706.73
803.491	12823.34
803.822	12756.22
804.153	12788.76
804.483	12653.85
804.814	12633.06
805.145	12560.52
805.475	12612.49
805.805	12502.21
806.136	12464.7
806.466	12484.36
806.796	12538.82
807.126	12394.65
807.457	12425.15
807.787	12376.57
808.117	12370.92
808.447	12302.9
808.777	12295.44
809.107	12201.2
809.436	12280.75
809.766	12237.36
810.096	12245.27
810.426	12181.77
810.755	12166.18
811.085	12181.77
811.414	12108.33
811.744	12045.28
812.073	11999.85
812.403	11979.74
812.732	11990.36
813.061	11881.89
813.39	11864.94
813.719	11794.21
814.049	11931.83
814.378	11917.37
814.707	11807.54
815.036	11891.61
815.365	11803.25
815.693	11702.01
816.022	11715.12
816.351	11772.52
816.68	11647.09
817.008	11617.94
817.337	11549.7
817.665	11610.49
817.994	11573.2
818.322	11587.21
818.651	11466.53
818.979	11496.82
819.307	11515.35
819.636	11538.4
819.964	11341.79
820.292	11483.03
820.62	11488.91
820.948	11375.01
821.276	11385.63
821.604	11394.45
821.932	11446.65
822.259	11395.8
822.587	11341.34
822.915	11367.1
823.243	11393.32
823.57	11393.09
823.898	11440.32
824.225	11406.2
824.553	11384.05
824.88	11389.93
825.207	11432.41
825.535	11391.28
825.862	11422.24
826.189	11337.95
826.516	11387.21
826.843	11447.78
827.17	11467.21
827.497	11491.39
827.824	11466.08
828.151	11479.19
828.478	11454.33
828.805	11505.18
829.131	11452.52
829.458	11435.35
829.785	11419.08
830.111	11408.01
830.438	11550.15
830.764	11401.45
831.09	11470.83
831.417	11398.74
831.743	11489.81
832.069	11412.3
832.395	11359.64
832.722	11460.89
833.048	11323.26
833.374	11307.22
833.7	11281
834.026	11392.86
834.351	11407.1
834.677	11342.24
835.003	11373.43
835.329	11345.41
835.654	11281.45
835.98	11230.61
836.306	11270.16
836.631	11201.46
836.956	11300.21
837.282	11306.54
837.607	11209.59
837.932	11178.41
838.258	11198.29
838.583	11133.66
838.908	11077.84
839.233	11145.64
839.558	11134.34
839.883	11124.17
840.208	10996.72
840.533	11017.96
840.858	11045.98
841.182	10992.65
841.507	11041.01
841.832	10962.14
842.156	10904.97
842.481	10932.76
842.805	10899.77
843.13	10913.55
843.454	10890.73
843.778	10839.88
844.103	10789.26
844.427	10776.38
844.751	10698.87
845.075	10688.25
845.399	10666.1
845.723	10625.2
846.047	10695.48
846.371	10643.05
846.695	10524.19
847.019	10548.14
847.343	10432.89
847.666	10433.79
847.99	10394.25
848.313	10301.59
848.637	10260.92
848.96	10311.31
849.284	10274.02
849.607	10127.81
849.931	10064.31
850.254	10104.99
850.577	10040.36
850.9	9995.84
851.223	9917.42
851.546	9909.29
851.869	9872.68
852.192	9906.8
852.515	9865.45
852.838	9790.42
853.161	9846.92
853.483	9790.87
853.806	9673.14
854.129	9723.08
854.451	9708.61
854.774	9599.24
855.096	9592.23
855.419	9608.96
855.741	9527.15
856.063	9518.11
856.385	9510.2
856.708	9497.77
857.03	9440.37
857.352	9387.72
857.674	9382.97
857.996	9317.89
858.318	9222.75
858.64	9239.02
858.961	9339.58
859.283	9250.1
859.605	9248.06
859.926	9245.35
860.248	9178.23
860.57	9131.91
860.891	9135.75
861.212	9094.85
861.534	9098.01
861.855	9090.55
862.176	9042.64
862.498	9032.7
862.819	9048.07
863.14	8984.11
863.461	8986.6
863.782	8951.12
864.103	8977.33
864.424	8990.44
864.745	8965.13
865.065	8873.38
865.386	8846.26
865.707	8844.23
866.027	8880.61
866.348	8819.37
866.668	8848.07
866.989	8780.5
867.309	8750.45
867.63	8745.48
867.95	8655.76
868.27	8721.3
868.59	8727.4
868.91	8733.73
869.23	8692.82
869.55	8633.61
869.87	8704.35
870.19	8624.58
870.51	8655.08
870.83	8599.72
871.15	8588.64
871.469	8607.4
871.789	8621.64
872.109	8557.46
872.428	8504.58
872.748	8561.75
873.067	8531.24
873.386	8495.31
873.706	8471.36
874.025	8562.2
874.344	8473.62
874.663	8474.75
874.982	8443.56
875.301	8447.41
875.62	8415.09
875.939	8380.51
876.258	8400.63
876.577	8365.15
876.896	8370.34
877.214	8380.74
877.533	8309.56
877.852	8367.41
878.17	8318.59
878.489	8307.75
878.807	8296.9
879.125	8298.93
879.444	8220.07
879.762	8267.52
880.08	8256.45
880.398	8235.43
880.716	8210.8
881.034	8138.26
881.352	8154.76
881.67	8115.21
881.988	8112.5
882.306	8132.16
882.624	8024.14
882.941	8005.38
883.259	8018.04
883.577	8053.74
883.894	8032.95
884.212	7969.9
884.529	7981.2
884.846	7941.66
885.164	7978.72
885.481	7915.22
885.798	7897.14
886.115	7844.93
886.432	7926.06
886.75	7837.93
887.067	7853.75
887.383	7801.32
887.7	7790.7
888.017	7804.26
888.334	7768.55
888.651	7712.51
888.967	7733.98
889.284	7691.04
889.6	7631.61
889.917	7636.8
890.233	7609.01
890.55	7574.21
890.866	7622.79
891.182	7541.21
891.498	7585.51
891.815	7513.87
892.131	7431.84
892.447	7466.87
892.763	7408.34
893.079	7479.97
893.395	7429.35
893.71	7338.51
894.026	7389.35
894.342	7346.19
894.657	7281.79
894.973	7272.75
895.289	7275.46
895.604	7272.07
895.92	7229.81
896.235	7160.66
896.55	7205.63
896.865	7162.69
897.181	7068.46
897.496	7121.11
897.811	7038.4
898.126	7079.53
898.441	7014.9
898.756	6981
899.071	6983.71
899.386	6958.18
899.7	6953.21
900.015	6830.72
900.33	6824.17
900.644	6831.18
900.959	6860.1
901.273	6845.87
901.588	6749.37
901.902	6755.02
902.216	6734
902.531	6674.34
902.845	6683.61
903.159	6612.2
903.473	6613.55
903.787	6621.92
904.101	6561.58
904.415	6584.63
904.729	6514.57
905.042	6499.89
905.356	6501.02
905.67	6438.19
905.984	6487
906.297	6378.76
906.611	6417.18
906.924	6402.26
907.237	6367.01
907.551	6324.75
907.864	6302.15
908.177	6278.65
908.491	6273.68
908.804	6185.32
909.117	6151.42
909.43	6165.66
909.743	6167.46
910.056	6113.46
910.368	6112.1
910.681	6063.29
910.994	6071.65
911.307	5960.92
911.619	6005.44
911.932	5992.78
912.244	5931.54
912.557	5933.35
912.869	5910.97
913.181	5877.98
913.494	5891.09
913.806	5808.38
914.118	5822.16
914.43	5763.63
914.742	5809.28
915.054	5727.48
915.366	5683.41
915.678	5774.48
915.99	5678.21
916.302	5640.02
916.613	5611.32
916.925	5639.12
917.236	5623.52
917.548	5572.9
917.859	5515.96
918.171	5511.44
918.482	5427.15
918.794	5428.28
919.105	5409.97
919.416	5409.29
919.727	5405.45
920.038	5406.58
920.349	5383.98
920.66	5303.31
920.971	5320.71
921.282	5284.32
921.593	5287.94
921.903	5268.73
922.214	5286.81
922.525	5235.51
922.835	5207.49
923.146	5141.05
923.456	5146.93
923.767	5184.67
924.077	5168.85
924.387	5075.52
924.697	5073.93
925.008	5064.67
925.318	5039.13
925.628	5071
925.938	5040.04
926.248	4969.98
926.558	4955.07
926.867	4959.14
927.177	4882.08
927.487	4904.22
927.796	4859.48
928.106	4836.2
928.416	4819.25
928.725	4815.18
929.034	4781.06
929.344	4823.32
929.653	4777.45
929.962	4735.41
930.271	4749.2
930.581	4667.62
930.89	4642.76
931.199	4651.12
931.508	4611.35
931.817	4634.17
932.125	4612.03
932.434	4610.67
932.743	4564.12
933.051	4522.76
933.36	4507.17
933.669	4502.42
933.977	4459.26
934.286	4546.49
934.594	4441.63
934.902	4410
935.21	4423.78
935.519	4396.66
935.827	4402.09
936.135	4333.84
936.443	4339.94
936.751	4321.64
937.059	4337
937.367	4260.62
937.674	4256.55
937.982	4259.27
938.29	4232.37
938.597	4177.91
938.905	4148.31
939.213	4150.57
939.52	4181.08
939.827	4150.12
940.135	4127.74
940.442	4105.37
940.749	4135.65
941.056	4130.91
941.363	4054.3
941.67	4083.9
941.977	4051.59
942.284	4027.63
942.591	3987.86
942.898	3950.57
943.205	3967.52
943.511	3946.96
943.818	3955.09
944.125	3916.45
944.431	3921.2
944.738	3907.64
945.044	3855.44
945.35	3855.21
945.657	3813.4
945.963	3780.18
946.269	3787.87
946.575	3767.98
946.881	3761.43
947.187	3738.38
947.493	3726.85
947.799	3746.74
948.105	3697.93
948.41	3719.85
948.716	3659.73
949.022	3679.39
949.327	3662.9
949.633	3602.33
949.938	3640.07
950.244	3629.45
950.549	3595.78
950.854	3539.74
951.16	3552.39
951.465	3554.65
951.77	3516.24
952.075	3532.05
952.38	3510.13
952.685	3510.59
952.99	3446.18
953.294	3467.65
953.599	3477.59
953.904	3432.85
954.209	3415.45
954.513	3400.76
954.818	3394.43
955.122	3354.66
955.426	3366.86
955.731	3357.14
956.035	3350.36
956.339	3318.27
956.643	3337.26
956.948	3288.9
957.252	3283.25
957.556	3258.16
957.86	3229.92
958.163	3232.4
958.467	3197.6
958.771	3244.6
959.075	3195.11
959.378	3158.96
959.682	3179.07
959.985	3138.84
960.289	3149.69
960.592	3112.86
960.896	3110.14
961.199	3109.92
961.502	3115.34
961.805	3088.9
962.108	3022.24
962.411	3086.19
962.714	3031.5
963.017	3006.64
963.32	3033.54
963.623	3021.78
963.926	2998.06
964.228	2975.23
964.531	2938.4
964.833	2970.94
965.136	2953.54
965.438	2926.19
965.741	2913.09
966.043	2904.95
966.345	2863.15
966.648	2917.15
966.95	2869.25
967.252	2838.51
967.554	2852.52
967.856	2845.97
968.158	2778.85
968.46	2806.65
968.761	2779.53
969.063	2755.8
969.365	2807.55
969.666	2735.46
969.968	2717.39
970.269	2717.39
970.571	2726.65
970.872	2719.42
971.174	2694.34
971.475	2695.47
971.776	2675.13
972.077	2652.08
972.378	2658.4
972.679	2644.62
972.98	2629.25
973.281	2606.43
973.582	2606.88
973.883	2614.79
974.183	2578.41
974.484	2604.39
974.785	2566.2
975.085	2526.2
975.386	2560.33
975.686	2517.39
975.986	2486.66
976.287	2560.1
976.587	2478.07
976.887	2459.77
977.187	2507.22
977.487	2428.58
977.787	2495.7
978.087	2443.72
978.387	2414.8
978.687	2429.94
978.987	2406.66
979.286	2390.16
979.586	2405.98
979.885	2348.36
980.185	2354.91
980.484	2365.08
980.784	2361.46
981.083	2325.08
981.382	2322.82
981.682	2334.12
981.981	2299.77
982.28	2336.15
982.579	2257.29
982.878	2277.62
983.177	2276.95
983.475	2279.88
983.774	2266.1
984.073	2279.88
984.372	2248.7
984.67	2236.49
984.969	2226.55
985.267	2233.78
985.566	2206.44
985.864	2182.71
986.162	2178.87
986.461	2176.61
986.759	2153.11
987.057	2142.03
987.355	2141.36
987.653	2100.68
987.951	2102.26
988.249	2109.94
988.547	2110.62
988.844	2116.27
989.142	2098.87
989.44	2048.7
989.737	2084.86
990.035	2050.96
990.332	2055.26
990.63	2024.07
990.927	2013.45
991.224	2012.77
991.521	1968.71
991.819	1984.52
992.116	1975.26
992.413	1995.37
992.71	1983.85
993.006	1946.11
993.303	1966.67
993.6	1954.92
993.897	1922.6
994.193	1938.88
994.49	1916.28
994.787	1940.46
995.083	1909.95
995.379	1861.59
995.676	1895.26
995.972	1882.83
996.268	1841.03
996.565	1853.45
996.861	1843.28
997.157	1862.27
997.453	1833.57
997.749	1836.28
998.044	1793.12
998.34	1798.77
998.636	1766.68
998.932	1791.53
999.227	1758.32
999.523	1784.98
999.818	1756.06
1000.114	1718.32
1000.409	1728.71
1000.704	1757.41
1001	1736.62
1001.295	1714.02
1001.59	1711.54
1001.885	1707.02
1002.18	1654.59
1002.475	1697.07
1002.77	1695.94
1003.065	1648.04
1003.359	1629.05
1003.654	1627.02
1003.949	1660.01
1004.243	1635.38
1004.538	1598.09
1004.832	1606.68
1005.127	1586.34
1005.421	1582.5
1005.715	1564.42
1006.009	1548.6
1006.304	1552.22
1006.598	1565.33
1006.892	1556.29
1007.186	1524.88
1007.48	1525.1
1007.773	1518.77
1008.067	1526.91
1008.361	1494.82
1008.655	1510.64
1008.948	1483.75
1009.242	1481.71
1009.535	1459.57
1009.829	1451.88
1010.122	1449.62
1010.415	1461.37
1010.708	1445.78
1011.001	1441.71
1011.295	1392.9
1011.588	1408.04
1011.881	1400.81
1012.173	1418.44
1012.466	1406.23
1012.759	1381.15
1013.052	1377.08
1013.344	1367.59
1013.637	1379.12
1013.93	1353.13
1014.222	1351.77
1014.514	1353.35
1014.807	1352.22
1015.099	1315.16
1015.391	1301.38
1015.683	1300.7
1015.976	1322.39
1016.268	1276.52
1016.56	1314.26
1016.851	1299.34
1017.143	1271.1
1017.435	1276.07
1017.727	1267.48
1018.018	1233.58
1018.31	1266.58
1018.602	1224.09
1018.893	1242.4
1019.185	1242.62
1019.476	1218.67
1019.767	1184.32
1020.058	1200.59
1020.35	1210.76
1020.641	1196.3
1020.932	1189.97
1021.223	1156.98
1021.514	1159.69
1021.804	1154.26
1022.095	1146.58
1022.386	1139.35
1022.677	1101.38
1022.967	1118.11
1023.258	1129.41
1023.548	1139.8
1023.839	1128.28
1024.129	1105.23
1024.419	1084.66
1024.709	1091.44
1025	1074.27
1025.29	1056.41
1025.58	1079.69
1025.87	1079.69
1026.16	1055.06
1026.449	1039.46
1026.739	1049.18
1027.029	1027.04
1027.319	1032.01
1027.608	1010.09
1027.898	1005.11
1028.187	1025
1028.477	982.52
1028.766	998.34
1029.055	988.84
1029.344	976.19
1029.634	984.32
1029.923	950.43
1030.212	948.85
1030.501	956.08
1030.79	947.72
1031.078	948.39
1031.367	950.2
1031.656	935.29
1031.945	900.26
1032.233	909.75
1032.522	900.71
1032.81	919.24
1033.099	909.52
1033.387	920.15
1033.675	876.08
1033.963	871.56
1034.251	885.57
1034.54	883.31
1034.828	888.51
1035.116	857.32
1035.403	865.01
1035.691	869.98
1035.979	865.46
1036.267	872.69
1036.554	841.73
1036.842	829.98
1037.129	835.63
1037.417	836.53
1037.704	836.53
1037.992	848.51
1038.279	812.35
1038.566	824.1
1038.853	824.1
1039.14	824.1
