Data from hue_250_FLMS001491_00074.txt Node
Date: Tue Feb 07 16:01:26 GMT 2017
User: dcchb
Spectrometer: FLMS00149
Trigger mode: 0
Integration Time (sec): 2.000000E-2
Scans to average: 10
Electric dark correction enabled: true
Nonlinearity correction enabled: false
Boxcar width: 0
XAxis mode: Wavelengths
Number of Pixels in Spectrum: 2048
>>>>>Begin Spectral Data<<<<<
341.393	-10.2
341.776	-10.2
342.16	-10.2
342.543	-70.31
342.927	-66.47
343.31	-75.96
343.693	-65.79
344.077	-70.08
344.46	-46.13
344.843	-38.22
345.226	-43.19
345.61	-42.51
345.993	-8.16
346.376	5.4
346.759	0.2
347.142	29.58
347.525	44.72
347.908	41.55
348.291	76.13
348.674	86.52
349.057	105.96
349.44	119.06
349.823	164.26
350.206	145.05
350.588	180.53
350.971	203.81
351.354	232.51
351.737	213.98
352.119	258.5
352.502	244.03
352.884	262.56
353.267	276.57
353.65	287.2
354.032	298.72
354.414	281.77
354.797	319.29
355.179	316.12
355.562	309.79
355.944	324.03
356.326	299.4
356.709	314.54
357.091	320.19
357.473	309.34
357.855	352.05
358.238	331.26
358.62	339.62
359.002	333.97
359.384	346.86
359.766	341.43
360.148	300.08
360.53	319.06
360.912	310.7
361.294	317.93
361.676	311.38
362.057	325.61
362.439	333.52
362.821	325.61
363.203	321.77
363.584	330.58
363.966	312.73
364.348	321.55
364.729	319.51
365.111	328.32
365.493	302.56
365.874	291.94
366.256	290.13
366.637	308.44
367.019	306.4
367.4	302.79
367.781	307.08
368.163	303.24
368.544	317.25
368.925	308.44
369.306	320.42
369.688	301.21
370.069	296.91
370.45	308.21
370.831	314.77
371.212	302.11
371.593	317.93
371.974	318.38
372.355	297.14
372.736	336.91
373.117	316.12
373.498	316.57
373.879	300.98
374.26	310.02
374.641	311.15
375.021	289.68
375.402	303.24
375.783	327.19
376.163	329
376.544	319.06
376.925	325.39
377.305	318.16
377.686	303.69
378.066	299.85
378.447	300.75
378.827	321.77
379.208	315.44
379.588	333.3
379.968	326.52
380.349	330.81
380.729	333.97
381.109	321.32
381.489	319.96
381.87	314.54
382.25	327.42
382.63	340.08
383.01	338.49
383.39	347.53
383.77	335.78
384.15	324.26
384.53	341.21
384.91	328.1
385.29	305.05
385.67	345.27
386.049	343.47
386.429	327.87
386.809	330.58
387.189	339.4
387.568	345.95
387.948	348.89
388.328	326.06
388.707	333.97
389.087	349.12
389.466	354.09
389.846	353.86
390.225	362.45
390.605	360.87
390.984	343.69
391.363	373.75
391.743	346.86
392.122	372.17
392.501	352.28
392.881	370.58
393.26	381.43
393.639	393.86
394.018	383.24
394.397	362.9
394.776	384.37
395.155	378.49
395.534	402.22
395.913	372.39
396.292	397.93
396.671	384.37
397.05	381.66
397.429	395.22
397.808	393.63
398.186	407.19
398.565	393.86
398.944	404.03
399.323	414.65
399.701	396.8
400.08	392.73
400.458	406.29
400.837	419.62
401.215	437.25
401.594	406.97
401.972	403.12
402.351	432.95
402.729	431.15
403.107	428.44
403.486	434.08
403.864	419.85
404.242	425.95
404.62	446.06
404.999	437.7
405.377	447.64
405.755	443.8
406.133	462.11
406.511	460.3
406.889	470.02
407.267	454.65
407.645	454.42
408.023	465.72
408.401	462.78
408.779	498.26
409.156	470.24
409.534	503.69
409.912	495.55
410.29	491.03
410.667	487.87
411.045	514.08
411.422	528.32
411.8	526.29
412.178	529.68
412.555	572.84
412.933	556.12
413.31	526.74
413.687	545.95
414.065	565.38
414.442	573.97
414.819	572.16
415.197	580.75
415.574	612.16
415.951	582.56
416.328	607.64
416.705	612.39
417.082	612.39
417.46	640.86
417.837	621.2
418.214	653.97
418.591	638.15
418.967	644.02
419.344	648.09
419.721	662.78
420.098	642.67
420.475	684.02
420.852	699.84
421.228	696.9
421.605	685.83
421.982	715.21
422.358	684.47
422.735	735.09
423.111	722.66
423.488	736.22
423.864	752.27
424.241	776
424.617	771.7
424.994	797.01
425.37	780.97
425.746	800.63
426.123	798.37
426.499	804.47
426.875	816.67
427.251	838.59
427.627	841.08
428.003	869.33
428.379	867.29
428.756	889.21
429.132	907.07
429.507	904.81
429.883	907.97
430.259	937.8
430.635	933.96
431.011	918.37
431.387	945.26
431.763	973.28
432.138	982.54
432.514	984.8
432.89	996.78
433.265	1024.13
433.641	1016.89
434.016	1053.05
434.392	1070.68
434.767	1083.33
435.143	1074.52
435.518	1068.87
435.894	1150.22
436.269	1150
436.644	1140.51
437.02	1166.27
437.395	1198.36
437.77	1211.69
438.145	1230.45
438.52	1260.5
438.895	1246.27
439.271	1271.35
439.646	1282.42
440.021	1301.63
440.395	1307.06
440.77	1304.57
441.145	1306.6
441.52	1340.05
441.895	1373.49
442.27	1385.02
442.645	1371.69
443.019	1403.78
443.394	1392.25
443.769	1413.72
444.143	1444
444.518	1426.37
444.892	1455.98
445.267	1456.88
445.641	1471.57
446.016	1472.25
446.39	1490.55
446.764	1493.04
447.139	1490.78
447.513	1527.39
447.887	1525.13
448.262	1545.47
448.636	1543.43
449.01	1581.85
449.384	1557.9
449.758	1575.07
450.132	1597.9
450.506	1607.84
450.88	1614.84
451.254	1635.18
451.628	1652.81
452.002	1672.7
452.376	1670.89
452.75	1677.44
453.123	1697.78
453.497	1727.16
453.871	1735.07
454.244	1760.83
454.618	1764.22
454.992	1787.72
455.365	1821.39
455.739	1819.36
456.112	1862.52
456.486	1861.62
456.859	1878.57
457.232	1942.75
457.606	1897.1
457.979	1934.84
458.352	1965.8
458.725	2012.35
459.099	2041.5
459.472	2057.54
459.845	2037.21
460.218	2090.31
460.591	2108.84
460.964	2114.94
461.337	2135.28
461.71	2181.38
462.083	2156.98
462.456	2186.81
462.829	2183.87
463.201	2243.3
463.574	2221.83
463.947	2280.59
464.32	2302.06
464.692	2339.8
465.065	2345.67
465.438	2370.76
465.81	2418.21
466.183	2444.88
466.555	2502.05
466.928	2515.16
467.3	2520.13
467.672	2546.35
468.045	2591.54
468.417	2609.62
468.789	2626.57
469.161	2662.05
469.534	2672.67
469.906	2710.63
470.278	2765.55
470.65	2777.75
471.022	2871.08
471.394	2869.05
471.766	2876.96
472.138	2900.23
472.51	2988.82
472.882	2986.56
473.253	3052.55
473.625	3070.63
473.997	3145.43
474.369	3147.23
474.74	3151.3
475.112	3215.93
475.484	3250.73
475.855	3341.35
476.227	3351.75
476.598	3447.56
476.97	3445.53
477.341	3544.29
477.713	3604.62
478.084	3616.6
478.455	3674
478.827	3678.75
479.198	3776.6
479.569	3784.28
479.94	3911.51
480.311	3922.35
480.682	4020.21
481.053	4088.23
481.424	4120.99
481.795	4157.6
482.166	4209.8
482.537	4231.95
482.908	4369.35
483.279	4355.11
483.65	4467.2
484.021	4494.54
484.391	4515.79
484.762	4548.78
485.133	4613.86
485.503	4660.64
485.874	4772.05
486.244	4747.64
486.615	4823.35
486.985	4941.76
487.356	4947.19
487.726	5014.53
488.097	5117.58
488.467	5169.78
488.837	5186.28
489.207	5313.73
489.578	5360.51
489.948	5381.07
490.318	5442.09
490.688	5433.73
491.058	5504.69
491.428	5600.05
491.798	5631.24
492.168	5730.89
492.538	5728.86
492.908	5819.25
493.278	5888.63
493.648	5889.76
494.017	5939.25
494.387	6000.72
494.757	6011.11
495.126	6070.09
495.496	6083.2
495.866	6072.58
496.235	6120.94
496.605	6215.63
496.974	6224.44
497.344	6292.24
497.713	6280.03
498.082	6365.91
498.452	6411.55
498.821	6414.72
499.19	6447.49
499.559	6465.11
499.928	6554.38
500.298	6514.83
500.667	6575.62
501.036	6605.45
501.405	6609.06
501.774	6626.69
502.143	6691.55
502.512	6696.29
502.88	6751.21
503.249	6779.23
503.618	6756.63
503.987	6770.42
504.356	6862.39
504.724	6857.64
505.093	6879.34
505.462	6917.3
505.83	6916.17
506.199	6984.65
506.567	7068.71
506.936	7009.05
507.304	7111.88
507.672	7076.17
508.041	7108.49
508.409	7121.59
508.777	7228.03
509.145	7172.21
509.514	7237.97
509.882	7268.03
510.25	7226.67
510.618	7302.38
510.986	7284.07
511.354	7368.37
511.722	7385.31
512.09	7436.39
512.458	7359.78
512.826	7476.61
513.193	7485.88
513.561	7494.24
513.929	7527.23
514.297	7549.15
514.664	7622.37
515.032	7510.06
515.4	7642.93
515.767	7651.52
516.135	7658.98
516.502	7612.2
516.869	7729.49
517.237	7711.41
517.604	7669.6
517.972	7743.27
518.339	7823.72
518.706	7750.5
519.073	7778.98
519.44	7857.62
519.808	7848.13
520.175	7846.55
520.542	7883.15
520.909	7897.62
521.276	7912.31
521.643	7966.09
522.009	8019.65
522.376	7984.39
522.743	8065.07
523.11	8103.71
523.477	8091.28
523.843	8120.66
524.21	8131.06
524.577	8243.37
524.943	8225.52
525.31	8194.56
525.676	8256.48
526.043	8317.27
526.409	8281.56
526.776	8363.14
527.142	8350.03
527.508	8355.46
527.874	8428.68
528.241	8371.96
528.607	8411.28
528.973	8477.26
529.339	8427.09
529.705	8443.82
530.071	8466.19
530.437	8479.97
530.803	8543.02
531.169	8519.07
531.535	8567.2
531.901	8496.02
532.267	8507.09
532.632	8529.69
532.998	8546.19
533.364	8555
533.73	8523.14
534.095	8635.22
534.461	8571.27
534.826	8576.92
535.192	8558.16
535.557	8600.2
535.923	8569.69
536.288	8635.9
536.653	8635.45
537.019	8579.41
537.384	8600.42
537.749	8642.46
538.114	8653.08
538.479	8651.04
538.845	8683.81
539.21	8535.79
539.575	8606.75
539.94	8623.93
540.305	8732.62
540.67	8647.43
541.034	8668.67
541.399	8586.41
541.764	8611.95
542.129	8591.38
542.494	8612.63
542.858	8572.4
543.223	8583.93
543.587	8659.18
543.952	8607.2
544.316	8585.51
544.681	8563.81
545.045	8616.47
545.41	8586.19
545.774	8625.06
546.138	8559.29
546.503	8591.84
546.867	8560.42
547.231	8601.1
547.595	8561.1
547.959	8560.88
548.324	8557.26
548.688	8562.46
549.052	8605.4
549.416	8558.62
549.779	8644.49
550.143	8561.55
550.507	8557.03
550.871	8633.64
551.235	8564.94
551.599	8577.37
551.962	8594.55
552.326	8609.69
552.689	8565.17
553.053	8567.2
553.417	8573.08
553.78	8673.87
554.143	8597.94
554.507	8613.3
554.87	8633.42
555.234	8684.26
555.597	8574.21
555.96	8634.32
556.323	8665.05
556.686	8585.06
557.05	8667.99
557.413	8691.27
557.776	8672.96
558.139	8702.12
558.502	8698.73
558.865	8724.71
559.228	8756.58
559.59	8752.74
559.953	8752.06
560.316	8863.02
560.679	8816.46
561.041	8798.16
561.404	8834.54
561.767	8853.3
562.129	8839.51
562.492	8931.26
562.854	8917.93
563.217	8918.61
563.579	8968.55
563.941	8972.84
564.304	8968.55
564.666	8995.89
565.028	9089.22
565.39	9131.48
565.753	9052.62
566.115	9121.31
566.477	9157.92
566.839	9174.19
567.201	9262.78
567.563	9210.35
567.925	9210.35
568.287	9304.36
568.648	9286.06
569.01	9356.11
569.372	9341.65
569.734	9345.04
570.095	9380.29
570.457	9423.9
570.819	9455.99
571.18	9413.96
571.542	9448.08
571.903	9504.58
572.265	9526.27
572.626	9514.98
572.987	9546.61
573.349	9558.36
573.71	9613.96
574.071	9611.02
574.432	9598.14
574.794	9676.55
575.155	9686.5
575.516	9655.76
575.877	9721.3
576.238	9798.58
576.599	9822.31
576.96	9761.75
577.32	9747.74
577.681	9836.32
578.042	9886.94
578.403	9838.36
578.763	9922.2
579.124	9850.33
579.485	9875.64
579.845	9965.59
580.206	9990.44
580.566	9957.22
580.927	10001.52
581.287	10030.44
581.648	9954.51
582.008	10063.66
582.368	10066.15
582.728	10071.35
583.089	10086.49
583.449	10010.33
583.809	10100.5
584.169	10158.8
584.529	10125.13
584.889	10151.34
585.249	10129.65
585.609	10156.99
585.969	10252.81
586.329	10177.56
586.688	10181.4
587.048	10231.12
587.408	10158.57
587.768	10214.84
588.127	10225.24
588.487	10238.12
588.846	10309.98
589.206	10236.31
589.565	10202.19
589.925	10357.44
590.284	10359.47
590.643	10361.06
591.003	10319.02
591.362	10383.65
591.721	10358.34
592.08	10364.9
592.44	10345.01
592.799	10376.87
593.158	10369.19
593.517	10351.56
593.876	10422.52
594.235	10440.83
594.593	10454.39
594.952	10437.21
595.311	10352.24
595.67	10379.81
596.029	10408.29
596.387	10442.18
596.746	10484.44
597.104	10452.8
597.463	10501.62
597.822	10467.49
598.18	10419.36
598.538	10477.21
598.897	10528.96
599.255	10415.29
599.613	10567.83
599.972	10508.4
600.33	10493.48
600.688	10533.48
601.046	10561.73
601.404	10635.4
601.762	10600.82
602.12	10615.06
602.478	10603.31
602.836	10633.59
603.194	10561.95
603.552	10569.19
603.91	10540.26
604.268	10571.9
604.625	10581.61
604.983	10651.22
605.341	10586.13
605.698	10592.46
606.056	10671.78
606.413	10674.95
606.771	10597.66
607.128	10656.41
607.485	10668.84
607.843	10648.05
608.2	10679.92
608.557	10746.81
608.914	10718.33
609.272	10786.13
609.629	10810.08
609.986	10841.27
610.343	10749.97
610.7	10843.75
611.057	10778.22
611.414	10778.22
611.771	10830.2
612.127	10857.99
612.484	10777.32
612.841	10876.3
613.198	10856.41
613.554	10857.54
613.911	10863.64
614.267	10931.89
614.624	10880.36
614.98	10919.91
615.337	10934.15
615.693	10978.89
616.05	10874.26
616.406	11007.37
616.762	10975.73
617.118	10977.31
617.475	10902.28
617.831	11041.04
618.187	10994.94
618.543	10976.18
618.899	11042.17
619.255	10934.6
619.611	11044.65
619.967	11025.44
620.323	11093.47
620.678	11003.07
621.034	10950.42
621.39	11017.31
621.746	10920.81
622.101	11102.96
622.457	11032.22
622.812	11046.23
623.168	11100.7
623.523	11062.28
623.879	11090.75
624.234	11039.23
624.589	11040.13
624.945	11054.14
625.3	11058.44
625.655	11005.56
626.01	10988.61
626.365	10987.48
626.72	11052.56
627.075	11092.79
627.43	11057.99
627.785	11003.98
628.14	10984.77
628.495	11011.21
628.85	10966.46
629.205	10912.91
629.559	10970.53
629.914	10990.64
630.269	10962.4
630.623	10983.41
630.978	10894.6
631.332	11017.31
631.687	10901.61
632.041	10848.05
632.396	10903.19
632.75	10882.4
633.104	10935.05
633.459	10907.93
633.813	10860.25
634.167	10866.13
634.521	10805.56
634.875	10803.53
635.229	10790.65
635.583	10734.83
635.937	10784.32
636.291	10722.18
636.645	10782.06
636.999	10708.84
637.352	10762.17
637.706	10713.59
638.06	10770.54
638.413	10712.23
638.767	10703.19
639.121	10700.93
639.474	10593.59
639.828	10584.1
640.181	10661.61
640.534	10633.59
640.888	10654.83
641.241	10573.93
641.594	10537.1
641.947	10592.46
642.301	10611.9
642.654	10532.8
643.007	10580.94
643.36	10540.03
643.713	10507.04
644.066	10525.57
644.419	10495.74
644.771	10435.4
645.124	10336.2
645.477	10375.07
645.83	10333.94
646.182	10204.22
646.535	10147.5
646.888	10238.8
647.24	10182.08
647.593	10139.14
647.945	10130.33
648.298	10074.06
648.65	10129.65
649.002	10185.01
649.355	10082.19
649.707	10116.77
650.059	10179.14
650.411	10316.76
650.763	10297.33
651.115	10344.11
651.467	10342.3
651.819	10347.95
652.171	10364.44
652.523	10270.21
652.875	10348.17
653.227	10154.28
653.578	10297.33
653.93	10340.94
654.282	10284.67
654.633	10257.1
654.985	10281.74
655.337	10263.88
655.688	10275.41
656.039	10334.62
656.391	10188.63
656.742	10189.08
657.094	10201.74
657.445	10291
657.796	10249.19
658.147	10281.28
658.498	10321.73
658.849	10256.88
659.2	10215.52
659.551	10279.48
659.902	10197.67
660.253	10285.13
660.604	10294.16
660.955	10216.2
661.306	10235.18
661.656	10340.49
662.007	10282.87
662.358	10239.25
662.708	10180.04
663.059	10245.58
663.409	10206.48
663.76	10283.54
664.11	10207.84
664.461	10227.95
664.811	10280.83
665.161	10207.84
665.511	10227.5
665.862	10320.6
666.212	10232.92
666.562	10221.62
666.912	10260.72
667.262	10219.59
667.612	10172.36
667.962	10249.65
668.312	10261.17
668.662	10335.52
669.011	10304.56
669.361	10294.62
669.711	10243.54
670.06	10197.67
670.41	10179.59
670.76	10176.2
671.109	10220.49
671.459	10172.81
671.808	10184.79
672.157	10156.77
672.507	10105.47
672.856	10134.85
673.205	10152.02
673.554	10152.47
673.904	10087.16
674.253	10219.36
674.602	10070.44
674.951	10085.36
675.3	9907.06
675.649	10020.73
675.998	10102.3
676.346	10051.23
676.695	10049.2
677.044	10006.94
677.393	10058.69
677.741	10073.61
678.09	10026.15
678.438	10022.76
678.787	10020.27
679.135	10069.31
679.484	9937.34
679.832	9952.7
680.181	9860.05
680.529	9927.17
680.877	9923.55
681.225	9855.98
681.573	9928.52
681.922	9897.56
682.27	9795.19
682.618	9839.26
682.966	9817.57
683.314	9846.49
683.661	9773.95
684.009	9669.32
684.357	9733.95
684.705	9687.85
685.053	9688.53
685.4	9668.42
685.748	9665.03
686.095	9658.25
686.443	9611.47
686.79	9577.35
687.138	9619.15
687.485	9591.81
687.832	9575.31
688.18	9538.03
688.527	9521.76
688.874	9495.77
689.221	9512.94
689.568	9516.33
689.915	9425.94
690.262	9472.04
690.609	9315.43
690.956	9347.75
691.303	9284.93
691.65	9237.24
691.997	9284.7
692.344	9215.77
692.69	9203.57
693.037	9218.71
693.383	9152.95
693.73	9191.14
694.077	9092.61
694.423	9065.95
694.769	9018.27
695.116	9058.94
695.462	9007.42
695.808	8953.63
696.155	9051.03
696.501	8895.11
696.847	8899.85
697.193	8815.11
697.539	8825.28
697.885	8769.23
698.231	8747.09
698.577	8781.21
698.923	8764.94
699.269	8645.17
699.614	8613.76
699.96	8661.89
700.306	8642.23
700.651	8557.49
700.997	8583.7
701.342	8501.67
701.688	8520.88
702.033	8494.89
702.379	8449.69
702.724	8401.33
703.069	8472.29
703.415	8331.96
703.76	8390.03
704.105	8324.05
704.45	8352.29
704.795	8287.21
705.14	8192.52
705.485	8235.69
705.83	8225.52
706.175	8132.87
706.52	8181.23
706.865	8138.74
707.209	8126.54
707.554	8110.49
707.899	8089.48
708.243	8055.58
708.588	8099.65
708.932	8013.77
709.277	8015.58
709.621	7940.78
709.966	7945.53
710.31	7984.62
710.654	7863.27
710.998	7857.62
711.342	7863.72
711.687	7807.68
712.031	7792.76
712.375	7766.32
712.719	7853.32
713.063	7773.33
713.407	7845.42
713.75	7793.67
714.094	7740.56
714.438	7769.26
714.782	7705.53
715.125	7673.67
715.469	7654.46
715.812	7628.25
716.156	7644.52
716.499	7651.07
716.843	7659.21
717.186	7586.89
717.53	7597.96
717.873	7604.97
718.216	7582.82
718.559	7536.72
718.902	7516.38
719.246	7528.81
719.589	7505.09
719.932	7483.39
720.275	7512.54
720.617	7434.8
720.96	7471.87
721.303	7467.8
721.646	7462.6
721.989	7468.48
722.331	7431.19
722.674	7328.14
723.016	7390.96
723.359	7409.95
723.701	7413.79
724.044	7281.81
724.386	7251.53
724.729	7295.37
725.071	7352.77
725.413	7297.41
725.755	7266.67
726.097	7288.59
726.439	7282.49
726.782	7277.29
727.124	7307.8
727.465	7252.66
727.807	7266.22
728.149	7219.44
728.491	7247.92
728.833	7264.87
729.175	7247.01
729.516	7207.24
729.858	7226
730.199	7238.43
730.541	7199.1
730.882	7178.99
731.224	7186
731.565	7181.48
731.906	7214.92
732.248	7254.47
732.589	7169.05
732.93	7157.98
733.271	7099.67
733.612	7226
733.953	7210.63
734.294	7168.82
734.635	7167.92
734.976	7184.87
735.317	7121.82
735.658	7105.1
735.999	7126.79
736.339	7145.55
736.68	7160.01
737.021	7145.09
737.361	7130.63
737.702	7166.79
738.042	7164.08
738.383	7127.02
738.723	7226.9
739.063	7202.95
739.404	7197.75
739.744	7216.28
740.084	7187.81
740.424	7185.77
740.764	7138.09
741.104	7256.28
741.444	7112.33
741.784	7157.75
742.124	7157.98
742.464	7202.04
742.804	7189.84
743.143	7196.62
743.483	7218.54
743.823	7169.73
744.162	7240.69
744.502	7236.17
744.841	7202.04
745.181	7249.5
745.52	7276.62
745.86	7239.1
746.199	7260.35
746.538	7313.23
746.877	7399.33
747.216	7448.59
747.556	7358.2
747.895	7435.93
748.234	7424.41
748.573	7482.94
748.911	7519.55
749.25	7554.35
749.589	7603.61
749.928	7641.58
750.267	7715.48
750.605	7711.63
750.944	7729.71
751.283	7810.61
751.621	7828.69
751.96	7866.43
752.298	7953.89
752.636	7994.56
752.975	8020.33
753.313	8047.22
753.651	8209.93
753.989	8181.9
754.327	8281.56
754.666	8347.55
755.004	8441.56
755.342	8543.02
755.679	8594.77
756.017	8642
756.355	8714.77
756.693	8757.93
757.031	8905.95
757.368	8965.16
757.706	9091.48
758.044	9118.83
758.381	9268.43
758.719	9323.79
759.056	9438.37
759.394	9548.87
759.731	9568.53
760.068	9748.87
760.405	9797.45
760.743	9897.79
761.08	9947.96
761.417	10053.72
761.754	10109.31
762.091	10260.72
762.428	10299.59
762.765	10431.11
763.102	10584.55
763.438	10611.9
763.775	10721.95
764.112	10781.16
764.449	10929.4
764.785	10997.2
765.122	11104.76
765.458	11153.12
765.795	11235.38
766.131	11281.93
766.467	11430.63
766.804	11410.97
767.14	11537.97
767.476	11604.64
767.812	11713.56
768.148	11844.86
768.485	11820
768.821	11838.3
769.157	12000.56
769.492	12102.7
769.828	12200.33
770.164	12189.03
770.5	12209.59
770.836	12376.6
771.171	12329.37
771.507	12432.64
771.842	12386.76
772.178	12438.97
772.513	12584.95
772.849	12540.21
773.184	12605.74
773.519	12666.76
773.855	12652.29
774.19	12717.6
774.525	12681.45
774.86	12784.27
775.195	12845.51
775.53	12796.02
775.865	12836.47
776.2	12832.18
776.535	12813.42
776.87	12900.65
777.205	12928.9
777.539	12868.79
777.874	12939.07
778.209	12913.08
778.543	12927.32
778.878	12873.53
779.212	12899.75
779.547	12907.43
779.881	13010.25
780.215	12991.04
780.55	12947.43
780.884	12976.35
781.218	12994.43
781.552	13045.73
781.886	12958.5
782.22	12984.04
782.554	12885.06
782.888	12884.83
783.222	12838.28
783.556	12765.51
783.889	12852.29
784.223	12753.08
784.557	12789.24
784.89	12851.84
785.224	12768
785.557	12781.56
785.891	12746.53
786.224	12767.55
786.558	12812.06
786.891	12652.75
787.224	12543.14
787.557	12653.2
787.891	12633.54
788.224	12674.89
788.557	12635.35
788.89	12544.95
789.223	12602.8
789.556	12531.62
789.888	12539.08
790.221	12455.69
790.554	12445.07
790.887	12475.35
791.219	12440.32
791.552	12449.14
791.884	12349.7
792.217	12339.53
792.549	12341.79
792.882	12193.55
793.214	12236.94
793.546	12291.63
793.879	12154.91
794.211	12137.73
794.543	12264.28
794.875	12099.77
795.207	12140.44
795.539	12134.57
795.871	12145.42
796.203	12009.15
796.535	11959.21
796.867	11935.25
797.198	11891.64
797.53	11863.84
797.862	11834.46
798.193	11860.9
798.525	11838.3
798.856	11832.43
799.188	11757.4
799.519	11757.85
799.85	11618.42
800.182	11595.37
800.513	11676.05
800.844	11535.94
801.175	11597.63
801.506	11518.99
801.837	11522.61
802.168	11526
802.499	11442.38
802.83	11408.49
803.161	11424.3
803.491	11428.6
803.822	11410.29
804.153	11418.88
804.483	11272.9
804.814	11226.8
805.145	11254.37
805.475	11192.9
805.805	11169.62
806.136	11226.12
806.466	11196.97
806.796	11198.77
807.126	11031.32
807.457	11055.73
807.787	11088.49
808.117	10988.38
808.447	11032.45
808.777	10982.06
809.107	10982.06
809.436	10970.76
809.766	10937.76
810.096	10949.97
810.426	10879.69
810.755	10858.22
811.085	10881.49
811.414	10765.79
811.744	10785.45
812.073	10773.93
812.403	10736.41
812.732	10679.46
813.061	10748.84
813.39	10612.8
813.719	10639.69
814.049	10723.08
814.378	10603.53
814.707	10604.21
815.036	10599.02
815.365	10528.96
815.693	10409.42
816.022	10446.48
816.351	10461.62
816.68	10427.95
817.008	10519.02
817.337	10367.61
817.665	10362.41
817.994	10377.1
818.322	10328.97
818.651	10301.17
818.979	10293.94
819.307	10274.05
819.636	10229.31
819.964	10217.78
820.292	10227.73
820.62	10234.05
820.948	10228.86
821.276	10213.04
821.604	10191.57
821.932	10203.32
822.259	10221.85
822.587	10180.5
822.915	10136.65
823.243	10198.35
823.57	10165.58
823.898	10202.19
824.225	10131.46
824.553	10194.51
824.88	10178.69
825.207	10157.9
825.535	10123.77
825.862	10246.71
826.189	10132.59
826.516	10246.26
826.843	10251.45
827.17	10196.09
827.497	10230.89
827.824	10243.54
828.151	10234.96
828.478	10184.34
828.805	10250.55
829.131	10216.43
829.458	10143.66
829.785	10187.05
830.111	10179.82
830.438	10222.53
830.764	10212.13
831.09	10288.06
831.417	10230.21
831.743	10161.06
832.069	10216.2
832.395	10178.91
832.722	10232.7
833.048	10171.23
833.374	10159.7
833.7	10114.51
834.026	10102.98
834.351	10174.85
834.677	10093.72
835.003	10112.47
835.329	10067.05
835.654	10127.62
835.98	10048.3
836.306	10026.83
836.631	10052.14
836.956	10079.93
837.282	10100.05
837.607	10016.66
837.932	9981.86
838.258	10009.43
838.583	9973.04
838.908	9900.73
839.233	9966.72
839.558	9877.45
839.883	9882.42
840.208	9858.02
840.533	9827.74
840.858	9839.49
841.182	9874.51
841.507	9881.52
841.832	9758.81
842.156	9838.36
842.481	9763.56
842.805	9719.94
843.13	9701.41
843.454	9650.79
843.778	9693.73
844.103	9677.01
844.427	9598.82
844.751	9600.85
845.075	9592.49
845.399	9534.41
845.723	9499.16
846.047	9571.92
846.371	9434.53
846.695	9411.48
847.019	9337.35
847.343	9361.76
847.666	9359.27
847.99	9214.19
848.313	9249.22
848.637	9177.58
848.96	9137.13
849.284	9231.37
849.607	9131.48
849.931	9039.28
850.254	9021.66
850.577	9016.91
850.9	8865.73
851.223	8904.14
851.546	8852.17
851.869	8788.67
852.192	8874.77
852.515	8727.2
852.838	8792.51
853.161	8719.97
853.483	8720.19
853.806	8690.36
854.129	8570.59
854.451	8656.47
854.774	8674.77
855.096	8590.25
855.419	8565.17
855.741	8505.06
856.063	8455.57
856.385	8504.38
856.708	8438.62
857.03	8473.2
857.352	8376.7
857.674	8361.56
857.996	8399.75
858.318	8334.22
858.64	8335.8
858.961	8307.32
859.283	8187.33
859.605	8235.46
859.926	8263.03
860.248	8253.99
860.57	8149.14
860.891	8166.08
861.212	8070.95
861.534	8163.37
861.855	8050.16
862.176	8054.22
862.498	8080.21
862.819	8048.8
863.14	8072.08
863.461	8023.94
863.782	8006.54
864.103	8011.06
864.424	7976.94
864.745	8000.89
865.065	7966.99
865.386	7927.45
865.707	7959.08
866.027	7956.6
866.348	7946.43
866.668	7900.33
866.989	7875.47
867.309	7839.09
867.63	7880.44
867.95	7757.73
868.27	7716.83
868.59	7863.95
868.91	7805.64
869.23	7827.11
869.55	7746.21
869.87	7789.15
870.19	7694.46
870.51	7801.57
870.83	7758.19
871.15	7714.12
871.469	7655.36
871.789	7668.24
872.109	7720.67
872.428	7640.67
872.748	7699.88
873.067	7629.6
873.386	7661.69
873.706	7654.01
874.025	7606.78
874.344	7588.7
874.663	7626.44
874.982	7595.48
875.301	7567
875.62	7541.69
875.939	7484.07
876.258	7534.69
876.577	7452.21
876.896	7501.92
877.214	7465.76
877.533	7485.65
877.852	7468.02
878.17	7405.2
878.489	7443.17
878.807	7483.16
879.125	7409.27
879.444	7420.12
879.762	7362.04
880.08	7388.93
880.398	7291.31
880.716	7347.8
881.034	7288.14
881.352	7309.38
881.67	7287.01
881.988	7328.14
882.306	7324.07
882.624	7227.58
882.941	7216.73
883.259	7206.34
883.577	7181.25
883.894	7149.84
884.212	7167.01
884.529	7158.65
884.846	7149.61
885.164	7176.73
885.481	7104.87
885.798	7170.63
886.115	7059.67
886.432	7084.08
886.75	7055.15
887.067	7027.58
887.383	6961.14
887.7	7007.02
888.017	7042.95
888.334	6963.4
888.651	6947.81
888.967	6946.91
889.284	6933.8
889.6	6886.8
889.917	6833.92
890.233	6869.62
890.55	6814.48
890.866	6829.17
891.182	6787.14
891.498	6767.7
891.815	6747.14
892.131	6706.91
892.447	6708.5
892.763	6665.79
893.079	6633.02
893.395	6610.87
893.71	6602.51
894.026	6632.11
894.342	6630.31
894.657	6583.53
894.973	6559.35
895.289	6533.13
895.604	6520.03
895.92	6465.11
896.235	6440.25
896.55	6396.64
896.865	6458.11
897.181	6383.08
897.496	6424.21
897.811	6357.09
898.126	6376.98
898.441	6336.75
898.756	6299.69
899.071	6267.6
899.386	6281.39
899.7	6215.4
900.015	6240.03
900.33	6111.45
900.644	6187.83
900.959	6143.99
901.273	6090.66
901.588	6121.84
901.902	6060.83
902.216	6038.68
902.531	6068.74
902.845	6047.04
903.159	6018.12
903.473	5966.37
903.787	5985.13
904.101	5930.44
904.415	5907.61
904.729	5857.22
905.042	5834.17
905.356	5832.36
905.67	5786.03
905.984	5795.98
906.297	5779.03
906.611	5750.1
906.924	5785.13
907.237	5739.48
907.551	5693.83
907.864	5659.26
908.177	5668.52
908.491	5690.67
908.804	5593.05
909.117	5628.3
909.43	5536.32
909.743	5559.37
910.056	5549.88
910.368	5506.04
910.681	5502.65
910.994	5475.53
911.307	5451.13
911.619	5399.6
911.932	5446.61
912.244	5398.02
912.557	5395.76
912.869	5328.87
913.181	5345.37
913.494	5292.26
913.806	5287.52
914.118	5228.08
914.43	5238.93
914.742	5243.9
915.054	5148.31
915.366	5201.64
915.678	5160.74
915.99	5110.35
916.302	5105.15
916.613	5064.02
916.925	5061.31
917.236	5074.19
917.548	5027.86
917.859	5035.09
918.171	4981.76
918.482	4980.63
918.794	4968.88
919.105	4895.44
919.416	4871.93
919.727	4881.43
920.038	4875.1
920.349	4877.13
920.66	4842.1
920.971	4822.67
921.282	4828.32
921.593	4724.59
921.903	4733.18
922.214	4708.77
922.525	4705.38
922.835	4709.9
923.146	4669.91
923.456	4684.59
923.767	4624.71
924.077	4622
924.387	4598.27
924.697	4573.41
925.008	4580.87
925.318	4560.53
925.628	4546.07
925.938	4522.79
926.248	4496.35
926.558	4499.97
926.867	4468.55
927.177	4455.22
927.487	4443.7
927.796	4403.92
928.106	4412.51
928.416	4412.06
928.725	4386.3
929.034	4307.88
929.344	4321.44
929.653	4294.32
929.962	4275.11
930.271	4262.91
930.581	4259.07
930.89	4249.35
931.199	4190.14
931.508	4209.8
931.817	4223.59
932.125	4216.13
932.434	4164.61
932.743	4126.64
933.051	4111.95
933.36	4074.44
933.669	4068.57
933.977	4051.39
934.286	4031.28
934.594	4057.27
934.902	4017.27
935.21	4012.52
935.519	3999.41
935.827	3970.26
936.135	3981.11
936.443	3910.6
936.751	3923.26
937.059	3897.95
937.367	3875.12
937.674	3874.67
937.982	3874.22
938.29	3867.89
938.597	3836.71
938.905	3808.01
939.213	3765.3
939.52	3796.71
939.827	3758.74
940.135	3703.15
940.442	3735.24
940.749	3725.52
941.056	3730.27
941.363	3674.9
941.67	3684.62
941.977	3643.49
942.284	3608.92
942.591	3647.79
942.898	3641.68
943.205	3612.31
943.511	3593.1
943.818	3582.25
944.125	3504.29
944.431	3511.52
944.738	3515.59
945.044	3533.44
945.35	3528.47
945.657	3483.95
945.963	3442.59
946.269	3431.97
946.575	3475.13
946.881	3429.26
947.187	3386.1
947.493	3373.22
947.799	3387
948.105	3369.15
948.41	3362.37
948.716	3362.6
949.022	3356.27
949.327	3354.23
949.633	3285.31
949.938	3314.46
950.244	3277.17
950.549	3283.28
950.854	3245.54
951.16	3219.1
951.465	3241.69
951.77	3233.11
952.075	3191.98
952.38	3207.12
952.685	3180.45
952.99	3119.66
953.294	3145.43
953.599	3130.06
953.904	3068.59
954.209	3093
954.513	3082.15
954.818	3079.44
955.122	3067.01
955.426	3033.11
955.731	3072.21
956.035	2996.5
956.339	2999.21
956.643	3007.12
956.948	2990.4
957.252	2976.39
957.556	2950.63
957.86	2953.79
958.163	2964.87
958.467	2909.95
958.771	2909.73
959.075	2885.09
959.378	2878.31
959.682	2867.24
959.985	2837.19
960.289	2831.76
960.592	2817.52
960.896	2814.81
961.199	2816.17
961.502	2804.87
961.805	2773.91
962.108	2800.12
962.411	2781.37
962.714	2746.11
963.017	2725.32
963.32	2750.18
963.623	2711.09
963.926	2746.34
964.228	2696.85
964.531	2729.84
964.833	2702.5
965.136	2656.17
965.438	2638.32
965.741	2656.4
966.043	2657.53
966.345	2633.12
966.648	2620.92
966.95	2599.68
967.252	2584.31
967.554	2622.95
967.856	2585.89
968.158	2557.64
968.46	2547.48
968.761	2534.82
969.063	2502.5
969.365	2493.24
969.666	2525.78
969.968	2475.84
970.269	2494.14
970.571	2453.92
970.872	2465.44
971.174	2469.74
971.475	2487.59
971.776	2452.79
972.077	2435.39
972.378	2445.11
972.679	2410.3
972.98	2392.9
973.281	2382.06
973.582	2371.89
973.883	2383.64
974.183	2369.4
974.484	2326.01
974.785	2384.09
975.085	2328.05
975.386	2333.47
975.686	2308.61
975.986	2325.33
976.287	2295.05
976.587	2281.04
976.887	2278.78
977.187	2233.59
977.487	2250.76
977.787	2241.27
978.087	2229.74
978.387	2237.2
978.687	2246.24
978.987	2231.33
979.286	2193.81
979.586	2184.77
979.885	2200.37
980.185	2206.02
980.484	2146.13
980.784	2161.72
981.083	2159.69
981.382	2102.52
981.682	2158.79
981.981	2125.79
982.28	2136.86
982.579	2100.71
982.878	2088.5
983.177	2071.78
983.475	2085.34
983.774	2039.24
984.073	2063.19
984.372	2071.33
984.67	2046.7
984.969	2029.75
985.267	2024.33
985.566	1993.82
985.864	2009.86
986.162	2014.38
986.461	1987.04
986.759	1972.8
987.057	1981.61
987.355	1918.79
987.653	1944.1
987.951	1921.5
988.249	1920.6
988.547	1921.73
988.844	1913.59
989.142	1920.6
989.44	1911.56
989.737	1906.36
990.035	1878.34
990.332	1893.71
990.63	1862.52
990.927	1852.13
991.224	1838.79
991.521	1825.91
991.819	1833.14
992.116	1823.2
992.413	1818.68
992.71	1810.55
993.006	1822.75
993.303	1808.74
993.6	1756.99
993.897	1795.63
994.193	1780.49
994.49	1763.99
994.787	1747.72
995.083	1752.02
995.379	1728.97
995.676	1725.58
995.972	1705.46
996.268	1730.55
996.565	1700.49
996.861	1708.18
997.157	1687.61
997.453	1675.41
997.749	1675.63
998.044	1677.67
998.34	1670.44
998.636	1656.2
998.932	1645.58
999.227	1626.14
999.523	1623.43
999.818	1609.42
1000.114	1607.84
1000.409	1607.16
1000.704	1590.21
1001	1578.01
1001.295	1575.52
1001.59	1585.47
1001.885	1571.23
1002.18	1573.26
1002.475	1574.62
1002.77	1551.8
1003.065	1525.13
1003.359	1535.3
1003.654	1521.74
1003.949	1520.16
1004.243	1486.94
1004.538	1480.16
1004.832	1509.54
1005.127	1467.96
1005.421	1474.28
1005.715	1451.23
1006.009	1439.26
1006.304	1477.9
1006.598	1470.44
1006.892	1412.82
1007.186	1435.19
1007.48	1416.43
1007.773	1436.32
1008.067	1405.36
1008.361	1392.48
1008.655	1399.71
1008.948	1375.75
1009.242	1380.27
1009.535	1324
1009.829	1365.36
1010.122	1330.33
1010.415	1353.61
1010.708	1343.67
1011.001	1352.7
1011.295	1331.69
1011.588	1314.74
1011.881	1316.1
1012.173	1288.98
1012.466	1306.83
1012.759	1275.42
1013.052	1284.23
1013.344	1259.37
1013.637	1275.64
1013.93	1289.66
1014.222	1266.83
1014.514	1234.29
1014.807	1241.07
1015.099	1215.31
1015.391	1218.24
1015.683	1217.11
1015.976	1218.7
1016.268	1195.42
1016.56	1190.22
1016.851	1186.61
1017.143	1186.38
1017.435	1198.36
1017.727	1176.21
1018.018	1170.11
1018.31	1159.26
1018.602	1150.9
1018.893	1123.33
1019.185	1124.46
1019.476	1121.52
1019.767	1127.63
1020.058	1092.15
1020.35	1114.97
1020.641	1107.97
1020.932	1075.42
1021.223	1091.24
1021.514	1103.67
1021.804	1062.32
1022.095	1059.38
1022.386	1090.79
1022.677	1081.75
1022.967	1086.72
1023.258	1046.27
1023.548	1029.55
1023.839	1053.05
1024.129	1014.63
1024.419	1028.65
1024.709	1018.93
1025	1005.6
1025.29	1006.72
1025.58	983.9
1025.87	987.06
1026.16	994.07
1026.449	970.57
1026.739	980.06
1027.029	977.35
1027.319	928.76
1027.608	954.75
1027.898	938.03
1028.187	925.15
1028.477	955.2
1028.766	933.05
1029.055	928.76
1029.344	930.79
1029.634	929.89
1029.923	895.09
1030.212	888.31
1030.501	898.03
1030.79	915.2
1031.078	887.86
1031.367	879.5
1031.656	881.98
1031.945	882.43
1032.233	874.53
1032.522	867.29
1032.81	865.26
1033.099	852.15
1033.387	858.25
1033.675	878.82
1033.963	841.08
1034.251	840.63
1034.54	821.19
1034.828	833.4
1035.116	841.08
1035.403	820.29
1035.691	825.71
1035.979	796.79
1036.267	795.66
1036.554	835.2
1036.842	800.18
1037.129	798.37
1037.417	798.59
1037.704	768.77
1037.992	788.88
1038.279	763.79
1038.566	794.98
1038.853	794.98
1039.14	794.98
