Data from hue_70_FLMS001491_29.txt Node
Date: Mon Feb 06 15:20:21 GMT 2017
User: dcchb
Spectrometer: FLMS00149
Trigger mode: 0
Integration Time (sec): 2.000000E-2
Scans to average: 10
Electric dark correction enabled: true
Nonlinearity correction enabled: false
Boxcar width: 0
XAxis mode: Wavelengths
Number of Pixels in Spectrum: 2048
>>>>>Begin Spectral Data<<<<<
341.393	-6.82
341.776	-6.82
342.16	-6.82
342.543	-61.51
342.927	-68.29
343.31	-61.06
343.693	-59.02
344.077	-65.58
344.46	-57.89
344.843	-47.95
345.226	-42.98
345.61	-17.44
345.993	-10.66
346.376	-17.9
346.759	-10.21
347.142	43.8
347.525	43.57
347.908	48.77
348.291	81.99
348.674	80.41
349.057	92.16
349.44	112.72
349.823	132.61
350.206	161.54
350.588	191.37
350.971	219.84
351.354	221.87
351.737	246.5
352.119	244.92
352.502	261.42
352.884	272.27
353.267	277.92
353.65	279.95
354.032	298.71
354.414	302.77
354.797	311.36
355.179	319.72
355.562	331.25
355.944	313.4
356.326	311.36
356.709	338.48
357.091	341.19
357.473	336.45
357.855	323.34
358.238	356.56
358.62	348.88
359.002	337.35
359.384	342.77
359.766	340.74
360.148	332.83
360.53	333.51
360.912	329.44
361.294	338.25
361.676	356.33
362.057	326.05
362.439	322.21
362.821	329.21
363.203	322.21
363.584	315.88
363.966	347.29
364.348	320.85
364.729	318.14
365.111	333.73
365.493	326.28
365.874	341.64
366.256	306.39
366.637	331.93
367.019	317.24
367.4	326.95
367.781	328.54
368.163	307.07
368.544	320.63
368.925	311.36
369.306	328.76
369.688	312.04
370.069	298.25
370.45	294.64
370.831	324.92
371.212	323.34
371.593	310.91
371.974	308.42
372.355	317.46
372.736	339.61
373.117	336.45
373.498	343.23
373.879	313.4
374.26	330.57
374.641	323.11
375.021	308.65
375.402	319.27
375.783	300.06
376.163	334.41
376.544	320.85
376.925	313.4
377.305	323.34
377.686	326.05
378.066	326.05
378.447	343.68
378.827	317.69
379.208	318.14
379.588	331.7
379.968	334.64
380.349	339.84
380.729	328.76
381.109	341.19
381.489	350
381.87	336.9
382.25	357.24
382.63	360.4
383.01	335.32
383.39	344.81
383.77	342.77
384.15	361.3
384.53	356.33
384.91	325.82
385.29	324.02
385.67	340.74
386.049	337.12
386.429	339.61
386.809	358.14
387.189	338.03
387.568	358.37
387.948	373.28
388.328	342.1
388.707	361.3
389.087	353.85
389.466	331.25
389.846	360.63
390.225	358.14
390.605	361.98
390.984	375.31
391.363	381.87
391.743	358.37
392.122	364.47
392.501	354.75
392.881	361.08
393.26	363.79
393.639	385.48
394.018	366.05
394.397	370.8
394.776	374.19
395.155	366.5
395.534	369.44
395.913	360.63
396.292	396.78
396.671	377.57
397.05	365.6
397.429	383
397.808	386.61
398.186	382.32
398.565	379.16
398.944	385.26
399.323	381.42
399.701	375.09
400.08	392.04
400.458	388.42
400.837	397.91
401.215	392.04
401.594	389.55
401.972	349.55
402.351	406.05
402.729	389.1
403.107	404.69
403.486	389.78
403.864	412.83
404.242	386.61
404.62	416.9
404.999	415.09
405.377	407.86
405.755	399.04
406.133	398.37
406.511	419.16
406.889	409.89
407.267	434.52
407.645	406.5
408.023	426.84
408.401	423.22
408.779	413.05
409.156	434.3
409.534	425.03
409.912	443.34
410.29	414.64
410.667	442.21
411.045	453.05
411.422	448.99
411.8	437.69
412.178	434.3
412.555	430
412.933	446.27
413.31	449.89
413.687	459.83
414.065	453.28
414.442	475.65
414.819	469.78
415.197	464.8
415.574	475.2
415.951	488.76
416.328	469.55
416.705	472.94
417.082	465.48
417.46	473.17
417.837	459.83
418.214	468.42
418.591	474.52
418.967	496.89
419.344	479.49
419.721	491.47
420.098	488.31
420.475	513.84
420.852	506.84
421.228	509.1
421.605	496.67
421.982	503.22
422.358	527.4
422.735	518.59
423.111	519.04
423.488	523.79
423.864	524.46
424.241	540.28
424.617	525.59
424.994	530.79
425.37	536.44
425.746	539.83
426.123	544.35
426.499	526.5
426.875	546.16
427.251	557.01
427.627	561.3
428.003	553.16
428.379	575.99
428.756	559.72
429.132	568.76
429.507	552.49
429.883	591.35
430.259	566.95
430.635	595.2
431.011	603.33
431.387	583.22
431.763	607.17
432.138	581.41
432.514	605.37
432.89	602.65
433.265	611.24
433.641	627.74
434.016	618.25
434.392	641.52
434.767	623.44
435.143	641.97
435.518	647.85
435.894	660.96
436.269	631.35
436.644	655.99
437.02	688.75
437.395	661.64
437.77	677.68
438.145	696.66
438.52	688.08
438.895	683.33
439.271	679.26
439.646	711.58
440.021	685.14
440.395	700.5
440.77	709.77
441.145	691.24
441.52	703.44
441.895	724.46
442.27	724.91
442.645	710.22
443.019	746.6
443.394	763.33
443.769	750.9
444.143	744.57
444.518	753.84
444.892	735.53
445.267	752.48
445.641	765.81
446.016	774.85
446.39	749.32
446.764	765.59
447.139	796.77
447.513	793.61
447.887	785.25
448.262	779.82
448.636	800.61
449.01	797.9
449.384	791.8
449.758	806.72
450.132	819.82
450.506	800.84
450.88	806.94
451.254	813.72
451.628	822.31
452.002	820.5
452.376	832.93
452.75	832.25
453.123	826.83
453.497	857.34
453.871	874.96
454.244	874.74
454.618	870.67
454.992	900.27
455.365	888.52
455.739	900.5
456.112	923.78
456.486	905.7
456.859	955.41
457.232	955.19
457.606	943.66
457.979	943.21
458.352	971.68
458.725	1010.33
459.099	995.64
459.472	1011
459.845	1018.69
460.218	1032.92
460.591	1027.28
460.964	1005.81
461.337	1050.55
461.71	1067.73
462.083	1113.6
462.456	1104.79
462.829	1086.48
463.201	1123.77
463.574	1138.46
463.947	1137.78
464.32	1137.78
464.692	1157.67
465.065	1169.19
465.438	1216.2
465.81	1217.33
466.183	1261.62
466.555	1251
466.928	1263.2
467.3	1295.06
467.672	1310.43
468.045	1298
468.417	1326.48
468.789	1343.43
469.161	1369.87
469.534	1411.67
469.906	1436.3
470.278	1467.49
470.65	1474.5
471.022	1511.78
471.394	1530.31
471.766	1538.9
472.138	1564.21
472.51	1609.18
472.882	1665
473.253	1666.35
473.625	1712
473.997	1744.77
474.369	1801.04
474.74	1819.8
475.112	1850.76
475.484	1914.26
475.855	1961.49
476.227	2007.81
476.598	2051.88
476.97	2086.91
477.341	2133.46
477.713	2201.93
478.084	2257.98
478.455	2340.91
478.827	2358.09
479.198	2457.97
479.569	2475.6
479.94	2529.16
480.311	2642.83
480.682	2719.43
481.053	2842.14
481.424	2840.79
481.795	2946.32
482.166	3032.65
482.537	3128.69
482.908	3221.12
483.279	3317.84
483.65	3388.34
484.021	3546.53
484.391	3566.87
484.762	3675.79
485.133	3764.83
485.503	3856.35
485.874	4004.15
486.244	4069.91
486.615	4190.36
486.985	4297.7
487.356	4436.9
487.726	4550.57
488.097	4725.26
488.467	4769.78
488.837	4948.08
489.207	5035.76
489.578	5214.51
489.948	5357.78
490.318	5443.88
490.688	5540.83
491.058	5685.01
491.428	5879.35
491.798	6013.81
492.168	6210.19
492.538	6292
492.908	6427.59
493.278	6583.51
493.648	6640.69
494.017	6809.27
494.387	6989.38
494.757	7048.59
495.126	7228.24
495.496	7346.88
495.866	7492.42
496.235	7641.56
496.605	7715.46
496.974	7855.12
497.344	8042.01
497.713	8194.32
498.082	8293.52
498.452	8423.46
498.821	8587.53
499.19	8700.52
499.559	8794.75
499.928	8905.03
500.298	9083.33
500.667	9185.03
501.036	9233.16
501.405	9522.65
501.774	9485.36
502.143	9735.29
502.512	9784.33
502.88	9974.38
503.249	10039.24
503.618	10196.53
503.987	10233.59
504.356	10361.27
504.724	10532.56
505.093	10594.93
505.462	10699.11
505.83	10853.01
506.199	11003.74
506.567	11175.48
506.936	11237.85
507.304	11308.59
507.672	11430.17
508.041	11520.56
508.409	11639.2
508.777	11791.29
509.145	11884.16
509.514	11932.53
509.882	12047.1
510.25	12174.78
510.618	12299.52
510.986	12351.5
511.354	12464.71
511.722	12605.5
512.09	12774.31
512.458	12830.35
512.826	12914.87
513.193	12988.99
513.561	12960.97
513.929	13159.61
514.297	13271.47
514.664	13426.72
515.032	13534.52
515.4	13554.86
515.767	13660.62
516.135	13765.02
516.502	13724.79
516.869	13973.6
517.237	14053.83
517.604	14073.03
517.972	14214.05
518.339	14308.06
518.706	14288.17
519.073	14448.84
519.44	14499.46
519.808	14647.93
520.175	14679.35
520.542	14857.19
520.909	14949.17
521.276	14964.31
521.643	15114.36
522.009	15206.79
522.376	15297.41
522.743	15374.92
523.11	15489.27
523.477	15642.71
523.843	15740.56
524.21	15885.87
524.577	15951.4
524.943	15985.98
525.31	16029.14
525.676	16109.36
526.043	16311.17
526.409	16343.03
526.776	16500.54
527.142	16530.6
527.508	16614.66
527.874	16775.34
528.241	16840.42
528.607	16841.55
528.973	16974.43
529.339	16918.83
529.705	17073.63
530.071	17150.47
530.437	17248.09
530.803	17331.48
531.169	17385.49
531.535	17285.15
531.901	17414.87
532.267	17527.63
532.632	17531.02
532.998	17669.78
533.364	17624.58
533.73	17714.75
534.095	17830
534.461	17803.33
534.826	17939.37
535.192	17874.74
535.557	18030.9
535.923	17974.85
536.288	18052.82
536.653	18147.5
537.019	18079.03
537.384	18129.65
537.749	18177.56
538.114	18154.96
538.479	18280.61
538.845	18245.81
539.21	18230.21
539.575	18321.06
539.94	18269.31
540.305	18388.63
540.67	18348.63
541.034	18330.1
541.399	18508.85
541.764	18402.19
542.129	18447.83
542.494	18435.18
542.858	18542.97
543.223	18394.73
543.587	18558.11
543.952	18462.3
544.316	18602.63
544.681	18513.6
545.045	18596.98
545.41	18762.63
545.774	18764.66
546.138	18690.77
546.503	18717.88
546.867	18653.7
547.231	18816.64
547.595	18780.03
547.959	18773.93
548.324	18875.39
548.688	18798.79
549.052	18955.39
549.416	18829.07
549.779	18976.18
550.143	18834.26
550.507	19015.28
550.871	19005.11
551.235	18927.82
551.599	19120.13
551.962	18963.53
552.326	19036.97
552.689	19122.17
553.053	19030.64
553.417	19036.97
553.78	19282.16
554.143	19133.01
554.507	19231.77
554.87	19173.69
555.234	19372.56
555.597	19387.47
555.96	19305.89
556.323	19474.93
556.686	19465.66
557.05	19400.58
557.413	19509.05
557.776	19520.35
558.139	19671.08
558.502	19627.69
558.865	19744.3
559.228	19804.86
559.59	19847.8
559.953	19801.24
560.316	20050.05
560.679	19981.81
561.041	19882.82
561.404	20117.62
561.767	20122.14
562.129	20068.13
562.492	20275.81
562.854	20296.6
563.217	20282.59
563.579	20279.65
563.941	20400.33
564.304	20394.45
564.666	20475.13
565.028	20580.21
565.39	20590.6
565.753	20643.71
566.115	20699.53
566.477	20842.35
566.839	20847.32
567.201	20922.12
567.563	20890.03
567.925	21048.22
568.287	21055.68
568.648	21085.05
569.01	21163.69
569.372	21304.71
569.734	21220.19
570.095	21387.19
570.457	21363.24
570.819	21366.4
571.18	21440.3
571.542	21504.93
571.903	21514.87
572.265	21619.73
572.626	21620.18
572.987	21667.86
573.349	21724.36
573.71	21797.12
574.071	21817.01
574.432	21839.61
574.794	21989.89
575.155	22054.97
575.516	21905.37
575.877	21966.39
576.238	21938.82
576.599	22065.82
576.96	22105.14
577.32	22155.08
577.681	22124.8
578.042	22290.44
578.403	22110.56
578.763	22232.59
579.124	22119.6
579.485	22246.15
579.845	22407.96
580.206	22350.78
580.566	22334.06
580.927	22288.19
581.287	22403.44
581.648	22325.25
582.008	22475.07
582.368	22446.15
582.728	22514.62
583.089	22396.66
583.449	22364.12
583.809	22434.85
584.169	22439.37
584.529	22400.05
584.889	22582.64
585.249	22454.96
585.609	22381.29
585.969	22493.15
586.329	22429.2
586.688	22431.46
587.048	22506.26
587.408	22333.16
587.768	22512.59
588.127	22320.27
588.487	22280.5
588.846	22531.12
589.206	22382.19
589.565	22306.72
589.925	22493.83
590.284	22269.2
590.643	22469.2
591.003	22501.96
591.362	22536.77
591.721	22481.17
592.08	22482.53
592.44	22502.87
592.799	22456.54
593.158	22442.31
593.517	22421.97
593.876	22504.9
594.235	22367.05
594.593	22407.28
594.952	22486.37
595.311	22513.26
595.67	22410.22
596.029	22576.99
596.387	22666.03
596.746	22585.35
597.104	22573.6
597.463	22506.26
597.822	22646.59
598.18	22502.64
598.538	22471.68
598.897	22655.86
599.255	22413.61
599.613	22733.37
599.972	22708.29
600.33	22668.51
600.688	22648.85
601.046	22627.84
601.404	22751.22
601.762	22631.9
602.12	22826.48
602.478	22689.08
602.836	22740.83
603.194	22598.23
603.552	22718
603.91	22675.07
604.268	22697.89
604.625	22668.29
604.983	22831.45
605.341	22721.62
605.698	22763.65
606.056	22923.87
606.413	22778.12
606.771	22867.15
607.128	22884.55
607.485	22854.72
607.843	22838.91
608.2	22964.1
608.557	23075.74
608.914	22960.94
609.272	23043.65
609.629	23044.32
609.986	23146.47
610.343	23142.85
610.7	23168.39
611.057	23309.4
611.414	23283.64
611.771	23220.14
612.127	23437.53
612.484	23177.88
612.841	23406.57
613.198	23299.68
613.554	23389.4
613.911	23526.12
614.267	23557.08
614.624	23478.89
614.98	23613.57
615.337	23555.95
615.693	23640.47
616.05	23524.54
616.406	23667.36
616.762	23664.19
617.118	23575.61
617.475	23684.31
617.831	23646.34
618.187	23660.35
618.543	23690.63
618.899	23820.35
619.255	23769.28
619.611	23728.6
619.967	23869.16
620.323	23840.01
620.678	23803.63
621.034	23788.03
621.39	23800.69
621.746	23789.61
622.101	24119.55
622.457	23799.33
622.812	23903.06
623.168	23914.81
623.523	24039.55
623.879	24061.02
624.234	23892.66
624.589	23995.26
624.945	23949.84
625.3	24136.72
625.655	24001.13
626.01	24078.42
626.365	24041.59
626.72	23948.03
627.075	24021.25
627.43	23942.6
627.785	23943.96
628.14	24074.35
628.495	24099.89
628.85	23996.16
629.205	23962.04
629.559	24074.58
629.914	23901.25
630.269	23936.73
630.623	23909.16
630.978	23857.18
631.332	24079.78
631.687	24055.82
632.041	23978.31
632.396	23969.72
632.75	23907.8
633.104	23942.15
633.459	23765.89
633.813	23885.43
634.167	23847.47
634.521	23789.61
634.875	23828.48
635.229	23809.28
635.583	23628.49
635.937	23716.4
636.291	23713.91
636.645	23727.24
636.999	23617.87
637.352	23654.25
637.706	23594.59
638.06	23605.44
638.413	23633.01
638.767	23562.28
639.121	23602.05
639.474	23525.67
639.828	23447.25
640.181	23480.02
640.534	23518.44
640.888	23417.42
641.241	23489.74
641.594	23359.34
641.947	23498.55
642.301	23360.7
642.654	23332.45
643.007	23374.71
643.36	23338.1
643.713	23364.09
644.066	23271.89
644.419	23210.19
644.771	23126.81
645.124	22766.59
645.477	22817.44
645.83	22740.6
646.182	22550.55
646.535	22511.46
646.888	22643.43
647.24	22473.49
647.593	22629.87
647.945	22470.55
648.298	22502.19
648.65	22362.53
649.002	22359.6
649.355	22502.64
649.707	22313.04
650.059	22513.26
650.411	22766.36
650.763	22861.96
651.115	23045
651.467	23004.78
651.819	22880.26
652.171	22960.94
652.523	22983.08
652.875	22855.63
653.227	22875.51
653.578	22966.59
653.93	22879.58
654.282	22785.12
654.633	22800.04
654.985	22858.11
655.337	22877.32
655.688	22867.6
656.039	22976.08
656.391	22746.93
656.742	22843.65
657.094	22753.48
657.445	22981.95
657.796	22832.58
658.147	22768.17
658.498	22887.49
658.849	22868.96
659.2	22835.52
659.551	22699.02
659.902	22864.22
660.253	22913.03
660.604	22897.89
660.955	22737.21
661.306	22849.53
661.656	22838
662.007	22783.77
662.358	22877.55
662.708	22843.65
663.059	22898.56
663.409	22830.09
663.76	22857.89
664.11	22857.66
664.461	22900.82
664.811	22911.45
665.161	22845.68
665.511	22720.26
665.862	22771.79
666.212	22815.85
666.562	22826.93
666.912	22827.15
667.262	22843.88
667.612	22852.69
667.962	22841.39
668.312	22690.66
668.662	22803.2
669.011	22823.31
669.361	22728.4
669.711	22783.31
670.06	22714.61
670.41	22568.4
670.76	22614.28
671.109	22721.39
671.459	22680.49
671.808	22752.81
672.157	22762.75
672.507	22597.78
672.856	22626.26
673.205	22614.5
673.554	22618.8
673.904	22718.68
674.253	22688.85
674.602	22729.76
674.951	22342.2
675.3	22269.88
675.649	22590.1
675.998	22538.8
676.346	22515.98
676.695	22579.48
677.044	22419.26
677.393	22556.88
677.741	22404.34
678.09	22437.11
678.438	22361.18
678.787	22530.21
679.135	22411.35
679.484	22333.83
679.832	22271.46
680.181	22174.06
680.529	22235.53
680.877	22183.56
681.225	22200.96
681.573	22305.81
681.922	22099.72
682.27	22005.71
682.618	22070.11
682.966	21931.36
683.314	22034.41
683.661	21849.1
684.009	21850.23
684.357	21826.28
684.705	21749.89
685.053	21760.74
685.4	21780.63
685.748	21660.86
686.095	21602.78
686.443	21479.17
686.79	21384.93
687.138	21618.37
687.485	21527.98
687.832	21377.7
688.18	21539.28
688.527	21450.69
688.874	21350.81
689.221	21295.22
689.568	21259.96
689.915	21165.73
690.262	21107.65
690.609	21075.56
690.956	20909.69
691.303	20985.85
691.65	20866.3
691.997	20835.12
692.344	20728.9
692.69	20756.7
693.037	20680.32
693.383	20467.44
693.73	20606.42
694.077	20480.55
694.423	20377.73
694.769	20384.96
695.116	20250.05
695.462	20311.06
695.808	20132.99
696.155	20237.39
696.501	20066.32
696.847	20044.85
697.193	19813.9
697.539	19928.02
697.885	19741.59
698.231	19786.78
698.577	19619.33
698.923	19680.34
699.269	19595.6
699.614	19513.34
699.96	19499.11
700.306	19414.14
700.651	19365.78
700.997	19260.47
701.342	19258.21
701.688	19182.96
702.033	19109.96
702.379	19112.9
702.724	19058.21
703.069	19067.48
703.415	18741.16
703.76	18867.03
704.105	18801.27
704.45	18816.41
704.795	18652.8
705.14	18569.19
705.485	18641.5
705.83	18468.4
706.175	18505.46
706.52	18380.94
706.865	18455.29
707.209	18374.62
707.554	18269.08
707.899	18337.1
708.243	18254.84
708.588	18130.33
708.932	18049.88
709.277	18001.29
709.621	18012.82
709.966	17942.08
710.31	17918.36
710.654	17748.42
710.998	17846.27
711.342	17832.03
711.687	17664.35
712.031	17642.43
712.375	17700.06
712.719	17601.3
713.063	17575.77
713.407	17614.64
713.75	17418.93
714.094	17414.19
714.438	17442.44
714.782	17452.61
715.125	17285.38
715.469	17284.02
715.812	17230.47
716.156	17119.28
716.499	17223.91
716.843	17167.64
717.186	17092.16
717.53	17089.68
717.873	17235.66
718.216	17079.96
718.559	17090.81
718.902	16945.27
719.246	17037.02
719.589	17005.84
719.932	16903.24
720.275	16874.99
720.617	16885.84
720.96	16851.72
721.303	16935.56
721.646	16836.13
721.989	16760.42
722.331	16766.52
722.674	16689.46
723.016	16728.56
723.359	16651.27
723.701	16782.34
724.044	16599.07
724.386	16574.21
724.729	16659.18
725.071	16604.49
725.413	16546.87
725.755	16546.64
726.097	16475
726.439	16406.76
726.782	16513.2
727.124	16453.99
727.465	16423.71
727.807	16345.74
728.149	16428.45
728.491	16294.9
728.833	16331.51
729.175	16261
729.516	16277.27
729.858	16270.49
730.199	16253.99
730.541	16185.75
730.882	16246.08
731.224	16291.51
731.565	16183.94
731.906	16228.68
732.248	16227.33
732.589	16038.18
732.93	16091.74
733.271	16103.71
733.612	16140.55
733.953	16191.85
734.294	16035.47
734.635	16073.21
734.976	16142.36
735.317	15992.31
735.658	16039.76
735.999	16075.24
736.339	15983.72
736.68	16063.26
737.021	16068.01
737.361	16016.03
737.702	16032.08
738.042	15931.29
738.383	15954.11
738.723	16044.06
739.063	15971.29
739.404	16036.15
739.744	15994.34
740.084	15934.45
740.424	16011.97
740.764	15962.93
741.104	16052.42
741.444	15904.62
741.784	16034.56
742.124	15967.22
742.464	15969.71
742.804	16009.93
743.143	15960.89
743.483	16009.03
743.823	15932.87
744.162	15910.73
744.502	16048.58
744.841	15995.92
745.181	16113.66
745.52	16127.9
745.86	16040.89
746.199	16075.02
746.538	16138.29
746.877	16117.5
747.216	16258.29
747.556	16173.54
747.895	16261.22
748.234	16163.6
748.573	16250.6
748.911	16282.47
749.25	16268.46
749.589	16286.08
749.928	16361.34
750.267	16532.86
750.605	16495.57
750.944	16486.98
751.283	16548.68
751.621	16633.87
751.96	16626.87
752.298	16714.55
752.636	16722.46
752.975	16739.86
753.313	16759.29
753.651	16851.04
753.989	16930.81
754.327	17050.81
754.666	17037.7
755.004	17125.16
755.342	17154.53
755.679	17260.97
756.017	17141.2
756.355	17407.18
756.693	17418.48
757.031	17553.39
757.368	17528.99
757.706	17609.21
758.044	17650.57
758.381	17747.06
758.719	17808.08
759.056	17952.25
759.394	17901.86
759.731	17871.8
760.068	18091.01
760.405	17993.83
760.743	18077.9
761.08	18229.53
761.417	18181.63
761.754	18329.65
762.091	18359.47
762.428	18364.9
762.765	18351.57
763.102	18455.74
763.438	18375.07
763.775	18456.2
764.112	18568.96
764.449	18658.22
764.785	18639.47
765.122	18617.55
765.458	18678.56
765.795	18730.76
766.131	18752.23
766.467	18722.63
766.804	18826.13
767.14	18747.71
767.476	18799.24
767.812	18844.21
768.148	18861.61
768.485	18811.21
768.821	18851.44
769.157	18716.08
769.492	18735.74
769.828	18830.65
770.164	18705.45
770.5	18754.94
770.836	18765.11
771.171	18753.36
771.507	18720.82
771.842	18674.27
772.178	18700.48
772.513	18665.23
772.849	18641.05
773.184	18594.5
773.519	18620.26
773.855	18719.47
774.19	18430.89
774.525	18610.77
774.86	18469.53
775.195	18580.94
775.53	18440.38
775.865	18444.67
776.2	18307.05
776.535	18286.71
776.87	18348.63
777.205	18192.7
777.539	18162.19
777.874	18324
778.209	18103.21
778.543	18125.36
778.878	18020.73
779.212	17990.67
779.547	17982.54
779.881	18013.72
780.215	17897.34
780.55	17866.61
780.884	17755.87
781.218	17847.62
781.552	17841.07
781.886	17758.36
782.22	17670.23
782.554	17521.08
782.888	17495.77
783.222	17375.09
783.556	17293.29
783.889	17266.62
784.223	17223.91
784.557	17256.23
784.89	17260.07
785.224	17209
785.557	16991.83
785.891	17085.16
786.224	16995.44
786.558	16999.51
786.891	16851.27
787.224	16777.82
787.557	16774.21
787.891	16777.82
788.224	16661.21
788.557	16711.16
788.89	16729.91
789.223	16583.02
789.556	16445.63
789.888	16580.09
790.221	16406.53
790.554	16242.02
790.887	16397.94
791.219	16314.78
791.552	16228.23
791.884	16155.69
792.217	16167.67
792.549	16030.04
792.882	15978.07
793.214	15911.18
793.546	15958.86
793.879	15866.89
794.211	15689.94
794.543	15763.61
794.875	15714.35
795.207	15709.83
795.539	15688.81
795.871	15647.46
796.203	15569.94
796.535	15400
796.867	15481.58
797.198	15443.17
797.53	15364.98
797.862	15253.79
798.193	15319.1
798.525	15183.51
798.856	15234.36
799.188	15050.18
799.519	15044.08
799.85	14975.84
800.182	14934.03
800.513	14969.06
800.844	14777.87
801.175	14893.35
801.506	14821.26
801.837	14790.76
802.168	14714.15
802.499	14635.28
802.83	14637.76
803.161	14578.33
803.491	14550.99
803.822	14576.98
804.153	14452.68
804.483	14452.46
804.814	14379.69
805.145	14462.63
805.475	14320.49
805.805	14301.95
806.136	14153.48
806.466	14269.19
806.796	14236.87
807.126	14151.22
807.457	14119.13
807.787	14022.87
808.117	14001.62
808.447	13964.11
808.777	13973.6
809.107	13928.18
809.436	13847.73
809.766	14008.18
810.096	13896.54
810.426	13748.75
810.755	13763.21
811.085	13713.04
811.414	13760.27
811.744	13608.41
812.073	13602.76
812.403	13558.25
812.732	13523.9
813.061	13524.8
813.39	13471.92
813.719	13459.94
814.049	13446.16
814.378	13424.92
814.707	13412.71
815.036	13341.98
815.365	13282.55
815.693	13172.27
816.022	13199.38
816.351	13195.54
816.68	13094.75
817.008	13107.41
817.337	13090.91
817.665	12977.92
817.994	12964.36
818.322	12998.26
818.651	12951.03
818.979	12893.18
819.307	12946.28
819.636	12803.91
819.964	12726.63
820.292	12872.39
820.62	12862.67
820.948	12738.15
821.276	12784.48
821.604	12763.24
821.932	12809.11
822.259	12811.37
822.587	12753.75
822.915	12719.4
823.243	12743.13
823.57	12666.29
823.898	12744.03
824.225	12721.43
824.553	12686.18
824.88	12685.27
825.207	12763.46
825.535	12656.12
825.862	12651.83
826.189	12692.05
826.516	12763.69
826.843	12751.26
827.17	12711.49
827.497	12732.73
827.824	12744.71
828.151	12762.11
828.478	12700.19
828.805	12749.23
829.131	12733.86
829.458	12650.02
829.785	12643.47
830.111	12603.47
830.438	12715.33
830.764	12639.17
831.09	12758.49
831.417	12591.94
831.743	12706.29
832.069	12647.08
832.395	12575.22
832.722	12671.71
833.048	12563.92
833.374	12581.1
833.7	12545.39
834.026	12580.19
834.351	12643.47
834.677	12514.43
835.003	12604.37
835.329	12494.77
835.654	12512.85
835.98	12440.08
836.306	12491.38
836.631	12449.12
836.956	12503.36
837.282	12471.95
837.607	12362.57
837.932	12370.71
838.258	12379.52
838.583	12358.73
838.908	12349.01
839.233	12317.37
839.558	12355.56
839.883	12273.53
840.208	12200.09
840.533	12226.75
840.858	12224.72
841.182	12201.44
841.507	12169.36
841.832	12150.15
842.156	12114.44
842.481	11996.7
842.805	12080.09
843.13	11994.67
843.454	11965.29
843.778	11901.79
844.103	11907.22
844.427	11883.71
844.751	11887.1
845.075	11823.38
845.399	11808.01
845.723	11849.14
846.047	11816.37
846.371	11752.87
846.695	11677.16
847.019	11595.36
847.343	11539.54
847.666	11483.72
847.99	11459.77
848.313	11383.39
848.637	11297.97
848.96	11362.14
849.284	11282.37
849.607	11278.53
849.931	11206.22
850.254	11145.2
850.577	11066.33
850.9	10965.55
851.223	11025.66
851.546	10922.61
851.869	10820.01
852.192	10929.84
852.515	10855.72
852.838	10782.72
853.161	10793.8
853.483	10737.53
853.806	10678.09
854.129	10648.04
854.451	10597.42
854.774	10551.32
855.096	10579.79
855.419	10477.42
855.741	10508.83
856.063	10432.45
856.385	10407.37
856.708	10347.93
857.03	10347.03
857.352	10270.87
857.674	10245.11
857.996	10268.61
858.318	10217.09
858.64	10204.21
858.961	10172.57
859.283	10201.95
859.605	10058.68
859.926	10067.04
860.248	9976.42
860.57	9994.27
860.891	10014.61
861.212	9978.9
861.534	9927.15
861.855	9941.84
862.176	9985.01
862.498	9913.37
862.819	9941.62
863.14	9896.42
863.461	9846.7
863.782	9713.37
864.103	9752.7
864.424	9790.66
864.745	9796.31
865.065	9714.05
865.386	9696.2
865.707	9676.54
866.027	9617.78
866.348	9658.91
866.668	9708.85
866.989	9576.2
867.309	9538.92
867.63	9610.55
867.95	9561.97
868.27	9518.35
868.59	9486.26
868.91	9475.64
869.23	9473.15
869.55	9421.18
869.87	9507.5
870.19	9487.39
870.51	9465.92
870.83	9539.37
871.15	9370.78
871.469	9425.02
871.789	9447.84
872.109	9435.64
872.428	9342.76
872.748	9414.17
873.067	9335.08
873.386	9399.48
873.706	9291.46
874.025	9232.94
874.344	9267.96
874.663	9258.92
874.982	9233.16
875.301	9278.81
875.62	9213.95
875.939	9173.28
876.258	9208.53
876.577	9147.51
876.896	9134.63
877.214	9152.26
877.533	9176.89
877.852	9071.36
878.17	9092.37
878.489	9098.02
878.807	9110.68
879.125	9090.79
879.444	9032.26
879.762	8980.06
880.08	9023
880.398	8967.41
880.716	9016.67
881.034	8987.07
881.352	8924.69
881.67	8921.53
881.988	8889.22
882.306	8903.9
882.624	8876.11
882.941	8840.86
883.259	8796.56
883.577	8779.16
883.894	8771.25
884.212	8707.07
884.529	8778.71
884.846	8695.55
885.164	8715.21
885.481	8698.94
885.798	8644.48
886.115	8621.2
886.432	8605.38
886.75	8617.36
887.067	8548.66
887.383	8509.56
887.7	8572.16
888.017	8477.93
888.334	8510.47
888.651	8466.18
888.967	8492.84
889.284	8355.22
889.6	8358.61
889.917	8366.97
890.233	8297.14
890.55	8306.63
890.866	8320.42
891.182	8265.73
891.498	8266.18
891.815	8271.83
892.131	8155.45
892.447	8180.08
892.763	8141.44
893.079	8153.64
893.395	8101.67
893.71	8095.34
894.026	8025.06
894.342	8081.78
894.657	8007.66
894.973	7995.23
895.289	7980.99
895.604	7942.35
895.92	7867.55
896.235	7831.62
896.55	7919.98
896.865	7898.06
897.181	7837.49
897.496	7764.05
897.811	7719.75
898.126	7717.72
898.441	7711.39
898.756	7648.57
899.071	7653.32
899.386	7609.7
899.7	7583.94
900.015	7554.34
900.33	7543.71
900.644	7477.95
900.959	7474.11
901.273	7490.16
901.588	7379.42
901.902	7406.54
902.216	7323.83
902.531	7334.45
902.845	7355.24
903.159	7282.48
903.473	7271.18
903.787	7208.81
904.101	7169.71
904.415	7204.51
904.729	7142.37
905.042	7107.34
905.356	7047
905.67	7094.01
905.984	7046.55
906.297	7043.16
906.611	6998.42
906.924	6987.12
907.237	6976.27
907.551	6888.82
907.864	6843.17
908.177	6865.77
908.491	6873.22
908.804	6808.37
909.117	6804.52
909.43	6765.88
909.743	6722.49
910.056	6716.17
910.368	6693.79
910.681	6710.06
910.994	6600.01
911.307	6566.56
911.619	6557.75
911.932	6576.28
912.244	6498.32
912.557	6521.14
912.869	6454.93
913.181	6441.37
913.494	6410.64
913.806	6372.22
914.118	6338.55
914.43	6333.35
914.742	6285.44
915.054	6253.35
915.366	6202.73
915.678	6254.48
915.99	6204.99
916.302	6149.4
916.613	6107.59
916.925	6126.8
917.236	6097.88
917.548	6018.78
917.859	6085.45
918.171	5980.82
918.482	6046.58
918.794	6041.83
919.105	5955.73
919.416	5926.36
919.727	5943.3
920.038	5901.05
920.349	5847.04
920.66	5823.76
920.971	5826.7
921.282	5817.43
921.593	5764.1
921.903	5674.84
922.214	5725.68
922.525	5671.67
922.835	5654.27
923.146	5616.31
923.456	5645.23
923.767	5613.6
924.077	5618.11
924.387	5579.92
924.697	5510.32
925.008	5540.38
925.318	5504.9
925.628	5461.06
925.938	5484.56
926.248	5423.32
926.558	5384.9
926.867	5379.03
927.177	5332.25
927.487	5261.74
927.796	5306.48
928.106	5290.21
928.416	5285.92
928.725	5223.55
929.034	5171.12
929.344	5202.08
929.653	5216.54
929.962	5141.74
930.271	5085.47
930.581	5066.27
930.89	5065.36
931.199	5059.26
931.508	5042.54
931.817	5018.81
932.125	5035.08
932.434	4995.31
932.743	4925.93
933.051	4940.39
933.36	4935.42
933.669	4897.91
933.977	4913.27
934.286	4846.84
934.594	4850.9
934.902	4801.87
935.21	4785.37
935.519	4814.29
935.827	4758.7
936.135	4746.05
936.443	4680.96
936.751	4671.7
937.059	4682.09
937.367	4605.49
937.674	4593.96
937.982	4641.87
938.29	4584.24
938.597	4617.92
938.905	4562.55
939.213	4542.21
939.52	4513.74
939.827	4560.29
940.135	4490.69
940.442	4437.58
940.749	4464.25
941.056	4438.03
941.363	4366.17
941.67	4361.88
941.977	4367.98
942.284	4360.29
942.591	4336.57
942.898	4294.31
943.205	4344.48
943.511	4282.78
943.818	4251.6
944.125	4199.4
944.431	4232.39
944.738	4164.59
945.044	4213.86
945.35	4142.45
945.657	4149.45
945.963	4115.33
946.269	4102.45
946.575	4099.96
946.881	4064.26
947.187	4065.39
947.493	4068.1
947.799	4030.59
948.105	4043.02
948.41	3939.74
948.716	3999.17
949.022	3978.38
949.327	3965.73
949.633	3911.49
949.938	3934.54
950.244	3880.76
950.549	3866.97
950.854	3831.5
951.16	3834.89
951.465	3850.7
951.77	3795.79
952.075	3819.29
952.38	3789.24
952.685	3745.62
952.99	3771.61
953.294	3745.85
953.599	3735.23
953.904	3690.48
954.209	3687.54
954.513	3670.82
954.818	3630.6
955.122	3644.83
955.426	3628.79
955.731	3593.31
956.035	3602.12
956.339	3563.48
956.643	3585.63
956.948	3545.4
957.252	3535.68
957.556	3501.56
957.86	3520.32
958.163	3495.23
958.467	3483.03
958.771	3433.99
959.075	3461.79
959.378	3441.9
959.682	3383.82
959.985	3408.91
960.289	3366.87
960.592	3401.9
960.896	3367.78
961.199	3335.92
961.502	3319.19
961.805	3338.63
962.108	3282.81
962.411	3274
962.714	3274.9
963.017	3265.41
963.32	3259.31
963.623	3199.87
963.926	3227.9
964.228	3159.87
964.531	3193.55
964.833	3179.99
965.136	3136.82
965.438	3150.84
965.741	3132.76
966.043	3132.3
966.345	3074.45
966.648	3117.39
966.95	3058.18
967.252	3084.85
967.554	3059.99
967.856	3022.7
968.158	3051.85
968.46	3047.56
968.761	2983.38
969.063	2971.86
969.365	2963.72
969.666	2950.39
969.968	2925.08
970.269	2956.94
970.571	2926.21
970.872	2899.54
971.174	2896.83
971.475	2886.44
971.776	2851.63
972.077	2891.18
972.378	2846.89
972.679	2853.44
972.98	2833.1
973.281	2824.06
973.582	2812.31
973.883	2773.44
974.183	2774.35
974.484	2741.13
974.785	2738.19
975.085	2762.82
975.386	2738.64
975.686	2722.82
975.986	2704.97
976.287	2698.87
976.587	2664.75
976.887	2642.37
977.187	2672.88
977.487	2689.6
977.787	2655.48
978.087	2665.42
978.387	2577.74
978.687	2600.12
978.987	2601.02
979.286	2586.33
979.586	2564.86
979.885	2583.39
980.185	2540.68
980.484	2543.39
980.784	2534.81
981.083	2502.94
981.382	2500
981.682	2504.3
981.981	2487.12
982.28	2479.67
982.579	2473.34
982.878	2456.16
983.177	2451.42
983.475	2440.12
983.774	2416.62
984.073	2395.6
984.372	2421.81
984.67	2375.49
984.969	2391.31
985.267	2393.12
985.566	2351.53
985.864	2327.35
986.162	2336.39
986.461	2330.07
986.759	2345.43
987.057	2290.52
987.355	2290.07
987.653	2272.89
987.951	2230.18
988.249	2286
988.547	2265.89
988.844	2207.13
989.142	2231.31
989.44	2213.68
989.737	2254.36
990.035	2208.71
990.332	2190.63
990.63	2229.5
990.927	2170.3
991.224	2163.29
991.521	2169.39
991.819	2126.91
992.116	2120.35
992.413	2155.38
992.71	2090.75
993.006	2122.84
993.303	2073.35
993.6	2086.23
993.897	2052.33
994.193	2060.92
994.49	2058.21
994.787	2042.62
995.083	2047.36
995.379	2006.46
995.676	2008.72
995.972	2024.31
996.268	2011.66
996.565	1989.74
996.861	2008.27
997.157	2003.29
997.453	1940.92
997.749	1993.58
998.044	1906.57
998.34	1919.68
998.636	1966.69
998.932	1921.04
999.227	1898.89
999.523	1876.07
999.818	1884.65
1000.114	1911.09
1000.409	1883.52
1000.704	1867.03
1001	1842.85
1001.295	1857.54
1001.59	1846.91
1001.885	1852.11
1002.18	1780.48
1002.475	1795.39
1002.77	1768.95
1003.065	1778.22
1003.359	1785.22
1003.654	1780.25
1003.949	1769.18
1004.243	1782.06
1004.538	1732.12
1004.832	1733.47
1005.127	1718.78
1005.421	1724.43
1005.715	1695.96
1006.009	1668.16
1006.304	1679.91
1006.598	1680.14
1006.892	1655.96
1007.186	1653.47
1007.48	1629.97
1007.773	1618.9
1008.067	1638.33
1008.361	1633.36
1008.655	1597.2
1008.948	1591.55
1009.242	1575.28
1009.535	1583.42
1009.829	1578.67
1010.122	1581.61
1010.415	1568.5
1010.708	1515.17
1011.001	1542.97
1011.295	1543.19
1011.588	1503.42
1011.881	1525.57
1012.173	1515.17
1012.466	1492.12
1012.759	1472.46
1013.052	1494.38
1013.344	1469.98
1013.637	1466.13
1013.93	1474.95
1014.222	1454.61
1014.514	1444.89
1014.807	1448.06
1015.099	1435.63
1015.391	1422.75
1015.683	1433.59
1015.976	1376.19
1016.268	1396.08
1016.56	1390.88
1016.851	1383.65
1017.143	1359.02
1017.435	1375.74
1017.727	1382.29
1018.018	1324.89
1018.31	1329.19
1018.602	1304.56
1018.893	1314.95
1019.185	1293.48
1019.476	1315.86
1019.767	1299.13
1020.058	1269.75
1020.35	1283.77
1020.641	1270.66
1020.932	1262.52
1021.223	1242.86
1021.514	1252.58
1021.804	1248.06
1022.095	1249.87
1022.386	1217.1
1022.677	1211
1022.967	1223.43
1023.258	1198.12
1023.548	1200.15
1023.839	1184.56
1024.129	1175.29
1024.419	1169.64
1024.709	1193.82
1025	1138.23
1025.29	1159.93
1025.58	1153.15
1025.87	1137.33
1026.16	1120.15
1026.449	1122.64
1026.739	1104.79
1027.029	1106.6
1027.319	1111.11
1027.608	1124.9
1027.898	1098.46
1028.187	1072.7
1028.477	1065.24
1028.766	1040.38
1029.055	1070.89
1029.344	1058.91
1029.634	1060.95
1029.923	1055.98
1030.212	1032.02
1030.501	1049.87
1030.79	1034.51
1031.078	1015.52
1031.367	1004.45
1031.656	997.45
1031.945	1017.11
1032.233	988.18
1032.522	987.28
1032.81	962.64
1033.099	992.25
1033.387	963.32
1033.675	976.2
1033.963	959.03
1034.251	948.86
1034.54	956.09
1034.828	945.24
1035.116	936.43
1035.403	930.33
1035.691	893.27
1035.979	922.87
1036.267	923.55
1036.554	881.29
1036.842	899.82
1037.129	886.26
1037.417	903.44
1037.704	888.07
1037.992	882.42
1038.279	857.34
1038.566	881.52
1038.853	881.52
1039.14	881.52
