Data from hue_38_FLMS001491_00033.txt Node
Date: Tue Feb 07 17:31:24 GMT 2017
User: dcchb
Spectrometer: FLMS00149
Trigger mode: 0
Integration Time (sec): 2.000000E-2
Scans to average: 10
Electric dark correction enabled: true
Nonlinearity correction enabled: false
Boxcar width: 0
XAxis mode: Wavelengths
Number of Pixels in Spectrum: 2048
>>>>>Begin Spectral Data<<<<<
341.393	-9.28
341.776	-9.28
342.16	-9.28
342.543	-64.19
342.927	-74.36
343.31	-65.32
343.693	-66
344.077	-78.66
344.46	-55.61
344.843	-54.48
345.226	-43.85
345.61	-28.26
345.993	-4.53
346.376	-26.45
346.759	23.71
347.142	20.78
347.525	48.35
347.908	57.61
348.291	72.3
348.674	91.96
349.057	108.46
349.44	137.16
349.823	156.82
350.206	177.38
350.588	206.99
350.971	225.97
351.354	214.67
351.737	215.8
352.119	259.64
352.502	268.45
352.884	271.62
353.267	277.49
353.65	325.18
354.032	308.23
354.414	324.05
354.797	327.21
355.179	332.86
355.562	340.54
355.944	327.21
356.326	321.11
356.709	327.89
357.091	338.96
357.473	338.96
357.855	357.94
358.238	346.64
358.62	348.9
359.002	334.44
359.384	350.49
359.766	326.76
360.148	350.71
360.53	359.3
360.912	347.32
361.294	348.9
361.676	343.03
362.057	333.54
362.439	340.54
362.821	322.01
363.203	349.81
363.584	320.88
363.966	307.77
364.348	309.81
364.729	336.47
365.111	326.08
365.493	315.68
365.874	312.29
366.256	318.62
366.637	308
367.019	320.66
367.4	324.27
367.781	302.35
368.163	321.11
368.544	308.9
368.925	322.24
369.306	321.33
369.688	311.62
370.069	323.37
370.45	309.13
370.831	304.16
371.212	334.44
371.593	311.16
371.974	319.53
372.355	344.38
372.736	315.01
373.117	320.88
373.498	326.3
373.879	340.09
374.26	315.01
374.641	337.6
375.021	291.73
375.402	327.66
375.783	329.02
376.163	331.73
376.544	344.61
376.925	318.4
377.305	338.28
377.686	341.22
378.066	326.53
378.447	340.77
378.827	355.91
379.208	332.63
379.588	350.26
379.968	326.3
380.349	340.99
380.729	336.47
381.109	363.37
381.489	362.69
381.87	347.77
382.25	341.67
382.63	346.42
383.01	340.09
383.39	374.44
383.77	341.45
384.15	323.82
384.53	345.74
384.91	361.56
385.29	361.11
385.67	360.65
386.049	361.11
386.429	376.25
386.809	370.15
387.189	331.28
387.568	367.43
387.948	354.1
388.328	357.49
388.707	375.57
389.087	360.65
389.466	375.8
389.846	355
390.225	384.83
390.605	355
390.984	360.43
391.363	369.47
391.743	378.73
392.122	384.38
392.501	355
392.881	405.4
393.26	385.51
393.639	383.25
394.018	386.64
394.397	366.3
394.776	391.84
395.155	383.03
395.534	394.33
395.913	376.47
396.292	400.43
396.671	411.05
397.05	365.85
397.429	390.94
397.808	388.22
398.186	404.95
398.565	392.74
398.944	399.3
399.323	412.4
399.701	394.78
400.08	390.48
400.458	388.9
400.837	409.24
401.215	405.62
401.594	390.94
401.972	399.98
402.351	422.57
402.729	399.52
403.107	399.3
403.486	400.2
403.864	441.78
404.242	417.83
404.62	409.47
404.999	420.09
405.377	438.84
405.755	418.28
406.133	422.12
406.511	421.22
406.889	438.62
407.267	453.31
407.645	433.42
408.023	438.84
408.401	440.2
408.779	442.23
409.156	432.74
409.534	447.43
409.912	456.02
410.29	447.43
410.667	474.1
411.045	479.3
411.422	452.86
411.8	444.72
412.178	459.18
412.555	474.32
412.933	484.04
413.31	487.88
413.687	489.92
414.065	476.36
414.442	481.33
414.819	472.97
415.197	491.05
415.574	500.54
415.951	485.17
416.328	500.76
416.705	508.67
417.082	525.62
417.46	494.89
417.837	524.49
418.214	501.22
418.591	506.19
418.967	546.64
419.344	520.65
419.721	515.9
420.098	517.71
420.475	533.76
420.852	529.69
421.228	516.81
421.605	534.21
421.982	566.3
422.358	549.8
422.735	544.15
423.111	535.57
423.488	541.89
423.864	539.18
424.241	579.18
424.617	548.22
424.994	554.77
425.37	569.01
425.746	550.71
426.123	576.02
426.499	569.24
426.875	577.37
427.251	568.33
427.627	590.93
428.003	607.88
428.379	594.09
428.756	579.63
429.132	594.32
429.507	616.69
429.883	615.34
430.259	625.28
430.635	625.73
431.011	622.12
431.387	638.84
431.763	637.71
432.138	672.74
432.514	646.3
432.89	639.29
433.265	649.91
433.641	672.06
434.016	645.84
434.392	681.32
434.767	701.44
435.143	684.49
435.518	684.04
435.894	684.94
436.269	697.82
436.644	703.02
437.02	716.58
437.395	713.41
437.77	734.66
438.145	693.53
438.52	719.06
438.895	714.77
439.271	718.84
439.646	730.59
440.021	740.31
440.395	750.02
440.77	767.42
441.145	756.12
441.52	756.12
441.895	810.59
442.27	780.53
442.645	787.31
443.019	778.95
443.394	775.56
443.769	772.62
444.143	791.83
444.518	791.38
444.892	838.16
445.267	811.04
445.641	816.69
446.016	795.22
446.39	797.03
446.764	837.93
447.139	852.17
447.513	840.87
447.887	831.6
448.262	826.63
448.636	839.96
449.01	839.29
449.384	858.95
449.758	869.12
450.132	846.97
450.506	873.41
450.88	867.99
451.254	886.06
451.628	870.25
452.002	889.45
452.376	894.88
452.75	894.2
453.123	940.3
453.497	945.95
453.871	944.37
454.244	946.63
454.618	975.55
454.992	973.75
455.365	974.65
455.739	975.1
456.112	995.44
456.486	991.15
456.859	1013.97
457.232	1030.24
457.606	994.76
457.979	1032.73
458.352	1031.6
458.725	1044.25
459.099	1074.76
459.472	1094.65
459.845	1088.09
460.218	1101.43
460.591	1103.23
460.964	1121.99
461.337	1098.26
461.71	1143.23
462.083	1144.14
462.456	1171.71
462.829	1188.2
463.201	1213.74
463.574	1195.66
463.947	1235.89
464.32	1244.92
464.692	1233.85
465.065	1265.72
465.438	1267.07
465.81	1314.98
466.183	1307.52
466.555	1341.19
466.928	1367.63
467.3	1365.6
467.672	1396.56
468.045	1392.27
468.417	1432.94
468.789	1422.55
469.161	1485.82
469.534	1488.53
469.906	1518.14
470.278	1522.43
470.65	1536.67
471.022	1598.59
471.394	1588.87
471.766	1609.21
472.138	1667.74
472.51	1707.74
472.882	1727.4
473.253	1757.45
473.625	1787.74
473.997	1817.79
474.369	1868.86
474.74	1894.4
475.112	1872.03
475.484	1978.69
475.855	2044.23
476.227	2057.33
476.598	2136.2
476.97	2141.85
477.341	2183.66
477.713	2230.66
478.084	2289.19
478.455	2359.47
478.827	2386.82
479.198	2497.77
479.569	2503.65
479.94	2582.06
480.311	2643.31
480.682	2751.33
481.053	2785
481.424	2895.28
481.795	2932.11
482.166	2970.08
482.537	3067.93
482.908	3132.78
483.279	3192.44
483.65	3342.04
484.021	3361.25
484.391	3464.98
484.762	3555.15
485.133	3628.14
485.503	3685.31
485.874	3838.75
486.244	3864.52
486.615	3986.1
486.985	4097.05
487.356	4183.83
487.726	4248.24
488.097	4339.53
488.467	4426.76
488.837	4551.05
489.207	4667.21
489.578	4769.13
489.948	4894.09
490.318	4953.53
490.688	5012.06
491.058	5206.85
491.428	5284.59
491.798	5363.91
492.168	5471.03
492.538	5605.94
492.908	5718.25
493.278	5810.91
493.648	5880.06
494.017	6017.91
494.387	6029.43
494.757	6159.82
495.126	6327.96
495.496	6364.56
495.866	6456.54
496.235	6566.14
496.605	6655.63
496.974	6747.15
497.344	6827.15
497.713	6941.72
498.082	7082.51
498.452	7203.41
498.821	7223.75
499.19	7287.25
499.559	7315.95
499.928	7445.21
500.298	7515.72
500.667	7644.3
501.036	7737.41
501.405	7874.81
501.774	7853.79
502.143	7925.88
502.512	8028.25
502.88	8160
503.249	8195.7
503.618	8322.03
503.987	8324.74
504.356	8427.56
504.724	8503.49
505.093	8612.41
505.462	8621.68
505.83	8729.47
506.199	8805.86
506.567	8894.67
506.936	8953.65
507.304	9076.13
507.672	9115
508.041	9180.99
508.409	9287.88
508.777	9377.37
509.145	9480.87
509.514	9482.67
509.882	9505.27
510.25	9645.16
510.618	9749.79
510.986	9699.62
511.354	9830.01
511.722	9870.69
512.09	10023.68
512.458	10019.84
512.826	10172.37
513.193	10170.11
513.561	10181.87
513.929	10382.31
514.297	10398.58
514.664	10479.48
515.032	10569.43
515.4	10603.32
515.767	10621.18
516.135	10741.17
516.502	10713.38
516.869	10908.63
517.237	10923.09
517.604	10881.73
517.972	11052.12
518.339	11101.61
518.706	11076.53
519.073	11169.18
519.44	11257.77
519.808	11398.56
520.175	11298.9
520.542	11499.57
520.909	11582.05
521.276	11514.49
521.643	11658.44
522.009	11719.9
522.376	11850.07
522.743	11916.06
523.11	12068.14
523.477	12116.05
523.843	12144.3
524.21	12313.56
524.577	12332.77
524.943	12420.68
525.31	12536.15
525.676	12649.6
526.043	12615.7
526.409	12690.05
526.776	12796.71
527.142	12883.94
527.508	12936.14
527.874	13042.35
528.241	13196.25
528.607	13107.21
528.973	13316.02
529.339	13285.74
529.705	13416.13
530.071	13527.54
530.437	13495.22
530.803	13597.59
531.169	13750.58
531.535	13741.09
531.901	13794.2
532.267	13849.34
532.632	13919.17
532.998	14031.26
533.364	14118.48
533.73	14161.2
534.095	14249.1
534.461	14258.14
534.826	14351.25
535.192	14362.55
535.557	14491.81
535.923	14486.38
536.288	14539.49
536.653	14611.58
537.019	14555.99
537.384	14703.1
537.749	14715.08
538.114	14810.67
538.479	14912.59
538.845	15051.34
539.21	14910.33
539.575	14984.68
539.94	15055.64
540.305	15130.44
540.67	15212.92
541.034	15186.48
541.399	15304.89
541.764	15327.04
542.129	15485
542.494	15456.08
542.858	15539.46
543.223	15587.15
543.587	15726.8
543.952	15640.48
544.316	15802.06
544.681	15831.66
545.045	15890.42
545.41	15958.21
545.774	16007.02
546.138	16083.18
546.503	16071.43
546.867	16210.41
547.231	16221.48
547.595	16278.43
547.959	16343.51
548.324	16430.06
548.688	16369.5
549.052	16487.24
549.416	16486.56
549.779	16555.48
550.143	16605.2
550.507	16666.21
550.871	16771.75
551.235	16803.84
551.599	16935.36
551.962	16908.47
552.326	16974.45
552.689	17159.99
553.053	17063.72
553.417	17034.57
553.78	17249.02
554.143	17249.25
554.507	17355.46
554.87	17348.91
555.234	17613.76
555.597	17438.85
555.96	17595.91
556.323	17547.1
556.686	17673.65
557.05	17754.32
557.413	17892.17
557.776	17876.13
558.139	17967.65
558.502	18038.38
558.865	18083.58
559.228	18144.59
559.59	18229.56
559.953	18262.56
560.316	18445.6
560.679	18282.67
561.041	18534.64
561.404	18557.01
561.767	18721.53
562.129	18649.89
562.492	18849.43
562.854	18761.3
563.217	18841.52
563.579	18858.25
563.941	19070.67
564.304	19067.06
564.666	19174.62
565.028	19313.38
565.39	19242.42
565.753	19455.07
566.115	19537.33
566.477	19547.49
566.839	19596.53
567.201	19694.38
567.563	19703.65
567.925	19818.45
568.287	19961.27
568.648	19947.48
569.01	20057.99
569.372	20207.36
569.734	20145.22
570.095	20291.66
570.457	20425.44
570.819	20357.19
571.18	20498.66
571.542	20582.5
571.903	20628.6
572.265	20755.82
572.626	20761.25
572.987	20837.63
573.349	21001.24
573.71	21066.55
574.071	21223.38
574.432	21207.34
574.794	21519.19
575.155	21397.39
575.516	21522.58
575.877	21617.27
576.238	21819.98
576.599	21959.18
576.96	21993.31
577.32	22031.05
577.681	22255.22
578.042	22420.87
578.403	22456.34
578.763	22524.37
579.124	22734.08
579.485	22984.69
579.845	23054.29
580.206	23126.38
580.566	23377.45
580.927	23460.61
581.287	23604.11
581.648	23705.58
582.008	23927.94
582.368	24066.02
582.728	24290.87
583.089	24443.86
583.449	24487.93
583.809	24619.23
584.169	24875.04
584.529	24979.89
584.889	25286.33
585.249	25435.93
585.609	25575.13
585.969	25845.86
586.329	25948.46
586.688	26162.91
587.048	26446.07
587.408	26600.64
587.768	26749.11
588.127	26901.2
588.487	27001.99
588.846	27488.75
589.206	27370.34
589.565	27729.65
589.925	28112.02
590.284	28113.82
590.643	28378.67
591.003	28667.25
591.362	28850.3
591.721	28957.42
592.08	29296.62
592.44	29546.78
592.799	29656.38
593.158	29834
593.517	30042.36
593.876	30257.95
594.235	30450.03
594.593	30541.56
594.952	30986.06
595.311	31014.99
595.67	31193.97
596.029	31621.08
596.387	31749.43
596.746	32036.66
597.104	31952.82
597.463	32251.12
597.822	32393.94
598.18	32653.36
598.538	32732.01
598.897	33000.7
599.255	32995.73
599.613	33636.16
599.972	33561.59
600.33	33860.56
600.688	33702.6
601.046	33992.09
601.404	34430.72
601.762	34444.5
602.12	34744.16
602.478	34788.68
602.836	34925.85
603.194	34983.25
603.552	35170.13
603.91	35239.96
604.268	35627.75
604.625	35678.14
604.983	35820.74
605.341	35734.87
605.698	36085.82
606.056	36223.89
606.413	36418.69
606.771	36592.92
607.128	36746.59
607.485	36696.87
607.843	36882.41
608.2	37083.3
608.557	37344.31
608.914	37336.86
609.272	37489.17
609.629	37727.81
609.986	37773.23
610.343	37834.7
610.7	38169.15
611.057	38314.23
611.414	38323.72
611.771	38520.33
612.127	38564.62
612.484	38620.67
612.841	38933.43
613.198	38924.84
613.554	38989.02
613.911	39252.97
614.267	39190.59
614.624	39301.33
614.98	39499.06
615.337	39736.34
615.693	39727.3
616.05	39828.77
616.406	40097.46
616.762	39827.19
617.118	40024.92
617.475	40073.06
617.831	40268.76
618.187	40413.39
618.543	40565.7
618.899	40744
619.255	40742.19
619.611	40676.2
619.967	40907.16
620.323	40971.34
620.678	40924.79
621.034	40811.79
621.39	41040.94
621.746	41000.72
622.101	41291.33
622.457	41261.05
622.812	41248.62
623.168	41351.67
623.523	41388.73
623.879	41484.54
624.234	41390.76
624.589	41551.21
624.945	41554.83
625.3	41669.17
625.655	41659.68
626.01	41647.25
626.365	41803.86
626.72	41637.31
627.075	41818.55
627.43	41725.89
627.785	41731.54
628.14	41835.95
628.495	42000.46
628.85	41975.15
629.205	41915.49
629.559	42122.04
629.914	41908.26
630.269	41953.01
630.623	41906.23
630.978	41925.66
631.332	42006.56
631.687	42242.26
632.041	42006.11
632.396	42108.71
632.75	41915.72
633.104	42102.16
633.459	41849.96
633.813	41988.94
634.167	42131.08
634.521	41982.16
634.875	42208.37
635.229	42026.45
635.583	41999.33
635.937	41958.2
636.291	41988.03
636.645	42084.08
636.999	41726.57
637.352	41977.41
637.706	41697.65
638.06	41900.58
638.413	41776.97
638.767	41781.94
639.121	41901.26
639.474	41634.6
639.828	41734.26
640.181	41717.53
640.534	41715.05
640.888	41710.08
641.241	41427.6
641.594	41549.4
641.947	41686.8
642.301	41624.65
642.654	41680.7
643.007	41747.14
643.36	41502.4
643.713	41518.44
644.066	41811.54
644.419	41434.38
644.771	41144.67
645.124	40785.35
645.477	40721.85
645.83	40442.54
646.182	40379.49
646.535	40282.32
646.888	40415.65
647.24	40226.5
647.593	40497.45
647.945	40320.28
648.298	40162.77
648.65	40140.4
649.002	40133.62
649.355	40293.16
649.707	40175.2
650.059	40328.64
650.411	40780.38
650.763	40758.69
651.115	41319.13
651.467	41014.27
651.819	41084.1
652.171	40962.07
652.523	40905.35
652.875	40955.29
653.227	40666.49
653.578	40987.83
653.93	40872.81
654.282	40817.44
654.633	40671.01
654.985	40635.3
655.337	40786.03
655.688	40915.75
656.039	40926.14
656.391	40562.76
656.742	40642.76
657.094	40766.82
657.445	40857.89
657.796	40829.19
658.147	40589.43
658.498	40686.6
658.849	40670.1
659.2	40698.12
659.551	40589.43
659.902	40696.54
660.253	40749.42
660.604	40782.42
660.955	40521.63
661.306	40603.66
661.656	40597.34
662.007	40635.08
662.358	40630.56
662.708	40623.1
663.059	40614.96
663.409	40345.59
663.76	40645.24
664.11	40673.49
664.461	40635.98
664.811	40469.88
665.161	40498.13
665.511	40433.72
665.862	40357.79
666.212	40492.71
666.562	40424.46
666.912	40501.07
667.262	40393.27
667.612	40457.68
667.962	40405.7
668.312	40330.45
668.662	40555.08
669.011	40455.42
669.361	40363.22
669.711	40401.86
670.06	40195.54
670.41	40305.14
670.76	40236.67
671.109	40390.34
671.459	40330
671.808	40121.42
672.157	40238.48
672.507	40198.02
672.856	40109.44
673.205	40229.44
673.554	40195.31
673.904	40103.56
674.253	40396.66
674.602	40162.32
674.951	39693.18
675.3	39335.45
675.649	40060.63
675.998	40019.95
676.346	40167.52
676.695	40247.29
677.044	39943.34
677.393	40011.82
677.741	40122.09
678.09	39915.32
678.438	39853.4
678.787	39869.9
679.135	40008.2
679.484	39658.83
679.832	39783.57
680.181	39620.41
680.529	39749.9
680.877	39539.06
681.225	39560.3
681.573	39682.33
681.922	39453.64
682.27	39340.65
682.618	39359.63
682.966	39227.65
683.314	39373.64
683.661	39201.89
684.009	39114.21
684.357	39034.21
684.705	38949.02
685.053	39083.25
685.4	38925.29
685.748	38790.15
686.095	38690.95
686.443	38514
686.79	38668.35
687.138	38586.99
687.485	38664.05
687.832	38512.19
688.18	38548.58
688.527	38363.95
688.874	38288.92
689.221	38300.9
689.568	38203.95
689.915	38006.9
690.262	38019.1
690.609	37979.78
690.956	37836.96
691.303	37839.67
691.65	37673.8
691.997	37743.85
692.344	37354.48
692.69	37324.2
693.037	37499.34
693.383	37171.44
693.73	37237.65
694.077	37034.27
694.423	37054.83
694.769	36953.82
695.116	36836.76
695.462	36819.36
695.808	36795.63
696.155	36676.76
696.501	36388.41
696.847	36319.26
697.193	36165.59
697.539	36290.33
697.885	36161.29
698.231	35946.39
698.577	36169.2
698.923	35979.38
699.269	35847.4
699.614	35584.36
699.96	35638.37
700.306	35703
700.651	35414.42
700.997	35311.83
701.342	35316.12
701.688	35250.81
702.033	35146.86
702.379	35020.31
702.724	35077.71
703.069	34996.81
703.415	34712.97
703.76	34740.54
704.105	34718.17
704.45	34568.34
704.795	34468.01
705.14	34445.86
705.485	34321.8
705.83	34260.1
706.175	34270.5
706.52	34202.48
706.865	34004.29
707.209	33949.6
707.554	34043.38
707.899	33898.76
708.243	33801.36
708.588	33737.4
708.932	33506.68
709.277	33538.77
709.621	33498.09
709.966	33323.86
710.31	33447.02
710.654	32970.64
710.998	33136.06
711.342	33088.61
711.687	33024.65
712.031	32837.31
712.375	32698.11
712.719	32918.44
713.063	32815.85
713.407	32876.64
713.75	32623.99
714.094	32640.26
714.438	32453.14
714.782	32468.51
715.125	32307.61
715.469	32446.14
715.812	32369.53
716.156	32110.55
716.499	32193.49
716.843	32051.8
717.186	31993.27
717.53	31957.56
717.873	32024.68
718.216	31976.77
718.559	31785.82
718.902	31689.77
719.246	31613.62
719.589	31715.54
719.932	31526.16
720.275	31341.31
720.617	31437.8
720.96	31358.03
721.303	31323.91
721.646	31254.76
721.989	31069.68
722.331	31334.98
722.674	31112.16
723.016	31149.45
723.359	31074.65
723.701	31070.58
724.044	30932.28
724.386	30809.8
724.729	30904.94
725.071	30792.62
725.413	30738.39
725.755	30711.49
726.097	30622.68
726.439	30709.01
726.782	30631.04
727.124	30721.44
727.465	30401.67
727.807	30570.03
728.149	30408.23
728.491	30248.46
728.833	30421.33
729.175	30111.06
729.516	30205.52
729.858	30142.47
730.199	30100.44
730.541	30091.85
730.882	29952.87
731.224	30039.2
731.565	29949.03
731.906	29887.79
732.248	29878.97
732.589	29746.77
732.93	29598.98
733.271	29567.34
733.612	29623.39
733.953	29756.72
734.294	29582.26
734.635	29498.42
734.976	29524.41
735.317	29361.25
735.658	29423.62
735.999	29348.14
736.339	29290.74
736.68	29360.57
737.021	29255.49
737.361	29153.8
737.702	29301.36
738.042	29158.54
738.383	29091.2
738.723	29121.48
739.063	28889.4
739.404	29051.2
739.744	28955.16
740.084	28962.39
740.424	28815.73
740.764	28844.43
741.104	28826.12
741.444	28651.21
741.784	28673.81
742.124	28788.83
742.464	28629.06
742.804	28653.47
743.143	28579.12
743.483	28568.05
743.823	28492.12
744.162	28356.75
744.502	28393.59
744.841	28248.06
745.181	28490.31
745.52	28316.53
745.86	28251.45
746.199	28245.34
746.538	28166.93
746.877	28161.96
747.216	28043.32
747.556	28057.55
747.895	28105.24
748.234	28001.28
748.573	27833.38
748.911	27888.29
749.25	27768.75
749.589	27764.23
749.928	27761.29
750.267	27842.64
750.605	27834.51
750.944	27577.79
751.283	27557
751.621	27607.62
751.96	27416.44
752.298	27354.07
752.636	27383.22
752.975	27314.97
753.313	27117.92
753.651	27199.95
753.989	27215.32
754.327	27107.3
754.666	26925.61
755.004	26970.35
755.342	27082.21
755.679	26968.09
756.017	26789.56
756.355	26872.73
756.693	26760.86
757.031	26829.79
757.368	26626.4
757.706	26610.36
758.044	26600.87
758.381	26705.05
758.719	26560.87
759.056	26434.32
759.394	26299.18
759.731	26079.07
760.068	26153.87
760.405	26014.22
760.743	25867.78
761.08	25995.23
761.417	25801.79
761.754	25836.59
762.091	25746.88
762.428	25683.6
762.765	25517.06
763.102	25637.05
763.438	25498.75
763.775	25232.77
764.112	25358.87
764.449	25425.53
764.785	25221.7
765.122	24993
765.458	24891.53
765.795	24894.47
766.131	24829.16
766.467	24710.75
766.804	24719.11
767.14	24609.28
767.476	24464.43
767.812	24315.73
768.148	24506.01
768.485	24257.65
768.821	24140.14
769.157	24174.94
769.492	24116.87
769.828	24138.56
770.164	23906.48
770.5	23804.78
770.836	23779.02
771.171	23631.23
771.507	23551.91
771.842	23462.19
772.178	23470.1
772.513	23436.66
772.849	23276.66
773.184	23308.53
773.519	23221.52
773.855	23092.03
774.19	23050
774.525	22918.71
774.86	22900.85
775.195	22772.72
775.53	22649.79
775.865	22653.4
776.2	22514.2
776.535	22210.93
776.87	22342
777.205	22198.27
777.539	22153.75
777.874	22163.02
778.209	21918.05
778.543	21852.74
778.878	21641.45
779.212	21696.82
779.547	21618.85
779.881	21567.1
780.215	21476.03
780.55	21486.43
780.884	21260.22
781.218	21344.51
781.552	21292.31
781.886	21234.46
782.22	20985.42
782.554	20967.12
782.888	20816.39
783.222	20836.5
783.556	20570.52
783.889	20686.67
784.223	20501.37
784.557	20436.74
784.89	20460.92
785.224	20287.59
785.557	20250.98
785.891	20255.95
786.224	20115.39
786.558	20145.44
786.891	19927.15
787.224	19882.85
787.557	19800.14
787.891	19681.5
788.224	19767.38
788.557	19804.44
788.89	19579.13
789.223	19620.49
789.556	19508.63
789.888	19341.4
790.221	19356.99
790.554	19197.67
790.887	19288.52
791.219	19200.61
791.552	19166.49
791.884	18997.68
792.217	18890.34
792.549	18935.31
792.882	18817.34
793.214	18709.55
793.546	18748.19
793.879	18649.89
794.211	18563.11
794.543	18571.25
794.875	18472.95
795.207	18517.01
795.539	18369.22
795.871	18309.56
796.203	18155.44
796.535	18108.21
796.867	18126.51
797.198	17996.57
797.53	17997.48
797.862	17886.75
798.193	17892.17
798.525	17766.98
798.856	17800.87
799.188	17663.7
799.519	17579.18
799.85	17402.92
800.182	17484.5
800.513	17453.31
800.844	17318.63
801.175	17457.15
801.506	17429.36
801.837	17254.67
802.168	17250.15
802.499	17137.39
802.83	17098.52
803.161	16981.69
803.491	17017.17
803.822	16961.35
804.153	16846.77
804.483	16791.41
804.814	16717.96
805.145	16746.21
805.475	16614.01
805.805	16571.53
806.136	16575.14
806.466	16561.36
806.796	16549.61
807.126	16460.57
807.457	16329.05
807.787	16332.21
808.117	16301.03
808.447	16206.11
808.777	16224.42
809.107	16263.06
809.436	16082.5
809.766	16143.06
810.096	16078.21
810.426	15894.03
810.755	15990.75
811.085	15986.91
811.414	15877.53
811.744	15772.68
812.073	15788.95
812.403	15713.02
812.732	15712.12
813.061	15765.22
813.39	15606.81
813.719	15611.33
814.049	15561.61
814.378	15600.48
814.707	15555.06
815.036	15446.13
815.365	15391.45
815.693	15284.33
816.022	15252.01
816.351	15159.59
816.68	15140.83
817.008	15192.58
817.337	14991.91
817.665	14971.12
817.994	14997.33
818.322	15044.34
818.651	14842.53
818.979	14869.2
819.307	14960.27
819.636	14903.77
819.964	14789.43
820.292	14916.66
820.62	14818.81
820.948	14802.08
821.276	14874.17
821.604	14694.06
821.932	14681.63
822.259	14742.65
822.587	14768.41
822.915	14743.33
823.243	14748.98
823.57	14705.36
823.898	14695.64
824.225	14600.28
824.553	14696.77
824.88	14615.19
825.207	14770.44
825.535	14619.04
825.862	14654.06
826.189	14681.63
826.516	14645.25
826.843	14722.31
827.17	14686.61
827.497	14706.04
827.824	14692.71
828.151	14748.3
828.478	14625.36
828.805	14709.88
829.131	14554.18
829.458	14621.3
829.785	14573.16
830.111	14609.77
830.438	14623.1
830.764	14559.15
831.09	14676.21
831.417	14604.12
831.743	14581.98
832.069	14607.74
832.395	14568.64
832.722	14639.83
833.048	14515.99
833.374	14522.09
833.7	14433.73
834.026	14505.14
834.351	14504.69
834.677	14457.01
835.003	14477.35
835.329	14440.74
835.654	14478.7
835.98	14409.32
836.306	14425.37
836.631	14302.21
836.956	14425.37
837.282	14389.44
837.607	14313.96
837.932	14212.27
838.258	14320.29
838.583	14223.57
838.908	14110.35
839.233	14171.36
839.558	14143.79
839.883	14009.79
840.208	13945.61
840.533	13958.71
840.858	14133.17
841.182	14013.4
841.507	13979.28
841.832	13929.11
842.156	13889.79
842.481	13905.61
842.805	13912.16
843.13	13863.12
843.454	13723.69
843.778	13717.14
844.103	13726.63
844.427	13687.31
844.751	13728.66
845.075	13650.25
845.399	13667.65
845.723	13533.87
846.047	13589.23
846.371	13455.9
846.695	13454.1
847.019	13369.13
847.343	13231.73
847.666	13268.34
847.99	13164.61
848.313	13143.82
848.637	13098.85
848.96	13104.73
849.284	13067.21
849.607	12995.12
849.931	12763.94
850.254	12889.36
850.577	12758.07
850.9	12602.59
851.223	12560.79
851.546	12595.36
851.869	12461.13
852.192	12562.59
852.515	12396.95
852.838	12356.05
853.161	12351.53
853.483	12283.96
853.806	12270.4
854.129	12240.79
854.451	12113.34
854.774	12119.67
855.096	12141.14
855.419	12115.37
855.741	12066.79
856.063	12006.9
856.385	11954.47
856.708	11898.43
857.03	11782.05
857.352	11875.38
857.674	11872.67
857.996	11773.46
858.318	11695.27
858.64	11727.81
858.961	11667.25
859.283	11619.79
859.605	11575.95
859.926	11606.46
860.248	11553.81
860.57	11478.33
860.891	11527.37
861.212	11441.72
861.534	11427.48
861.855	11415.28
862.176	11380.48
862.498	11355.17
862.819	11388.84
863.14	11356.75
863.461	11295.73
863.782	11230.43
864.103	11244.89
864.424	11241.95
864.745	11210.31
865.065	11142.97
865.386	11155.85
865.707	11098.9
866.027	11163.31
866.348	11119.92
866.668	11036.31
866.989	11023.42
867.309	11005.57
867.63	11025.01
867.95	10996.08
868.27	10933.71
868.59	10950.21
868.91	10966.7
869.23	10942.97
869.55	10860.49
869.87	10932.58
870.19	10858.46
870.51	10857.1
870.83	10903.2
871.15	10823.2
871.469	10802.64
871.789	10874.28
872.109	10753.6
872.428	10781.62
872.748	10701.63
873.067	10735.3
873.386	10723.32
873.706	10725.13
874.025	10687.16
874.344	10636.77
874.663	10663.89
874.982	10626.15
875.301	10614.62
875.62	10509.99
875.939	10550.89
876.258	10530.78
876.577	10515.87
876.896	10481.97
877.214	10445.13
877.533	10513.61
877.852	10474.96
878.17	10498.01
878.489	10386.15
878.807	10422.08
879.125	10338.47
879.444	10340.5
879.762	10334.4
880.08	10315.65
880.398	10253.95
880.716	10310.9
881.034	10281.75
881.352	10286.27
881.67	10216.21
881.988	10249.89
882.306	10144.13
882.624	10145.71
882.941	10132.6
883.259	10093.73
883.577	10070
883.894	10086.05
884.212	10021.42
884.529	10006.28
884.846	9963.57
885.164	9972.38
885.481	9928.99
885.798	9958.37
886.115	9837.24
886.432	9854.87
886.75	9847.18
887.067	9814.42
887.383	9809.45
887.7	9817.35
888.017	9745.49
888.334	9752.5
888.651	9686.51
888.967	9705.95
889.284	9601.99
889.6	9591.82
889.917	9599.28
890.233	9537.81
890.55	9535.1
890.866	9530.36
891.182	9500.98
891.498	9454.43
891.815	9471.15
892.131	9364.71
892.447	9455.78
892.763	9388.21
893.079	9310.25
893.395	9296.69
893.71	9252.4
894.026	9253.98
894.342	9216.47
894.657	9139.41
894.973	9163.59
895.289	9206.3
895.604	9153.19
895.92	9048.34
896.235	9069.8
896.55	9052.4
896.865	8988.9
897.181	8923.37
897.496	8871.62
897.811	8879.75
898.126	8853.54
898.441	8812.41
898.756	8827.55
899.071	8726.99
899.386	8762.92
899.7	8732.41
900.015	8664.62
900.33	8532.42
900.644	8603.15
900.959	8632.53
901.273	8555.24
901.588	8538.29
901.902	8430.72
902.216	8446.32
902.531	8451.74
902.845	8414.45
903.159	8331.74
903.473	8328.58
903.787	8301.24
904.101	8315.47
904.415	8245.87
904.729	8282.71
905.042	8179.66
905.356	8137.4
905.67	8148.92
905.984	8129.26
906.297	8056.72
906.611	8008.81
906.924	8040.23
907.237	8032.99
907.551	7978.76
907.864	7906.9
908.177	7934.69
908.491	7886.33
908.804	7825.32
909.117	7843.62
909.43	7712.78
909.743	7650.63
910.056	7735.83
910.368	7691.54
910.681	7607.02
910.994	7563.85
911.307	7603.18
911.619	7509.17
911.932	7465.1
912.244	7466.23
912.557	7475.72
912.869	7392.79
913.181	7400.47
913.494	7355.5
913.806	7332.9
914.118	7282.51
914.43	7312.34
914.742	7240.7
915.054	7195.28
915.366	7206.12
915.678	7244.09
915.99	7157.31
916.302	7066.69
916.613	7008.16
916.925	7039.8
917.236	7012.46
917.548	6969.29
917.859	6987.37
918.171	6894.72
918.482	6942.18
918.794	6875.74
919.105	6867.38
919.416	6833.03
919.727	6773.37
920.038	6775.4
920.349	6698.79
920.66	6688.17
920.971	6682.07
921.282	6638.91
921.593	6654.95
921.903	6545.12
922.214	6526.14
922.525	6484.79
922.835	6464.22
923.146	6443.66
923.456	6399.14
923.767	6386.03
924.077	6425.35
924.387	6332.25
924.697	6306.94
925.008	6253.38
925.318	6276.66
925.628	6336.77
925.938	6204.57
926.248	6183.78
926.558	6118.7
926.867	6130.9
927.177	6096.32
927.487	6059.49
927.796	6023.78
928.106	6016.1
928.416	6015.19
928.725	5982.43
929.034	5947.85
929.344	5944.69
929.653	5907.85
929.962	5889.55
930.271	5860.62
930.581	5823.79
930.89	5791.92
931.199	5759.16
931.508	5774.98
931.817	5759.83
932.125	5720.29
932.434	5690.01
932.743	5609.1
933.051	5582.66
933.36	5605.26
933.669	5569.33
933.977	5550.12
934.286	5525.49
934.594	5556.22
934.902	5457.92
935.21	5473.51
935.519	5434.42
935.827	5466.28
936.135	5398.49
936.443	5330.24
936.751	5294.54
937.059	5354.2
937.367	5248.89
937.674	5266.06
937.982	5261.32
938.29	5233.07
938.597	5227.65
938.905	5198.72
939.213	5137.7
939.52	5109.91
939.827	5133.41
940.135	5121.21
940.442	5105.61
940.749	5062.68
941.056	5081.43
941.363	5040.08
941.67	5040.98
941.977	5018.38
942.284	4972.96
942.591	4909.69
942.898	4909.91
943.205	4910.14
943.511	4873.3
943.818	4877.82
944.125	4817.71
944.431	4824.94
944.738	4796.7
945.044	4763.93
945.35	4761.22
945.657	4744.72
945.963	4697.49
946.269	4680.54
946.575	4679.64
946.881	4640.32
947.187	4599.19
947.493	4619.53
947.799	4621.11
948.105	4564.61
948.41	4558.74
948.716	4546.76
949.022	4536.82
949.327	4489.81
949.633	4403.26
949.938	4439.42
950.244	4496.59
950.549	4420.89
950.854	4398.51
951.16	4341.34
951.465	4332.98
951.77	4354.9
952.075	4332.75
952.38	4311.96
952.685	4331.85
952.99	4235.81
953.294	4222.47
953.599	4215.02
953.904	4184.96
954.209	4197.16
954.513	4145.87
954.818	4133.21
955.122	4147.67
955.426	4111.06
955.731	4088.01
956.035	4037.39
956.339	4068.58
956.643	4054.12
956.948	3991.97
957.252	4011.86
957.556	3997.17
957.86	3978.64
958.163	3969.15
958.467	3896.38
958.771	3906.1
959.075	3894.57
959.378	3864.97
959.682	3885.99
959.985	3874.91
960.289	3837.63
960.592	3804.18
960.896	3806.67
961.199	3767.8
961.502	3729.61
961.805	3708.36
962.108	3704.52
962.411	3715.37
962.714	3724.41
963.017	3672.88
963.32	3691.41
963.623	3655.93
963.926	3681.7
964.228	3646.22
964.531	3596.73
964.833	3580.46
965.136	3625.43
965.438	3518.09
965.741	3548.59
966.043	3544.3
966.345	3500.91
966.648	3485.54
966.95	3503.62
967.252	3489.39
967.554	3469.5
967.856	3430.4
968.158	3421.14
968.46	3402.38
968.761	3389.05
969.063	3403.74
969.365	3406.9
969.666	3337.98
969.968	3330.75
970.269	3329.16
970.571	3338.66
970.872	3287.36
971.174	3283.29
971.475	3270.18
971.776	3262.95
972.077	3229.51
972.378	3221.14
972.679	3241.48
972.98	3200.13
973.281	3194.03
973.582	3147.25
973.883	3192.67
974.183	3129.4
974.484	3129.17
974.785	3104.31
975.085	3119.9
975.386	3109.51
975.686	3085.1
975.986	3055.5
976.287	3066.8
976.587	3036.74
976.887	2986.8
977.187	3012.79
977.487	3013.92
977.787	2947.7
978.087	2939.12
978.387	2990.87
978.687	2947.93
978.987	2922.39
979.286	2904.77
979.586	2889.18
979.885	2896.41
980.185	2875.84
980.484	2852.79
980.784	2849.4
981.083	2853.47
981.382	2840.59
981.682	2800.14
981.981	2821.15
982.28	2793.58
982.579	2799.46
982.878	2752.46
983.177	2790.65
983.475	2764.43
983.774	2744.77
984.073	2724.43
984.372	2707.71
984.67	2689.41
984.969	2635.62
985.267	2684.66
985.566	2669.07
985.864	2620.93
986.162	2618
986.461	2614.61
986.759	2602.18
987.057	2573.03
987.355	2565.57
987.653	2547.72
987.951	2555.62
988.249	2526.25
988.547	2546.36
988.844	2531.67
989.142	2543.2
989.44	2488.28
989.737	2465.91
990.035	2496.19
990.332	2475.18
990.63	2468.62
990.927	2485.8
991.224	2436.98
991.521	2441.96
991.819	2398.34
992.116	2420.49
992.413	2384.1
992.71	2365.12
993.006	2362.86
993.303	2381.39
993.6	2391.34
993.897	2365.12
994.193	2355.63
994.49	2344.33
994.787	2316.99
995.083	2288.06
995.379	2283.09
995.676	2269.3
995.972	2263.88
996.268	2256.2
996.565	2249.19
996.861	2249.64
997.157	2238.8
997.453	2180.95
997.749	2225.46
998.044	2189.08
998.34	2212.36
998.636	2170.78
998.932	2149.31
999.227	2137.33
999.523	2131
999.818	2122.19
1000.114	2100.95
1000.409	2114.05
1000.704	2085.58
1001	2083.77
1001.295	2036.09
1001.59	2052.36
1001.885	2070.89
1002.18	2010.78
1002.475	2011.68
1002.77	2025.24
1003.065	2006.71
1003.359	1989.09
1003.654	1993.15
1003.949	1986.15
1004.243	1948.86
1004.538	1956.32
1004.832	1930.33
1005.127	1934.62
1005.421	1881.29
1005.715	1928.75
1006.009	1898.02
1006.304	1867.28
1006.598	1858.47
1006.892	1871.12
1007.186	1857.34
1007.48	1820.28
1007.773	1837.68
1008.067	1830.45
1008.361	1812.82
1008.655	1775.53
1008.948	1775.53
1009.242	1815.76
1009.535	1787.28
1009.829	1778.7
1010.122	1767.85
1010.415	1754.97
1010.708	1731.69
1011.001	1702.99
1011.295	1724.69
1011.588	1685.82
1011.881	1709.55
1012.173	1692.14
1012.466	1678.81
1012.759	1652.6
1013.052	1627.51
1013.344	1638.81
1013.637	1653.5
1013.93	1607.18
1014.222	1629.1
1014.514	1613.05
1014.807	1599.94
1015.099	1596.33
1015.391	1581.41
1015.683	1562.88
1015.976	1576.67
1016.268	1570.34
1016.56	1548.19
1016.851	1534.41
1017.143	1524.69
1017.435	1537.12
1017.727	1491.7
1018.018	1508.19
1018.31	1503.68
1018.602	1479.49
1018.893	1487.86
1019.185	1461.87
1019.476	1472.26
1019.767	1472.04
1020.058	1451.02
1020.35	1430.68
1020.641	1413.73
1020.932	1401.98
1021.223	1393.62
1021.514	1380.29
1021.804	1388.2
1022.095	1367.41
1022.386	1367.63
1022.677	1353.62
1022.967	1345.94
1023.258	1344.58
1023.548	1304.13
1023.839	1331.93
1024.129	1335.09
1024.419	1331.48
1024.709	1297.35
1025	1264.36
1025.29	1288.77
1025.58	1261.87
1025.87	1246.28
1026.16	1249.44
1026.449	1249.44
1026.739	1236.34
1027.029	1223.23
1027.319	1242.44
1027.608	1230.46
1027.898	1229.56
1028.187	1219.84
1028.477	1184.81
1028.766	1176.68
1029.055	1158.83
1029.344	1164.25
1029.634	1154.53
1029.923	1172.38
1030.212	1151.82
1030.501	1153.63
1030.79	1132.16
1031.078	1134.42
1031.367	1113.18
1031.656	1108.66
1031.945	1114.53
1032.233	1076.79
1032.522	1065.49
1032.81	1082.44
1033.099	1058.26
1033.387	1056.91
1033.675	1038.6
1033.963	1056.91
1034.251	1067.75
1034.54	1040.18
1034.828	1041.09
1035.116	1018.04
1035.403	1013.97
1035.691	997.47
1035.979	1018.49
1036.267	1011.26
1036.554	983.46
1036.842	993.63
1037.129	979.17
1037.417	974.42
1037.704	983.91
1037.992	958.38
1038.279	965.61
1038.566	954.54
1038.853	954.54
1039.14	954.54
