Data from hue_60_FLMS001491_90.txt Node
Date: Mon Feb 06 15:18:04 GMT 2017
User: dcchb
Spectrometer: FLMS00149
Trigger mode: 0
Integration Time (sec): 2.000000E-2
Scans to average: 10
Electric dark correction enabled: true
Nonlinearity correction enabled: false
Boxcar width: 0
XAxis mode: Wavelengths
Number of Pixels in Spectrum: 2048
>>>>>Begin Spectral Data<<<<<
341.393	-18.91
341.776	-18.91
342.16	-18.91
342.543	-50.55
342.927	-62.3
343.31	-71.57
343.693	-45.58
344.077	-70.21
344.46	-69.31
344.843	-39.48
345.226	-50.1
345.61	-46.71
345.993	-11.68
346.376	-14.17
346.759	2.1
347.142	37.81
347.525	35.78
347.908	61.76
348.291	64.25
348.674	92.27
349.057	124.81
349.44	118.71
349.823	124.59
350.206	164.36
350.588	195.32
350.971	187.41
351.354	242.32
351.737	242.78
352.119	254.3
352.502	291.14
352.884	275.54
353.267	285.71
353.65	302.89
354.032	286.84
354.414	329.1
354.797	323.23
355.179	305.83
355.562	330.46
355.944	325.94
356.326	321.19
356.709	346.28
357.091	344.69
357.473	354.41
357.855	354.41
358.238	349.89
358.62	333.17
359.002	334.98
359.384	339.27
359.766	325.94
360.148	324.81
360.53	339.27
360.912	346.95
361.294	363.45
361.676	345.37
362.057	355.99
362.439	307.18
362.821	351.93
363.203	323.9
363.584	327.97
363.966	325.26
364.348	334.75
364.729	314.86
365.111	295.88
365.493	334.98
365.874	313.73
366.256	321.64
366.637	326.39
367.019	329.33
367.4	299.05
367.781	320.51
368.163	310.34
368.544	320.97
368.925	314.86
369.306	319.16
369.688	321.87
370.069	311.02
370.45	323.9
370.831	327.29
371.212	319.61
371.593	313.96
371.974	311.7
372.355	313.51
372.736	325.71
373.117	319.84
373.498	318.93
373.879	315.99
374.26	310.57
374.641	314.86
375.021	297.69
375.402	331.81
375.783	310.34
376.163	323.45
376.544	337.91
376.925	324.13
377.305	335.43
377.686	339.5
378.066	313.51
378.447	334.98
378.827	312.83
379.208	329.78
379.588	312.6
379.968	322.1
380.349	342.66
380.729	343.11
381.109	335.66
381.489	332.49
381.87	327.07
382.25	335.88
382.63	321.87
383.01	335.2
383.39	330.46
383.77	349.21
384.15	353.28
384.53	344.24
384.91	342.66
385.29	351.25
385.67	347.63
386.049	364.35
386.429	359.38
386.809	345.6
387.189	350.57
387.568	355.09
387.948	352.15
388.328	352.15
388.707	355.77
389.087	367.07
389.466	379.04
389.846	351.7
390.225	348.08
390.605	358.93
390.984	356.67
391.363	358.71
391.743	359.61
392.122	356.22
392.501	353.28
392.881	370.68
393.26	381.98
393.639	367.07
394.018	377.91
394.397	370
394.776	384.02
395.155	358.03
395.534	364.35
395.913	364.81
396.292	395.09
396.671	394.64
397.05	370.23
397.429	364.13
397.808	399.16
398.186	382.66
398.565	375.43
398.944	376.11
399.323	383.56
399.701	369.78
400.08	381.98
400.458	394.41
400.837	375.88
401.215	386.05
401.594	383.11
401.972	393.28
402.351	399.83
402.729	410.91
403.107	387.41
403.486	401.64
403.864	404.13
404.242	413.62
404.62	410.68
404.999	436.9
405.377	406.16
405.755	402.77
406.133	412.04
406.511	413.17
406.889	410.23
407.267	429.21
407.645	421.53
408.023	421.75
408.401	425.14
408.779	426.95
409.156	417.23
409.534	429.66
409.912	443.67
410.29	433.51
410.667	433.05
411.045	442.09
411.422	452.26
411.8	431.47
412.178	443.67
412.555	450.45
412.933	445.93
413.31	442.09
413.687	465.6
414.065	450.68
414.442	452.26
414.819	468.76
415.197	461.53
415.574	481.19
415.951	461.98
416.328	475.54
416.705	468.98
417.082	460.85
417.46	484.8
417.837	498.81
418.214	490.23
418.591	486.16
418.967	486.84
419.344	490
419.721	505.37
420.098	485.93
420.475	500.85
420.852	488.42
421.228	486.61
421.605	485.93
421.982	506.72
422.358	526.16
422.735	511.7
423.111	504.69
423.488	507.4
423.864	531.81
424.241	529.1
424.617	518.25
424.994	511.02
425.37	540.17
425.746	538.81
426.123	557.57
426.499	542.2
426.875	515.09
427.251	539.27
427.627	559.15
428.003	524.35
428.379	548.53
428.756	578.81
429.132	560.96
429.507	575.42
429.883	581.98
430.259	583.56
430.635	587.63
431.011	578.81
431.387	560.96
431.763	584.46
432.138	607.06
432.514	588.3
432.89	619.49
433.265	606.83
433.641	620.62
434.016	602.54
434.392	651.58
434.767	643.67
435.143	634.63
435.518	634.18
435.894	643.22
436.269	660.84
436.644	646.38
437.02	660.39
437.395	655.19
437.77	693.39
438.145	664.23
438.52	652.03
438.895	676.89
439.271	690.9
439.646	686.83
440.021	684.12
440.395	699.71
440.77	694.29
441.145	691.13
441.52	719.15
441.895	711.46
442.27	715.08
442.645	716.21
443.019	726.61
443.394	730.67
443.769	731.35
444.143	726.61
444.518	734.74
444.892	748.3
445.267	753.27
445.641	765.7
446.016	748.3
446.39	744.91
446.764	749.66
447.139	779.71
447.513	757.34
447.887	765.02
448.262	765.02
448.636	799.6
449.01	787.85
449.384	783.78
449.758	803.89
450.132	803.44
450.506	799.37
450.88	799.15
451.254	824.46
451.628	821.29
452.002	826.72
452.376	833.72
452.75	851.8
453.123	839.37
453.497	846.83
453.871	852.48
454.244	873.49
454.618	882.31
454.992	903.1
455.365	900.84
455.739	894.96
456.112	897.9
456.486	919.37
456.859	921.18
457.232	938.35
457.606	913.04
457.979	950.55
458.352	955.98
458.725	975.86
459.099	960.95
459.472	1025.13
459.845	984
460.218	1025.81
460.591	1035.52
460.964	1028.29
461.337	1042.53
461.71	1046.6
462.083	1086.14
462.456	1059.48
462.829	1068.52
463.201	1111.68
463.574	1111
463.947	1151.45
464.32	1140.83
464.692	1153.26
465.065	1141.96
465.438	1166.59
465.81	1204.78
466.183	1217.89
466.555	1262.18
466.928	1262.18
467.3	1235.52
467.672	1279.81
468.045	1310.54
468.417	1305.8
468.789	1337.21
469.161	1373.37
469.534	1405.01
469.906	1388.06
470.278	1437.55
470.65	1452.69
471.022	1470.77
471.394	1522.74
471.766	1543.31
472.138	1576.53
472.51	1622.63
472.882	1625.34
473.253	1664.89
473.625	1706.01
473.997	1734.94
474.369	1767.48
474.74	1802.51
475.112	1847.03
475.484	1905.33
475.855	1932.45
476.227	1997.53
476.598	2082.73
476.97	2071.2
477.341	2126.34
477.713	2192.56
478.084	2226.45
478.455	2303.51
478.827	2380.57
479.198	2491.53
479.569	2494.02
479.94	2599.32
480.311	2640.23
480.682	2732.43
481.053	2811.75
481.424	2940.56
481.795	2951.86
482.166	3059.88
482.537	3191.17
482.908	3284.05
483.279	3336.25
483.65	3459.19
484.021	3536.7
484.391	3675.68
484.762	3746.41
485.133	3791.84
485.503	3944.6
485.874	4096.46
486.244	4217.36
486.615	4318.38
486.985	4455.32
487.356	4594.75
487.726	4653.06
488.097	4851.69
488.467	4942.99
488.837	5089.65
489.207	5217.79
489.578	5414.62
489.948	5486.93
490.318	5667.49
490.688	5770.77
491.058	5920.59
491.428	6030.65
491.798	6191.77
492.168	6339.56
492.538	6492.78
492.908	6709.95
493.278	6840.12
493.648	6923.96
494.017	7143.84
494.387	7261.8
494.757	7411.63
495.126	7611.85
495.496	7656.14
495.866	7862.46
496.235	8050.25
496.605	8212.74
496.974	8333.18
497.344	8490.02
497.713	8587.42
498.082	8737.69
498.452	8977.24
498.821	9160.73
499.19	9217
499.559	9359.37
499.928	9585.36
500.298	9664.22
500.667	9823.54
501.036	9904.89
501.405	10121.84
501.774	10237.77
502.143	10390.08
502.512	10565.44
502.88	10675.72
503.249	10824.64
503.618	10916.85
503.987	11062.83
504.356	11233.45
504.724	11366.55
505.093	11496.72
505.462	11587.34
505.83	11808.8
506.199	11892.87
506.567	12210.6
506.936	12171.95
507.304	12436.81
507.672	12546.18
508.041	12651.49
508.409	12862.11
508.777	12906.62
509.145	13104.58
509.514	13257.58
509.882	13405.82
510.25	13434.29
510.618	13609.66
510.986	13683.1
511.354	13898.91
511.722	14059.81
512.09	14264.1
512.458	14331.45
512.826	14450.09
513.193	14539.58
513.561	14589.74
513.929	14869.28
514.297	15018.88
514.664	15083.74
515.032	15256.17
515.4	15453.22
515.767	15441.02
516.135	15577.74
516.502	15645.99
516.869	15944.96
517.237	16083.72
517.604	16045.52
517.972	16320.09
518.339	16402.8
518.706	16521.9
519.073	16521.67
519.44	16688.22
519.808	16999.62
520.175	16988.1
520.542	17215.21
520.909	17412.04
521.276	17374.98
521.643	17567.97
522.009	17763.22
522.376	17913.72
522.743	18104.23
523.11	18249.76
523.477	18396.2
523.843	18536.53
524.21	18648.17
524.577	18893.59
524.943	18957.54
525.31	19099.68
525.676	19287.02
526.043	19417.19
526.409	19599.78
526.776	19760.68
527.142	19854.69
527.508	20022.59
527.874	20095.14
528.241	20272.31
528.607	20390.27
528.973	20565.41
529.339	20484.73
529.705	20733.54
530.071	20872.52
530.437	21072.74
530.803	21129.01
531.169	21266.4
531.535	21217.14
531.901	21359.06
532.267	21530.35
532.632	21723.79
532.998	21704.36
533.364	21878.14
533.73	21936.22
534.095	22155.65
534.461	22228.64
534.826	22226.15
535.192	22440.84
535.557	22518.8
535.923	22655.97
536.288	22726.03
536.653	22887.15
537.019	22827.49
537.384	22967.38
537.749	23091.44
538.114	23156.98
538.479	23212.79
538.845	23300.93
539.21	23406.46
539.575	23386.57
539.94	23473.13
540.305	23621.82
540.67	23680.58
541.034	23780.01
541.399	23796.06
541.764	23886.22
542.129	24072.66
542.494	23965.09
542.858	24176.16
543.223	24187.23
543.587	24232.88
543.952	24340.9
544.316	24406.43
544.681	24534.79
545.045	24530.5
545.41	24775.24
545.774	24754.9
546.138	24824.05
546.503	24782.02
546.867	24873.09
547.231	25138.62
547.595	25119.41
547.959	25293.19
548.324	25226.53
548.688	25342.68
549.052	25436.01
549.416	25540.64
549.779	25592.39
550.143	25617.02
550.507	25807.98
550.871	25797.81
551.235	25894.53
551.599	26105.15
551.962	26139.95
552.326	26105.82
552.689	26357.12
553.053	26432.37
553.417	26422.65
553.78	26626.04
554.143	26609.54
554.507	26736.77
554.87	26792.13
555.234	27107.83
555.597	27042.98
555.96	27089.08
556.323	27328.17
556.686	27255.17
557.05	27493.36
557.413	27539.91
557.776	27578.55
558.139	27731.32
558.502	27823.52
558.865	27932.44
559.228	28124.75
559.59	28198.2
559.953	28289.27
560.316	28549.38
560.679	28606.78
561.041	28683.38
561.404	28881.35
561.767	29149.81
562.129	29096.48
562.492	29415.12
562.854	29376.93
563.217	29307.32
563.579	29463.25
563.941	29666.41
564.304	29778.72
564.666	29855.1
565.028	29987.53
565.39	30094.65
565.753	30329.67
566.115	30412.83
566.477	30508.19
566.839	30620.96
567.201	30816.44
567.563	30808.98
567.925	31053.72
568.287	30980.95
568.648	31122.19
569.01	31225.69
569.372	31522.41
569.734	31561.27
570.095	31800.14
570.457	31781.16
570.819	31769.63
571.18	31867.71
571.542	32078.78
571.903	32163.29
572.265	32314.02
572.626	32350.63
572.987	32475.15
573.349	32568.03
573.71	32676.95
574.071	32766.44
574.432	32928.7
574.794	33088.01
575.155	32942.71
575.516	32959.2
575.877	33066.32
576.238	33189.48
576.599	33376.59
576.96	33356.48
577.32	33427.67
577.681	33476.25
578.042	33603.48
578.403	33576.14
578.763	33554.67
579.124	33732.07
579.485	33963.02
579.845	33983.13
580.206	33867.2
580.566	33884.38
580.927	33917.6
581.287	34182
581.648	33982.23
582.008	34289.79
582.368	34111.49
582.728	34111.26
583.089	34144.94
583.449	34151.94
583.809	34191.94
584.169	34250.24
584.529	34262.67
584.889	34538.6
585.249	34294.08
585.609	34252.73
585.969	34610.23
586.329	34240.53
586.688	34404.59
587.048	34464.7
587.408	34334.76
587.768	34455.89
588.127	34328.89
588.487	34401.2
588.846	34553.51
589.206	34217.02
589.565	34471.03
589.925	34660.4
590.284	34440.52
590.643	34793.28
591.003	34713.28
591.362	34786.95
591.721	34613.4
592.08	34768.2
592.44	34866.27
592.799	34745.6
593.158	34741.98
593.517	34772.72
593.876	34869.21
594.235	34748.08
594.593	34831.02
594.952	34911.92
595.311	34743.56
595.67	34929.32
596.029	35034.63
596.387	35088.19
596.746	35185.81
597.104	35012.03
597.463	34960.51
597.822	35257
598.18	35050
598.538	35047.96
598.897	35252.7
599.255	35036.44
599.613	35505.35
599.972	35254.28
600.33	35363.21
600.688	35285.02
601.046	35503.09
601.404	35583.09
601.762	35501.06
602.12	35617.21
602.478	35740.37
602.836	35668.29
603.194	35471.91
603.552	35731.56
603.91	35485.69
604.268	35807.49
604.625	35767.72
604.983	35914.83
605.341	35690.88
605.698	35944.89
606.056	35996.19
606.413	35920.93
606.771	36165
607.128	36231.21
607.485	36018.33
607.843	36071.44
608.2	36316.18
608.557	36494.48
608.914	36306.91
609.272	36573.57
609.629	36501.94
609.986	36795.94
610.343	36565.21
610.7	36953
611.057	36852.89
611.414	36814.02
611.771	36904.19
612.127	36922.04
612.484	36926.33
612.841	37154.35
613.198	37091.3
613.554	37236.83
613.911	37338.07
614.267	37399.54
614.624	37335.36
614.98	37370.16
615.337	37560.66
615.693	37592.08
616.05	37482.25
616.406	37584.17
616.762	37702.81
617.118	37609.48
617.475	37590.04
617.831	37862.8
618.187	37882.01
618.543	37903.03
618.899	38133.53
619.255	38134.66
619.611	37994.78
619.967	38192.29
620.323	38196.58
620.678	38205.62
621.034	38151.38
621.39	38137.6
621.746	38163.13
622.101	38647.42
622.457	38255.56
622.812	38303.47
623.168	38472.28
623.523	38378.5
623.879	38535.78
624.234	38310.25
624.589	38428.21
624.945	38606.97
625.3	38570.58
625.655	38571.49
626.01	38514.99
626.365	38640.41
626.72	38629.34
627.075	38537.14
627.43	38561.99
627.785	38590.02
628.14	38657.81
628.495	38741.65
628.85	38611.94
629.205	38587.98
629.559	38779.39
629.914	38560.41
630.269	38579.62
630.623	38648.09
630.978	38500.3
631.332	38636.12
631.687	38714.76
632.041	38683.8
632.396	38670.92
632.75	38526.06
633.104	38641.09
633.459	38390.25
633.813	38472.28
634.167	38451.49
634.521	38454.88
634.875	38552.05
635.229	38387.31
635.583	38357.25
635.937	38360.87
636.291	38252.17
636.645	38320.87
636.999	38280.65
637.352	38522.9
637.706	38171.5
638.06	38374.65
638.413	38232.74
638.767	38149.35
639.121	38215.34
639.474	37983.7
639.828	38083.82
640.181	38173.76
640.534	38191.16
640.888	38032.52
641.241	37865.52
641.594	37943.25
641.947	38045.62
642.301	37871.84
642.654	37985.06
643.007	37923.82
643.36	37976.7
643.713	37757.04
644.066	38114.55
644.419	37720.66
644.771	37468.92
645.124	37287.45
645.477	36996.61
645.83	36924.07
646.182	36677.75
646.535	36643.85
646.888	36679.33
647.24	36527.25
647.593	36683.17
647.945	36778.99
648.298	36429.62
648.65	36600.69
649.002	36442.28
649.355	36524.76
649.707	36437.76
650.059	36567.02
650.411	37072.99
650.763	37069.38
651.115	37389.14
651.467	37264.63
651.819	37296.04
652.171	37222.59
652.523	37194.57
652.875	37224.18
653.227	37052.88
653.578	37202.26
653.93	37280.22
654.282	37011.53
654.633	36980.79
654.985	37040.23
655.337	36962.94
655.688	36979.44
656.039	37128.36
656.391	36778.31
656.742	36718.88
657.094	36939.21
657.445	37053.11
657.796	36877.52
658.147	36929.04
658.498	36880.46
658.849	36711.2
659.2	36827.35
659.551	36738.99
659.902	36951.87
660.253	36741.93
660.604	37001.81
660.955	36776.96
661.306	36849.5
661.656	36580.58
662.007	36735.83
662.358	36682.72
662.708	36690.41
663.059	36739.9
663.409	36445.89
663.76	36765.43
664.11	36723.62
664.461	36824.87
664.811	36678.88
665.161	36712.1
665.511	36543.06
665.862	36562.27
666.212	36672.78
666.562	36723.85
666.912	36657.86
667.262	36685.89
667.612	36598.88
667.962	36651.99
668.312	36617.41
668.662	36780.8
669.011	36594.59
669.361	36602.27
669.711	36440.47
670.06	36508.72
670.41	36478.89
670.76	36512.78
671.109	36696.73
671.459	36417.42
671.808	36337.87
672.157	36515.27
672.507	36291.55
672.856	36335.39
673.205	36318.66
673.554	36510.98
673.904	36268.72
674.253	36429.62
674.602	36421.71
674.951	35837.09
675.3	35705.35
675.649	36165.22
675.998	36273.02
676.346	36046.13
676.695	36313.47
677.044	36060.14
677.393	36120.93
677.741	36079.35
678.09	36106.47
678.438	35966.81
678.787	35982.63
679.135	35964.55
679.484	35862.4
679.832	35940.37
680.181	35628.51
680.529	35801.62
680.877	35664.9
681.225	35753.71
681.573	35952.12
681.922	35576.08
682.27	35482.08
682.618	35452.47
682.966	35469.42
683.314	35577.44
683.661	35440.49
684.009	35403.66
684.357	35176.77
684.705	35204.34
685.053	35285.47
685.4	35111.24
685.748	34962.32
686.095	34974.74
686.443	34984.24
686.79	34862.66
687.138	35065.14
687.485	34847.06
687.832	34779.72
688.18	34846.61
688.527	34578.14
688.874	34690.91
689.221	34565.72
689.568	34452.95
689.915	34342.9
690.262	34471.93
690.609	34186.52
690.956	34125.95
691.303	34125.28
691.65	33958.05
691.997	33865.85
692.344	33804.83
692.69	33770.03
693.037	33852.06
693.383	33582.01
693.73	33556.7
694.077	33519.87
694.423	33420.66
694.769	33278.97
695.116	33281
695.462	33268.8
695.808	33019.77
696.155	33133.89
696.501	32891.86
696.847	32934.35
697.193	32702.26
697.539	32760.57
697.885	32581.81
698.231	32428.6
698.577	32449.16
698.923	32393.57
699.269	32343.63
699.614	32272.22
699.96	32121.03
700.306	32154.03
700.651	31998.33
700.997	31793.81
701.342	31859.8
701.688	31757.2
702.033	31596.75
702.379	31626.36
702.724	31578.9
703.069	31637.43
703.415	31129.2
703.76	31253.49
704.105	31180.95
704.45	31152.02
704.795	30997.45
705.14	30919.48
705.485	30855.08
705.83	30787.96
706.175	30832.03
706.52	30682.65
706.865	30545.48
707.209	30504.13
707.554	30318.6
707.899	30559.27
708.243	30168.09
708.588	30242.67
708.932	30209.22
709.277	30039.05
709.621	30092.61
709.966	29944.59
710.31	30107.75
710.654	29819.63
710.998	29754.09
711.342	29942.11
711.687	29689.46
712.031	29661.21
712.375	29540.08
712.719	29518.39
713.063	29416.92
713.407	29540.99
713.75	29336.25
714.094	29383.25
714.438	29151.85
714.782	29254.44
715.125	29099.87
715.469	29112.53
715.812	28962.92
716.156	28787.79
716.499	28842.7
716.843	28888.35
717.186	28684.74
717.53	28811.52
717.873	28691.52
718.216	28635.93
718.559	28577.85
718.902	28411.07
719.246	28532.43
719.589	28327.01
719.932	28331.53
720.275	28334.69
720.617	28293.11
720.96	28144.19
721.303	28175.37
721.646	28223.51
721.989	27950.3
722.331	28088.6
722.674	27948.94
723.016	27994.59
723.359	27945.32
723.701	27876.4
724.044	27673.24
724.386	27566.58
724.729	27827.81
725.071	27658.78
725.413	27596.18
725.755	27599.57
726.097	27520.02
726.439	27403.19
726.782	27297.21
727.124	27580.14
727.465	27331.1
727.807	27378.33
728.149	27332.91
728.491	27158.68
728.833	27143.76
729.175	27183.31
729.516	27042.3
729.858	26956.42
730.199	27080.04
730.541	27028.74
730.882	26969.08
731.224	26959.36
731.565	26879.59
731.906	26859.25
732.248	26903.32
732.589	26698.35
732.93	26550.33
733.271	26619.26
733.612	26668.52
733.953	26555.98
734.294	26477.34
734.635	26532.03
734.976	26591.91
735.317	26362.32
735.658	26376.1
735.999	26340.62
736.339	26207.52
736.68	26386.5
737.021	26248.42
737.361	26162.09
737.702	26313.95
738.042	26213.84
738.383	25991.03
738.723	26109.44
739.063	26067.41
739.404	26125.71
739.744	26049.78
740.084	25901.08
740.424	25969.11
740.764	25867.41
741.104	25919.62
741.444	25758.04
741.784	25686.85
742.124	25657.48
742.464	25623.35
742.804	25682.56
743.143	25648.89
743.483	25641.66
743.823	25530.25
744.162	25499.74
744.502	25462.23
744.841	25409.12
745.181	25438.95
745.52	25371.61
745.86	25393.75
746.199	25184.49
746.538	25193.31
746.877	25249.35
747.216	25328.44
747.556	25190.14
747.895	25168.22
748.234	25013.2
748.573	24939.3
748.911	24949.7
749.25	24938.62
749.589	24818.18
749.928	24860.66
750.267	24883.03
750.605	24670.38
750.944	24699.53
751.283	24589.93
751.621	24624.73
751.96	24486.43
752.298	24475.13
752.636	24483.04
752.975	24408.92
753.313	24379.77
753.651	24477.85
753.989	24290.96
754.327	24187.91
754.666	24166.67
755.004	24248.25
755.342	24194.69
755.679	24159.89
756.017	23936.84
756.355	23955.15
756.693	23949.95
757.031	23912.44
757.368	23642.16
757.706	23763.29
758.044	23662.05
758.381	23627.92
758.719	23481.94
759.056	23546.8
759.394	23498.21
759.731	23238.56
760.068	23326.91
760.405	23206.24
760.743	23248.05
761.08	23271.78
761.417	23157.65
761.754	23076.53
762.091	22978.9
762.428	22843.31
762.765	22698.91
763.102	22810.54
763.438	22639.25
763.775	22608.06
764.112	22592.92
764.449	22506.82
764.785	22434.73
765.122	22323.78
765.458	22257.79
765.795	22326.72
766.131	22130.56
766.467	22100.96
766.804	22092.37
767.14	21888.76
767.476	21947.52
767.812	21752.04
768.148	21844.24
768.485	21725.38
768.821	21597.69
769.157	21462.11
769.492	21507.08
769.828	21534.42
770.164	21236.12
770.5	21217.59
770.836	21276.8
771.171	21057.82
771.507	21082.91
771.842	20849.92
772.178	20945.51
772.513	20738.51
772.849	20686.76
773.184	20667.32
773.519	20616.48
773.855	20572.41
774.19	20445.63
774.525	20371.29
774.86	20358.41
775.195	20211.29
775.53	20190.73
775.865	20128.35
776.2	19974.69
776.535	19875.25
776.87	19782.38
777.205	19736.73
777.539	19675.71
777.874	19770.4
778.209	19563.17
778.543	19484.76
778.878	19412.22
779.212	19333.35
779.547	19265.1
779.881	19433.91
780.215	19123.86
780.55	19220.81
780.884	19117.99
781.218	18968.84
781.552	18944.66
781.886	18849.29
782.22	18778.79
782.554	18683.42
782.888	18571.33
783.222	18517.78
783.556	18377.44
783.889	18347.38
784.223	18302.41
784.557	18177.67
784.89	18255.86
785.224	18170.89
785.557	17960.5
785.891	18030.33
786.224	17930.45
786.558	17894.74
786.891	17742.65
787.224	17711.92
787.557	17722.09
787.891	17640.96
788.224	17607.07
788.557	17591.7
788.89	17509.44
789.223	17585.14
789.556	17271.93
789.888	17292.05
790.221	17276.23
790.554	17093.41
790.887	17180.41
791.219	17182.9
791.552	17017.02
791.884	16930.47
792.217	16874.66
792.549	16833.3
792.882	16690.71
793.214	16657.03
793.546	16643.02
793.879	16477.83
794.211	16490.48
794.543	16542.46
794.875	16521.9
795.207	16557.15
795.539	16367.32
795.871	16349.47
796.203	16182.92
796.535	16105.86
796.867	16026.32
797.198	15994.9
797.53	16058.41
797.862	15922.14
798.193	15945.64
798.525	15893.44
798.856	15844.4
799.188	15673.56
799.519	15661.81
799.85	15572.09
800.182	15535.03
800.513	15557.18
800.844	15354.02
801.175	15508.14
801.506	15401.25
801.837	15356.5
802.168	15297.75
802.499	15261.59
802.83	15191.54
803.161	15096.17
803.491	15167.81
803.822	15087.58
804.153	14999.68
804.483	14927.36
804.814	14937.76
805.145	14942.5
805.475	14792.68
805.805	14813.92
806.136	14777.76
806.466	14736.63
806.796	14610.31
807.126	14522.63
807.457	14546.58
807.787	14492.34
808.117	14533.02
808.447	14361.73
808.777	14504.32
809.107	14382.97
809.436	14412.8
809.766	14280.15
810.096	14319.47
810.426	14214.61
810.755	14206.25
811.085	14144.11
811.414	14065.69
811.744	14031.11
812.073	14020.49
812.403	13981.17
812.732	13918.12
813.061	13937.11
813.39	13811.23
813.719	13825.02
814.049	13819.37
814.378	13757.9
814.707	13687.39
815.036	13734.62
815.365	13657.79
815.693	13526.72
816.022	13600.62
816.351	13532.6
816.68	13425.03
817.008	13474.74
817.337	13285.6
817.665	13363.79
817.994	13368.31
818.322	13416.44
818.651	13270.23
818.979	13277.01
819.307	13320.85
819.636	13252.83
819.964	13093.74
820.292	13211.93
820.62	13153.4
820.948	13130.8
821.276	13180.74
821.604	13071.14
821.932	13119.27
822.259	13134.19
822.587	13107.52
822.915	13068.65
823.243	13050.57
823.57	13110.01
823.898	13132.15
824.225	13016.68
824.553	12969.22
824.88	13106.62
825.207	13072.27
825.535	13022.55
825.862	13003.34
826.189	13011.03
826.516	13056
826.843	13040.63
827.17	13107.07
827.497	13050.35
827.824	13049.45
828.151	13099.61
828.478	12933.29
828.805	13088.31
829.131	12977.36
829.458	12993.4
829.785	12858.94
830.111	12979.84
830.438	13096
830.764	12918.15
831.09	13068.2
831.417	12930.13
831.743	13015.77
832.069	12981.42
832.395	12984.81
832.722	13023.23
833.048	12985.49
833.374	12968.32
833.7	12911.14
834.026	12896.45
834.351	12912.73
834.677	13011.71
835.003	12904.14
835.329	12790.24
835.654	12822.11
835.98	12751.6
836.306	12781.66
836.631	12727.19
836.956	12738.72
837.282	12786.18
837.607	12698.72
837.932	12695.56
838.258	12725.16
838.583	12691.04
838.908	12579.85
839.233	12579.85
839.558	12602
839.883	12517.26
840.208	12515.67
840.533	12475.67
840.858	12507.99
841.182	12520.19
841.507	12465.05
841.832	12484.71
842.156	12378.28
842.481	12401.78
842.805	12326.53
843.13	12303.48
843.454	12254.44
843.778	12289.69
844.103	12179.19
844.427	12193.87
844.751	12120.66
845.075	12162.46
845.399	12089.47
845.723	12108.9
846.047	12032.97
846.371	11952.3
846.695	11947.1
847.019	11851.06
847.343	11818.29
847.666	11734.45
847.99	11643.15
848.313	11717.95
848.637	11595.25
848.96	11555.02
849.284	11490.16
849.607	11543.04
849.931	11463.95
850.254	11343.5
850.577	11294.91
850.9	11214.24
851.223	11265.99
851.546	11186.44
851.869	10983.96
852.192	11170.17
852.515	11044.98
852.838	11050.4
853.161	11004.98
853.483	10943.96
853.806	10830.29
854.129	10872.55
854.451	10822.38
854.774	10755.95
855.096	10705.55
855.419	10776.06
855.741	10633.69
856.063	10655.84
856.385	10586.23
856.708	10669.17
857.03	10595.5
857.352	10627.59
857.674	10568.61
857.996	10448.16
858.318	10417.88
858.64	10439.34
858.961	10353.7
859.283	10367.93
859.605	10340.82
859.926	10277.99
860.248	10308.95
860.57	10246.58
860.891	10242.74
861.212	10244.1
861.534	10161.84
861.855	10202.29
862.176	10135.4
862.498	10143.98
862.819	10129.07
863.14	10062.4
863.461	10053.82
863.782	9992.12
864.103	9981.73
864.424	10001.16
864.745	9997.1
865.065	9931.79
865.386	9929.08
865.707	9866.7
866.027	9910.54
866.348	9873.71
866.668	9868.06
866.989	9857.89
867.309	9761.62
867.63	9821.28
867.95	9756.88
868.27	9725.92
868.59	9813.15
868.91	9722.3
869.23	9711.45
869.55	9692.47
869.87	9701.28
870.19	9699.7
870.51	9696.54
870.83	9700.38
871.15	9655.86
871.469	9643.66
871.789	9636.65
872.109	9631
872.428	9532.48
872.748	9579.03
873.067	9527.73
873.386	9641.4
873.706	9571.12
874.025	9509.43
874.344	9514.17
874.663	9494.51
874.982	9446.6
875.301	9472.14
875.62	9433.72
875.939	9383.33
876.258	9397.56
876.577	9384
876.896	9349.88
877.214	9324.35
877.533	9283.22
877.852	9299.94
878.17	9313.05
878.489	9314.85
878.807	9243.44
879.125	9198.7
879.444	9187.4
879.762	9232.37
880.08	9180.39
880.398	9232.6
880.716	9184.01
881.034	9128.42
881.352	9175.87
881.67	9104.01
881.988	9125.48
882.306	9122.77
882.624	9038.93
882.941	9010.23
883.259	8975.43
883.577	8987.18
883.894	8938.37
884.212	8907.63
884.529	8923.45
884.846	8854.98
885.164	8864.7
885.481	8818.6
885.798	8859.72
886.115	8818.14
886.432	8816.34
886.75	8756.9
887.067	8762.33
887.383	8752.16
887.7	8691.59
888.017	8686.62
888.334	8676.45
888.651	8631.48
888.967	8690.46
889.284	8585.61
889.6	8590.81
889.917	8449.34
890.233	8532.05
890.55	8477.59
890.866	8483.24
891.182	8471.94
891.498	8446.18
891.815	8412.96
892.131	8355.33
892.447	8366.63
892.763	8347.87
893.079	8290.7
893.395	8279.4
893.71	8297.71
894.026	8249.35
894.342	8236.92
894.657	8134.55
894.973	8113.3
895.289	8148.56
895.604	8075.56
895.92	8081.67
896.235	7991.95
896.55	7986.08
896.865	8009.8
897.181	7994.44
897.496	8019.75
897.811	7997.83
898.126	7921.9
898.441	7882.35
898.756	7851.62
899.071	7724.84
899.386	7801.67
899.7	7731.62
900.015	7760.54
900.33	7669.7
900.644	7625.41
900.959	7612.07
901.273	7615.01
901.588	7547.67
901.902	7546.31
902.216	7499.08
902.531	7492.3
902.845	7444.62
903.159	7413.21
903.473	7468.12
903.787	7370.5
904.101	7352.65
904.415	7317.84
904.729	7339.54
905.042	7203.5
905.356	7243.04
905.67	7258.64
905.984	7295.92
906.297	7174.12
906.611	7137.51
906.924	7156.72
907.237	7119.66
907.551	7063.16
907.864	7056.16
908.177	7087.12
908.491	7099.77
908.804	6965.31
909.117	6852.32
909.43	6845.54
909.743	6863.84
910.056	6893.22
910.368	6824.3
910.681	6813.68
910.994	6838.08
911.307	6812.55
911.619	6693.68
911.932	6710.18
912.244	6698.2
912.557	6716.96
912.869	6653.91
913.181	6596.96
913.494	6598.54
913.806	6513.12
914.118	6508.83
914.43	6441.48
914.742	6439.68
915.054	6398.77
915.366	6398.32
915.678	6384.76
915.99	6305.89
916.302	6276.52
916.613	6296.4
916.925	6253.47
917.236	6237.87
917.548	6236.06
917.859	6190.42
918.171	6146.12
918.482	6102.51
918.794	6097.31
919.105	6075.62
919.416	6042.85
919.727	6038.78
920.038	5952.23
920.349	6019.57
920.66	5898.67
920.971	5946.81
921.282	5831.33
921.593	5850.31
921.903	5844.44
922.214	5839.01
922.525	5826.36
922.835	5801.05
923.146	5732.35
923.456	5769.41
923.767	5708.17
924.077	5666.36
924.387	5646.48
924.697	5621.17
925.008	5637.21
925.318	5572.35
925.628	5573.03
925.938	5528.29
926.248	5497.1
926.558	5531.68
926.867	5471.79
927.177	5440.83
927.487	5398.12
927.796	5382.75
928.106	5361.29
928.416	5374.62
928.725	5343.66
929.034	5302.3
929.344	5342.98
929.653	5281.97
929.962	5245.81
930.271	5225.02
930.581	5170.1
930.89	5186.6
931.199	5189.76
931.508	5123.55
931.817	5205.81
932.125	5156.32
932.434	5091.91
932.743	5035.64
933.051	5046.27
933.36	5065.7
933.669	5016.66
933.977	4948.19
934.286	4973.95
934.594	4961.07
934.902	4906.38
935.21	4905.93
935.519	4885.37
935.827	4905.25
936.135	4854.41
936.443	4771.92
936.751	4808.31
937.059	4772.15
937.367	4707.29
937.674	4702.09
937.982	4707.97
938.29	4715.2
938.597	4697.35
938.905	4633.85
939.213	4615.77
939.52	4562.66
939.827	4594.3
940.135	4561.08
940.442	4554.75
940.749	4562.89
941.056	4553.85
941.363	4485.6
941.67	4481.31
941.977	4400.86
942.284	4416.23
942.591	4415.77
942.898	4373.97
943.205	4392.95
943.511	4380.97
943.818	4334.19
944.125	4329.67
944.431	4309.79
944.738	4346.4
945.044	4292.39
945.35	4267.53
945.657	4198.15
945.963	4206.29
946.269	4193.63
946.575	4201.99
946.881	4132.62
947.187	4100.3
947.493	4159.06
947.799	4125.84
948.105	4083.35
948.41	4107.99
948.716	4055.56
949.022	4011.26
949.327	4054.88
949.633	4006.74
949.938	3964.71
950.244	3987.54
950.549	3944.15
950.854	3941.89
951.16	3906.41
951.465	3912.51
951.77	3895.56
952.075	3857.6
952.38	3817.6
952.685	3829.12
952.99	3750.03
953.294	3808.78
953.599	3802.23
953.904	3787.99
954.209	3739.41
954.513	3747.09
954.818	3706.19
955.122	3697.83
955.426	3679.07
955.731	3669.58
956.035	3668.67
956.339	3641.78
956.643	3610.6
956.948	3602.91
957.252	3614.89
957.556	3583.71
957.86	3571.05
958.163	3567.66
958.467	3544.38
958.771	3505.74
959.075	3493.54
959.378	3505.29
959.682	3481.34
959.985	3423.26
960.289	3438.17
960.592	3379.64
960.896	3481.11
961.199	3408.57
961.502	3415.8
961.805	3346.2
962.108	3361.79
962.411	3327.67
962.714	3327.44
963.017	3302.13
963.32	3320.66
963.623	3242.02
963.926	3269.59
964.228	3268.69
964.531	3283.15
964.833	3225.3
965.136	3189.37
965.438	3187.78
965.741	3163.6
966.043	3127.22
966.345	3146.88
966.648	3111.4
966.95	3126.32
967.252	3146.88
967.554	3069.14
967.856	3072.98
968.158	3071.4
968.46	3063.04
968.761	3031.4
969.063	3037.05
969.365	3039.54
969.666	2994.57
969.968	2932.42
970.269	2931.74
970.571	2963.38
970.872	2960.22
971.174	2928.13
971.475	2938.98
971.776	2910.28
972.077	2907.34
972.378	2928.81
972.679	2872.31
972.98	2864.63
973.281	2832.99
973.582	2836.83
973.883	2821.01
974.183	2826.21
974.484	2808.36
974.785	2794.8
975.085	2801.8
975.386	2820.56
975.686	2768.13
975.986	2732.88
976.287	2742.15
976.587	2716.38
976.887	2710.96
977.187	2702.15
977.487	2692.43
977.787	2634.35
978.087	2652.88
978.387	2635.48
978.687	2652.88
978.987	2606.1
979.286	2640.68
979.586	2611.53
979.885	2654.24
980.185	2582.15
980.484	2546.9
980.784	2540.79
981.083	2540.79
981.382	2564.75
981.682	2524.98
981.981	2557.97
982.28	2487.01
982.579	2473.23
982.878	2484.53
983.177	2498.08
983.475	2424.87
983.774	2473.23
984.073	2454.02
984.372	2436.62
984.67	2408.37
984.969	2425.09
985.267	2420.57
985.566	2381.02
985.864	2418.99
986.162	2399.1
986.461	2351.65
986.759	2360.23
987.057	2354.58
987.355	2320.69
987.653	2287.47
987.951	2350.74
988.249	2335.6
988.547	2288.6
988.844	2291.76
989.142	2287.02
989.44	2216.51
989.737	2246.79
990.035	2239.33
990.332	2211.76
990.63	2234.59
990.927	2209.05
991.224	2188.04
991.521	2146.68
991.819	2211.09
992.116	2185.32
992.413	2188.49
992.71	2167.25
993.006	2098.32
993.303	2144.87
993.6	2115.72
993.897	2120.24
994.193	2091.09
994.49	2122.05
994.787	2075.27
995.083	2106.23
995.379	2040.24
995.676	2080.02
995.972	2066.46
996.268	2016.74
996.565	2019.9
996.861	2014.93
997.157	1959.12
997.453	2017.42
997.749	2022.16
998.044	1978.32
998.34	1961.15
998.636	1940.13
998.932	1916.86
999.227	1917.08
999.523	1928.61
999.818	1941.26
1000.114	1921.15
1000.409	1889.29
1000.704	1884.09
1001	1866.91
1001.295	1886.12
1001.59	1869.4
1001.885	1866.01
1002.18	1845.9
1002.475	1801.38
1002.77	1826.69
1003.065	1773.81
1003.359	1792.79
1003.654	1803.86
1003.949	1792.57
1004.243	1767.03
1004.538	1767.71
1004.832	1757.76
1005.127	1738.33
1005.421	1739.01
1005.715	1733.36
1006.009	1722.06
1006.304	1705.11
1006.598	1696.07
1006.892	1701.49
1007.186	1666.02
1007.48	1680.25
1007.773	1649.52
1008.067	1663.76
1008.361	1639.12
1008.655	1642.29
1008.948	1591.89
1009.242	1617.43
1009.535	1622.17
1009.829	1607.03
1010.122	1578.33
1010.415	1593.25
1010.708	1588.5
1011.001	1560.93
1011.295	1561.84
1011.588	1575.17
1011.881	1536.3
1012.173	1540.14
1012.466	1514.83
1012.759	1480.48
1013.052	1542.18
1013.344	1530.88
1013.637	1485.23
1013.93	1474.16
1014.222	1452.01
1014.514	1494.95
1014.807	1459.24
1015.099	1459.24
1015.391	1418.56
1015.683	1437.55
1015.976	1408.85
1016.268	1405.23
1016.56	1430.09
1016.851	1368.4
1017.143	1379.7
1017.435	1376.31
1017.727	1379.92
1018.018	1341.5
1018.31	1360.49
1018.602	1323.2
1018.893	1356.42
1019.185	1323.88
1019.476	1328.85
1019.767	1321.17
1020.058	1309.87
1020.35	1284.56
1020.641	1269.19
1020.932	1285.46
1021.223	1252.69
1021.514	1263.99
1021.804	1258.12
1022.095	1244.11
1022.386	1220.38
1022.677	1231.22
1022.967	1238.91
1023.258	1213.15
1023.548	1235.29
1023.839	1228.74
1024.129	1205.46
1024.419	1190.1
1024.709	1174.05
1025	1152.58
1025.29	1196.2
1025.58	1174.5
1025.87	1155.75
1026.16	1150.1
1026.449	1149.64
1026.739	1130.66
1027.029	1105.8
1027.319	1103.09
1027.608	1089.76
1027.898	1092.92
1028.187	1096.09
1028.477	1081.4
1028.766	1082.98
1029.055	1074.84
1029.344	1082.08
1029.634	1052.92
1029.923	1045.69
1030.212	1057.67
1030.501	1049.31
1030.79	1021.29
1031.078	1015.86
1031.367	1023.55
1031.656	1000.72
1031.945	1009.99
1032.233	977.45
1032.522	1005.02
1032.81	991.91
1033.099	993.94
1033.387	992.81
1033.675	987.39
1033.963	984.45
1034.251	974.06
1034.54	949.2
1034.828	957.33
1035.116	945.81
1035.403	915.07
1035.691	919.37
1035.979	925.7
1036.267	937
1036.554	920.5
1036.842	897
1037.129	897.45
1037.417	922.08
1037.704	876.21
1037.992	865.58
1038.279	890.22
1038.566	864.91
1038.853	864.91
1039.14	864.91
