Data from hue_300_FLMS001491_00013.txt Node
Date: Tue Feb 07 15:50:21 GMT 2017
User: dcchb
Spectrometer: FLMS00149
Trigger mode: 0
Integration Time (sec): 2.000000E-2
Scans to average: 10
Electric dark correction enabled: true
Nonlinearity correction enabled: false
Boxcar width: 0
XAxis mode: Wavelengths
Number of Pixels in Spectrum: 2048
>>>>>Begin Spectral Data<<<<<
341.393	-7.33
341.776	-7.33
342.16	-7.33
342.543	-45.07
342.927	-81.9
343.31	-65.63
343.693	-68.35
344.077	-85.29
344.46	-60.44
344.843	-50.49
345.226	-41.91
345.61	-32.19
345.993	-20.44
346.376	7.36
346.759	11.88
347.142	39.9
347.525	38.32
347.908	43.74
348.291	63.18
348.674	106.79
349.057	113.57
349.44	101.59
349.823	132.55
350.206	160.57
350.588	185.21
350.971	183.4
351.354	199.44
351.737	232.21
352.119	219.56
352.502	246.67
352.884	264.75
353.267	276.5
353.65	280.35
354.032	279.22
354.414	273.34
354.797	294.36
355.179	309.05
355.562	323.96
355.944	333
356.326	334.36
356.709	312.66
357.091	327.12
357.473	328.48
357.855	310.63
358.238	321.02
358.62	336.39
359.002	323.73
359.384	313.11
359.766	321.93
360.148	314.7
360.53	323.73
360.912	323.51
361.294	335.03
361.676	341.36
362.057	314.47
362.439	303.4
362.821	318.76
363.203	316.95
363.584	305.2
363.966	311.98
364.348	314.92
364.729	320.12
365.111	306.11
365.493	277.63
365.874	298.88
366.256	295.94
366.637	307.69
367.019	287.35
367.4	307.92
367.781	323.96
368.163	312.89
368.544	301.59
368.925	291.42
369.306	297.29
369.688	298.88
370.069	297.52
370.45	302.04
370.831	293.45
371.212	303.85
371.593	313.11
371.974	316.5
372.355	293.9
372.736	303.17
373.117	320.12
373.498	325.99
373.879	315.37
374.26	292.1
374.641	304.98
375.021	318.54
375.402	328.93
375.783	310.85
376.163	308.82
376.544	326.67
376.925	337.29
377.305	318.31
377.686	337.97
378.066	290.74
378.447	317.18
378.827	318.99
379.208	320.57
379.588	309.27
379.968	316.73
380.349	307.46
380.729	313.34
381.109	324.19
381.489	327.8
381.87	326.45
382.25	318.31
382.63	326.9
383.01	305.88
383.39	334.13
383.77	323.96
384.15	317.41
384.53	344.3
384.91	322.83
385.29	333
385.67	325.09
386.049	352.21
386.429	340.01
386.809	350.17
387.189	352.21
387.568	344.07
387.948	323.51
388.328	344.98
388.707	341.81
389.087	339.55
389.466	351.98
389.846	343.62
390.225	330.97
390.605	342.27
390.984	362.15
391.363	359.67
391.743	357.18
392.122	358.31
392.501	352.43
392.881	356.05
393.26	362.38
393.639	368.7
394.018	367.8
394.397	354.47
394.776	345.65
395.155	380.91
395.534	376.16
395.913	370.29
396.292	365.32
396.671	372.55
397.05	377.97
397.429	384.52
397.808	357.86
398.186	379.78
398.565	364.86
398.944	368.25
399.323	403.73
399.701	371.42
400.08	389.72
400.458	385.88
400.837	389.72
401.215	399.44
401.594	413.22
401.972	403.28
402.351	410.06
402.729	391.3
403.107	409.61
403.486	418.2
403.864	402.38
404.242	418.87
404.62	419.78
404.999	408.7
405.377	424.07
405.755	433.34
406.133	431.53
406.511	433.56
406.889	449.15
407.267	449.38
407.645	457.52
408.023	462.71
408.401	456.84
408.779	465.43
409.156	461.81
409.534	488.93
409.912	478.08
410.29	490.51
410.667	488.93
411.045	477.18
411.422	504.52
411.8	516.72
412.178	507.46
412.555	525.54
412.933	525.54
413.31	549.27
413.687	568.47
414.065	543.84
414.442	557.63
414.819	545.2
415.197	552.88
415.574	558.08
415.951	593.11
416.328	591.3
416.705	606.44
417.082	598.3
417.46	598.98
417.837	609.83
418.214	644.63
418.591	630.39
418.967	678.98
419.344	659.54
419.721	639.66
420.098	670.17
420.475	674.01
420.852	697.74
421.228	686.44
421.605	693.22
421.982	688.92
422.358	720.79
422.735	724.4
423.111	725.31
423.488	757.62
423.864	733.22
424.241	729.15
424.617	745.87
424.994	758.07
425.37	766.89
425.746	781.12
426.123	775.93
426.499	817.96
426.875	808.47
427.251	791.07
427.627	838.07
428.003	840.11
428.379	831.07
428.756	866.55
429.132	862.25
429.507	879.2
429.883	887.11
430.259	907
430.635	899.99
431.011	911.74
431.387	922.81
431.763	952.64
432.138	955.81
432.514	968.01
432.89	974.11
433.265	985.86
433.641	1001.91
434.016	993.55
434.392	1030.38
434.767	1031.96
435.143	1009.59
435.518	1049.37
435.894	1070.61
436.269	1034.68
436.644	1081.45
437.02	1074.9
437.395	1069.03
437.77	1119.42
438.145	1114.45
438.52	1123.71
438.895	1118.29
439.271	1165.07
439.646	1166.2
440.021	1156.03
440.395	1185.86
440.77	1152.64
441.145	1160.1
441.52	1187.67
441.895	1176.59
442.27	1200.1
442.645	1183.6
443.019	1217.5
443.394	1210.72
443.769	1219.08
444.143	1230.15
444.518	1240.55
444.892	1241.22
445.267	1217.5
445.641	1243.48
446.016	1273.31
446.39	1243.71
446.764	1262.01
447.139	1242.35
447.513	1263.37
447.887	1271.05
448.262	1286.19
448.636	1288.23
449.01	1268.34
449.384	1303.14
449.758	1319.41
450.132	1290.49
450.506	1306.99
450.88	1299.08
451.254	1299.75
451.628	1326.42
452.002	1353.09
452.376	1333.43
452.75	1302.69
453.123	1363.26
453.497	1352.41
453.871	1375.68
454.244	1346.53
454.618	1384.05
454.992	1377.27
455.365	1391.95
455.739	1400.54
456.112	1394.44
456.486	1426.98
456.859	1439.19
457.232	1483.48
457.606	1475.12
457.979	1453.2
458.352	1478.96
458.725	1495
459.099	1497.04
459.472	1521.67
459.845	1504.72
460.218	1521.67
460.591	1538.84
460.964	1553.76
461.337	1554.66
461.71	1582.46
462.083	1575.45
462.456	1578.84
462.829	1607.32
463.201	1619.29
463.574	1628.78
463.947	1633.3
464.32	1643.47
464.692	1659.52
465.065	1639.63
465.438	1673.76
465.81	1704.26
466.183	1698.61
466.555	1738.39
466.928	1729.8
467.3	1713.08
467.672	1733.19
468.045	1779.29
468.417	1781.55
468.789	1779.06
469.161	1784.26
469.534	1834.2
469.906	1825.39
470.278	1835.11
470.65	1844.37
471.022	1893.86
471.394	1894.77
471.766	1918.95
472.138	1943.35
472.51	1928.44
472.882	1946.29
473.253	1991.94
473.625	2011.83
473.997	2041.2
474.369	2025.16
474.74	2038.49
475.112	2065.38
475.484	2118.49
475.855	2100.18
476.227	2120.98
476.598	2156.68
476.97	2162.1
477.341	2160.07
477.713	2205.94
478.084	2230.8
478.455	2266.96
478.827	2266.06
479.198	2301.31
479.569	2285.26
479.94	2342.66
480.311	2370.01
480.682	2382.66
481.053	2459.5
481.424	2427.86
481.795	2456.33
482.166	2518.03
482.537	2483.45
482.908	2519.83
483.279	2550.79
483.65	2570.23
484.021	2616.33
484.391	2640.06
484.762	2644.8
485.133	2664.92
485.503	2643.9
485.874	2681.19
486.244	2720.96
486.615	2774.07
486.985	2785.14
487.356	2829.88
487.726	2798.92
488.097	2876.21
488.467	2845.25
488.837	2910.11
489.207	2898.81
489.578	2970.9
489.948	2958.69
490.318	3004.12
490.688	3006.15
491.058	3036.21
491.428	3013.16
491.798	3075.75
492.168	3118.92
492.538	3071.46
492.908	3143.1
493.278	3156.88
493.648	3190.78
494.017	3210.21
494.387	3224
494.757	3224.45
495.126	3223.09
495.496	3260.61
495.866	3276.88
496.235	3286.59
496.605	3305.35
496.974	3325.69
497.344	3351.9
497.713	3374.05
498.082	3378.34
498.452	3407.5
498.821	3386.7
499.19	3436.65
499.559	3420.6
499.928	3451.79
500.298	3418.79
500.667	3460.83
501.036	3455.86
501.405	3450.43
501.774	3488.85
502.143	3508.06
502.512	3513.48
502.88	3503.99
503.249	3488.17
503.618	3536.31
503.987	3565.68
504.356	3557.32
504.724	3605.46
505.093	3571.56
505.462	3572.24
505.83	3612.69
506.199	3589.41
506.567	3653.36
506.936	3656.98
507.304	3653.36
507.672	3668.28
508.041	3699.01
508.409	3683.87
508.777	3681.39
509.145	3758.67
509.514	3700.82
509.882	3727.94
510.25	3716.41
510.618	3743.53
510.986	3757.99
511.354	3786.69
511.722	3764.32
512.09	3792.34
512.458	3798.9
512.826	3833.25
513.193	3820.14
513.561	3816.52
513.929	3859.01
514.297	3889.52
514.664	3897.65
515.032	3866.69
515.4	3879.57
515.767	3881.16
516.135	3871.66
516.502	3901.27
516.869	3906.47
517.237	3935.39
517.604	3915.28
517.972	3939.46
518.339	3927.93
518.706	3927.48
519.073	3945.11
519.44	3946.01
519.808	4014.94
520.175	3968.84
520.542	3986.91
520.909	4004.77
521.276	4011.1
521.643	4071.43
522.009	4108.49
522.376	4049.51
522.743	4083.86
523.11	4089.96
523.477	4127.93
523.843	4137.65
524.21	4163.18
524.577	4136.52
524.943	4191.2
525.31	4167.25
525.676	4212.9
526.043	4254.48
526.409	4238.89
526.776	4277.08
527.142	4263.29
527.508	4322.73
527.874	4294.03
528.241	4374.48
528.607	4362.72
528.973	4397.07
529.339	4361.82
529.705	4439.33
530.071	4460.8
530.437	4494.02
530.803	4495.6
531.169	4496.28
531.535	4458.99
531.901	4523.85
532.267	4542.83
532.632	4538.76
532.998	4561.59
533.364	4582.15
533.73	4578.99
534.095	4611.98
534.461	4677.74
534.826	4663.06
535.192	4693.56
535.557	4695.82
535.923	4720.68
536.288	4716.84
536.653	4711.19
537.019	4758.87
537.384	4780.57
537.749	4755.93
538.114	4819.89
538.479	4811.07
538.845	4811.53
539.21	4877.96
539.575	4842.26
539.94	4915.03
540.305	4916.61
540.67	4884.29
541.034	4940.34
541.399	4989.83
541.764	4976.72
542.129	5015.81
542.494	4985.98
542.858	5031.86
543.223	5023.5
543.587	5072.54
543.952	5074.57
544.316	5149.6
544.681	5129.03
545.045	5134.23
545.41	5124.96
545.774	5203.15
546.138	5189.14
546.503	5196.6
546.867	5168.8
547.231	5295.58
547.595	5305.3
547.959	5294.45
548.324	5320.89
548.688	5299.87
549.052	5331.96
549.416	5362.7
549.779	5332.19
550.143	5385.75
550.507	5416.71
550.871	5446.76
551.235	5381.68
551.599	5496.25
551.962	5490.83
552.326	5486.54
552.689	5482.47
553.053	5484.73
553.417	5511.17
553.78	5550.26
554.143	5570.83
554.507	5597.95
554.87	5567.89
555.234	5572.18
555.597	5587.55
555.96	5633.88
556.323	5653.76
556.686	5611.73
557.05	5700.32
557.413	5666.19
557.776	5709.58
558.139	5696.7
558.502	5753.42
558.865	5755.23
559.228	5802.01
559.59	5808.34
559.953	5842.91
560.316	5852.18
560.679	5801.78
561.041	5897.6
561.404	5902.12
561.767	5897.83
562.129	5895.79
562.492	5952.96
562.854	5961.55
563.217	5962
563.579	5953.42
563.941	6018.05
564.304	6027.77
564.666	6053.98
565.028	6018.05
565.39	6024.15
565.753	6097.37
566.115	6096.69
566.477	6134.2
566.839	6105.73
567.201	6157.71
567.563	6190.47
567.925	6217.36
568.287	6237.25
568.648	6237.03
569.01	6310.02
569.372	6292.62
569.734	6307.08
570.095	6410.35
570.457	6391.6
570.819	6394.99
571.18	6428.21
571.542	6470.47
571.903	6555.43
572.265	6547.53
572.626	6585.94
572.987	6584.81
573.349	6644.47
573.71	6701.42
574.071	6739.38
574.432	6779.38
574.794	6845.82
575.155	6887.63
575.516	6884.69
575.877	6984.35
576.238	7009.21
576.599	7144.8
576.96	7169.2
577.32	7225.02
577.681	7295.75
578.042	7423.66
578.403	7448.07
578.763	7489.87
579.124	7639.47
579.485	7676.08
579.845	7740.04
580.206	7891.45
580.566	8036.3
580.927	8093.93
581.287	8255.05
581.648	8316.97
582.008	8558.55
582.368	8690.29
582.728	8831.76
583.089	8911.98
583.449	9047.12
583.809	9275.14
584.169	9435.36
584.529	9613.66
584.889	9824.95
585.249	9948.11
585.609	10163.02
585.969	10341.55
586.329	10588.1
586.688	10734.08
587.048	10959.61
587.408	11124.13
587.768	11391.24
588.127	11649.76
588.487	11897.22
588.846	12164.78
589.206	12437.09
589.565	12633.02
589.925	13043.4
590.284	13193.45
590.643	13473.22
591.003	13847.9
591.362	14064.16
591.721	14308
592.08	14595.45
592.44	14965.84
592.799	15205.38
593.158	15461.19
593.517	15681.3
593.876	15990.22
594.235	16232.47
594.593	16637.66
594.952	16982.96
595.311	17128.72
595.67	17441.93
596.029	17844.63
596.387	18221.79
596.746	18524.61
597.104	18669.47
597.463	19049.57
597.822	19389.45
598.18	19539.27
598.538	19876.21
598.897	20353.94
599.255	20476.65
599.613	21009.74
599.972	21141.27
600.33	21487.47
600.688	21692.44
601.046	22158.87
601.404	22417.16
601.762	22585.97
602.12	22964.27
602.478	23195
602.836	23519.73
603.194	23637.02
603.552	23960.4
603.91	24143.45
604.268	24474.74
604.625	24704.34
604.983	24984.78
605.341	25168.5
605.698	25636.74
606.056	25830.18
606.413	26023.85
606.771	26405.31
607.128	26487.11
607.485	26682.82
607.843	26935.01
608.2	27309.47
608.557	27521.89
608.914	27689.12
609.272	28056.79
609.629	28261.53
609.986	28468.08
610.343	28481.64
610.7	29009.53
611.057	29073.49
611.414	29285.91
611.771	29384.67
612.127	29796.63
612.484	29777.42
612.841	30093.57
613.198	30208.15
613.554	30424.64
613.911	30693.78
614.267	30813.1
614.624	31026.43
614.98	31227.1
615.337	31421.22
615.693	31520.65
616.05	31650.14
616.406	31939.85
616.762	32010.81
617.118	31971.49
617.475	32256.68
617.831	32392.72
618.187	32486.05
618.543	32691.24
618.899	32969.43
619.255	32957.23
619.611	33088.97
619.967	33483.09
620.323	33400.15
620.678	33327.84
621.034	33459.81
621.39	33570.32
621.746	33709.98
622.101	34170.3
622.457	34026.13
622.812	34166.91
623.168	34386.79
623.523	34334.37
623.879	34486.45
624.234	34381.82
624.589	34619.1
624.945	34632.44
625.3	34713.79
625.655	34803.28
626.01	34952.65
626.365	34973.44
626.72	35218.64
627.075	35071.07
627.43	35010.73
627.785	35096.38
628.14	35247.56
628.495	35282.14
628.85	35405.98
629.205	35210.73
629.559	35485.07
629.914	35360.55
630.269	35638.74
630.623	35441.46
630.978	35513.32
631.332	35665.63
631.687	35771.84
632.041	35588.8
632.396	35756.02
632.75	35529.14
633.104	35691.62
633.459	35590.83
633.813	35604.39
634.167	35592.64
634.521	35685.52
634.875	35849.13
635.229	35827.21
635.583	35730.04
635.937	35576.37
636.291	35739.07
636.645	35747.89
636.999	35821.33
637.352	35776.81
637.706	35642.35
638.06	35945.85
638.413	35802.35
638.767	35648.91
639.121	35685.29
639.474	35620.89
639.828	35704.05
640.181	35736.59
640.534	35788.11
640.888	35735.46
641.241	35474.22
641.594	35586.31
641.947	35786.3
642.301	35627.44
642.654	35697.49
643.007	35675.12
643.36	35675.35
643.713	35551.06
644.066	35783.59
644.419	35594.9
644.771	35323.49
645.124	34992.88
645.477	35123.5
645.83	34806.67
646.182	34722.6
646.535	34646.22
646.888	34778.65
647.24	34571.2
647.593	34838.99
647.945	34630.4
648.298	34595.83
648.65	34399
649.002	34317.19
649.355	34742.94
649.707	34646.22
650.059	34686.22
650.411	35056.83
650.763	35111.97
651.115	35383.15
651.467	35361.91
651.819	35533.2
652.171	35348.35
652.523	35311.97
652.875	35184.96
653.227	35180.67
653.578	35422.25
653.93	35394.9
654.282	35312.19
654.633	35100.22
654.985	35340.67
655.337	35252.31
655.688	35158.98
656.039	35421.79
656.391	35187.22
656.742	35105.19
657.094	35243.72
657.445	35208.24
657.796	35233.32
658.147	35191.29
658.498	35166.43
658.849	35275.13
659.2	35047.79
659.551	35037.4
659.902	35231.74
660.253	35046.66
660.604	35222.03
660.955	35038.75
661.306	35060.45
661.656	35065.19
662.007	35057.28
662.358	35139.32
662.708	35094.35
663.059	35088.7
663.409	35025.65
663.76	35047.12
664.11	35109.71
664.461	35019.32
664.811	35147.23
665.161	35094.12
665.511	35006.44
665.862	35047.34
666.212	35149.26
666.562	35156.49
666.912	34900.23
667.262	35029.04
667.612	34972.77
667.962	35050.28
668.312	34977.96
668.662	35199.65
669.011	35027.68
669.361	35022.03
669.711	34995.82
670.06	34938.19
670.41	34969.83
670.76	34905.65
671.109	35070.17
671.459	34893.45
671.808	34797.63
672.157	35005.31
672.507	34700.46
672.856	34808.03
673.205	34870.4
673.554	34903.62
673.904	34740.91
674.253	35033.78
674.602	34789.04
674.951	34370.75
675.3	34234.03
675.649	34767.57
675.998	34643.28
676.346	34684.86
676.695	34742.26
677.044	34422.95
677.393	34658.2
677.741	34646.9
678.09	34653.45
678.438	34581.14
678.787	34531.2
679.135	34585.88
679.484	34439
679.832	34467.24
680.181	34218.89
680.529	34445.32
680.877	34251.2
681.225	34285.1
681.573	34479.45
681.922	34201.04
682.27	34089.85
682.618	34072
682.966	34058.67
683.314	34152.22
683.661	33892.12
684.009	33823.19
684.357	33822.51
684.705	33835.85
685.053	33855.96
685.4	33672.91
685.748	33547.72
686.095	33630.2
686.443	33465.01
686.79	33459.36
687.138	33327.84
687.485	33370.32
687.832	33301.4
688.18	33348.85
688.527	33241.74
688.874	33131.23
689.221	33154.28
689.568	32913.16
689.915	32878.81
690.262	32891.69
690.609	32884.23
690.956	32822.31
691.303	32638.36
691.65	32562.43
691.997	32621.87
692.344	32427.98
692.69	32300.07
693.037	32337.81
693.383	32047.87
693.73	32167.64
694.077	32109.11
694.423	32035.22
694.769	31965.84
695.116	31817.37
695.462	31885.62
695.808	31784.38
696.155	31700.76
696.501	31575.12
696.847	31433.65
697.193	31263.49
697.539	31371.28
697.885	31195.24
698.231	31050.16
698.577	30998.63
698.923	31155.24
699.269	30899.65
699.614	30772.43
699.96	30743.05
700.306	30719.55
700.651	30634.12
700.997	30427.35
701.342	30479.78
701.688	30387.12
702.033	30310.74
702.379	30289.27
702.724	30267.13
703.069	30230.29
703.415	29962.5
703.76	29930.64
704.105	29837.99
704.45	29871.88
704.795	29557.09
705.14	29558.22
705.485	29715.73
705.83	29489.52
706.175	29517.32
706.52	29398.45
706.865	29272.58
707.209	29318.45
707.554	29280.71
707.899	29229.87
708.243	29040.72
708.588	28998.01
708.932	28874.62
709.277	28878.69
709.621	28774.51
709.966	28617
710.31	28778.81
710.654	28594.18
710.998	28593.27
711.342	28542.88
711.687	28367.29
712.031	28310.57
712.375	28288.87
712.719	28270.12
713.063	28298.82
713.407	28221.98
713.75	28093.63
714.094	28164.36
714.438	28043.68
714.782	28128.65
715.125	27897.92
715.469	27975.21
715.812	27721.21
716.156	27564.83
716.499	27811.37
716.843	27690.92
717.186	27542.23
717.53	27607.54
717.873	27754.43
718.216	27485.05
718.559	27493.42
718.902	27213.87
719.246	27318.73
719.589	27206.42
719.932	27076.48
720.275	27198.51
720.617	27123.03
720.96	27022.69
721.303	27027.89
721.646	27153.54
721.989	26817.73
722.331	26946.09
722.674	26798.29
723.016	26933.88
723.359	26838.52
723.701	26853.21
724.044	26643.72
724.386	26470.84
724.729	26548.58
725.071	26581.58
725.413	26495.48
725.755	26517.62
726.097	26293.9
726.439	26228.14
726.782	26309.04
727.124	26314.46
727.465	26250.28
727.807	26091.19
728.149	26149.27
728.491	26030.18
728.833	26198.53
729.175	26156.95
729.516	25951.76
729.858	25909.95
730.199	25842.61
730.541	26020.69
730.882	25939.33
731.224	25965.32
731.565	25739.56
731.906	25791.31
732.248	25811.43
732.589	25659.79
732.93	25471.77
733.271	25633.13
733.612	25611.88
733.953	25699.11
734.294	25539.57
734.635	25425.67
734.976	25482.85
735.317	25404.66
735.658	25375.05
735.999	25468.38
736.339	25374.6
736.68	25347.26
737.021	25277.43
737.361	25191.56
737.702	25290.99
738.042	25192.46
738.383	25152.91
738.723	25332.57
739.063	25198.56
739.404	25266.58
739.744	25089.41
740.084	24965.12
740.424	24954.95
740.764	25013.48
741.104	25108.17
741.444	24965.35
741.784	24888.06
742.124	24892.13
742.464	24786.59
742.804	24772.13
743.143	24776.88
743.483	24745.24
743.823	24705.24
744.162	24631.57
744.502	24644.22
744.841	24610.55
745.181	24627.95
745.52	24501.63
745.86	24687.61
746.199	24545.92
746.538	24525.81
746.877	24566.03
747.216	24515.64
747.556	24503.66
747.895	24553.38
748.234	24409.43
748.573	24368.07
748.911	24430.67
749.25	24303.89
749.589	24237.68
749.928	24275.87
750.267	24293.95
750.605	24256.21
750.944	24213.05
751.283	24072.71
751.621	24248.76
751.96	24188.64
752.298	23997.46
752.636	24046.95
752.975	23891.7
753.313	23915.66
753.651	24047.63
753.989	23857.8
754.327	23748.66
754.666	23738.26
755.004	23751.37
755.342	23858.48
755.679	23867.97
756.017	23716.11
756.355	23773.74
756.693	23611.94
757.031	23751.59
757.368	23494.88
757.706	23525.84
758.044	23453.97
758.381	23512.28
758.719	23484.93
759.056	23465.5
759.394	23377.59
759.731	23200.2
760.068	23249.01
760.405	23127.65
760.743	23077.49
761.08	23232.28
761.417	23081.1
761.754	22981.44
762.091	23015.79
762.428	22921.78
762.765	22719.98
763.102	22916.59
763.438	22676.59
763.775	22716.59
764.112	22737.38
764.449	22677.72
764.785	22594.79
765.122	22469.82
765.458	22379.43
765.795	22429.14
766.131	22285.42
766.467	22355.02
766.804	22212.42
767.14	22111.18
767.476	22099.89
767.812	22004.97
768.148	21983.5
768.485	21855.37
768.821	21718.88
769.157	21794.13
769.492	21666
769.828	21599.33
770.164	21470.97
770.5	21443.41
770.836	21458.77
771.171	21361.15
771.507	21309.62
771.842	21152.79
772.178	21157.76
772.513	21082.96
772.849	21106.01
773.184	21021.72
773.519	21002.06
773.855	20848.39
774.19	20762.75
774.525	20657.44
774.86	20663.31
775.195	20558.23
775.53	20498.8
775.865	20426.26
776.2	20328.18
776.535	20054.29
776.87	20110.33
777.205	20052.26
777.539	19915.08
777.874	19993.5
778.209	19881.64
778.543	19774.97
778.878	19690.46
779.212	19736.11
779.547	19553.51
779.881	19669.89
780.215	19467.86
780.55	19436
780.884	19321.65
781.218	19296.79
781.552	19264.71
781.886	19175.44
782.22	18991.94
782.554	18941.32
782.888	18825.39
783.222	18850.48
783.556	18732.29
783.889	18724.83
784.223	18598.51
784.557	18623.59
784.89	18634.21
785.224	18367.33
785.557	18351.51
785.891	18264.96
786.224	18253.43
786.558	18291.17
786.891	18040.33
787.224	18016.6
787.557	17992.2
787.891	17906.1
788.224	17881.46
788.557	17870.62
788.89	17748.81
789.223	17796.04
789.556	17607.57
789.888	17618.42
790.221	17535.71
790.554	17378.65
790.887	17375.26
791.219	17328.26
791.552	17194.48
791.884	17202.16
792.217	17212.1
792.549	17174.59
792.882	16936.18
793.214	16936.63
793.546	16961.49
793.879	16811.66
794.211	16806.92
794.543	16841.72
794.875	16758.78
795.207	16801.04
795.539	16725.11
795.871	16561.05
796.203	16542.07
796.535	16469.3
796.867	16383.88
797.198	16371.9
797.53	16391.56
797.862	16281.51
798.193	16230.21
798.525	16182.75
798.856	16015.3
799.188	15986.6
799.519	15976.2
799.85	15935.98
800.182	15842.2
800.513	15722.43
800.844	15700.28
801.175	15765.36
801.506	15665.7
801.837	15643.11
802.168	15589.77
802.499	15523.79
802.83	15438.82
803.161	15435.88
803.491	15391.36
803.822	15321.31
804.153	15308.2
804.483	15277.69
804.814	15105.72
805.145	15204.47
805.475	15077.92
805.805	15021.65
806.136	15082.67
806.466	14989.56
806.796	14994.99
807.126	14757.03
807.457	14815.78
807.787	14798.16
808.117	14700.08
808.447	14707.99
808.777	14738.5
809.107	14694.66
809.436	14619.18
809.766	14568.33
810.096	14533.53
810.426	14454.66
810.755	14506.41
811.085	14420.09
811.414	14373.76
811.744	14381.44
812.073	14242.01
812.403	14357.94
812.732	14291.73
813.061	14289.02
813.39	14154.11
813.719	14163.14
814.049	14096.48
814.378	14092.19
814.707	14015.8
815.036	14070.04
815.365	13877.28
815.693	13801.12
816.022	13840.22
816.351	13702.37
816.68	13709.37
817.008	13766.77
817.337	13610.39
817.665	13617.4
817.994	13760.67
818.322	13636.83
818.651	13572.65
818.979	13484.29
819.307	13556.83
819.636	13461.92
819.964	13380.79
820.292	13389.61
820.62	13358.87
820.948	13366.78
821.276	13401.81
821.604	13368.36
821.932	13343.51
822.259	13389.83
822.587	13286.78
822.915	13348.93
823.243	13303.51
823.57	13282.94
823.898	13348.02
824.225	13322.49
824.553	13337.86
824.88	13313.9
825.207	13353.22
825.535	13205.43
825.862	13394.13
826.189	13278.65
826.516	13298.31
826.843	13359.78
827.17	13274.35
827.497	13385.09
827.824	13315.48
828.151	13414.92
828.478	13303.73
828.805	13428.02
829.131	13245.65
829.458	13327.01
829.785	13230.29
830.111	13257.63
830.438	13339.89
830.764	13260.57
831.09	13315.48
831.417	13243.62
831.743	13296.73
832.069	13245.2
832.395	13228.71
832.722	13276.61
833.048	13158.88
833.374	13279.33
833.7	13190.97
834.026	13208.37
834.351	13160.69
834.677	13175.83
835.003	13185.77
835.329	13175.37
835.654	13055.6
835.98	13127.47
836.306	13005.21
836.631	13010.18
836.956	13065.32
837.282	13002.95
837.607	12907.13
837.932	12924.53
838.258	12893.8
838.583	12950.75
838.908	12856.74
839.233	12823.52
839.558	12808.38
839.883	12688.38
840.208	12749.17
840.533	12739.68
840.858	12743.52
841.182	12717.76
841.507	12750.3
841.832	12633.24
842.156	12651.55
842.481	12606.12
842.805	12628.04
843.13	12496.52
843.454	12550.08
843.778	12465.11
844.103	12414.94
844.427	12354.15
844.751	12426.92
845.075	12363.42
845.399	12348.95
845.723	12208.39
846.047	12224.44
846.371	12232.8
846.695	12148.51
847.019	12017.66
847.343	12025.35
847.666	11927.5
847.99	11913.94
848.313	11848.18
848.637	11880.72
848.96	11809.99
849.284	11825.13
849.607	11716.43
849.931	11729.31
850.254	11626.94
850.577	11519.37
850.9	11500.16
851.223	11463.1
851.546	11432.82
851.869	11270.57
852.192	11408.19
852.515	11263.33
852.838	11274.18
853.161	11238.48
853.483	11201.64
853.806	11097.91
854.129	11081.19
854.451	11090.91
854.774	11035.32
855.096	10979.05
855.419	10979.73
855.741	10954.19
856.063	10884.36
856.385	10840.07
856.708	10892.72
857.03	10788.32
857.352	10779.28
857.674	10774.08
857.996	10746.96
858.318	10637.36
858.64	10637.36
858.961	10563.47
859.283	10590.81
859.605	10544.03
859.926	10558.95
860.248	10512.17
860.57	10470.59
860.891	10428.33
861.212	10365.96
861.534	10343.36
861.855	10409.57
862.176	10395.79
862.498	10354.66
862.819	10337.71
863.14	10278.05
863.461	10292.74
863.782	10283.7
864.103	10184.04
864.424	10209.8
864.745	10185.4
865.065	10174.55
865.386	10103.36
865.707	10164.61
866.027	10068.56
866.348	10092.52
866.668	10086.87
866.989	10097.49
867.309	10005.29
867.63	9988.79
867.95	9991.28
868.27	9960.32
868.59	9935.91
868.91	9974.78
869.23	9893.2
869.55	9907.21
869.87	9929.36
870.19	9858.62
870.51	9951.05
870.83	9908.34
871.15	9809.13
871.469	9746.99
871.789	9820.66
872.109	9801
872.428	9742.47
872.748	9779.76
873.067	9702.24
873.386	9743.15
873.706	9674
874.025	9734.56
874.344	9651.85
874.663	9649.59
874.982	9637.39
875.301	9617.28
875.62	9609.37
875.939	9589.71
876.258	9631.29
876.577	9564.4
876.896	9547.22
877.214	9439.65
877.533	9538.86
877.852	9492.98
878.17	9531.85
878.489	9514.68
878.807	9447.56
879.125	9500.44
879.444	9482.82
879.762	9330.28
880.08	9365.53
880.398	9381.35
880.716	9390.61
881.034	9323.05
881.352	9308.36
881.67	9331.86
881.988	9306.1
882.306	9228.13
882.624	9270.84
882.941	9284.18
883.259	9163.73
883.577	9185.2
883.894	9177.74
884.212	9107.68
884.529	9118.31
884.846	9070.17
885.164	9055.71
885.481	9057.29
885.798	9028.82
886.115	9027.91
886.432	8969.61
886.75	8904.07
887.067	8948.82
887.383	8924.86
887.7	8891.87
888.017	8851.42
888.334	8886
888.651	8807.13
888.967	8744.08
889.284	8718.32
889.6	8777.3
889.917	8700.24
890.233	8712.89
890.55	8662.72
890.866	8625.21
891.182	8619.56
891.498	8601.48
891.815	8511.54
892.131	8538.21
892.447	8550.41
892.763	8459.34
893.079	8442.62
893.395	8415.27
893.71	8397.19
894.026	8457.31
894.342	8362.85
894.657	8348.83
894.973	8369.85
895.289	8273.36
895.604	8255.96
895.92	8218.89
896.235	8228.61
896.55	8141.83
896.865	8157.2
897.181	8138.67
897.496	8113.13
897.811	8083.98
898.126	8043.98
898.441	8118.11
898.756	8035.85
899.071	7973.25
899.386	7921.27
899.7	7933.25
900.015	7840.6
900.33	7833.59
900.644	7839.24
900.959	7895.29
901.273	7792.01
901.588	7723.31
901.902	7704.11
902.216	7684.9
902.531	7672.47
902.845	7598.12
903.159	7537.56
903.473	7550.44
903.787	7553.6
904.101	7501.4
904.415	7464.11
904.729	7476.54
905.042	7414.4
905.356	7368.07
905.67	7331.69
905.984	7322.19
906.297	7337.11
906.611	7273.16
906.924	7253.04
907.237	7248.75
907.551	7238.35
907.864	7179.6
908.177	7168.75
908.491	7144.12
908.804	7078.81
909.117	7059.83
909.43	7016.67
909.743	7011.69
910.056	7043.56
910.368	6995.2
910.681	6915.88
910.994	6898.93
911.307	6842.43
911.619	6858.03
911.932	6824.58
912.244	6798.37
912.557	6781.64
912.869	6717.69
913.181	6681.76
913.494	6677.24
913.806	6633.63
914.118	6666.39
914.43	6539.16
914.742	6553.85
915.054	6572.61
915.366	6499.17
915.678	6448.77
915.99	6448.32
916.302	6394.08
916.613	6397.47
916.925	6383.69
917.236	6372.16
917.548	6266.18
917.859	6292.84
918.171	6259.85
918.482	6278.38
918.794	6193.18
919.105	6197.25
919.416	6103.47
919.727	6148.44
920.038	6115.67
920.349	6114.32
920.66	6055.11
920.971	6084.03
921.282	6001.1
921.593	5983.92
921.903	5983.02
922.214	5898.05
922.525	5890.82
922.835	5874.32
923.146	5864.15
923.456	5895.79
923.767	5824.15
924.077	5791.39
924.387	5743.48
924.697	5729.24
925.008	5737.15
925.318	5717.04
925.628	5679.3
925.938	5649.92
926.248	5608.12
926.558	5586.87
926.867	5600.66
927.177	5531.73
927.487	5535.12
927.796	5494.22
928.106	5471.85
928.416	5447.89
928.725	5415.35
929.034	5396.6
929.344	5401.12
929.653	5335.81
929.962	5328.35
930.271	5308.91
930.581	5274.11
930.89	5279.54
931.199	5239.31
931.508	5199.99
931.817	5218.97
932.125	5178.07
932.434	5185.75
932.743	5095.13
933.051	5116.38
933.36	5118.86
933.669	5056.27
933.977	5038.19
934.286	5068.24
934.594	5016.27
934.902	4951.64
935.21	4879.55
935.519	4994.12
935.827	4920.45
936.135	4875.71
936.443	4871.41
936.751	4835.71
937.059	4833.45
937.367	4846.33
937.674	4808.59
937.982	4766.56
938.29	4750.74
938.597	4768.82
938.905	4696.73
939.213	4676.39
939.52	4666.67
939.827	4673.22
940.135	4625.54
940.442	4625.99
940.749	4581.7
941.056	4612.44
941.363	4550.74
941.67	4528.14
941.977	4526.79
942.284	4445.21
942.591	4486.79
942.898	4448.6
943.205	4445.43
943.511	4417.41
943.818	4403.4
944.125	4435.04
944.431	4345.78
944.738	4373.8
945.044	4367.7
945.35	4306
945.657	4277.3
945.963	4286.79
946.269	4207.47
946.575	4239.56
946.881	4188.72
947.187	4205.67
947.493	4216.29
947.799	4119.79
948.105	4147.14
948.41	4125.44
948.716	4101.04
949.022	4045.44
949.327	4089.74
949.633	4040.25
949.938	4051.77
950.244	4042.28
950.549	4017.65
950.854	3984.66
951.16	3989.4
951.465	3948.72
951.77	3935.39
952.075	3926.35
952.38	3896.75
952.685	3905.56
952.99	3875.73
953.294	3833.92
953.599	3801.61
953.904	3773.59
954.209	3795.96
954.513	3786.47
954.818	3769.75
955.122	3762.74
955.426	3736.75
955.731	3715.28
956.035	3714.83
956.339	3654.95
956.643	3662.86
956.948	3605
957.252	3595.06
957.556	3615.17
957.86	3605.91
958.163	3610.65
958.467	3574.27
958.771	3549.64
959.075	3557.1
959.378	3498.79
959.682	3555.29
959.985	3517.32
960.289	3495.63
960.592	3482.52
960.896	3472.58
961.199	3407.72
961.502	3398.68
961.805	3362.07
962.108	3379.47
962.411	3378.8
962.714	3368.17
963.017	3355.07
963.32	3348.29
963.623	3309.42
963.926	3351.68
964.228	3333.15
964.531	3304.45
964.833	3252.24
965.136	3249.53
965.438	3203.43
965.741	3210.21
966.043	3201.85
966.345	3174.96
966.648	3186.94
966.95	3176.54
967.252	3154.85
967.554	3128.63
967.856	3139.71
968.158	3123.89
968.46	3095.41
968.761	3081.4
969.063	3058.58
969.365	3017.22
969.666	3041.4
969.968	3012.7
970.269	3017.9
970.571	3020.39
970.872	2956.21
971.174	2986.26
971.475	2968.64
971.776	2965.92
972.077	2911.01
972.378	2918.47
972.679	2944
972.98	2863.33
973.281	2921.86
973.582	2894.97
973.883	2887.51
974.183	2868.75
974.484	2856.32
974.785	2848.64
975.085	2823.78
975.386	2794.63
975.686	2762.31
975.986	2811.35
976.287	2723.45
976.587	2732.03
976.887	2703.11
977.187	2685.48
977.487	2692.94
977.787	2698.36
978.087	2677.8
978.387	2663.33
978.687	2675.54
978.987	2658.59
979.286	2631.24
979.586	2631.24
979.885	2618.59
980.185	2609.1
980.484	2589.66
980.784	2573.39
981.083	2586.95
981.382	2565.94
981.682	2569.33
981.981	2552.15
982.28	2537.46
982.579	2514.19
982.878	2538.14
983.177	2486.39
983.475	2478.48
983.774	2490.01
984.073	2467.63
984.372	2446.39
984.67	2409.1
984.969	2414.3
985.267	2394.87
985.566	2406.62
985.864	2390.57
986.162	2391.02
986.461	2369.56
986.759	2366.17
987.057	2334.98
987.355	2348.99
987.653	2328.65
987.951	2321.65
988.249	2287.98
988.547	2310.57
988.844	2295.66
989.142	2302.89
989.44	2280.29
989.737	2278.49
990.035	2258.15
990.332	2236.23
990.63	2211.37
990.927	2190.35
991.224	2191.26
991.521	2221.99
991.819	2196.68
992.116	2186.06
992.413	2197.81
992.71	2120.07
993.006	2145.16
993.303	2130.24
993.6	2143.35
993.897	2108.32
994.193	2135.66
994.49	2093.41
994.787	2082.33
995.083	2109.9
995.379	2100.64
995.676	2064.71
995.972	2047.98
996.268	2019.06
996.565	2015.89
996.861	2072.16
997.157	2010.24
997.453	2005.05
997.749	2000.3
998.044	1960.98
998.34	1990.13
998.636	1980.41
998.932	1950.13
999.227	1946.97
999.523	1946.06
999.818	1934.31
1000.114	1889.57
1000.409	1898.61
1000.704	1891.15
1001	1867.42
1001.295	1893.18
1001.59	1836.91
1001.885	1851.83
1002.18	1871.26
1002.475	1830.14
1002.77	1830.36
1003.065	1821.55
1003.359	1801.44
1003.654	1782.45
1003.949	1779.97
1004.243	1766.86
1004.538	1748.78
1004.832	1761.89
1005.127	1757.82
1005.421	1722.57
1005.715	1720.08
1006.009	1712.62
1006.304	1715.79
1006.598	1697.71
1006.892	1695
1007.186	1663.59
1007.48	1658.39
1007.773	1664.26
1008.067	1663.81
1008.361	1634.66
1008.655	1630.59
1008.948	1614.1
1009.242	1619.29
1009.535	1592.4
1009.829	1578.62
1010.122	1600.54
1010.415	1593.76
1010.708	1590.37
1011.001	1576.81
1011.295	1567.09
1011.588	1562.12
1011.881	1530.03
1012.173	1542.91
1012.466	1527.77
1012.759	1499.3
1013.052	1522.12
1013.344	1504.27
1013.637	1475.12
1013.93	1471.27
1014.222	1443.25
1014.514	1448
1014.807	1443.93
1015.099	1433.54
1015.391	1421.11
1015.683	1409.81
1015.976	1412.75
1016.268	1388.34
1016.56	1387.89
1016.851	1407.55
1017.143	1412.07
1017.435	1358.96
1017.727	1349.24
1018.018	1360.77
1018.31	1354.89
1018.602	1345.85
1018.893	1335.69
1019.185	1328.45
1019.476	1313.99
1019.767	1294.1
1020.058	1327.32
1020.35	1294.33
1020.641	1277.38
1020.932	1276.48
1021.223	1276.25
1021.514	1269.02
1021.804	1262.69
1022.095	1225.63
1022.386	1248.46
1022.677	1249.59
1022.967	1242.81
1023.258	1200.32
1023.548	1204.39
1023.839	1210.94
1024.129	1193.32
1024.419	1190.38
1024.709	1177.5
1025	1163.71
1025.29	1176.82
1025.58	1154.22
1025.87	1116.26
1026.16	1136.37
1026.449	1128.91
1026.739	1096.37
1027.029	1117.39
1027.319	1144.73
1027.608	1088.01
1027.898	1114.9
1028.187	1108.57
1028.477	1113.32
1028.766	1056.14
1029.055	1061.34
1029.344	1052.75
1029.634	1013.21
1029.923	1029.7
1030.212	1026.31
1030.501	1026.31
1030.79	1036.03
1031.078	1045.52
1031.367	1012.76
1031.656	1002.13
1031.945	1005.07
1032.233	999.42
1032.522	991.51
1032.81	969.59
1033.099	955.13
1033.387	963.27
1033.675	965.53
1033.963	968.46
1034.251	935.92
1034.54	939.31
1034.828	962.81
1035.116	922.14
1035.403	920.1
1035.691	918.52
1035.979	918.07
1036.267	924.4
1036.554	922.36
1036.842	914.45
1037.129	896.37
1037.417	887.11
1037.704	891.4
1037.992	890.95
1038.279	887.11
1038.566	851.86
1038.853	851.86
1039.14	851.86
