Data from hue_220_FLMS001491_00071.txt Node
Date: Tue Feb 07 16:39:54 GMT 2017
User: dcchb
Spectrometer: FLMS00149
Trigger mode: 0
Integration Time (sec): 2.000000E-2
Scans to average: 10
Electric dark correction enabled: true
Nonlinearity correction enabled: false
Boxcar width: 0
XAxis mode: Wavelengths
Number of Pixels in Spectrum: 2048
>>>>>Begin Spectral Data<<<<<
341.393	-31.28
341.776	-31.28
342.16	-31.28
342.543	-62.7
342.927	-66.31
343.31	-73.54
343.693	-63.37
344.077	-61.57
344.46	-69.25
344.843	-77.38
345.226	-50.72
345.61	-56.37
345.993	8.71
346.376	-10.04
346.759	19.34
347.142	34.7
347.525	39.67
347.908	62.05
348.291	95.72
348.674	95.94
349.057	106.11
349.44	123.06
349.823	123.74
350.206	167.13
350.588	190.86
350.971	220.91
351.354	198.77
351.737	242.38
352.119	232.21
352.502	258.43
352.884	278.31
353.267	282.15
353.65	295.71
354.032	323.96
354.414	304.53
354.797	335.49
355.179	328.93
355.562	316.28
355.944	293
356.326	305.43
356.709	313.34
357.091	350.17
357.473	351.98
357.855	321.25
358.238	317.63
358.62	328.25
359.002	312.89
359.384	309.27
359.766	311.98
360.148	331.87
360.53	324.64
360.912	327.35
361.294	339.78
361.676	344.75
362.057	323.96
362.439	335.49
362.821	318.54
363.203	317.41
363.584	330.51
363.966	315.15
364.348	327.8
364.729	309.72
365.111	334.36
365.493	310.4
365.874	302.04
366.256	327.58
366.637	320.57
367.019	304.53
367.4	316.28
367.781	309.5
368.163	310.18
368.544	314.24
368.925	307.01
369.306	323.73
369.688	289.16
370.069	290.97
370.45	299.55
370.831	310.85
371.212	318.31
371.593	306.79
371.974	316.95
372.355	308.59
372.736	313.34
373.117	304.75
373.498	324.41
373.879	318.08
374.26	294.81
374.641	327.35
375.021	316.73
375.402	327.58
375.783	313.79
376.163	319.44
376.544	314.02
376.925	306.33
377.305	338.88
377.686	326.9
378.066	303.17
378.447	331.19
378.827	314.92
379.208	338.2
379.588	328.48
379.968	329.16
380.349	329.84
380.729	313.11
381.109	337.07
381.489	323.28
381.87	324.19
382.25	336.16
382.63	324.64
383.01	364.19
383.39	345.43
383.77	329.84
384.15	339.55
384.53	349.95
384.91	330.51
385.29	335.71
385.67	339.1
386.049	343.85
386.429	311.53
386.809	365.32
387.189	336.62
387.568	370.06
387.948	346.78
388.328	359.67
388.707	357.86
389.087	362.6
389.466	359.21
389.846	383.17
390.225	336.62
390.605	346.78
390.984	354.92
391.363	384.98
391.743	368.25
392.122	381.36
392.501	382.72
392.881	370.29
393.26	353.34
393.639	358.76
394.018	379.78
394.397	361.47
394.776	370.96
395.155	370.74
395.534	369.38
395.913	386.33
396.292	392.43
396.671	391.08
397.05	367.58
397.429	390.17
397.808	385.2
398.186	394.69
398.565	396.73
398.944	408.93
399.323	387.69
399.701	387.91
400.08	417.97
400.458	404.41
400.837	413.68
401.215	420.23
401.594	394.24
401.972	395.6
402.351	422.71
402.729	409.16
403.107	444.86
403.486	420.46
403.864	430.17
404.242	439.89
404.62	461.58
404.999	450.28
405.377	446.44
405.755	431.3
406.133	444.41
406.511	449.83
406.889	475.82
407.267	469.95
407.645	469.95
408.023	483.96
408.401	488.25
408.779	510.85
409.156	496.39
409.534	495.48
409.912	480.34
410.29	502.71
410.667	529.15
411.045	552.88
411.422	556.5
411.8	541.13
412.178	541.36
412.555	575.03
412.933	562.82
413.31	559.43
413.687	584.29
414.065	606.21
414.442	599.43
414.819	596.04
415.197	605.99
415.574	634.01
415.951	629.04
416.328	668.13
416.705	639.43
417.082	635.82
417.46	679.21
417.837	664.97
418.214	696.83
418.591	695.25
418.967	706.78
419.344	690.05
419.721	711.52
420.098	714.01
420.475	733.44
420.852	756.27
421.228	756.27
421.605	744.51
421.982	768.69
422.358	796.49
422.735	793.55
423.111	806.89
423.488	817.96
423.864	814.34
424.241	837.17
424.617	860.9
424.994	906.77
425.37	899.99
425.746	891.63
426.123	912.42
426.499	919.88
426.875	920.1
427.251	920.1
427.627	977.28
428.003	940.22
428.379	990.84
428.756	994.9
429.132	1017.95
429.507	1014.56
429.883	1042.59
430.259	1062.02
430.635	1073.55
431.011	1049.82
431.387	1082.36
431.763	1109.93
432.138	1118.29
432.514	1124.17
432.89	1132.75
433.265	1185.41
433.641	1199.19
434.016	1245.74
434.392	1228.8
434.767	1266.08
435.143	1269.7
435.518	1280.09
435.894	1335.69
436.269	1334.1
436.644	1360.32
437.02	1388.11
437.395	1360.09
437.77	1398.28
438.145	1424.95
438.52	1451.16
438.895	1485.06
439.271	1478.05
439.646	1529.13
440.021	1544.27
440.395	1561.44
440.77	1570.93
441.145	1576.81
441.52	1646.41
441.895	1633.53
442.27	1658.39
442.645	1688.22
443.019	1657.48
443.394	1681.44
443.769	1711.49
444.143	1710.82
444.518	1739.06
444.892	1718.73
445.267	1772.28
445.641	1787.42
446.016	1796.69
446.39	1809.57
446.764	1831.27
447.139	1818.84
447.513	1878.27
447.887	1850.25
448.262	1852.73
448.636	1884.6
449.01	1892.28
449.384	1952.62
449.758	1902.45
450.132	1932.96
450.506	1960.98
450.88	2000.3
451.254	1974.31
451.628	2022.67
452.002	2022.9
452.376	2031.71
452.75	2079.39
453.123	2079.17
453.497	2104.48
453.871	2146.06
454.244	2159.84
454.618	2141.31
454.992	2179.05
455.365	2210.69
455.739	2223.35
456.112	2248.66
456.486	2265.38
456.859	2294.3
457.232	2343.57
457.606	2360.29
457.979	2355.55
458.352	2412.72
458.725	2449.55
459.099	2453.17
459.472	2524.13
459.845	2525.94
460.218	2551.02
460.591	2492.72
460.964	2559.83
461.337	2597.35
461.71	2681.19
462.083	2645.71
462.456	2657.01
462.829	2684.12
463.201	2730
463.574	2755.08
463.947	2752.37
464.32	2839.83
464.692	2843.89
465.065	2848.87
465.438	2925.7
465.81	2928.41
466.183	3005.92
466.555	3046.37
466.928	3052.48
467.3	3049.99
467.672	3074.17
468.045	3204.56
468.417	3205.69
468.789	3198.91
469.161	3219.48
469.534	3275.75
469.906	3310.32
470.278	3351
470.65	3384.9
471.022	3426.25
471.394	3517.55
471.766	3532.24
472.138	3577.89
472.51	3611.33
472.882	3645.91
473.253	3713.25
473.625	3745.11
473.997	3831.89
474.369	3847.48
474.74	3862.62
475.112	3944.66
475.484	4004.77
475.855	4044.54
476.227	4058.55
476.598	4155.72
476.97	4216.06
477.341	4278.43
477.713	4320.01
478.084	4360.46
478.455	4524.75
478.827	4525.43
479.198	4597.75
479.569	4554.36
479.94	4719.55
480.311	4741.92
480.682	4804.75
481.053	4908.25
481.424	4973.78
481.795	5011.07
482.166	5055.59
482.537	5099.2
482.908	5224.85
483.279	5242.7
483.65	5377.16
484.021	5440.66
484.391	5505.07
484.762	5547.1
485.133	5547.33
485.503	5580.32
485.874	5723.14
486.244	5731.28
486.615	5828.22
486.985	5854.21
487.356	5999.07
487.726	6058.5
488.097	6147.08
488.467	6133.75
488.837	6293.75
489.207	6304.37
489.578	6363.8
489.948	6443.57
490.318	6511.14
490.688	6509.11
491.058	6589.78
491.428	6717.69
491.798	6723.11
492.168	6782.55
492.538	6839.95
492.908	6886.73
493.278	6978.02
493.648	6949.77
494.017	7038.36
494.387	7137.57
494.757	7087.62
495.126	7185.02
495.496	7183.89
495.866	7269.31
496.235	7311.57
496.605	7335.08
496.974	7385.02
497.344	7488.74
497.713	7493.26
498.082	7523.77
498.452	7561.28
498.821	7598.35
499.19	7608.29
499.559	7692.58
499.928	7702.3
500.298	7779.58
500.667	7794.95
501.036	7804.22
501.405	7821.62
501.774	7828.62
502.143	7895.29
502.512	7927.15
502.88	7990.43
503.249	7944.55
503.618	8004.66
503.987	7972.35
504.356	8025.23
504.724	8029.52
505.093	8138.67
505.462	8096.64
505.83	8104.32
506.199	8192.91
506.567	8192.68
506.936	8201.72
507.304	8251.21
507.672	8308.84
508.041	8278.78
508.409	8325.33
508.777	8363.97
509.145	8398.78
509.514	8424.31
509.882	8363.52
510.25	8409.62
510.618	8451.66
510.986	8432.45
511.354	8480.36
511.722	8528.04
512.09	8655.27
512.458	8534.37
512.826	8609.62
513.193	8591.99
513.561	8540.92
513.929	8569.62
514.297	8627.7
514.664	8675.38
515.032	8647.36
515.4	8721.25
515.767	8707.24
516.135	8765.77
516.502	8635.38
516.869	8747.92
517.237	8779.33
517.604	8702.72
517.972	8836.05
518.339	8824.3
518.706	8762.16
519.073	8799.22
519.44	8776.62
519.808	8843.28
520.175	8826.56
520.542	8859.33
520.909	8866.56
521.276	8836.5
521.643	8914.02
522.009	8904.53
522.376	8881.25
522.743	8938.88
523.11	8970.74
523.477	9024.97
523.843	8948.37
524.21	9011.42
524.577	9034.01
524.943	9065.2
525.31	9071.98
525.676	9086.44
526.043	9101.81
526.409	9117.85
526.776	9168.02
527.142	9113.33
527.508	9145.88
527.874	9184.74
528.241	9193.33
528.607	9149.27
528.973	9179.77
529.339	9164.63
529.705	9218.42
530.071	9246.89
530.437	9208.92
530.803	9217.96
531.169	9228.13
531.535	9187.68
531.901	9225.65
532.267	9191.75
532.632	9203.95
532.998	9174.35
533.364	9175.93
533.73	9122.15
534.095	9193.11
534.461	9214.12
534.826	9177.96
535.192	9181.58
535.557	9208.02
535.923	9189.49
536.288	9185.42
536.653	9138.64
537.019	9041.25
537.384	9226.78
537.749	9140.23
538.114	9064.52
538.479	9024.07
538.845	9054.35
539.21	8999.44
539.575	8978.87
539.94	9009.61
540.305	8991.76
540.67	8940.91
541.034	8942.04
541.399	8963.06
541.764	8976.16
542.129	8933.9
542.494	8903.17
542.858	8927.58
543.223	8873.79
543.587	8905.88
543.952	8819.56
544.316	8827.24
544.681	8768.48
545.045	8803.06
545.41	8874.24
545.774	8825.88
546.138	8796.05
546.503	8791.99
546.867	8722.16
547.231	8768.26
547.595	8685.55
547.959	8649.39
548.324	8643.06
548.688	8681.93
549.052	8707.02
549.416	8709.28
549.779	8583.4
550.143	8628.6
550.507	8583.63
550.871	8580.47
551.235	8557.19
551.599	8548.6
551.962	8524.2
552.326	8515.16
552.689	8543.63
553.053	8526.23
553.417	8480.81
553.78	8542.73
554.143	8463.41
554.507	8462.73
554.87	8448.94
555.234	8484.2
555.597	8440.81
555.96	8457.76
556.323	8427.48
556.686	8404.88
557.05	8453.92
557.413	8397.42
557.776	8418.44
558.139	8420.92
558.502	8381.83
558.865	8376.63
559.228	8424.76
559.59	8460.24
559.953	8403.75
560.316	8435.16
560.679	8425.67
561.041	8447.14
561.404	8433.35
561.767	8458.21
562.129	8450.98
562.492	8549.51
562.854	8473.35
563.217	8392.67
563.579	8514.48
563.941	8533.01
564.304	8492.33
564.666	8478.32
565.028	8499.11
565.39	8528.49
565.753	8572.56
566.115	8505.67
566.477	8588.15
566.839	8565.55
567.201	8588.6
567.563	8608.49
567.925	8646.23
568.287	8599.68
568.648	8627.47
569.01	8690.07
569.372	8704.08
569.734	8635.38
570.095	8770.74
570.457	8724.42
570.819	8738.65
571.18	8779.56
571.542	8811.42
571.903	8755.15
572.265	8799.22
572.626	8828.82
572.987	8820.69
573.349	8836.96
573.71	8905.88
574.071	8841.25
574.432	8911.08
574.794	8987.69
575.155	8965.09
575.516	8869.05
575.877	8934.81
576.238	8952.89
576.599	9004.64
576.96	8995.14
577.32	9020.91
577.681	9062.71
578.042	9100.68
578.403	9107.23
578.763	9061.36
579.124	9107.91
579.485	9172.09
579.845	9237.17
580.206	9197.85
580.566	9167.57
580.927	9143.39
581.287	9281.92
581.648	9198.3
582.008	9295.93
582.368	9312.42
582.728	9291.18
583.089	9391.07
583.449	9299.77
583.809	9316.94
584.169	9355.81
584.529	9373.89
584.889	9405.76
585.249	9413.44
585.609	9394.46
585.969	9464.06
586.329	9518.52
586.688	9504.51
587.048	9556.03
587.408	9443.72
587.768	9497.28
588.127	9534.34
588.487	9515.36
588.846	9629.93
589.206	9473.32
589.565	9488.24
589.925	9553.55
590.284	9586.09
590.643	9618.63
591.003	9693.66
591.362	9594
591.721	9635.13
592.08	9660.44
592.44	9722.36
592.799	9728.91
593.158	9677.84
593.517	9702.24
593.876	9725.52
594.235	9709.48
594.593	9709.02
594.952	9703.15
595.311	9703.6
595.67	9706.09
596.029	9800.1
596.387	9759.64
596.746	9805.74
597.104	9801.9
597.463	9729.59
597.822	9828.12
598.18	9801.68
598.538	9737.5
598.897	9806.87
599.255	9775.01
599.613	9900.66
599.972	9889.81
600.33	9900.88
600.688	9872.18
601.046	9793.54
601.404	9892.97
601.762	9898.85
602.12	9880.09
602.478	9882.81
602.836	9893.43
603.194	9889.13
603.552	9906.08
603.91	9835.57
604.268	9919.41
604.625	9889.36
604.983	9867.44
605.341	9887.55
605.698	9952.63
606.056	9900.21
606.413	9908.79
606.771	10001.22
607.128	10040.09
607.485	9978.62
607.843	9996.02
608.2	10031.73
608.557	10052.29
608.914	9957.38
609.272	10101.33
609.629	10026.98
609.986	10129.35
610.343	9951.73
610.7	10117.83
611.057	10076.25
611.414	10090.03
611.771	10116.47
612.127	10078.96
612.484	10145.85
612.841	10141.1
613.198	10095.91
613.554	10105.17
613.911	10235.11
614.267	10177.94
614.624	10150.14
614.98	10175
615.337	10199.86
615.693	10196.24
616.05	10162.8
616.406	10256.13
616.762	10204.83
617.118	10309.01
617.475	10208.67
617.831	10258.61
618.187	10289.12
618.543	10216.36
618.899	10376.58
619.255	10310.36
619.611	10281.89
619.967	10357.37
620.323	10367.99
620.678	10332.74
621.034	10273.98
621.39	10284.15
621.746	10284.15
622.101	10406.41
622.457	10277.15
622.812	10281.89
623.168	10280.31
623.523	10375.45
623.879	10367.31
624.234	10297.48
624.589	10335.67
624.945	10327.77
625.3	10332.51
625.655	10381.78
626.01	10273.76
626.365	10345.62
626.72	10332.51
627.075	10329.35
627.43	10285.51
627.785	10299.74
628.14	10372.51
628.495	10328.67
628.85	10277.15
629.205	10237.82
629.559	10300.65
629.914	10196.02
630.269	10189.01
630.623	10271.04
630.978	10261.1
631.332	10245.96
631.687	10209.12
632.041	10142.69
632.396	10248.9
632.75	10190.37
633.104	10189.92
633.459	10102.46
633.813	10177.71
634.167	10110.6
634.521	10142.23
634.875	10163.48
635.229	10113.76
635.583	10043.03
635.937	10118.96
636.291	10067.88
636.645	10071.73
636.999	10031.95
637.352	10070.37
637.706	9994.21
638.06	10073.08
638.413	9977.94
638.767	9980.88
639.121	10051.39
639.474	9961
639.828	9997.6
640.181	9982.01
640.534	9966.64
640.888	9923.71
641.241	9890.94
641.594	9901.34
641.947	9883.48
642.301	9898.17
642.654	9953.99
643.007	9829.02
643.36	9849.59
643.713	9864.95
644.066	9944.05
644.419	9868.12
644.771	9750.15
645.124	9677.84
645.477	9763.71
645.83	9641.91
646.182	9621.34
646.535	9591.97
646.888	9585.41
647.24	9500.22
647.593	9568.69
647.945	9519.2
648.298	9522.36
648.65	9493.89
649.002	9510.61
649.355	9502.48
649.707	9523.04
650.059	9597.16
650.411	9677.39
650.763	9702.24
651.115	9757.38
651.467	9751.28
651.819	9738.4
652.171	9728.68
652.523	9680.78
652.875	9707.89
653.227	9678.06
653.578	9722.58
653.93	9727.78
654.282	9727.33
654.633	9653.66
654.985	9748.12
655.337	9745.63
655.688	9718.06
656.039	9749.02
656.391	9728.91
656.742	9704.73
657.094	9759.42
657.445	9748.8
657.796	9718.06
658.147	9743.6
658.498	9737.5
658.849	9729.81
659.2	9756.03
659.551	9697.5
659.902	9713.09
660.253	9684.39
660.604	9773.2
660.955	9673.09
661.306	9789.47
661.656	9744.96
662.007	9768.46
662.358	9826.54
662.708	9735.92
663.059	9756.03
663.409	9769.59
663.76	9810.04
664.11	9724.17
664.461	9772.3
664.811	9776.59
665.161	9806.42
665.511	9788.12
665.862	9776.14
666.212	9840.77
666.562	9782.02
666.912	9806.2
667.262	9806.65
667.612	9837.16
667.962	9779.98
668.312	9746.09
668.662	9786.76
669.011	9805.74
669.361	9774.56
669.711	9782.47
670.06	9783.37
670.41	9706.54
670.76	9720.78
671.109	9747.22
671.459	9765.75
671.808	9793.54
672.157	9782.47
672.507	9644.62
672.856	9638.74
673.205	9729.59
673.554	9742.24
673.904	9730.94
674.253	9700.44
674.602	9689.14
674.951	9543.6
675.3	9531.63
675.649	9643.26
675.998	9626.54
676.346	9608.69
676.695	9653.66
677.044	9562.36
677.393	9558.52
677.741	9586.09
678.09	9619.08
678.438	9648.46
678.787	9583.6
679.135	9593.1
679.484	9494.11
679.832	9522.59
680.181	9479.2
680.529	9497.05
680.877	9479.2
681.225	9496.83
681.573	9537.96
681.922	9353.78
682.27	9361.46
682.618	9404.85
682.966	9375.02
683.314	9369.15
683.661	9368.69
684.009	9316.27
684.357	9255.93
684.705	9252.31
685.053	9303.84
685.4	9215.48
685.748	9205.53
686.095	9150.17
686.443	9164.41
686.79	9149.49
687.138	9200.56
687.485	9164.63
687.832	9110.4
688.18	9116.05
688.527	9035.82
688.874	9095.03
689.221	9044.64
689.568	9027.01
689.915	8975.48
690.262	8962.83
690.609	8911.08
690.956	8885.77
691.303	8869.5
691.65	8853.23
691.997	8774.36
692.344	8730.52
692.69	8732.33
693.037	8735.94
693.383	8670.86
693.73	8696.4
694.077	8615.04
694.423	8635.38
694.769	8525.33
695.116	8564.65
695.462	8563.29
695.808	8506.12
696.155	8539.11
696.501	8492.56
696.847	8422.05
697.193	8299.8
697.539	8352.22
697.885	8346.57
698.231	8264.09
698.577	8284.88
698.923	8274.49
699.269	8222.28
699.614	8174.6
699.96	8125.79
700.306	8134.83
700.651	8091.21
700.997	8044.66
701.342	8037.66
701.688	8007.83
702.033	8039.01
702.379	8001.95
702.724	8015.06
703.069	7918.79
703.415	7838.79
703.76	7877.21
704.105	7890.77
704.45	7873.82
704.795	7756.08
705.14	7745.23
705.485	7757.66
705.83	7679.47
706.175	7697.55
706.52	7614.16
706.865	7604.22
707.209	7630.66
707.554	7594.5
707.899	7568.52
708.243	7475.86
708.588	7527.84
708.932	7441.74
709.277	7465.47
709.621	7484
709.966	7424.11
710.31	7393.38
710.654	7340.05
710.998	7335.08
711.342	7368.97
711.687	7321.97
712.031	7304.12
712.375	7279.94
712.719	7314.29
713.063	7241.52
713.407	7323.1
713.75	7200.62
714.094	7180.28
714.438	7178.02
714.782	7197.23
715.125	7160.84
715.469	7193.16
715.812	7132.82
716.156	7135.53
716.499	7076.33
716.843	7142.09
717.186	7056.21
717.53	7130.34
717.873	7085.82
718.216	7071.35
718.559	7068.42
718.902	7025.93
719.246	7088.75
719.589	7003.11
719.932	7002.43
720.275	6995.65
720.617	7018.93
720.96	7011.69
721.303	6970.57
721.646	6961.53
721.989	6935.54
722.331	6947.97
722.674	6952.71
723.016	6968.31
723.359	7006.72
723.701	6935.09
724.044	6956.1
724.386	6873.84
724.729	6961.98
725.071	6902.77
725.413	6875.65
725.755	6880.17
726.097	6890.34
726.439	6842.66
726.782	6882.88
727.124	6909.1
727.465	6826.61
727.807	6857.8
728.149	6893.05
728.491	6824.58
728.833	6934.41
729.175	6832.94
729.516	6825.48
729.858	6790.46
730.199	6858.93
730.541	6748.65
730.882	6870.45
731.224	6865.48
731.565	6846.95
731.906	6801.76
732.248	6823.22
732.589	6841.08
732.93	6817.12
733.271	6785.03
733.612	6798.82
733.953	6864.58
734.294	6785.49
734.635	6804.24
734.976	6819.61
735.317	6882.88
735.658	6778.93
735.999	6806.05
736.339	6854.41
736.68	6897.57
737.021	6833.85
737.361	6802.89
737.702	6838.59
738.042	6784.58
738.383	6825.71
738.723	6916.78
739.063	6865.71
739.404	6877.23
739.744	6856.22
740.084	6818.03
740.424	6957.68
740.764	6900.96
741.104	6939.83
741.444	6948.64
741.784	6935.99
742.124	6984.8
742.464	6898.7
742.804	6920.4
743.143	6986.16
743.483	7024.58
743.823	7010.56
744.162	7050.11
744.502	7156.78
744.841	7157.45
745.181	7136.44
745.52	7201.29
745.86	7229.99
746.199	7299.82
746.538	7223.21
746.877	7303.89
747.216	7358.58
747.556	7389.09
747.895	7440.38
748.234	7466.6
748.573	7444.23
748.911	7594.96
749.25	7619.14
749.589	7656.65
749.928	7704.11
750.267	7859.58
750.605	7884.21
750.944	7957.21
751.283	7944.1
751.621	8062.06
751.96	8163.3
752.298	8254.37
752.636	8355.61
752.975	8445.78
753.313	8523.97
753.651	8643.29
753.989	8708.37
754.327	8854.81
754.666	8901.59
755.004	9033.56
755.342	9235.59
755.679	9313.78
756.017	9414.12
756.355	9535.7
756.693	9610.95
757.031	9833.09
757.368	9882.58
757.706	10021.56
758.044	10185.4
758.381	10416.12
758.719	10541.77
759.056	10699.73
759.394	10831.93
759.731	10918.48
760.068	11102.43
760.405	11256.33
760.743	11413.84
761.08	11639.82
761.417	11767.95
761.754	11994.39
762.091	12183.08
762.428	12343.53
762.765	12486.35
763.102	12711.21
763.438	12742.84
763.775	12931.31
764.112	13121.36
764.449	13376.5
764.785	13447.68
765.122	13637.06
765.458	13750.05
765.795	13958.4
766.131	14086.08
766.467	14212.63
766.804	14438.17
767.14	14469.58
767.476	14673.19
767.812	14849.91
768.148	15053.74
768.485	15094.42
768.821	15237.24
769.157	15313.4
769.492	15452.38
769.828	15621.19
770.164	15600.39
770.5	15920.39
770.836	16097.56
771.171	16047.39
771.507	16170.32
771.842	16133.49
772.178	16372.8
772.513	16511.33
772.849	16562.18
773.184	16633.36
773.519	16804.43
773.855	16790.42
774.19	16879.46
774.525	17029.96
774.86	17169.85
775.195	17154.03
775.53	17238.77
775.865	17282.38
776.2	17248.94
776.535	17282.61
776.87	17342.5
777.205	17354.93
777.539	17458.2
777.874	17575.48
778.209	17603.73
778.543	17570.29
778.878	17634.47
779.212	17599.44
779.547	17733.45
779.881	17792.43
780.215	17746.33
780.55	17824.52
780.884	17759.43
781.218	17755.14
781.552	17899.54
781.886	17877.17
782.22	17861.58
782.554	17868.81
782.888	17774.12
783.222	17768.7
783.556	17742.49
783.889	17767.8
784.223	17662.94
784.557	17747.23
784.89	17832.65
785.224	17705.2
785.557	17691.64
785.891	17809.83
786.224	17800.56
786.558	17771.64
786.891	17744.29
787.224	17740.9
787.557	17678.76
787.891	17660
788.224	17650.28
788.557	17674.46
788.89	17729.38
789.223	17715.59
789.556	17582.26
789.888	17647.57
790.221	17536.84
790.554	17462.49
790.887	17434.92
791.219	17408.93
791.552	17447.35
791.884	17369.39
792.217	17349.05
792.549	17411.87
792.882	17287.36
793.214	17249.62
793.546	17342.04
793.879	17205.55
794.211	17098.43
794.543	17295.49
794.875	17156.96
795.207	17271.31
795.539	17082.84
795.871	17153.35
796.203	16968.49
796.535	16954.94
796.867	16992.22
797.198	16934.82
797.53	16914.26
797.862	16868.38
798.193	16982.96
798.525	16822.28
798.856	16843.3
799.188	16664.1
799.519	16709.07
799.85	16639.46
800.182	16596.98
800.513	16623.42
800.844	16471.78
801.175	16591.33
801.506	16498.45
801.837	16449.41
802.168	16401.73
802.499	16362.86
802.83	16187.95
803.161	16246.48
803.491	16279.02
803.822	16258.68
804.153	16197.89
804.483	16077.67
804.814	15941.85
805.145	16093.26
805.475	15999.48
805.805	15980.5
806.136	15971.46
806.466	15969.2
806.796	15988.18
807.126	15870.9
807.457	15797.45
807.787	15797.9
808.117	15720.39
808.447	15727.85
808.777	15750
809.107	15675.42
809.436	15609.89
809.766	15665.25
810.096	15579.6
810.426	15550.23
810.755	15520.4
811.085	15458.93
811.414	15494.63
811.744	15354.53
812.073	15372.38
812.403	15376.22
812.732	15253.51
813.061	15284.47
813.39	15277.24
813.719	15256.22
814.049	15295.09
814.378	15242.89
814.707	15122.44
815.036	15152.27
815.365	15056.91
815.693	14971.94
816.022	15050.58
816.351	15015.1
816.68	14943.91
817.008	15006.51
817.337	14765.39
817.665	14821.88
817.994	14871.83
818.322	14792.96
818.651	14726.97
818.979	14734.2
819.307	14816.69
819.636	14818.72
819.964	14653.98
820.292	14705.96
820.62	14658.72
820.948	14611.27
821.276	14752.06
821.604	14671.83
821.932	14679.97
822.259	14666.41
822.587	14641.32
822.915	14518.62
823.243	14634.32
823.57	14560.42
823.898	14717.48
824.225	14576.69
824.553	14645.84
824.88	14519.52
825.207	14670.93
825.535	14594.55
825.862	14673.19
826.189	14609.23
826.516	14654.43
826.843	14710.25
827.17	14675.22
827.497	14682.68
827.824	14662.34
828.151	14699.18
828.478	14675.9
828.805	14760.42
829.131	14720.19
829.458	14666.63
829.785	14531.04
830.111	14580.99
830.438	14638.39
830.764	14669.12
831.09	14640.65
831.417	14522.91
831.743	14693.98
832.069	14650.59
832.395	14558.16
832.722	14649.01
833.048	14618.05
833.374	14602.91
833.7	14524.26
834.026	14535.79
834.351	14624.38
834.677	14611.49
835.003	14562.46
835.329	14534.89
835.654	14488.79
835.98	14452.18
836.306	14553.19
836.631	14393.19
836.956	14549.58
837.282	14497.83
837.607	14446.98
837.932	14409.47
838.258	14406.08
838.583	14325.4
838.908	14326.53
839.233	14246.08
839.558	14392.07
839.883	14277.94
840.208	14164.27
840.533	14187.32
840.858	14229.36
841.182	14248.79
841.507	14210.6
841.832	14146.2
842.156	14135.35
842.481	14042.7
842.805	14062.36
843.13	13951.85
843.454	14006.76
843.778	13894.68
844.103	13813.78
844.427	13890.16
844.751	13831.63
845.075	13784.17
845.399	13800.44
845.723	13686.55
846.047	13731.97
846.371	13625.98
846.695	13570.17
847.019	13440
847.343	13546.89
847.666	13374.69
847.99	13338.31
848.313	13318.65
848.637	13223.06
848.96	13263.51
849.284	13249.04
849.607	13015.15
849.931	13077.52
850.254	12998.2
850.577	12897.19
850.9	12837.76
851.223	12809.96
851.546	12787.59
851.869	12697.42
852.192	12726.8
852.515	12643.64
852.838	12552.57
853.161	12560.02
853.483	12474.38
853.806	12447.03
854.129	12480.25
854.451	12374.04
854.774	12224.66
855.096	12332.46
855.419	12233.48
855.741	12134.72
856.063	12181.73
856.385	12095.63
856.708	12126.36
857.03	12089.07
857.352	12040.04
857.674	11983.54
857.996	12002.75
858.318	11940.83
858.64	11907.84
858.961	11862.19
859.283	11828.06
859.605	11764.56
859.926	11764.56
860.248	11768.86
860.57	11685.92
860.891	11742.42
861.212	11742.87
861.534	11606.6
861.855	11619.26
862.176	11602.53
862.498	11564.12
862.819	11576.32
863.14	11493.38
863.461	11514.85
863.782	11472.59
864.103	11428.98
864.424	11386.49
864.745	11405.02
865.065	11382.88
865.386	11338.36
865.707	11280.06
866.027	11297.46
866.348	11319.83
866.668	11231.92
866.989	11237.35
867.309	11188.08
867.63	11253.62
867.95	11186.27
868.27	11099.72
868.59	11165.26
868.91	11111.93
869.23	11083.9
869.55	10991.48
869.87	11053.85
870.19	11068.08
870.51	11076.9
870.83	10999.84
871.15	11002.55
871.469	10978.37
871.789	10990.8
872.109	10996.45
872.428	10837.13
872.748	10979.95
873.067	10923.23
873.386	10909.22
873.706	10899.95
874.025	10822.89
874.344	10796.45
874.663	10876.68
874.982	10834.19
875.301	10818.15
875.62	10737.7
875.939	10693.86
876.258	10781.76
876.577	10686.63
876.896	10654.99
877.214	10648.43
877.533	10661.99
877.852	10612.05
878.17	10666.06
878.489	10577.48
878.807	10653.86
879.125	10545.61
879.444	10572.73
879.762	10568.89
880.08	10556.23
880.398	10496.35
880.716	10561.21
881.034	10463.58
881.352	10496.8
881.67	10390.14
881.988	10406.63
882.306	10325.73
882.624	10370.7
882.941	10265.39
883.259	10277.15
883.577	10278.73
883.894	10249.8
884.212	10191.05
884.529	10236.47
884.846	10170.26
885.164	10124.15
885.481	10122.35
885.798	10136.13
886.115	10042.12
886.432	10090.03
886.75	10016.13
887.067	10058.39
887.383	9981.33
887.7	10044.61
888.017	9907.66
888.334	9970.94
888.651	9913.31
888.967	9842.58
889.284	9837.38
889.6	9878.29
889.917	9791.28
890.233	9728.46
890.55	9775.46
890.866	9750.61
891.182	9673.77
891.498	9580.67
891.815	9575.92
892.131	9622.47
892.447	9562.14
892.763	9521.91
893.079	9553.55
893.395	9549.03
893.71	9434.23
894.026	9421.35
894.342	9414.34
894.657	9332.31
894.973	9372.76
895.289	9357.17
895.604	9309.49
895.92	9245.08
896.235	9278.3
896.55	9181.13
896.865	9107.91
897.181	9104.52
897.496	9117.85
897.811	9062.94
898.126	9015.94
898.441	8973.45
898.756	9004.41
899.071	8915.82
899.386	8935.49
899.7	8852.55
900.015	8809.61
900.33	8729.39
900.644	8774.59
900.959	8752.67
901.273	8716.73
901.588	8628.37
901.902	8630.63
902.216	8627.92
902.531	8556.06
902.845	8522.61
903.159	8534.37
903.473	8472.67
903.787	8412.79
904.101	8397.42
904.415	8421.6
904.729	8319.68
905.042	8301.83
905.356	8271.77
905.67	8325.11
905.984	8229.74
906.297	8201.95
906.611	8171.66
906.924	8031.1
907.237	8063.64
907.551	8053.02
907.864	7966.47
908.177	7976.87
908.491	7994.72
908.804	7919.01
909.117	7827.94
909.43	7806.48
909.743	7750.43
910.056	7770.32
910.368	7750.21
910.681	7678.57
910.994	7745.46
911.307	7679.47
911.619	7643.77
911.932	7587.95
912.244	7531.91
912.557	7462.53
912.869	7470.89
913.181	7458.24
913.494	7391.8
913.806	7368.29
914.118	7346.37
914.43	7299.14
914.742	7331.46
915.054	7320.16
915.366	7277.22
915.678	7280.84
915.99	7194.29
916.302	7115.65
916.613	7131.24
916.925	7131.01
917.236	7151.8
917.548	7022.77
917.859	7095.99
918.171	6969.66
918.482	6959.94
918.794	6915.43
919.105	6922.66
919.416	6884.01
919.727	6893.51
920.038	6804.92
920.349	6789.78
920.66	6751.14
920.971	6741.42
921.282	6681.99
921.593	6654.64
921.903	6647.64
922.214	6665.04
922.525	6606.06
922.835	6615.32
923.146	6552.05
923.456	6539.16
923.767	6489
924.077	6451.93
924.387	6494.87
924.697	6453.97
925.008	6441.99
925.318	6385.04
925.628	6408.77
925.938	6332.62
926.248	6299.62
926.558	6254.2
926.867	6225.73
927.177	6217.59
927.487	6178.04
927.796	6124.03
928.106	6113.64
928.416	6091.04
928.725	6040.42
929.034	6063.02
929.344	6067.09
929.653	6012.85
929.962	5985.51
930.271	5976.02
930.581	5975.79
930.89	5867.32
931.199	5932.17
931.508	5888.56
931.817	5877.94
932.125	5818.28
932.434	5774.44
932.743	5769.01
933.051	5747.77
933.36	5712.52
933.669	5697.83
933.977	5660.32
934.286	5670.71
934.594	5664.61
934.902	5646.53
935.21	5570.83
935.519	5609.02
935.827	5537.16
936.135	5540.77
936.443	5457.61
936.751	5485.86
937.059	5461.45
937.367	5418.74
937.674	5382.36
937.982	5402.02
938.29	5364.51
938.597	5278.86
938.905	5285.86
939.213	5232.76
939.52	5246.99
939.827	5234.34
940.135	5218.97
940.442	5199.76
940.749	5185.75
941.056	5202.93
941.363	5112.54
941.67	5084.97
941.977	5095.59
942.284	5101.91
942.591	5057.17
942.898	4978.75
943.205	5054.01
943.511	4991.86
943.818	5015.81
944.125	4909.83
944.431	4906.21
944.738	4912.77
945.044	4863.73
945.35	4817.18
945.657	4808.59
945.963	4812.43
946.269	4805.65
946.575	4800
946.881	4698.99
947.187	4736.95
947.493	4671.87
947.799	4656.95
948.105	4656.73
948.41	4663.06
948.716	4707.57
949.022	4610.85
949.327	4595.94
949.633	4534.02
949.938	4571.76
950.244	4558.43
950.549	4511.65
950.854	4484.98
951.16	4524.53
951.465	4466
951.77	4421.25
952.075	4371.99
952.38	4416.06
952.685	4419.22
952.99	4408.82
953.294	4351.65
953.599	4331.76
953.904	4299.68
954.209	4302.16
954.513	4312.78
954.818	4258.77
955.122	4229.85
955.426	4183.52
955.731	4199.56
956.035	4192.79
956.339	4189.85
956.643	4157.08
956.948	4098.1
957.252	4128.61
957.556	4082.28
957.86	4059.68
958.163	4083.64
958.467	4063.75
958.771	4001.6
959.075	4023.75
959.378	3986.69
959.682	4002.51
959.985	3932
960.289	3960.47
960.592	3905.34
960.896	3898.1
961.199	3877.09
961.502	3866.92
961.805	3853.13
962.108	3802.51
962.411	3849.97
962.714	3774.04
963.017	3793.47
963.32	3781.72
963.623	3781.95
963.926	3757.09
964.228	3713.7
964.531	3693.59
964.833	3697.43
965.136	3645.68
965.438	3642.74
965.741	3612.91
966.043	3635.96
966.345	3648.39
966.648	3609.52
966.95	3614.04
967.252	3562.97
967.554	3559.81
967.856	3527.94
968.158	3527.72
968.46	3493.59
968.761	3483.88
969.063	3484.56
969.365	3459.02
969.666	3452.24
969.968	3416.08
970.269	3407.27
970.571	3411.34
970.872	3409.98
971.174	3354.84
971.475	3344.67
971.776	3338.12
972.077	3306.93
972.378	3312.58
972.679	3320.49
972.98	3271.68
973.281	3264.45
973.582	3268.06
973.883	3221.29
974.183	3233.49
974.484	3245.47
974.785	3226.71
975.085	3164.56
975.386	3190.33
975.686	3147.39
975.986	3144.68
976.287	3159.82
976.587	3106.71
976.887	3110.33
977.187	3092.7
977.487	3054.28
977.787	3056.77
978.087	3014.06
978.387	2998.47
978.687	3034.62
978.987	2969.09
979.286	2988.07
979.586	2987.17
979.885	2951.69
980.185	3000.27
980.484	2958.92
980.784	2909.66
981.083	2878.24
981.382	2873.72
981.682	2905.14
981.981	2848.87
982.28	2848.64
982.579	2817.23
982.878	2803.44
983.177	2802.77
983.475	2806.38
983.774	2784.46
984.073	2789.21
984.372	2777.23
984.67	2757.57
984.969	2714.41
985.267	2735.42
985.566	2718.02
985.864	2705.59
986.162	2680.28
986.461	2722.54
986.759	2678.93
987.057	2645.71
987.355	2645.03
987.653	2642.77
987.951	2627.18
988.249	2608.42
988.547	2592.6
988.844	2616.78
989.142	2580.62
989.44	2554.86
989.737	2544.92
990.035	2512.6
990.332	2518.03
990.63	2497.69
990.927	2488.88
991.224	2498.82
991.521	2494.75
991.819	2478.48
992.116	2468.54
992.413	2440.97
992.71	2432.15
993.006	2428.09
993.303	2414.98
993.6	2402.55
993.897	2350.57
994.193	2404.58
994.49	2354.42
994.787	2346.73
995.083	2351.25
995.379	2311.48
995.676	2313.06
995.972	2333.85
996.268	2310.57
996.565	2268.32
996.861	2290.46
997.157	2260.18
997.453	2252.5
997.749	2241.2
998.044	2218.15
998.34	2203.91
998.636	2215.21
998.932	2185.83
999.227	2176.57
999.523	2163.46
999.818	2153.97
1000.114	2157.58
1000.409	2143.57
1000.704	2143.35
1001	2083.46
1001.295	2113.74
1001.59	2099.96
1001.885	2109.9
1002.18	2080.75
1002.475	2031.03
1002.77	2059.28
1003.065	2063.35
1003.359	1982
1003.654	2023.35
1003.949	1990.13
1004.243	1981.54
1004.538	1952.62
1004.832	1998.04
1005.127	1960.53
1005.421	1946.52
1005.715	1927.99
1006.009	1947.87
1006.304	1913.07
1006.598	1891.15
1006.892	1895.67
1007.186	1889.57
1007.48	1907.87
1007.773	1873.52
1008.067	1860.87
1008.361	1811.83
1008.655	1848.67
1008.948	1832.62
1009.242	1829.23
1009.535	1819.51
1009.829	1785.62
1010.122	1760.76
1010.415	1760.53
1010.708	1763.7
1011.001	1725.51
1011.295	1714.21
1011.588	1731.38
1011.881	1736.35
1012.173	1728.44
1012.466	1713.08
1012.759	1709.91
1013.052	1664.04
1013.344	1678.05
1013.637	1671.5
1013.93	1640.76
1014.222	1642.12
1014.514	1646.41
1014.807	1622.91
1015.099	1590.14
1015.391	1584.49
1015.683	1572.74
1015.976	1563.7
1016.268	1596.47
1016.56	1565.96
1016.851	1580.42
1017.143	1564.15
1017.435	1569.8
1017.727	1534.78
1018.018	1501.33
1018.31	1488
1018.602	1495.46
1018.893	1473.31
1019.185	1500.88
1019.476	1487.32
1019.767	1438.96
1020.058	1449.58
1020.35	1424.95
1020.641	1441.67
1020.932	1436.25
1021.223	1403.25
1021.514	1392.18
1021.804	1400.77
1022.095	1402.12
1022.386	1384.72
1022.677	1359.87
1022.967	1367.77
1023.258	1348.79
1023.548	1328.23
1023.839	1341.33
1024.129	1326.19
1024.419	1324.39
1024.709	1319.41
1025	1297.72
1025.29	1268.79
1025.58	1305.63
1025.87	1261.56
1026.16	1258.4
1026.449	1241.9
1026.739	1235.8
1027.029	1223.15
1027.319	1241.9
1027.608	1225.86
1027.898	1240.09
1028.187	1194.45
1028.477	1197.61
1028.766	1210.72
1029.055	1187.67
1029.344	1150.38
1029.634	1171.85
1029.923	1160.32
1030.212	1154.22
1030.501	1134.11
1030.79	1136.59
1031.078	1125.75
1031.367	1121.45
1031.656	1131.85
1031.945	1124.39
1032.233	1104.28
1032.522	1074.45
1032.81	1083.04
1033.099	1056.37
1033.387	1068.12
1033.675	1089.82
1033.963	1042.81
1034.251	1057.05
1034.54	1031.06
1034.828	1025.41
1035.116	1021.12
1035.403	1050.95
1035.691	1014.56
1035.979	1022.93
1036.267	1000.1
1036.554	1019.99
1036.842	973.43
1037.129	989.71
1037.417	999.87
1037.704	987.67
1037.992	972.98
1038.279	953.32
1038.566	937.5
1038.853	937.5
1039.14	937.5
