Data from hue_00_FLMS001491_87.txt Node
Date: Mon Feb 06 15:30:22 GMT 2017
User: dcchb
Spectrometer: FLMS00149
Trigger mode: 0
Integration Time (sec): 2.000000E-2
Scans to average: 10
Electric dark correction enabled: true
Nonlinearity correction enabled: false
Boxcar width: 0
XAxis mode: Wavelengths
Number of Pixels in Spectrum: 2048
>>>>>Begin Spectral Data<<<<<
341.393	-5.73
341.776	-5.73
342.16	-5.73
342.543	-54.09
342.927	-81.21
343.31	-76.47
343.693	-69.69
344.077	-66.98
344.46	-74.66
344.843	-34.66
345.226	-43.25
345.61	-30.82
345.993	-5.51
346.376	-1.21
346.759	16.64
347.142	28.39
347.525	33.81
347.908	67.03
348.291	70.65
348.674	78.11
349.057	108.61
349.44	109.29
349.823	151.1
350.206	156.52
350.588	194.94
350.971	189.51
351.354	212.57
351.737	212.57
352.119	250.76
352.502	254.82
352.884	258.21
353.267	273.81
353.65	276.52
354.032	309.29
354.414	284.65
354.797	322.84
355.179	307.93
355.562	330.08
355.944	324.88
356.326	340.7
356.709	356.06
357.091	330.53
357.473	330.53
357.855	331.21
358.238	330.3
358.62	340.47
359.002	345.67
359.384	323.3
359.766	336.86
360.148	330.53
360.53	342.51
360.912	327.14
361.294	327.82
361.676	330.53
362.057	328.72
362.439	327.36
362.821	338.21
363.203	315.39
363.584	335.95
363.966	329.85
364.348	306.8
364.729	335.27
365.111	299.12
365.493	317.65
365.874	311.77
366.256	302.51
366.637	318.55
367.019	308.83
367.4	317.87
367.781	311.32
368.163	290.76
368.544	300.47
368.925	305.44
369.306	299.57
369.688	309.74
370.069	323.07
370.45	304.54
370.831	326.91
371.212	308.83
371.593	321.26
371.974	301.15
372.355	325.33
372.736	286.69
373.117	339.34
373.498	307.03
373.879	286.24
374.26	312.45
374.641	301.83
375.021	316.97
375.402	305.44
375.783	304.77
376.163	307.03
376.544	298.89
376.925	317.65
377.305	313.35
377.686	331.66
378.066	314.48
378.447	325.56
378.827	321.04
379.208	312.45
379.588	329.4
379.968	335.5
380.349	337.76
380.729	335.73
381.109	329.85
381.489	332.56
381.87	337.99
382.25	343.64
382.63	316.29
383.01	342.96
383.39	340.02
383.77	336.18
384.15	327.59
384.53	353.58
384.91	336.18
385.29	338.89
385.67	332.79
386.049	342.51
386.429	339.12
386.809	346.35
387.189	352
387.568	341.15
387.948	343.86
388.328	353.13
388.707	369.4
389.087	351.32
389.466	360.13
389.846	371.88
390.225	362.17
390.605	358.78
390.984	354.93
391.363	370.3
391.743	379.34
392.122	351.77
392.501	348.15
392.881	373.01
393.26	361.26
393.639	356.74
394.018	359
394.397	361.71
394.776	355.61
395.155	375.72
395.534	344.99
395.913	357.42
396.292	375.05
396.671	365.1
397.05	362.39
397.429	382.28
397.808	372.33
398.186	375.5
398.565	370.75
398.944	394.71
399.323	375.5
399.701	398.32
400.08	384.09
400.458	414.59
400.837	402.39
401.215	406.46
401.594	380.7
401.972	378.44
402.351	395.16
402.729	379.34
403.107	399.45
403.486	393.8
403.864	409.62
404.242	390.64
404.62	403.97
404.999	397.19
405.377	413.69
405.755	407.36
406.133	433.12
406.511	430.41
406.889	406.68
407.267	413.01
407.645	414.14
408.023	438.1
408.401	413.46
408.779	403.07
409.156	439.9
409.534	409.4
409.912	414.14
410.29	428.15
410.667	433.58
411.045	443.97
411.422	450.52
411.8	442.62
412.178	459.34
412.555	438.77
412.933	441.03
413.31	443.75
413.687	469.28
414.065	473.12
414.442	476.74
414.819	473.35
415.197	474.03
415.574	460.92
415.951	481.94
416.328	515.61
416.705	500.92
417.082	486.23
417.46	476.06
417.837	481.48
418.214	493.46
418.591	506.79
418.967	492.11
419.344	513.57
419.721	488.04
420.098	503.18
420.475	519.45
420.852	522.16
421.228	522.39
421.605	514.25
421.982	537.75
422.358	505.89
422.735	533.91
423.111	539.34
423.488	555.61
423.864	557.87
424.241	545.21
424.617	555.61
424.994	529.17
425.37	552.67
425.746	539.11
426.123	556.06
426.499	547.47
426.875	567.36
427.251	574.36
427.627	566.68
428.003	585.66
428.379	591.99
428.756	569.62
429.132	597.41
429.507	591.09
429.883	595.15
430.259	606.9
430.635	619.11
431.011	579.34
431.387	594.7
431.763	630.63
432.138	612.55
432.514	638.77
432.89	624.31
433.265	660.24
433.641	653.91
434.016	658.88
434.392	658.88
434.767	676.06
435.143	674.25
435.518	656.62
435.894	658.43
436.269	680.12
436.644	701.59
437.02	679.67
437.395	718.77
437.77	695.26
438.145	728.48
438.52	701.14
438.895	711.08
439.271	704.76
439.646	706.56
440.021	737.52
440.395	706.34
440.77	748.37
441.145	745.88
441.52	770.52
441.895	740.23
442.27	723.96
442.645	770.29
443.019	768.03
443.394	773
443.769	773.91
444.143	774.81
444.518	773.45
444.892	787.24
445.267	796.05
445.641	778.2
446.016	777.07
446.39	804.64
446.764	807.8
447.139	772.1
447.513	800.8
447.887	829.5
448.262	808.48
448.636	803.06
449.01	812.1
449.384	840.12
449.758	826.79
450.132	864.3
450.506	841.48
450.88	840.12
451.254	847.35
451.628	860.46
452.002	845.32
452.376	880.57
452.75	852.1
453.123	873.56
453.497	884.64
453.871	889.38
454.244	900.23
454.618	928.03
454.992	947.69
455.365	928.93
455.739	945.88
456.112	972.32
456.486	965.31
456.859	957.86
457.232	971.19
457.606	971.42
457.979	973.45
458.352	1003.28
458.725	1002.6
459.099	1015.93
459.472	1035.37
459.845	1050.06
460.218	1061.58
460.591	1025.43
460.964	1061.13
461.337	1032.66
461.71	1088.02
462.083	1102.71
462.456	1079.89
462.829	1094.35
463.201	1110.62
463.574	1121.24
463.947	1118.98
464.32	1160.11
464.692	1166.44
465.065	1178.19
465.438	1215.25
465.81	1165.08
466.183	1217.96
466.555	1228.58
466.928	1234.46
467.3	1238.53
467.672	1256.15
468.045	1295.93
468.417	1268.81
468.789	1291.41
469.161	1322.82
469.534	1310.84
469.906	1342.7
470.278	1332.99
470.65	1387.9
471.022	1412.53
471.394	1407.34
471.766	1428.13
472.138	1458.41
472.51	1463.38
472.882	1524.62
473.253	1516.49
473.625	1554.45
473.997	1615.47
474.369	1611.85
474.74	1595.81
475.112	1653.66
475.484	1621.57
475.855	1687.78
476.227	1698.18
476.598	1756.03
476.97	1740.66
477.341	1816.82
477.713	1822.01
478.084	1820.88
478.455	1885.97
478.827	1912.18
479.198	1965.51
479.569	1979.98
479.94	2013.2
480.311	1998.96
480.682	2084.15
481.053	2127.77
481.424	2123.7
481.795	2214.09
482.166	2258.16
482.537	2273.98
482.908	2300.42
483.279	2343.36
483.65	2333.87
484.021	2403.47
484.391	2439.17
484.762	2467.65
485.133	2492.73
485.503	2551.71
485.874	2591.26
486.244	2635.33
486.615	2654.08
486.985	2702.67
487.356	2702.44
487.726	2803.68
488.097	2865.83
488.467	2840.74
488.837	2912.83
489.207	2951.7
489.578	3007.07
489.948	3044.35
490.318	3087.74
490.688	3077.35
491.058	3130
491.428	3175.42
491.798	3249.1
492.168	3252.03
492.538	3244.35
492.908	3290.9
493.278	3357.12
493.648	3365.48
494.017	3464.23
494.387	3461.97
494.757	3457.9
495.126	3524.34
495.496	3530.67
495.866	3557.11
496.235	3614.51
496.605	3622.64
496.974	3677.56
497.344	3721.17
497.713	3703.09
498.082	3754.62
498.452	3792.58
498.821	3792.36
499.19	3835.29
499.559	3855.86
499.928	3915.52
500.298	3932.24
500.667	3944.67
501.036	3904.45
501.405	3971.34
501.774	4026.25
502.143	4046.81
502.512	4056.98
502.88	4074.38
503.249	4040.26
503.618	4098.56
503.987	4136.3
504.356	4145.34
504.724	4163.87
505.093	4250.2
505.462	4172.69
505.83	4250.88
506.199	4294.49
506.567	4262.63
506.936	4312.12
507.304	4330.65
507.672	4359.35
508.041	4339.24
508.409	4431.44
508.777	4423.3
509.145	4482.06
509.514	4459.01
509.882	4506.46
510.25	4501.72
510.618	4547.14
510.986	4581.94
511.354	4574.26
511.722	4620.58
512.09	4646.35
512.458	4636.18
512.826	4641.15
513.193	4653.58
513.561	4689.51
513.929	4687.7
514.297	4748.04
514.664	4751.2
515.032	4749.17
515.4	4808.15
515.767	4824.42
516.135	4821.71
516.502	4807.25
516.869	4914.59
517.237	4899.45
517.604	4864.65
517.972	4906.23
518.339	4924.08
518.706	5002.95
519.073	4932.44
519.44	4974.7
519.808	5009.5
520.175	5020.8
520.542	5083.85
520.909	5037.07
521.276	5054.02
521.643	5131.31
522.009	5122.27
522.376	5159.33
522.743	5183.51
523.11	5242.94
523.477	5280.91
523.843	5339.66
524.21	5304.18
524.577	5351.86
524.943	5431.64
525.31	5361.81
525.676	5449.94
526.043	5505.31
526.409	5475.03
526.776	5540.33
527.142	5523.16
527.508	5605.87
527.874	5558.64
528.241	5620.56
528.607	5650.84
528.973	5681.8
529.339	5699.2
529.705	5728.35
530.071	5782.81
530.437	5843.6
530.803	5855.13
531.169	5885.64
531.535	5853.09
531.901	5931.96
532.267	5931.51
532.632	5927.67
532.998	5991.17
533.364	5995.24
533.73	6060.09
534.095	6077.27
534.461	6108.68
534.826	6134.22
535.192	6145.29
535.557	6185.52
535.923	6183.26
536.288	6182.35
536.653	6212.18
537.019	6188.23
537.384	6294.66
537.749	6324.72
538.114	6318.39
538.479	6356.81
538.845	6362.23
539.21	6362.23
539.575	6375.11
539.94	6413.53
540.305	6467.54
540.67	6439.29
541.034	6509.35
541.399	6535.56
541.764	6576.69
542.129	6592.28
542.494	6613.75
542.858	6697.37
543.223	6697.14
543.587	6724.03
543.952	6735.56
544.316	6764.71
544.681	6771.49
545.045	6847.87
545.41	6860.75
545.774	6810.36
546.138	6854.65
546.503	6901.88
546.867	6908.43
547.231	6935.1
547.595	6959.28
547.959	6945.27
548.324	7016.91
548.688	7043.57
549.052	7080.63
549.416	7094.87
549.779	7106.85
550.143	7063.68
550.507	7144.81
550.871	7247.86
551.235	7221.19
551.599	7181.42
551.962	7288.76
552.326	7323.11
552.689	7344.58
553.053	7281.53
553.417	7291.02
553.78	7420.51
554.143	7380.74
554.507	7431.36
554.87	7421.42
555.234	7475.2
555.597	7434.07
555.96	7532.37
556.323	7528.98
556.686	7556.33
557.05	7593.84
557.413	7630
557.776	7619.83
558.139	7655.76
558.502	7639.94
558.865	7704.8
559.228	7743.89
559.59	7689.88
559.953	7788.64
560.316	7909.31
560.679	7835.42
561.041	7882.42
561.404	7872.48
561.767	7932.14
562.129	7856.88
562.492	8071.12
562.854	8025.69
563.217	8034.73
563.579	8100.72
563.941	8126.71
564.304	8174.39
564.666	8203.99
565.028	8218.68
565.39	8178.68
565.753	8197.21
566.115	8253.48
566.477	8247.16
566.839	8332.58
567.201	8331.67
567.563	8396.53
567.925	8393.82
568.287	8515.17
568.648	8497.09
569.01	8533.93
569.372	8571.89
569.734	8582.06
570.095	8613.93
570.457	8688.95
570.819	8737.99
571.18	8724.21
571.542	8754.04
571.903	8740.48
572.265	8878.1
572.626	8908.16
572.987	8900.02
573.349	8982.28
573.71	9011.88
574.071	9122.16
574.432	9113.35
574.794	9184.31
575.155	9239.22
575.516	9181.14
575.877	9304.08
576.238	9314.7
576.599	9432.89
576.96	9522.15
577.32	9560.34
577.681	9559.66
578.042	9721.92
578.403	9774.8
578.763	9824.52
579.124	9962.82
579.485	10106.54
579.845	10221.12
580.206	10205.3
580.566	10384.05
580.927	10443.71
581.287	10568.22
581.648	10637.38
582.008	10788.33
582.368	10876.69
582.728	11005.28
583.089	11181.77
583.449	11307.87
583.809	11411.82
584.169	11613.85
584.529	11725.93
584.889	11952.6
585.249	12074.17
585.609	12251.8
585.969	12431
586.329	12596.19
586.688	12854.94
587.048	12959.8
587.408	13114.37
587.768	13344.2
588.127	13545.32
588.487	13737.63
588.846	14018.53
589.206	14131.75
589.565	14305.53
589.925	14575.35
590.284	14800.43
590.643	15013.53
591.003	15414.65
591.362	15576.68
591.721	15826.84
592.08	16114.07
592.44	16416.43
592.799	16564.9
593.158	16803.09
593.517	17034.95
593.876	17353.13
594.235	17609.17
594.593	17824.98
594.952	18195.37
595.311	18261.58
595.67	18739.31
596.029	18992.86
596.387	19271.95
596.746	19493.87
597.104	19678.95
597.463	19952.38
597.822	20427.63
598.18	20415.65
598.538	20598.24
598.897	21080.26
599.255	21125.24
599.613	21763.86
599.972	21938.77
600.33	22210.63
600.688	22315.49
601.046	22680.45
601.404	22929.93
601.762	23097.39
602.12	23471.39
602.478	23682.23
602.836	23985.27
603.194	23932.39
603.552	24389.56
603.91	24498.71
604.268	24865.25
604.625	24996.77
604.983	25238.8
605.341	25431.56
605.698	25852.57
606.056	26003.07
606.413	26116.06
606.771	26538.2
607.128	26670.17
607.485	26775.03
607.843	26979.09
608.2	27254.79
608.557	27660.2
608.914	27641.9
609.272	27868.56
609.629	28268.32
609.986	28436.46
610.343	28461.09
610.7	28854.3
611.057	29123.9
611.414	29099.04
611.771	29453.83
612.127	29598.46
612.484	29668.74
612.841	29979.69
613.198	30087.94
613.554	30145.11
613.911	30496.51
614.267	30589.39
614.624	30642.95
614.98	30997.74
615.337	31040.23
615.693	31317.06
616.05	31304.4
616.406	31634.79
616.762	31762.7
617.118	31728.57
617.475	31875.69
617.831	32186.87
618.187	32284.49
618.543	32330.36
618.899	32579.62
619.255	32628.21
619.611	32693.29
619.967	33004.92
620.323	33067.07
620.678	33097.8
621.034	33011.7
621.39	33159.5
621.746	33279.04
622.101	33832.25
622.457	33542.99
622.812	33672.02
623.168	33948.4
623.523	33934.84
623.879	34075.86
624.234	33992.69
624.589	34130.77
624.945	34215.96
625.3	34309.75
625.655	34338
626.01	34479.23
626.365	34489.18
626.72	34598.1
627.075	34633.58
627.43	34655.5
627.785	34813.24
628.14	34775.27
628.495	34817.76
628.85	34937.53
629.205	34830.19
629.559	35115.15
629.914	35074.7
630.269	35006
630.623	34991.54
630.978	34944.31
631.332	35211.87
631.687	35315.14
632.041	35236.28
632.396	35334.58
632.75	35197.86
633.104	35319.21
633.459	35212.1
633.813	35195.83
634.167	35158.09
634.521	35228.82
634.875	35334.13
635.229	35306.78
635.583	35086.68
635.937	35235.15
636.291	35208.71
636.645	35138.2
636.999	35126.68
637.352	35345.2
637.706	35115.38
638.06	35314.01
638.413	35168.71
638.767	35145.66
639.121	35236.95
639.474	35060.46
639.828	35133.23
640.181	35233.79
640.534	35235.15
640.888	35234.24
641.241	34947.47
641.594	35217.97
641.947	35238.31
642.301	35241.7
642.654	35048.71
643.007	35129.16
643.36	35124.42
643.713	35214.13
644.066	35198.76
644.419	34950.18
644.771	34682.17
645.124	34528.05
645.477	34433.36
645.83	34160.37
646.182	34224.55
646.535	33939.59
646.888	34115.63
647.24	34008.51
647.593	34166.25
647.945	34119.92
648.298	33915.86
648.65	33966.93
649.002	33735.53
649.355	33876.76
649.707	33792.7
650.059	34074.73
650.411	34443.76
650.763	34518.33
651.115	34804.42
651.467	34657.31
651.819	34676.74
652.171	34616.86
652.523	34650.08
652.875	34613.92
653.227	34530.53
653.578	34573.47
653.93	34458.67
654.282	34532.34
654.633	34378.45
654.985	34552.45
655.337	34512.91
655.688	34539.57
656.039	34632
656.391	34372.57
656.742	34331.67
657.094	34389.52
657.445	34601.94
657.796	34422.96
658.147	34407.15
658.498	34390.42
658.849	34402.17
659.2	34422.51
659.551	34380.48
659.902	34440.37
660.253	34364.44
660.604	34499.57
660.955	34353.59
661.306	34366.92
661.656	34300.48
662.007	34346.36
662.358	34365.11
662.708	34230.88
663.059	34322.85
663.409	34190.65
663.76	34399.69
664.11	34291.44
664.461	34436.75
664.811	34310.88
665.161	34318.56
665.511	34201.73
665.862	34333.25
666.212	34418.22
666.562	34410.08
666.912	34439.91
667.262	34285.79
667.612	34333.93
667.962	34232.24
668.312	34239.01
668.662	34338.67
669.011	34323.08
669.361	34116.08
669.711	34121.28
670.06	34142.97
670.41	34025.46
670.76	34129.87
671.109	34140.71
671.459	34104.33
671.808	34099.36
672.157	34223.2
672.507	33939.81
672.856	33922.41
673.205	34012.81
673.554	34046.48
673.904	34001.28
674.253	34211.22
674.602	34108.62
674.951	33529.66
675.3	33351.35
675.649	33817.78
675.998	33904.56
676.346	33888.29
676.695	33956.76
677.044	33721.29
677.393	33894.39
677.741	33846.71
678.09	33818.24
678.438	33794.96
678.787	33816.2
679.135	33657.79
679.484	33632.03
679.832	33741.4
680.181	33663.44
680.529	33778.46
680.877	33538.02
681.225	33531.91
681.573	33724.68
681.922	33502.54
682.27	33442.65
682.618	33411.01
682.966	33439.04
683.314	33439.49
683.661	33399.26
684.009	33207.86
684.357	33203.56
684.705	33057.13
685.053	33054.41
685.4	33023.23
685.748	32935.55
686.095	32801.54
686.443	32876.34
686.79	32620.75
687.138	32755.66
687.485	32815.32
687.832	32724.03
688.18	32806.06
688.527	32629.79
688.874	32404.71
689.221	32498.72
689.568	32329.46
689.915	32269.35
690.262	32143.93
690.609	32149.58
690.956	32092.86
691.303	32098.28
691.65	31920.88
691.997	31834.78
692.344	31583.04
692.69	31592.3
693.037	31765.18
693.383	31343.05
693.73	31543.94
694.077	31420.78
694.423	31426.89
694.769	31217.17
695.116	31112.54
695.462	31153.45
695.808	31088.82
696.155	31104.18
696.501	30970.4
696.847	30918.2
697.193	30685.21
697.539	30758.88
697.885	30519.56
698.231	30541.71
698.577	30422.62
698.923	30434.14
699.269	30258.78
699.614	29950.09
699.96	29997.09
700.306	30108.28
700.651	30025.11
700.997	29799.13
701.342	29795.97
701.688	29829.41
702.033	29674.62
702.379	29670.32
702.724	29570.44
703.069	29630.1
703.415	29359.82
703.76	29310.33
704.105	29376.09
704.45	29250.67
704.795	29218.81
705.14	29062.43
705.485	28972.94
705.83	29002.09
706.175	28996.44
706.52	28929.55
706.865	28792.6
707.209	28668.99
707.554	28691.36
707.899	28599.62
708.243	28508.77
708.588	28487.08
708.932	28337.02
709.277	28385.84
709.621	28270.36
709.966	28181.1
710.31	28124.15
710.654	27971.61
710.998	28011.16
711.342	27976.13
711.687	28028.78
712.031	27639.87
712.375	27657.04
712.719	27745.4
713.063	27743.37
713.407	27695.91
713.75	27563.26
714.094	27587.21
714.438	27399.87
714.782	27550.83
715.125	27289.82
715.469	27320.1
715.812	27190.16
716.156	27103.16
716.499	27202.14
716.843	27138.41
717.186	26956.04
717.53	27128.02
717.873	27143.38
718.216	27010.05
718.559	26922.37
718.902	26625.66
719.246	26709.27
719.589	26787.01
719.932	26535.94
720.275	26613.68
720.617	26650.74
720.96	26512.44
721.303	26542.27
721.646	26438.09
721.989	26350.18
722.331	26447.13
722.674	26263.86
723.016	26291.2
723.359	26295.5
723.701	26293.24
724.044	26029.29
724.386	25867.26
724.729	26078.78
725.071	26013.02
725.413	25918.1
725.755	25936.41
726.097	25864.77
726.439	25743.87
726.782	25825.68
727.124	25782.29
727.465	25664.78
727.807	25676.98
728.149	25622.74
728.491	25594.04
728.833	25733.7
729.175	25536.87
729.516	25567.38
729.858	25530.54
730.199	25417.55
730.541	25312.7
730.882	25352.47
731.224	25436.76
731.565	25300.94
731.906	25366.93
732.248	25136.88
732.589	25202.64
732.93	25051.46
733.271	25146.6
733.612	25036.77
733.953	25053.72
734.294	24947.73
734.635	24919.03
734.976	24996.55
735.317	24793.16
735.658	24750.68
735.999	24853.05
736.339	24809.66
736.68	24816.66
737.021	24674.75
737.361	24673.16
737.702	24777.79
738.042	24715.65
738.383	24531.93
738.723	24578.7
739.063	24584.81
739.404	24584.35
739.744	24433.17
740.084	24359.05
740.424	24511.59
740.764	24316.11
741.104	24432.95
741.444	24176.68
741.784	24274.76
742.124	24196.34
742.464	24214.87
742.804	24157.25
743.143	24095.55
743.483	24022.33
743.823	23952.73
744.162	23952.05
744.502	24007.87
744.841	23912.73
745.181	24011.71
745.52	23787.76
745.86	23827.09
746.199	23806.29
746.538	23652.63
746.877	23822.79
747.216	23742.79
747.556	23679.29
747.895	23759.97
748.234	23589.13
748.573	23565.4
748.911	23674.1
749.25	23582.12
749.589	23447.89
749.928	23488.11
750.267	23443.59
750.605	23404.27
750.944	23369.47
751.283	23293.31
751.621	23345.29
751.96	23110.49
752.298	23178.97
752.636	23207.67
752.975	23025.52
753.313	23032.08
753.651	23164.96
753.989	22846.09
754.327	22915.47
754.666	22825.08
755.004	22819.88
755.342	22832.54
755.679	22793.21
756.017	22688.36
756.355	22743.05
756.693	22565.65
757.031	22676.16
757.368	22494.69
757.706	22496.5
758.044	22411.08
758.381	22428.25
758.719	22217.18
759.056	22353.23
759.394	22231.87
759.731	22142.38
760.068	22091.09
760.405	22037.98
760.743	21969.28
761.08	21919.79
761.417	21832.79
761.754	21759.12
762.091	21715.28
762.428	21637.09
762.765	21490.88
763.102	21563.64
763.438	21478.9
763.775	21336.53
764.112	21354.38
764.449	21364.1
764.785	21332.69
765.122	21101.51
765.458	21016.31
765.795	21045.92
766.131	20990.32
766.467	20926.6
766.804	20826.03
767.14	20719.37
767.476	20820.84
767.812	20637.79
768.148	20790.56
768.485	20606.15
768.821	20480.05
769.157	20408.64
769.492	20388.53
769.828	20470.56
770.164	20160.29
770.5	20120.52
770.836	20159.61
771.171	20016.56
771.507	20004.59
771.842	19796.23
772.178	19819.06
772.513	19802.33
772.849	19714.65
773.184	19553.75
773.519	19573.86
773.855	19532.96
774.19	19438.5
774.525	19315.57
774.86	19351.95
775.195	19343.14
775.53	19204.83
775.865	19103.37
776.2	19036.02
776.535	18843.49
776.87	18875.8
777.205	18752.64
777.539	18740.21
777.874	18734.56
778.209	18600.33
778.543	18510.84
778.878	18466.32
779.212	18373.44
779.547	18341.81
779.881	18323.5
780.215	18342.03
780.55	18226.55
780.884	18069.5
781.218	18164.64
781.552	18083.28
781.886	17914.47
782.22	17863.85
782.554	17772.33
782.888	17626.8
783.222	17613.24
783.556	17486.01
783.889	17598.55
784.223	17311.55
784.557	17343.87
784.89	17361.72
785.224	17297.99
785.557	17213.25
785.891	17115.85
786.224	17005.12
786.558	17058.22
786.891	16832.24
787.224	16947.49
787.557	16707.72
787.891	16681.28
788.224	16734.16
788.557	16591.57
788.89	16593.6
789.223	16616.65
789.556	16432.03
789.888	16462.53
790.221	16352.03
790.554	16283.78
790.887	16207.4
791.219	16176.21
791.552	16089.44
791.884	16074.52
792.217	16026.84
792.549	15878.59
792.882	15931.47
793.214	15768.77
793.546	15812.15
793.879	15706.39
794.211	15660.52
794.543	15754.08
794.875	15545.27
795.207	15711.37
795.539	15529.68
795.871	15561.31
796.203	15345.73
796.535	15306.86
796.867	15235.9
797.198	15207.42
797.53	15315.67
797.862	15146.41
798.193	15109.57
798.525	15064.15
798.856	15020.76
799.188	14943.48
799.519	14899.41
799.85	14801.79
800.182	14850.6
800.513	14896.02
800.844	14613.54
801.175	14692.64
801.506	14637.72
801.837	14606.08
802.168	14581.68
802.499	14503.49
802.83	14432.08
803.161	14363.38
803.491	14355.92
803.822	14477.95
804.153	14360.89
804.483	14147.11
804.814	14151.41
805.145	14159.77
805.475	14134.23
805.805	14096.27
806.136	13962.71
806.466	14166.32
806.796	14029.38
807.126	13891.53
807.457	13902.83
807.787	13872.54
808.117	13781.25
808.447	13704.41
808.777	13796.16
809.107	13626.22
809.436	13680.91
809.766	13680.23
810.096	13599.33
810.426	13518.43
810.755	13625.77
811.085	13498.77
811.414	13486.57
811.744	13348.04
812.073	13348.72
812.403	13406.79
812.732	13287.7
813.061	13268.94
813.39	13276.18
813.719	13207.03
814.049	13235.05
814.378	13197.31
814.707	13134.26
815.036	13049.74
815.365	12994.15
815.693	12922.74
816.022	12924.55
816.351	12881.16
816.68	12806.13
817.008	12852.01
817.337	12781.05
817.665	12711.45
817.994	12751.67
818.322	12682.97
818.651	12663.54
818.979	12616.08
819.307	12641.62
819.636	12546.03
819.964	12586.25
820.292	12583.09
820.62	12600.94
820.948	12526.59
821.276	12492.92
821.604	12459.25
821.932	12479.36
822.259	12546.7
822.587	12449.31
822.915	12404.33
823.243	12511.45
823.57	12488.85
823.898	12474.84
824.225	12373.83
824.553	12409.53
824.88	12488.17
825.207	12469.42
825.535	12423.77
825.862	12444.11
826.189	12373.6
826.516	12465.12
826.843	12453.6
827.17	12429.64
827.497	12443.88
827.824	12456.54
828.151	12488.4
828.478	12465.12
828.805	12460.6
829.131	12383.32
829.458	12418.8
829.785	12313.49
830.111	12371.34
830.438	12432.36
830.764	12372.92
831.09	12433.26
831.417	12314.62
831.743	12362.53
832.069	12403.66
832.395	12327.73
832.722	12378.8
833.048	12322.76
833.374	12310.78
833.7	12207.96
834.026	12238.92
834.351	12378.57
834.677	12234.4
835.003	12270.78
835.329	12247.95
835.654	12194.17
835.98	12094.74
836.306	12198.46
836.631	12120.27
836.956	12201.18
837.282	12122.53
837.607	12023.33
837.932	12121.63
838.258	12059.03
838.583	12000.96
838.908	11955.08
839.233	12037.11
839.558	12031.46
839.883	11901.75
840.208	11879.6
840.533	11951.24
840.858	11937
841.182	11874.41
841.507	11861.52
841.832	11810.23
842.156	11774.97
842.481	11863.78
842.805	11834.86
843.13	11706.27
843.454	11779.49
843.778	11690.91
844.103	11658.82
844.427	11645.48
844.751	11635.32
845.075	11508.54
845.399	11545.83
845.723	11496.11
846.047	11504.7
846.371	11454.53
846.695	11413.85
847.019	11311.93
847.343	11309
847.666	11253.86
847.99	11180.86
848.313	11152.16
848.637	11121.88
848.96	11097.02
849.284	11049.79
849.607	10945.39
849.931	10888.22
850.254	10904.26
850.577	10882.34
850.9	10736.81
851.223	10735.23
851.546	10669.92
851.869	10658.39
852.192	10751.27
852.515	10550.15
852.838	10550.37
853.161	10553.76
853.483	10480.77
853.806	10512.86
854.129	10339.98
854.451	10302.7
854.774	10338.4
855.096	10241.23
855.419	10255.69
855.741	10202.81
856.063	10226.09
856.385	10228.35
856.708	10079.2
857.03	10023.83
857.352	10191.51
857.674	10072.42
857.996	10056.83
858.318	9949.71
858.64	9943.38
858.961	9962.59
859.283	9839.66
859.605	9788.81
859.926	9839.88
860.248	9805.08
860.57	9789.94
860.891	9795.14
861.212	9777.06
861.534	9702.94
861.855	9711.07
862.176	9709.94
862.498	9662.26
862.819	9713.33
863.14	9641.7
863.461	9674.69
863.782	9551.75
864.103	9587.01
864.424	9479.44
864.745	9531.64
865.065	9504.52
865.386	9462.94
865.707	9455.03
866.027	9605.09
866.348	9444.64
866.668	9418.65
866.989	9433.34
867.309	9335.71
867.63	9373.68
867.95	9311.53
868.27	9288.48
868.59	9310.86
868.91	9305.66
869.23	9298.65
869.55	9199
869.87	9278.99
870.19	9236.96
870.51	9255.72
870.83	9293.23
871.15	9172.33
871.469	9133.01
871.789	9234.47
872.109	9190.18
872.428	9099.79
872.748	9142.73
873.067	9203.74
873.386	9119.22
873.706	9125.55
874.025	9029.96
874.344	9016.4
874.663	9034.25
874.982	8969.62
875.301	8994.48
875.62	8993.35
875.939	8951.77
876.258	8915.84
876.577	8916.29
876.896	8973.92
877.214	8886.01
877.533	8925.33
877.852	8832.68
878.17	8853.69
878.489	8881.04
878.807	8813.02
879.125	8803.75
879.444	8810.08
879.762	8797.65
880.08	8829.29
880.398	8691.44
880.716	8734.83
881.034	8687.14
881.352	8683.98
881.67	8678.33
881.988	8673.13
882.306	8695.73
882.624	8679.46
882.941	8574.61
883.259	8543.65
883.577	8563.31
883.894	8556.3
884.212	8581.61
884.529	8495.74
884.846	8545.68
885.164	8532.12
885.481	8505.23
885.798	8483.76
886.115	8424.55
886.432	8460.94
886.75	8445.57
887.067	8393.82
887.383	8305.69
887.7	8338.91
888.017	8277.21
888.334	8308.4
888.651	8255.74
888.967	8256.65
889.284	8249.42
889.6	8259.13
889.917	8145.46
890.233	8180.04
890.55	8149.98
890.866	8150.66
891.182	8075.86
891.498	8070.66
891.815	8100.04
892.131	8068.86
892.447	8046.94
892.763	7958.8
893.079	7945.24
893.395	7947.5
893.71	7893.49
894.026	7883.78
894.342	7904.79
894.657	7824.12
894.973	7777.11
895.289	7773.04
895.604	7795.64
895.92	7732.59
896.235	7679.26
896.55	7672.03
896.865	7679.94
897.181	7673.39
897.496	7619.6
897.811	7589.77
898.126	7537.34
898.441	7491.24
898.756	7474.29
899.071	7440.17
899.386	7507.06
899.7	7405.37
900.015	7341.19
900.33	7335.09
900.644	7297.35
900.959	7297.58
901.273	7243.57
901.588	7240.85
901.902	7213.06
902.216	7157.69
902.531	7166.05
902.845	7100.29
903.159	7085.38
903.473	7050.13
903.787	7028.43
904.101	7019.17
904.415	7091.93
904.729	6969.22
905.042	6957.7
905.356	6940.52
905.67	6931.71
905.984	6939.62
906.297	6944.14
906.611	6820.98
906.924	6851.03
907.237	6837.25
907.551	6795.89
907.864	6773.97
908.177	6714.77
908.491	6686.52
908.804	6659.85
909.117	6685.62
909.43	6631.61
909.743	6599.97
910.056	6568.56
910.368	6567.88
910.681	6519.29
910.994	6525.85
911.307	6499.63
911.619	6411.27
911.932	6428.9
912.244	6393.65
912.557	6410.82
912.869	6371.5
913.181	6342.12
913.494	6276.13
913.806	6228.68
914.118	6306.64
914.43	6217.15
914.742	6164.72
915.054	6126.53
915.366	6118.4
915.678	6105.52
915.99	6126.76
916.302	6054.45
916.613	6085.63
916.925	5995.92
917.236	5977.39
917.548	6002.02
917.859	5960.44
918.171	5915.01
918.482	5887.44
918.794	5888.57
919.105	5877.27
919.416	5851.29
919.727	5793.89
920.038	5785.3
920.349	5745.98
920.66	5679.09
920.971	5710.95
921.282	5681.57
921.593	5621.46
921.903	5597.96
922.214	5627.79
922.525	5557.96
922.835	5526.55
923.146	5503.95
923.456	5453.11
923.767	5457.4
924.077	5484.06
924.387	5477.51
924.697	5357.06
925.008	5364.52
925.318	5401.36
925.628	5353.22
925.938	5320.91
926.248	5269.16
926.558	5302.83
926.867	5276.61
927.177	5249.27
927.487	5232.09
927.796	5174.02
928.106	5186.22
928.416	5175.37
928.725	5124.07
929.034	5124.53
929.344	5057.86
929.653	5080.23
929.962	5043.17
930.271	5056.73
930.581	5014.7
930.89	4975.38
931.199	4909.39
931.508	4974.93
931.817	4967.47
932.125	4883.85
932.434	4862.16
932.743	4821.94
933.051	4828.71
933.36	4810.64
933.669	4823.97
933.977	4741.71
934.286	4736.51
934.594	4748.04
934.902	4694.93
935.21	4654.26
935.519	4718.89
935.827	4612.68
936.135	4634.14
936.443	4583.98
936.751	4541.04
937.059	4572.9
937.367	4546.01
937.674	4533.81
937.982	4526.58
938.29	4526.58
938.597	4503.75
938.905	4474.37
939.213	4484.32
939.52	4421.72
939.827	4442.96
940.135	4400.93
940.442	4422.4
940.749	4340.14
941.056	4308.28
941.363	4276.19
941.67	4300.82
941.977	4329.07
942.284	4238.45
942.591	4251.33
942.898	4222.18
943.205	4230.31
943.511	4184.21
943.818	4159.35
944.125	4142.41
944.431	4126.59
944.738	4089.75
945.044	4110.32
945.35	4088.4
945.657	4071.67
945.963	4058.57
946.269	4031.45
946.575	4015.18
946.881	3969.53
947.187	3955.07
947.493	3952.81
947.799	3903.77
948.105	3958.23
948.41	3895.18
948.716	3890.66
949.022	3888.63
949.327	3858.34
949.633	3823.54
949.938	3859.47
950.244	3856.09
950.549	3744.68
950.854	3798.23
951.16	3781.51
951.465	3737.44
951.77	3704.45
952.075	3695.19
952.38	3711.68
952.685	3718.24
952.99	3631.68
953.294	3649.76
953.599	3630.33
953.904	3609.09
954.209	3567.96
954.513	3593.95
954.818	3572.48
955.122	3570.44
955.426	3529.09
955.731	3529.99
956.035	3499.94
956.339	3498.13
956.643	3516.21
956.948	3459.03
957.252	3523.89
957.556	3440.28
957.86	3431.46
958.163	3404.8
958.467	3375.65
958.771	3389.43
959.075	3398.92
959.378	3320.05
959.682	3356.21
959.985	3323.44
960.289	3314.18
960.592	3268.3
960.896	3277.8
961.199	3268.08
961.502	3253.39
961.805	3233.73
962.108	3251.81
962.411	3216.78
962.714	3208.64
963.017	3187.63
963.32	3164.13
963.623	3159.15
963.926	3144.47
964.228	3114.64
964.531	3073.96
964.833	3121.19
965.136	3077.12
965.438	3092.49
965.741	3070.79
966.043	3079.38
966.345	3024.92
966.648	3068.54
966.95	3003.9
967.252	3007.75
967.554	2962.78
967.856	2987.63
968.158	2930.23
968.46	2949.89
968.761	2959.16
969.063	2917.58
969.365	2925.04
969.666	2909.9
969.968	2854.53
970.269	2872.61
970.571	2867.64
970.872	2836.9
971.174	2828.77
971.475	2828.77
971.776	2779.73
972.077	2827.19
972.378	2790.8
972.679	2749
972.98	2774.53
973.281	2756.68
973.582	2774.76
973.883	2738.6
974.183	2722.33
974.484	2705.15
974.785	2722.56
975.085	2670.13
975.386	2682.56
975.686	2637.36
975.986	2662.22
976.287	2623.35
976.587	2615.44
976.887	2635.1
977.187	2593.75
977.487	2549.23
977.787	2562.33
978.087	2593.52
978.387	2574.76
978.687	2548.55
978.987	2563.24
979.286	2495.44
979.586	2497.02
979.885	2506.52
980.185	2485.05
980.484	2478.49
980.784	2498.61
981.083	2450.25
981.382	2473.97
981.682	2442.34
981.981	2421.32
982.28	2434.65
982.579	2403.02
982.878	2399.17
983.177	2396.24
983.475	2396.91
983.774	2342.45
984.073	2364.15
984.372	2342.23
984.67	2363.24
984.969	2328.44
985.267	2328.44
985.566	2319.63
985.864	2291.83
986.162	2261.32
986.461	2255.22
986.759	2260.42
987.057	2274.88
987.355	2287.31
987.653	2232.4
987.951	2254.09
988.249	2205.51
988.547	2183.13
988.844	2213.87
989.142	2197.6
989.44	2170.48
989.737	2161.89
990.035	2169.35
990.332	2153.53
990.63	2150.14
990.927	2111.27
991.224	2150.14
991.521	2099.52
991.819	2110.59
992.116	2082.57
992.413	2070.6
992.71	2076.7
993.006	2086.19
993.303	2070.37
993.6	2052.97
993.897	2037.15
994.193	2038.05
994.49	1991.95
994.787	2023.14
995.083	1997.38
995.379	1970.71
995.676	2004.38
995.972	2010.48
996.268	1966.64
996.565	1956.47
996.861	1950.15
997.157	1944.5
997.453	1932.52
997.749	1923.93
998.044	1906.98
998.34	1894.55
998.636	1893.2
998.932	1864.05
999.227	1874.44
999.523	1859.53
999.818	1849.36
1000.114	1842.58
1000.409	1846.19
1000.704	1832.64
1001	1841
1001.295	1803.48
1001.59	1800.77
1001.885	1790.38
1002.18	1777.04
1002.475	1779.08
1002.77	1795.35
1003.065	1765.52
1003.359	1734.56
1003.654	1756.48
1003.949	1738.4
1004.243	1718.06
1004.538	1704.5
1004.832	1702.24
1005.127	1704.96
1005.421	1639.87
1005.715	1673.09
1006.009	1683.49
1006.304	1669.48
1006.598	1632.41
1006.892	1664.96
1007.186	1640.78
1007.48	1639.65
1007.773	1624.28
1008.067	1618.4
1008.361	1591.06
1008.655	1583.6
1008.948	1604.17
1009.242	1562.59
1009.535	1541.57
1009.829	1551.51
1010.122	1537.28
1010.415	1511.51
1010.708	1509.93
1011.001	1520.55
1011.295	1487.11
1011.588	1506.99
1011.881	1502.93
1012.173	1481.01
1012.466	1470.16
1012.759	1454.34
1013.052	1465.87
1013.344	1441.91
1013.637	1443.04
1013.93	1432.87
1014.222	1425.19
1014.514	1414.12
1014.807	1403.27
1015.099	1394.91
1015.391	1393.78
1015.683	1376.83
1015.976	1383.16
1016.268	1376.15
1016.56	1366.88
1016.851	1343.16
1017.143	1354.68
1017.435	1350.61
1017.727	1355.13
1018.018	1347.22
1018.31	1310.39
1018.602	1306.1
1018.893	1307
1019.185	1276.72
1019.476	1294.34
1019.767	1300.22
1020.058	1261.13
1020.35	1270.16
1020.641	1252.09
1020.932	1227.23
1021.223	1261.8
1021.514	1230.84
1021.804	1212.76
1022.095	1211.18
1022.386	1225.42
1022.677	1187.91
1022.967	1210.05
1023.258	1211.63
1023.548	1163.73
1023.839	1155.82
1024.129	1172.31
1024.419	1180.45
1024.709	1162.14
1025	1151.07
1025.29	1129.6
1025.58	1125.76
1025.87	1100.23
1026.16	1115.59
1026.449	1088.7
1026.739	1091.86
1027.029	1106.33
1027.319	1086.67
1027.608	1107.23
1027.898	1073.56
1028.187	1073.56
1028.477	1055.48
1028.766	1068.14
1029.055	1070.4
1029.344	1029.04
1029.634	1046.67
1029.923	1013.67
1030.212	1028.36
1030.501	1037.85
1030.79	1002.15
1031.078	992.66
1031.367	992.66
1031.656	997.4
1031.945	982.49
1032.233	972.09
1032.522	947.91
1032.81	979.1
1033.099	955.82
1033.387	961.25
1033.675	955.37
1033.963	935.26
1034.251	930.96
1034.54	937.07
1034.828	935.94
1035.116	913.11
1035.403	926.67
1035.691	898.87
1035.979	916.5
1036.267	900.23
1036.554	895.26
1036.842	887.12
1037.129	862.72
1037.417	861.14
1037.704	860.68
1037.992	854.58
1038.279	861.81
1038.566	868.14
1038.853	868.14
1039.14	868.14
