Data from hue_210_FLMS001491_00030.txt Node
Date: Tue Feb 07 16:40:58 GMT 2017
User: dcchb
Spectrometer: FLMS00149
Trigger mode: 0
Integration Time (sec): 2.000000E-2
Scans to average: 10
Electric dark correction enabled: true
Nonlinearity correction enabled: false
Boxcar width: 0
XAxis mode: Wavelengths
Number of Pixels in Spectrum: 2048
>>>>>Begin Spectral Data<<<<<
341.393	-1.4
341.776	-1.4
342.16	-1.4
342.543	-91.34
342.927	-82.53
343.31	-81.17
343.693	-77.1
344.077	-57.22
344.46	-58.8
344.843	-49.76
345.226	-42.98
345.61	-39.82
345.993	-7.73
346.376	-0.27
346.759	16
347.142	40.41
347.525	35.89
347.908	46.74
348.291	86.74
348.674	83.12
349.057	105.94
349.44	133.06
349.823	122.21
350.206	162.21
350.588	174.64
350.971	199.05
351.354	206.28
351.737	216.9
352.119	252.15
352.502	263.68
352.884	243.12
353.267	283.79
353.65	290.57
354.032	304.81
354.414	296.67
354.797	309.1
355.179	311.36
355.562	319.05
355.944	329.21
356.326	307.97
356.709	328.08
357.091	314.53
357.473	353.17
357.855	341.64
358.238	327.18
358.62	332.15
359.002	338.71
359.384	334.64
359.766	322.21
360.148	350.23
360.53	333.06
360.912	333.73
361.294	339.16
361.676	342.77
362.057	302.77
362.439	338.48
362.821	333.96
363.203	326.5
363.584	314.98
363.966	310.91
364.348	321.76
364.729	302.32
365.111	290.8
365.493	299.16
365.874	314.3
366.256	289.89
366.637	295.32
367.019	309.1
367.4	289.22
367.781	304.13
368.163	312.04
368.544	305.49
368.925	312.72
369.306	300.51
369.688	316.33
370.069	303.68
370.45	318.14
370.831	328.54
371.212	300.06
371.593	310.46
371.974	314.3
372.355	309.33
372.736	318.59
373.117	298.93
373.498	317.69
373.879	288.99
374.26	313.62
374.641	306.62
375.021	290.57
375.402	320.85
375.783	298.71
376.163	308.65
376.544	329.89
376.925	324.24
377.305	329.67
377.686	324.47
378.066	335.99
378.447	303
378.827	317.46
379.208	331.93
379.588	326.5
379.968	348.65
380.349	318.59
380.729	319.95
381.109	341.87
381.489	330.12
381.87	335.32
382.25	325.37
382.63	321.76
383.01	336.22
383.39	323.11
383.77	337.8
384.15	347.07
384.53	328.76
384.91	326.5
385.29	333.06
385.67	341.64
386.049	342.32
386.429	347.29
386.809	345.94
387.189	336.22
387.568	344.58
387.948	333.28
388.328	345.49
388.707	331.7
389.087	361.08
389.466	352.26
389.846	366.95
390.225	349.55
390.605	344.81
390.984	358.37
391.363	371.25
391.743	358.59
392.122	361.53
392.501	379.83
392.881	371.93
393.26	362.66
393.639	364.47
394.018	388.2
394.397	386.61
394.776	380.06
395.155	378.7
395.534	357.46
395.913	380.74
396.292	359.04
396.671	380.06
397.05	393.62
397.429	388.2
397.808	401.98
398.186	401.53
398.565	385.94
398.944	383.22
399.323	414.18
399.701	399.27
400.08	418.03
400.458	416.9
400.837	404.24
401.215	404.01
401.594	414.41
401.972	410.12
402.351	414.18
402.729	419.61
403.107	407.63
403.486	419.16
403.864	452.38
404.242	428.42
404.62	430.23
404.999	423.22
405.377	434.3
405.755	450.57
406.133	423
406.511	452.38
406.889	439.95
407.267	455.54
407.645	487.4
408.023	456.89
408.401	458.02
408.779	488.31
409.156	503.22
409.534	493.73
409.912	502.09
410.29	521.3
410.667	518.81
411.045	546.38
411.422	538.7
411.8	547.97
412.178	550
412.555	532.6
412.933	548.19
413.31	575.31
413.687	594.52
414.065	596.78
414.442	582.09
414.819	617.12
415.197	609.66
415.574	646.04
415.951	615.53
416.328	615.99
416.705	652.14
417.082	653.73
417.46	668.87
417.837	661.41
418.214	664.8
418.591	696.21
418.967	701.41
419.344	702.09
419.721	711.8
420.098	710.9
420.475	738.7
420.852	747.96
421.228	757.9
421.605	764.01
421.982	781.18
422.358	787.73
422.735	800.61
423.111	801.97
423.488	837.9
423.864	840.61
424.241	855.08
424.617	894.17
424.994	893.95
425.37	885.81
425.746	932.14
426.123	940.5
426.499	973.49
426.875	950.89
427.251	996.09
427.627	978.46
428.003	994.73
428.379	997.67
428.756	1029.31
429.132	1008.97
429.507	1032.92
429.883	1056.88
430.259	1089.19
430.635	1060.04
431.011	1089.87
431.387	1112.02
431.763	1144.56
432.138	1138.46
432.514	1152.92
432.89	1206.25
433.265	1222.3
433.641	1211.9
434.016	1274.73
434.392	1265.69
434.767	1293.71
435.143	1285.35
435.518	1303.2
435.894	1359.24
436.269	1375.97
436.644	1408.28
437.02	1438.56
437.395	1400.15
437.77	1453.7
438.145	1481.27
438.52	1492.35
438.895	1537.77
439.271	1561.72
439.646	1563.31
440.021	1608.28
440.395	1618.9
440.77	1614.83
441.145	1627.49
441.52	1683.08
441.895	1675.85
442.27	1719.69
442.645	1722.17
443.019	1776.41
443.394	1770.31
443.769	1766.01
444.143	1758.78
444.518	1806.46
444.892	1826.8
445.267	1816.86
445.641	1868.38
446.016	1885.11
446.39	1853.02
446.764	1897.53
447.139	1936.86
447.513	1905.67
447.887	1940.02
448.262	1938.21
448.636	1959.68
449.01	1984.31
449.384	2000.81
449.758	2050.3
450.132	2040.81
450.506	2042.16
450.88	2036.97
451.254	2085.33
451.628	2112.67
452.002	2103.63
452.376	2123.97
452.75	2184.08
453.123	2159.45
453.497	2210.97
453.871	2214.81
454.244	2256.85
454.618	2289.39
454.992	2298.65
455.365	2329.84
455.739	2391.76
456.112	2392.89
456.486	2403.28
456.859	2454.13
457.232	2456.16
457.606	2476.73
457.979	2501.13
458.352	2568.7
458.725	2596.5
459.099	2577.07
459.472	2621.81
459.845	2638.31
460.218	2683.73
460.591	2721.69
460.964	2687.57
461.337	2777.29
461.71	2803.05
462.083	2809.6
462.456	2837.4
462.829	2857.74
463.201	2900.67
463.574	2923.27
463.947	2956.26
464.32	3061.57
464.692	3061.57
465.065	3051.85
465.438	3109.25
465.81	3156.94
466.183	3187.9
466.555	3240.32
466.928	3241.68
467.3	3234.9
467.672	3339.53
468.045	3385.18
468.417	3380.89
468.789	3405.74
469.161	3475.35
469.534	3526.87
469.906	3583.82
470.278	3616.81
470.65	3610.03
471.022	3663.36
471.394	3763.93
471.766	3756.92
472.138	3835.11
472.51	3897.93
472.882	3922.34
473.253	3964.15
473.625	4003.92
473.997	4080.98
474.369	4093.64
474.74	4160.98
475.112	4230.35
475.484	4283.46
475.855	4360.52
476.227	4392.16
476.598	4466.96
476.97	4509.67
477.341	4593.28
477.713	4668.54
478.084	4689.78
478.455	4819.49
478.827	4870.56
479.198	4988.98
479.569	4932.26
479.94	5073.5
480.311	5166.6
480.682	5255.86
481.053	5371.79
481.424	5391
481.795	5431.68
482.166	5526.82
482.537	5555.07
482.908	5718.68
483.279	5734.5
483.65	5837.32
484.021	5921.61
484.391	5995.05
484.762	5983.3
485.133	6070.08
485.503	6111.66
485.874	6234.6
486.244	6323.41
486.615	6337.87
486.985	6430.75
487.356	6566.34
487.726	6642.04
488.097	6699.22
488.467	6755.26
488.837	6871.42
489.207	6898.53
489.578	6965.2
489.948	6967.23
490.318	7135.82
490.688	7133.56
491.058	7236.15
491.428	7263.5
491.798	7370.61
492.168	7460.33
492.538	7502.13
492.908	7583.26
493.278	7670.72
493.648	7605.86
494.017	7739.64
494.387	7829.36
494.757	7903.93
495.126	7913.65
495.496	7943.25
495.866	7942.12
496.235	8059.63
496.605	8075.9
496.974	8108.67
497.344	8184.38
497.713	8190.48
498.082	8251.72
498.452	8321.77
498.821	8407.42
499.19	8372.39
499.559	8367.65
499.928	8418.27
500.298	8470.92
500.667	8556.34
501.036	8565.61
501.405	8573.74
501.774	8557.47
502.143	8592.05
502.512	8591.14
502.88	8740.52
503.249	8681.09
503.618	8758.37
503.987	8735.1
504.356	8742.1
504.724	8818.26
505.093	8871.59
505.462	8842.89
505.83	8895.99
506.199	8915.43
506.567	8991.13
506.936	8986.61
507.304	9046.27
507.672	9117.91
508.041	9108.64
508.409	9118.59
508.777	9139.15
509.145	9205.37
509.514	9142.32
509.882	9242.2
510.25	9215.53
510.618	9272.03
510.986	9229.32
511.354	9312.93
511.722	9303.44
512.09	9383.89
512.458	9424.57
512.826	9390.45
513.193	9423.66
513.561	9365.36
513.929	9459.82
514.297	9461.18
514.664	9447.62
515.032	9492.59
515.4	9513.83
515.767	9522.42
516.135	9538.46
516.502	9441.74
516.869	9573.72
517.237	9637.9
517.604	9521.06
517.972	9577.78
518.339	9612.81
518.706	9581.4
519.073	9652.59
519.44	9642.64
519.808	9655.3
520.175	9620.72
520.542	9751.34
520.909	9719.02
521.276	9661.4
521.643	9659.59
522.009	9748.4
522.376	9710.66
522.743	9763.99
523.11	9797.67
523.477	9839.25
523.843	9813.94
524.21	9853.71
524.577	9857.78
524.943	9871.79
525.31	9853.03
525.676	9857.78
526.043	9911.34
526.409	9915.18
526.776	9953.14
527.142	10010.99
527.508	9964.67
527.874	9968.06
528.241	9953.14
528.607	9963.99
528.973	9985.91
529.339	9934.39
529.705	10041.95
530.071	10020.26
530.437	9939.36
530.803	9989.53
531.169	10012.58
531.535	9946.36
531.901	9957.21
532.267	9898.23
532.632	9928.06
532.998	10000.82
533.364	9949.53
533.73	9874.27
534.095	9919.7
534.461	9871.34
534.826	9881.96
535.192	9915.18
535.557	9867.72
535.923	9831.34
536.288	9790.21
536.653	9742.53
537.019	9691
537.384	9724
537.749	9757.89
538.114	9703.88
538.479	9638.35
538.845	9695.3
539.21	9594.51
539.575	9606.03
539.94	9565.36
540.305	9604
540.67	9545.47
541.034	9463.66
541.399	9514.74
541.764	9458.01
542.129	9424.79
542.494	9448.07
542.858	9436.77
543.223	9354.06
543.587	9429.09
543.952	9313.39
544.316	9362.88
544.681	9281.75
545.045	9284.23
545.41	9206.5
545.774	9255.53
546.138	9174.86
546.503	9170.34
546.867	9115.65
547.231	9099.15
547.595	9098.02
547.959	9122.88
548.324	9026.39
548.688	8978.93
549.052	9028.19
549.416	8990.91
549.779	8911.36
550.143	8970.8
550.507	8868.88
550.871	8869.1
551.235	8870.68
551.599	8790.91
551.962	8793.17
552.326	8812.38
552.689	8755.21
553.053	8755.43
553.417	8672.95
553.78	8742.1
554.143	8696.45
554.507	8639.96
554.87	8662.33
555.234	8685.83
555.597	8580.3
555.96	8636.34
556.323	8543.24
556.686	8646.96
557.05	8646.96
557.413	8597.7
557.776	8545.72
558.139	8535.1
558.502	8489.45
558.865	8496.01
559.228	8508.21
559.59	8543.91
559.953	8479.06
560.316	8574.42
560.679	8510.69
561.041	8544.37
561.404	8561.09
561.767	8536
562.129	8434.54
562.492	8486.29
562.854	8533.52
563.217	8516.8
563.579	8548.21
563.941	8558.38
564.304	8529.45
564.666	8525.84
565.028	8586.4
565.39	8574.2
565.753	8540.07
566.115	8563.35
566.477	8596.79
566.839	8552.73
567.201	8556.57
567.563	8606.29
567.925	8587.3
568.287	8580.07
568.648	8584.14
569.01	8634.31
569.372	8677.7
569.734	8637.7
570.095	8612.84
570.457	8689.45
570.819	8689.9
571.18	8645.38
571.542	8722.21
571.903	8672.95
572.265	8665.72
572.626	8739.61
572.987	8746.62
573.349	8723.57
573.71	8716.11
574.071	8686.06
574.432	8744.81
574.794	8756.11
575.155	8840.18
575.516	8787.75
575.877	8767.64
576.238	8827.97
576.599	8837.47
576.96	8861.87
577.32	8776.9
577.681	8886.05
578.042	8862.55
578.403	8861.87
578.763	8888.31
579.124	8870.46
579.485	8932.6
579.845	8943.9
580.206	8945.49
580.566	8872.49
580.927	8977.57
581.287	8984.81
581.648	9019.61
582.008	9003.79
582.368	9018.25
582.728	9004.01
583.089	8983.45
583.449	9011.02
583.809	9008.08
584.169	8997.01
584.529	9025.48
584.889	9023.9
585.249	9020.51
585.609	8975.99
585.969	9089.89
586.329	9029.1
586.688	9064.35
587.048	9061.87
587.408	9046.95
587.768	8961.3
588.127	9061.19
588.487	9003.34
588.846	9053.28
589.206	9051.7
589.565	9012.6
589.925	9117.68
590.284	9070.68
590.643	9126.95
591.003	9129.44
591.362	9158.81
591.721	9085.14
592.08	9196.78
592.44	9208.53
592.799	9175.08
593.158	9107.74
593.517	9099.83
593.876	9188.19
594.235	9140.28
594.593	9088.53
594.952	9105.48
595.311	9107.06
595.67	9116.33
596.029	9132.37
596.387	9181.64
596.746	9187.51
597.104	9117.23
597.463	9118.81
597.822	9175.31
598.18	9136.67
598.538	9091.47
598.897	9171.92
599.255	9159.72
599.613	9260.73
599.972	9206.72
600.33	9189.09
600.688	9176.89
601.046	9223.44
601.404	9201.07
601.762	9188.19
602.12	9260.05
602.478	9220.28
602.836	9214.86
603.194	9201.07
603.552	9217.79
603.91	9211.92
604.268	9172.82
604.625	9206.95
604.983	9231.81
605.341	9199.04
605.698	9197.68
606.056	9188.19
606.413	9243.1
606.771	9239.04
607.128	9298.02
607.485	9214.63
607.843	9255.08
608.2	9287.62
608.557	9357.45
608.914	9302.99
609.272	9315.87
609.629	9325.14
609.986	9292.14
610.343	9327.62
610.7	9363.1
611.057	9314.97
611.414	9319.03
611.771	9378.24
612.127	9402.2
612.484	9318.36
612.841	9423.21
613.198	9297.11
613.554	9368.3
613.911	9437
614.267	9394.51
614.624	9375.98
614.98	9442.65
615.337	9445.81
615.693	9473.61
616.05	9481.06
616.406	9493.72
616.762	9455.3
617.118	9422.99
617.475	9466.83
617.831	9476.54
618.187	9474.28
618.543	9479.71
618.899	9486.71
619.255	9507.28
619.611	9481.74
619.967	9505.02
620.323	9553.6
620.678	9528.29
621.034	9498.46
621.39	9435.64
621.746	9543.66
622.101	9575.3
622.457	9471.57
622.812	9540.5
623.168	9501.18
623.523	9565.13
623.879	9553.83
624.234	9487.39
624.589	9554.06
624.945	9515.19
625.3	9549.99
625.655	9480.16
626.01	9474.96
626.365	9569.88
626.72	9551.8
627.075	9522.19
627.43	9581.63
627.785	9541.85
628.14	9525.58
628.495	9534.85
628.85	9550.89
629.205	9456.66
629.559	9469.77
629.914	9483.78
630.269	9470.44
630.623	9449.43
630.978	9417.34
631.332	9481.06
631.687	9394.06
632.041	9408.07
632.396	9449.2
632.75	9371.91
633.104	9434.29
633.459	9338.92
633.813	9321.97
634.167	9319.26
634.521	9317.23
634.875	9325.81
635.229	9275.87
635.583	9233.39
635.937	9232.26
636.291	9224.57
636.645	9329.66
636.999	9257.57
637.352	9234.29
637.706	9209.21
638.06	9297.34
638.413	9222.09
638.767	9195.87
639.121	9194.74
639.474	9154.07
639.828	9274.29
640.181	9114.75
640.534	9214.4
640.888	9091.92
641.241	9128.08
641.594	9109.32
641.947	9102.09
642.301	9090.11
642.654	9137.34
643.007	9083.33
643.36	9097.12
643.713	9081.53
644.066	9048.76
644.419	9035.43
644.771	9029.55
645.124	8941.64
645.477	8935.77
645.83	8827.97
646.182	8818.03
646.535	8836.34
646.888	8812.61
647.24	8703.91
647.593	8845.37
647.945	8704.14
648.298	8743.68
648.65	8696.23
649.002	8694.42
649.355	8735.1
649.707	8764.92
650.059	8822.1
650.411	8884.92
650.763	8901.42
651.115	9013.51
651.467	8978.25
651.819	9030.23
652.171	8980.96
652.523	8988.42
652.875	8982.09
653.227	8924.92
653.578	8990.23
653.93	8938.48
654.282	8944.58
654.633	8872.27
654.985	8930.34
655.337	8883.57
655.688	8963.56
656.039	9012.83
656.391	8917.92
656.742	8990.46
657.094	8894.41
657.445	8995.2
657.796	8987.74
658.147	8975.99
658.498	8863.23
658.849	8955.65
659.2	9023.45
659.551	8966.28
659.902	8984.35
660.253	8994.07
660.604	9013.05
660.955	8987.07
661.306	9003.34
661.656	8993.17
662.007	9008.08
662.358	9035.88
662.708	9032.26
663.059	8998.37
663.409	8933.73
663.76	9022.55
664.11	9052.6
664.461	8994.52
664.811	9049.44
665.161	9029.55
665.511	9029.55
665.862	9068.19
666.212	9089.21
666.562	9129.44
666.912	9103.22
667.262	9019.16
667.612	8985.03
667.962	9022.77
668.312	9069.1
668.662	9123.11
669.011	9003.56
669.361	9006.95
669.711	8993.62
670.06	8949.55
670.41	8998.14
670.76	8966.5
671.109	9027.74
671.459	8968.31
671.808	8988.42
672.157	9017.57
672.507	8909.55
672.856	8881.76
673.205	8967.86
673.554	9038.36
673.904	8902.1
674.253	8956.78
674.602	8965.15
674.951	8813.06
675.3	8783.46
675.649	8894.86
675.998	8816.9
676.346	8932.6
676.695	8926.28
677.044	8893.74
677.393	8880.63
677.741	8832.27
678.09	8828.2
678.438	8801.76
678.787	8787.3
679.135	8808.99
679.484	8719.28
679.832	8872.49
680.181	8724.02
680.529	8769.67
680.877	8735.32
681.225	8706.4
681.573	8787.3
681.922	8753.17
682.27	8675.66
682.618	8653.97
682.966	8635.21
683.314	8720.63
683.661	8636.57
684.009	8572.61
684.357	8576.91
684.705	8569
685.053	8543.24
685.4	8535.55
685.748	8501.65
686.095	8502.33
686.443	8428.21
686.79	8417.82
687.138	8478.83
687.485	8423.24
687.832	8429.34
688.18	8405.61
688.527	8376.23
688.874	8425.27
689.221	8336.69
689.568	8238.39
689.915	8284.26
690.262	8253.53
690.609	8229.57
690.956	8186.41
691.303	8135.34
691.65	8099.63
691.997	8107.99
692.344	7975.79
692.69	8039.75
693.037	8072.51
693.383	7978.73
693.73	8023.7
694.077	7918.39
694.423	7969.47
694.769	7910.48
695.116	7854.44
695.462	7898.51
695.808	7830.49
696.155	7886.08
696.501	7793.43
696.847	7768.79
697.193	7676.37
697.539	7763.6
697.885	7674.56
698.231	7599.76
698.577	7587.1
698.923	7590.72
699.269	7598.85
699.614	7492.64
699.96	7452.19
700.306	7443.83
700.651	7420.78
700.997	7376.49
701.342	7389.59
701.688	7371.74
702.033	7375.58
702.379	7307.34
702.724	7300.1
703.069	7316.6
703.415	7190.95
703.76	7209.03
704.105	7177.62
704.45	7183.95
704.795	7106.44
705.14	7080.22
705.485	7076.83
705.83	7063.73
706.175	7055.14
706.52	7025.31
706.865	7025.54
707.209	6997.97
707.554	6962.03
707.899	7011.07
708.243	6927.91
708.588	6880.23
708.932	6868.7
709.277	6864.41
709.621	6846.11
709.966	6805.43
710.31	6838.2
710.654	6737.41
710.998	6774.47
711.342	6751.87
711.687	6768.14
712.031	6695.37
712.375	6666.67
712.719	6677.75
713.063	6700.57
713.407	6634.36
713.75	6633.46
714.094	6601.59
714.438	6598.2
714.782	6589.61
715.125	6517.53
715.469	6615.15
715.812	6572.67
716.156	6495.38
716.499	6541.03
716.843	6555.72
717.186	6466.68
717.53	6460.13
717.873	6531.99
718.216	6521.37
718.559	6483.4
718.902	6473.69
719.246	6493.12
719.589	6476.85
719.932	6473.01
720.275	6465.55
720.617	6397.08
720.96	6425.55
721.303	6434.36
721.646	6370.64
721.989	6430.75
722.331	6367.02
722.674	6351.66
723.016	6408.83
723.359	6384.87
723.701	6410.86
724.044	6372.45
724.386	6371.77
724.729	6404.76
725.071	6383.29
725.413	6377.64
725.755	6303.75
726.097	6324.76
726.439	6310.98
726.782	6273.24
727.124	6337.87
727.465	6372.22
727.807	6293.35
728.149	6280.47
728.491	6295.61
728.833	6349.4
729.175	6326.12
729.516	6324.76
729.858	6281.15
730.199	6327.25
730.541	6256.97
730.882	6277.31
731.224	6289.28
731.565	6265.56
731.906	6243.18
732.248	6348.72
732.589	6243.18
732.93	6285.67
733.271	6252.45
733.612	6254.26
733.953	6309.85
734.294	6242.96
734.635	6212
734.976	6277.76
735.317	6262.39
735.658	6269.4
735.999	6291.77
736.339	6299.23
736.68	6307.81
737.021	6322.5
737.361	6235.95
737.702	6346.91
738.042	6253.58
738.383	6303.97
738.723	6356.63
739.063	6332.67
739.404	6340.58
739.744	6306.23
740.084	6359.56
740.424	6372.9
740.764	6397.3
741.104	6416.06
741.444	6427.36
741.784	6386.46
742.124	6410.18
742.464	6416.29
742.804	6454.7
743.143	6480.92
743.483	6532.89
743.823	6529.5
744.162	6500.8
744.502	6607.92
744.841	6599.33
745.181	6651.08
745.52	6616.73
745.86	6711.19
746.199	6707.13
746.538	6745.77
746.877	6786.9
747.216	6844.07
747.556	6861.7
747.895	6866.67
748.234	6927.69
748.573	6990.28
748.911	6998.19
749.25	7084.74
749.589	7071.18
749.928	7244.51
750.267	7298.97
750.605	7329.48
750.944	7362.25
751.283	7387.79
751.621	7517.73
751.96	7615.8
752.298	7691.05
752.636	7790.94
752.975	7843.37
753.313	7919.75
753.651	8032.97
753.989	8114.55
754.327	8175.11
754.666	8289.68
755.004	8450.81
755.342	8571.48
755.679	8711.82
756.017	8736.45
756.355	8931.47
756.693	8998.14
757.031	9240.17
757.368	9301.18
757.706	9409.65
758.044	9507.05
758.381	9678.35
758.719	9865.46
759.056	10037.21
759.394	10139.13
759.731	10242.63
760.068	10437.65
760.405	10536.18
760.743	10719.9
761.08	10888.71
761.417	10973
761.754	11213.9
762.091	11332.77
762.428	11475.14
762.765	11669.03
763.102	11932.53
763.438	12020.66
763.775	12154.67
764.112	12367.99
764.449	12606.18
764.785	12610.93
765.122	12801.43
765.458	12915.32
765.795	13071.7
766.131	13308.99
766.467	13416.78
766.804	13525.03
767.14	13639.37
767.476	13749.43
767.812	13996.43
768.148	14196.42
768.485	14208.62
768.821	14356.64
769.157	14516.86
769.492	14642.28
769.828	14841.83
770.164	14747.82
770.5	14970.64
770.836	15101.26
771.171	15112.78
771.507	15304.41
771.842	15278.65
772.178	15504.18
772.513	15673.9
772.849	15714.12
773.184	15630.73
773.519	15797.73
773.855	15898.3
774.19	15956.83
774.525	15978.52
774.86	16167.89
775.195	16177.39
775.53	16298.29
775.865	16317.95
776.2	16357.72
776.535	16286.76
776.87	16410.83
777.205	16450.6
777.539	16489.69
777.874	16628.22
778.209	16501.9
778.543	16575.34
778.878	16595.68
779.212	16651.72
779.547	16638.84
779.881	16800.87
780.215	16740.31
780.55	16840.42
780.884	16771.72
781.218	16875.45
781.552	16867.76
781.886	16871.6
782.22	16851.49
782.554	16935.33
782.888	16829.8
783.222	16865.73
783.556	16830.48
783.889	16738.95
784.223	16713.19
784.557	16789.12
784.89	16914.54
785.224	16821.89
785.557	16736.24
785.891	16777.82
786.224	16720.2
786.558	16738.05
786.891	16649.92
787.224	16702.12
787.557	16710.25
787.891	16760.87
788.224	16752.06
788.557	16734.66
788.89	16757.94
789.223	16734.21
789.556	16595.45
789.888	16627.77
790.221	16664.83
790.554	16513.87
790.887	16575.57
791.219	16545.29
791.552	16450.6
791.884	16467.32
792.217	16522.46
792.549	16395.01
792.882	16346.87
793.214	16347.1
793.546	16323.82
793.879	16214.45
794.211	16255.12
794.543	16283.6
794.875	16180.32
795.207	16239.08
795.539	16202.02
795.871	16191.85
796.203	16156.82
796.535	16014.45
796.867	16028.69
797.198	16042.25
797.53	16091.29
797.862	15887.45
798.193	15976.49
798.525	15788.92
798.856	15861.46
799.188	15689.94
799.519	15652.43
799.85	15558.64
800.182	15584.63
800.513	15726.78
800.844	15630.73
801.175	15625.54
801.506	15578.76
801.837	15631.86
802.168	15536.27
802.499	15496.5
802.83	15430.06
803.161	15416.95
803.491	15382.38
803.822	15398.65
804.153	15369.72
804.483	15180.58
804.814	15235.49
805.145	15248.82
805.475	15191.42
805.805	15085.89
806.136	15149.39
806.466	15066.91
806.796	15078.66
807.126	15012.67
807.457	15023.97
807.787	15004.31
808.117	14981.71
808.447	14866.91
808.777	14892.22
809.107	14821.71
809.436	14777.42
809.766	14812.9
810.096	14816.74
810.426	14773.58
810.755	14716.86
811.085	14683.41
811.414	14670.76
811.744	14542.4
812.073	14521.84
812.403	14537.88
812.732	14407.94
813.061	14472.57
813.39	14402.06
813.719	14374.27
814.049	14446.81
814.378	14404.1
814.707	14270.09
815.036	14335.85
815.365	14268.51
815.693	14151.45
816.022	14166.59
816.351	14128.17
816.68	14058.57
817.008	14212.01
817.337	13970.44
817.665	14032.58
817.994	14037.55
818.322	14020.61
818.651	14042.98
818.979	13951.91
819.307	13897.9
819.636	13953.26
819.964	13851.34
820.292	13897.67
820.62	13924.56
820.948	13964.34
821.276	13958.23
821.604	13847.73
821.932	13896.99
822.259	13858.58
822.587	13836.66
822.915	13830.1
823.243	13810.67
823.57	13865.81
823.898	13870.78
824.225	13802.98
824.553	13793.27
824.88	13867.16
825.207	13882.76
825.535	13802.31
825.862	13927.05
826.189	13842.76
826.516	13905.58
826.843	13874.85
827.17	13913.72
827.497	13892.02
827.824	13900.16
828.151	13929.31
828.478	13958.23
828.805	13971.34
829.131	13812.25
829.458	13810.67
829.785	13788.07
830.111	13863.77
830.438	13947.39
830.764	13842.31
831.09	13862.87
831.417	13780.61
831.743	13921.85
832.069	13869.2
832.395	13797.11
832.722	13889.54
833.048	13795.3
833.374	13774.51
833.7	13737
834.026	13851.34
834.351	13813.15
834.677	13771.57
835.003	13807.28
835.329	13743.33
835.654	13759.6
835.98	13708.98
836.306	13755.75
836.631	13729.77
836.956	13715.3
837.282	13654.97
837.607	13621.29
837.932	13620.62
838.258	13621.97
838.583	13645.47
838.908	13512.14
839.233	13537.45
839.558	13476.67
839.883	13464.46
840.208	13475.76
840.533	13447.51
840.858	13354.63
841.182	13399.61
841.507	13335.65
841.832	13329.78
842.156	13284.13
842.481	13316.22
842.805	13262.89
843.13	13242.55
843.454	13213.62
843.778	13194.41
844.103	13126.62
844.427	13149.22
844.751	13087.75
845.075	13092.49
845.399	13036.68
845.723	12958.71
846.047	12934.53
846.371	12944.48
846.695	12906.28
847.019	12806.85
847.343	12745.84
847.666	12717.36
847.99	12581.1
848.313	12558.72
848.637	12567.76
848.96	12481.21
849.284	12486.86
849.607	12369.12
849.931	12386.75
850.254	12260.2
850.577	12257.04
850.9	12222.46
851.223	12105.85
851.546	12123.93
851.869	11996.25
852.192	12066.08
852.515	11907.22
852.838	11888.01
853.161	11898.4
853.483	11798.74
853.806	11790.61
854.129	11749.25
854.451	11798.97
854.774	11711.06
855.096	11595.13
855.419	11656.83
855.741	11597.62
856.063	11480.56
856.385	11452.54
856.708	11425.65
857.03	11471.07
857.352	11392.65
857.674	11415.02
857.996	11304.07
858.318	11210.96
858.64	11300.9
858.961	11237.18
859.283	11181.81
859.605	11161.7
859.926	11114.69
860.248	11120.8
860.57	11064.75
860.891	11073.56
861.212	10984.75
861.534	10996.73
861.855	10985.21
862.176	10930.07
862.498	10928.94
862.819	10933.68
863.14	10859.79
863.461	10872.67
863.782	10833.57
864.103	10779.11
864.424	10807.36
864.745	10853.91
865.065	10783.85
865.386	10681.94
865.707	10728.72
866.027	10741.14
866.348	10635.61
866.668	10674.71
866.989	10605.55
867.309	10635.38
867.63	10561.49
867.95	10585.22
868.27	10530.08
868.59	10554.26
868.91	10563.3
869.23	10522.39
869.55	10519.68
869.87	10507.93
870.19	10428.61
870.51	10485.56
870.83	10490.08
871.15	10466.58
871.469	10422.73
871.789	10393.13
872.109	10396.97
872.428	10375.28
872.748	10389.97
873.067	10296.18
873.386	10298.44
873.706	10297.99
874.025	10277.43
874.344	10268.61
874.663	10210.76
874.982	10227.71
875.301	10272.46
875.62	10181.61
875.939	10188.16
876.258	10153.14
876.577	10154.27
876.896	10153.36
877.214	10047.6
877.533	10119.47
877.852	10131.67
878.17	10068.17
878.489	10075.85
878.807	10028.62
879.125	10022.97
879.444	10011.22
879.762	9980.03
880.08	9934.84
880.398	9932.13
880.716	9909.75
881.034	9841.05
881.352	9964.67
881.67	9823.65
881.988	9831.79
882.306	9860.49
882.624	9797.67
882.941	9771
883.259	9709.31
883.577	9763.77
883.894	9721.96
884.212	9664.79
884.529	9714.73
884.846	9682.64
885.164	9626.37
885.481	9559.93
885.798	9623.43
886.115	9562.42
886.432	9564.68
886.75	9492.59
887.067	9553.83
887.383	9442.2
887.7	9482.65
888.017	9448.75
888.334	9385.7
888.651	9407.62
888.967	9382.76
889.284	9340.73
889.6	9311.8
889.917	9288.3
890.233	9261.18
890.55	9271.35
890.866	9241.75
891.182	9150
891.498	9075.88
891.815	9146.16
892.131	9097.35
892.447	9032.49
892.763	8997.91
893.079	9005.37
893.395	8947.52
893.71	8969.67
894.026	8930.57
894.342	8884.47
894.657	8862.78
894.973	8812.83
895.289	8810.35
895.604	8743.91
895.92	8727.64
896.235	8717.47
896.55	8638.6
896.865	8649
897.181	8597.02
897.496	8660.97
897.811	8536
898.126	8534.2
898.441	8552.05
898.756	8459.85
899.071	8451.71
899.386	8409
899.7	8336.24
900.015	8285.84
900.33	8307.76
900.644	8313.41
900.959	8295.33
901.273	8303.02
901.588	8242
901.902	8180.08
902.216	8153.64
902.531	8100.76
902.845	8019.63
903.159	8026.41
903.473	8019.41
903.787	8030.25
904.101	7910.71
904.415	7926.98
904.729	7928.11
905.042	7823.25
905.356	7785.74
905.67	7846.53
905.984	7796.36
906.297	7809.02
906.611	7691.05
906.924	7709.36
907.237	7661.45
907.551	7645.86
907.864	7600.44
908.177	7545.07
908.491	7539.87
908.804	7491.96
909.117	7463.26
909.43	7395.02
909.743	7394.34
910.056	7352.53
910.368	7356.83
910.681	7352.53
910.994	7279.09
911.307	7259.88
911.619	7237.51
911.932	7221.46
912.244	7150.5
912.557	7125.65
912.869	7094.46
913.181	7140.56
913.494	7105.99
913.806	7031.19
914.118	7051.98
914.43	6931.53
914.742	6959.55
915.054	6942.6
915.366	6934.01
915.678	6842.94
915.99	6881.36
916.302	6794.36
916.613	6833
916.925	6775.6
917.236	6739.22
917.548	6645.21
917.859	6751.87
918.171	6650.63
918.482	6596.39
918.794	6548.49
919.105	6581.71
919.416	6542.16
919.727	6514.36
920.038	6472.78
920.349	6419.22
920.66	6409.05
920.971	6355.72
921.282	6390.52
921.593	6352.33
921.903	6315.5
922.214	6265.56
922.525	6280.24
922.835	6199.57
923.146	6242.73
923.456	6189.4
923.767	6134.26
924.077	6131.1
924.387	6084.32
924.697	6055.39
925.008	6041.61
925.318	6036.18
925.628	6089.06
925.938	5980.82
926.248	5964.77
926.558	5955.96
926.867	5943.08
927.177	5902.85
927.487	5868.96
927.796	5832.8
928.106	5813.14
928.416	5773.37
928.725	5803.87
929.034	5732.69
929.344	5782.4
929.653	5661.73
929.962	5659.02
930.271	5643.88
930.581	5625.57
930.89	5586.03
931.199	5631
931.508	5546.48
931.817	5597.78
932.125	5549.64
932.434	5485.92
932.743	5447.5
933.051	5492.92
933.36	5428.06
933.669	5399.59
933.977	5404.79
934.286	5379.25
934.594	5350.1
934.902	5272.59
935.21	5279.37
935.519	5273.27
935.827	5271.91
936.135	5270.1
936.443	5233.72
936.751	5185.13
937.059	5221.06
937.367	5132.7
937.674	5152.36
937.982	5133.38
938.29	5084.34
938.597	5054.97
938.905	5047.28
939.213	4994.4
939.52	4974.74
939.827	5032.14
940.135	4965.48
940.442	4923.9
940.749	4927.51
941.056	4905.82
941.363	4858.59
941.67	4823.79
941.977	4887.29
942.284	4740.4
942.591	4830.11
942.898	4790.79
943.205	4757.35
943.511	4767.52
943.818	4755.99
944.125	4767.29
944.431	4722.55
944.738	4673.51
945.044	4629.21
945.35	4600.51
945.657	4598.71
945.963	4550.12
946.269	4550.8
946.575	4531.82
946.881	4532.04
947.187	4500.63
947.493	4464.47
947.799	4454.76
948.105	4437.81
948.41	4431.93
948.716	4408.2
949.022	4353.29
949.327	4366.62
949.633	4375.44
949.938	4311.26
950.244	4331.6
950.549	4269
950.854	4262.22
951.16	4267.42
951.465	4234.42
951.77	4263.35
952.075	4242.78
952.38	4214.99
952.685	4156.01
952.99	4187.19
953.294	4154.2
953.599	4132.96
953.904	4101.77
954.209	4057.93
954.513	4065.16
954.818	4079.17
955.122	4029.46
955.426	4017.71
955.731	4025.84
956.035	3986.75
956.339	3966.41
956.643	3971.6
956.948	3927.54
957.252	3883.25
957.556	3913.53
957.86	3876.24
958.163	3907.65
958.467	3824.49
958.771	3838.05
959.075	3822.46
959.378	3805.51
959.682	3793.98
959.985	3805.96
960.289	3758.73
960.592	3707.2
960.896	3684.61
961.199	3692.29
961.502	3651.16
961.805	3650.26
962.108	3640.31
962.411	3611.39
962.714	3622.46
963.017	3624.72
963.32	3592.86
963.623	3572.97
963.926	3553.99
964.228	3567.32
964.531	3525.74
964.833	3536.81
965.136	3496.14
965.438	3472.41
965.741	3448
966.043	3428.79
966.345	3419.98
966.648	3425.86
966.95	3437.16
967.252	3411.62
967.554	3316.93
967.856	3351.51
968.158	3326.65
968.46	3333.88
968.761	3308.57
969.063	3291.85
969.365	3288.46
969.666	3259.53
969.968	3272.41
970.269	3241
970.571	3245.07
970.872	3207.1
971.174	3170.5
971.475	3197.84
971.776	3156.48
972.077	3180.21
972.378	3144.73
972.679	3125.53
972.98	3106.54
973.281	3095.24
973.582	3083.72
973.883	3082.81
974.183	3088.01
974.484	3067.9
974.785	3025.64
975.085	3049.82
975.386	3036.04
975.686	2960.11
975.986	3002.82
976.287	2994.68
976.587	2907.23
976.887	2930.73
977.187	2923.5
977.487	2930.05
977.787	2915.81
978.087	2873.1
978.387	2876.94
978.687	2862.71
978.987	2828.36
979.286	2829.26
979.586	2814.12
979.885	2807.12
980.185	2800.34
980.484	2795.36
980.784	2774.8
981.083	2813.67
981.382	2772.77
981.682	2757.85
981.981	2743.39
982.28	2701.58
982.579	2694.35
982.878	2706.33
983.177	2716.04
983.475	2700
983.774	2644.86
984.073	2664.75
984.372	2656.84
984.67	2575.71
984.969	2648.48
985.267	2585.65
985.566	2590.85
985.864	2609.61
986.162	2565.31
986.461	2530.29
986.759	2541.59
987.057	2508.37
987.355	2507.91
987.653	2543.17
987.951	2523.96
988.249	2494.36
988.547	2485.77
988.844	2480.34
989.142	2473.56
989.44	2430.85
989.737	2446.67
990.035	2451.42
990.332	2423.62
990.63	2411.19
990.927	2366.45
991.224	2382.95
991.521	2372.1
991.819	2334.81
992.116	2372.78
992.413	2340.91
992.71	2301.14
993.006	2339.11
993.303	2319.44
993.6	2302.04
993.897	2272.89
994.193	2264.76
994.49	2248.94
994.787	2235.15
995.083	2219.33
995.379	2238.54
995.676	2246.45
995.972	2213.23
996.268	2203.74
996.565	2170.07
996.861	2172.78
997.157	2133.23
997.453	2135.27
997.749	2118.55
998.044	2146.79
998.34	2161.48
998.636	2131.43
998.932	2101.37
999.227	2104.31
999.523	2083.97
999.818	2057.3
1000.114	2054.37
1000.409	2052.33
1000.704	2059.34
1001	2030.64
1001.295	1997.19
1001.59	1990.41
1001.885	2019.11
1002.18	1971.66
1002.475	1957.87
1002.77	1953.58
1003.065	1931.43
1003.359	1919
1003.654	1930.53
1003.949	1935.5
1004.243	1889.85
1004.538	1896.18
1004.832	1893.92
1005.127	1893.69
1005.421	1857.99
1005.715	1864.77
1006.009	1870.87
1006.304	1863.86
1006.598	1824.09
1006.892	1819.8
1007.186	1781.61
1007.48	1804.2
1007.773	1792.23
1008.067	1763.98
1008.361	1749.97
1008.655	1763.08
1008.948	1729.4
1009.242	1709.97
1009.535	1733.02
1009.829	1723.53
1010.122	1713.58
1010.415	1700.93
1010.708	1665.45
1011.001	1687.82
1011.295	1669.29
1011.588	1641.95
1011.881	1650.99
1012.173	1637.43
1012.466	1626.58
1012.759	1599.69
1013.052	1617.77
1013.344	1616.41
1013.637	1600.59
1013.93	1557.66
1014.222	1555.4
1014.514	1571.22
1014.807	1569.41
1015.099	1552.01
1015.391	1545.23
1015.683	1515.85
1015.976	1519.01
1016.268	1489.41
1016.56	1521.5
1016.851	1497.09
1017.143	1466.13
1017.435	1466.81
1017.727	1426.13
1018.018	1449.64
1018.31	1435.85
1018.602	1433.14
1018.893	1428.85
1019.185	1429.98
1019.476	1388.85
1019.767	1391.56
1020.058	1367.83
1020.35	1380.03
1020.641	1358.79
1020.932	1356.08
1021.223	1360.15
1021.514	1349.53
1021.804	1353.14
1022.095	1347.72
1022.386	1329.87
1022.677	1332.35
1022.967	1304.33
1023.258	1286.25
1023.548	1291.22
1023.839	1279.25
1024.129	1262.98
1024.419	1251.45
1024.709	1237.89
1025	1220.26
1025.29	1259.36
1025.58	1230.43
1025.87	1235.41
1026.16	1208.51
1026.449	1223.88
1026.739	1192.24
1027.029	1200.38
1027.319	1191.56
1027.608	1173.94
1027.898	1133.49
1028.187	1163.32
1028.477	1145.69
1028.766	1130.32
1029.055	1142.75
1029.344	1144.11
1029.634	1151.57
1029.923	1119.25
1030.212	1102.3
1030.501	1125.35
1030.79	1091.23
1031.078	1109.53
1031.367	1086.93
1031.656	1078.35
1031.945	1070.21
1032.233	1043.55
1032.522	1050.33
1032.81	1062.98
1033.099	1060.27
1033.387	1032.47
1033.675	1022.76
1033.963	1025.02
1034.251	1036.09
1034.54	1032.7
1034.828	1005.13
1035.116	977.33
1035.403	996.54
1035.691	998.35
1035.979	1002.64
1036.267	973.27
1036.554	936.43
1036.842	947.5
1037.129	966.94
1037.417	967.39
1037.704	942.08
1037.992	953.6
1038.279	935.3
1038.566	910.89
1038.853	910.89
1039.14	910.89
