Data from hue_300_FLMS001491_00010.txt Node
Date: Tue Feb 07 15:49:39 GMT 2017
User: dcchb
Spectrometer: FLMS00149
Trigger mode: 0
Integration Time (sec): 2.000000E-2
Scans to average: 10
Electric dark correction enabled: true
Nonlinearity correction enabled: false
Boxcar width: 0
XAxis mode: Wavelengths
Number of Pixels in Spectrum: 2048
>>>>>Begin Spectral Data<<<<<
341.393	-18.14
341.776	-18.14
342.16	-18.14
342.543	-56.33
342.927	-62.65
343.31	-57.68
343.693	-60.62
344.077	-83.67
344.46	-62.2
344.843	-42.99
345.226	-54.97
345.61	-29.43
345.993	-13.84
346.376	-0.73
346.759	2.66
347.142	18.7
347.525	45.37
347.908	52.15
348.291	87.4
348.674	96.66
349.057	103.22
349.44	128.53
349.823	125.36
350.206	147.74
350.588	187.28
350.971	211.92
351.354	208.07
351.737	214.85
352.119	233.61
352.502	235.87
352.884	259.6
353.267	276.77
353.65	281.07
354.032	298.69
354.414	299.14
354.797	301.18
355.179	300.27
355.562	323.32
355.944	297.56
356.326	299.6
356.709	325.13
357.091	327.62
357.473	342.76
357.855	323.78
358.238	325.36
358.62	321.74
359.002	339.14
359.384	317.68
359.766	348.86
360.148	320.61
360.53	346.38
360.912	325.36
361.294	294.85
361.676	319.03
362.057	320.61
362.439	312.25
362.821	331.23
363.203	331.69
363.584	338.92
363.966	305.92
364.348	307.96
364.729	315.87
365.111	299.82
365.493	312.25
365.874	323.55
366.256	274.96
366.637	294.85
367.019	335.3
367.4	285.36
367.781	307.05
368.163	311.12
368.544	298.92
368.925	303.66
369.306	313.38
369.688	288.52
370.069	318.58
370.45	312.25
370.831	305.92
371.212	305.25
371.593	307.28
371.974	301.63
372.355	284.91
372.736	288.3
373.117	323.32
373.498	300.5
373.879	324.91
374.26	315.64
374.641	284
375.021	321.74
375.402	334.62
375.783	317.9
376.163	322.42
376.544	323.55
376.925	319.26
377.305	321.29
377.686	332.36
378.066	308.41
378.447	292.14
378.827	313.16
379.208	314.51
379.588	308.64
379.968	333.27
380.349	324.91
380.729	320.16
381.109	304.34
381.489	307.96
381.87	323.55
382.25	316.55
382.63	329.2
383.01	338.47
383.39	331.91
383.77	320.61
384.15	359.48
384.53	341.18
384.91	331.23
385.29	322.87
385.67	353.38
386.049	343.44
386.429	331.46
386.809	335.3
387.189	336.21
387.568	339.82
387.948	362.42
388.328	349.31
388.707	344.57
389.087	338.47
389.466	362.19
389.846	350.67
390.225	353.38
390.605	366.26
390.984	333.72
391.363	357.67
391.743	360.84
392.122	365.36
392.501	367.39
392.881	386.37
393.26	358.8
393.639	367.62
394.018	366.71
394.397	375.75
394.776	380.27
395.155	378.92
395.534	376.66
395.913	399.48
396.292	382.08
396.671	364
397.05	372.36
397.429	374.85
397.808	405.81
398.186	378.69
398.565	388.41
398.944	398.8
399.323	414.4
399.701	401.74
400.08	409.65
400.458	379.37
400.837	420.72
401.215	393.15
401.594	389.54
401.972	411.23
402.351	393.15
402.729	436.54
403.107	411.46
403.486	423.66
403.864	408.29
404.242	413.49
404.62	422.76
404.999	440.84
405.377	425.47
405.755	453.04
406.133	469.54
406.511	457.56
406.889	465.69
407.267	463.66
407.645	469.31
408.023	459.59
408.401	466.6
408.779	474.96
409.156	472.02
409.534	464.56
409.912	484
410.29	490.1
410.667	504.11
411.045	509.99
411.422	540.49
411.8	523.77
412.178	517.9
412.555	525.58
412.933	534.84
413.31	534.84
413.687	553.15
414.065	561.96
414.442	550.89
414.819	582.3
415.197	616.2
415.574	608.97
415.951	613.03
416.328	620.49
416.705	629.53
417.082	639.47
417.46	648.06
417.837	660.27
418.214	647.38
418.591	659.14
418.967	662.98
419.344	665.69
419.721	684.22
420.098	707.72
420.475	697.78
420.852	681.73
421.228	723.09
421.605	734.39
421.982	741.84
422.358	739.59
422.735	772.35
423.111	762.86
423.488	764.9
423.864	772.8
424.241	776.65
424.617	782.3
424.994	796.31
425.37	827.04
425.746	814.16
426.123	848.06
426.499	809.87
426.875	857.32
427.251	834.05
427.627	874.95
428.003	879.47
428.379	884.21
428.756	901.84
429.132	909.3
429.507	923.99
429.883	939.81
430.259	914.04
430.635	933.7
431.011	967.83
431.387	958.11
431.763	1015.74
432.138	1019.8
432.514	1039.46
432.89	1000.14
433.265	1034.27
433.641	1024.55
434.016	1073.36
434.392	1076.98
434.767	1080.37
435.143	1099.12
435.518	1097.09
435.894	1084.43
436.269	1152.23
436.644	1130.08
437.02	1142.51
437.395	1151.78
437.77	1155.85
438.145	1179.35
438.52	1181.38
438.895	1180.93
439.271	1236.3
439.646	1206.69
440.021	1240.14
440.395	1236.3
440.77	1242.17
441.145	1221.15
441.52	1284.2
441.895	1269.74
442.27	1245.79
442.645	1224.77
443.019	1274.49
443.394	1275.62
443.769	1303.41
444.143	1261.61
444.518	1315.62
444.892	1290.53
445.267	1305.67
445.641	1312.68
446.016	1328.5
446.39	1324.2
446.764	1316.97
447.139	1294.82
447.513	1330.76
447.887	1340.7
448.262	1348.38
448.636	1314.49
449.01	1327.37
449.384	1365.56
449.758	1353.81
450.132	1393.13
450.506	1385.22
450.88	1394.26
451.254	1398.32
451.628	1396.74
452.002	1395.84
452.376	1425.44
452.75	1435.84
453.123	1423.18
453.497	1458.89
453.871	1470.64
454.244	1500.24
454.618	1472.22
454.992	1532.56
455.365	1468.83
455.739	1522.62
456.112	1529.39
456.486	1532.11
456.859	1520.58
457.232	1545.67
457.606	1534.59
457.979	1557.19
458.352	1577.76
458.725	1586.79
459.099	1580.47
459.472	1608.94
459.845	1624.76
460.218	1605.78
460.591	1646.23
460.964	1634.7
461.337	1676.74
461.71	1694.14
462.083	1713.12
462.456	1735.04
462.829	1720.12
463.201	1748.82
463.574	1707.47
463.947	1746.34
464.32	1780.91
464.692	1774.13
465.065	1775.26
465.438	1823.4
465.81	1806.9
466.183	1870.4
466.555	1880.35
466.928	1877.86
467.3	1863.4
467.672	1878.99
468.045	1902.04
468.417	1928.25
468.789	1929.84
469.161	1929.61
469.534	1999.21
469.906	2023.62
470.278	2009.38
470.65	2025.88
471.022	2036.95
471.394	2050.29
471.766	2056.16
472.138	2101.81
472.51	2116.72
472.882	2117.4
473.253	2186.78
473.625	2182.71
473.997	2196.04
474.369	2191.52
474.74	2216.61
475.112	2250.05
475.484	2284.63
475.855	2300.22
476.227	2310.39
476.598	2378.19
476.97	2395.81
477.341	2386.55
477.713	2414.12
478.084	2445.53
478.455	2499.76
478.827	2502.25
479.198	2505.19
479.569	2558.97
479.94	2599.42
480.311	2572.98
480.682	2625.64
481.053	2658.86
481.424	2715.58
481.795	2724.17
482.166	2754.9
482.537	2778.18
482.908	2780.21
483.279	2850.49
483.65	2853.43
484.021	2893.65
484.391	2905.18
484.762	2918.06
485.133	2970.71
485.503	2989.24
485.874	2994.67
486.244	3021.56
486.615	3051.61
486.985	3106.53
487.356	3130.03
487.726	3119.64
488.097	3182.01
488.467	3190.59
488.837	3222.01
489.207	3264.49
489.578	3284.38
489.948	3304.94
490.318	3353.08
490.688	3338.61
491.058	3400.31
491.428	3421.77
491.798	3454.32
492.168	3506.07
492.538	3488.44
492.908	3524.6
493.278	3543.81
493.648	3554.88
494.017	3571.83
494.387	3627.42
494.757	3623.13
495.126	3665.84
495.496	3666.06
495.866	3666.29
496.235	3731.6
496.605	3749.22
496.974	3687.98
497.344	3722.33
497.713	3751.26
498.082	3784.25
498.452	3818.37
498.821	3840.07
499.19	3842.78
499.559	3836
499.928	3888.88
500.298	3886.17
500.667	3948.77
501.036	3898.15
501.405	3923.46
501.774	3914.64
502.143	3971.36
502.512	3965.71
502.88	4036.67
503.249	3983.79
503.618	4022.44
503.987	4026.5
504.356	4031.93
504.724	4057.46
505.093	4117.58
505.462	4097.01
505.83	4091.59
506.199	4085.49
506.567	4165.71
506.936	4189.21
507.304	4210.91
507.672	4174.07
508.041	4197.57
508.409	4185.37
508.777	4197.35
509.145	4284.12
509.514	4230.34
509.882	4275.54
510.25	4255.88
510.618	4294.97
510.986	4295.2
511.354	4319.38
511.722	4323.45
512.09	4352.37
512.458	4322.54
512.826	4361.41
513.193	4392.6
513.561	4348.98
513.929	4409.77
514.297	4447.51
514.664	4410
515.032	4433.5
515.4	4466.27
515.767	4483.44
516.135	4459.94
516.502	4475.76
516.869	4534.97
517.237	4547.17
517.604	4454.06
517.972	4574.06
518.339	4599.14
518.706	4603.44
519.073	4597.79
519.44	4578.81
519.808	4611.57
520.175	4615.87
520.542	4625.58
520.909	4664.91
521.276	4640.05
521.643	4694.51
522.009	4737.67
522.376	4718.01
522.743	4701.06
523.11	4765.02
523.477	4776.32
523.843	4769.99
524.21	4853.15
524.577	4869.65
524.943	4907.61
525.31	4885.01
525.676	4958.23
526.043	4935.41
526.409	4918.01
526.776	5014.5
527.142	5034.84
527.508	4989.87
527.874	5070.77
528.241	5063.54
528.607	5083.65
528.973	5090.66
529.339	5076.87
529.705	5142.86
530.071	5165.23
530.437	5213.82
530.803	5221.05
531.169	5269.86
531.535	5223.08
531.901	5273.48
532.267	5276.87
532.632	5286.58
532.998	5380.59
533.364	5405
533.73	5382.63
534.095	5400.03
534.461	5438.22
534.826	5466.47
535.192	5496.07
535.557	5486.13
535.923	5532.91
536.288	5557.31
536.653	5609.29
537.019	5566.58
537.384	5597.08
537.749	5657.87
538.114	5581.94
538.479	5630.76
538.845	5639.34
539.21	5636.86
539.575	5673.01
539.94	5707.59
540.305	5762.05
540.67	5721.37
541.034	5736.97
541.399	5758.44
541.764	5817.19
542.129	5863.07
542.494	5849.73
542.858	5916.17
543.223	5887.25
543.587	5914.14
543.952	5962.95
544.316	5987.13
544.681	6024.19
545.045	6042.72
545.41	6077.75
545.774	6116.84
546.138	6108.94
546.503	6116.84
546.867	6155.04
547.231	6163.4
547.595	6148.48
547.959	6225.09
548.324	6204.75
548.688	6244.07
549.052	6232.77
549.416	6263.06
549.779	6257.18
550.143	6260.8
550.507	6370.17
550.871	6394.58
551.235	6364.97
551.599	6432.77
551.962	6409.72
552.326	6391.41
552.689	6466.67
553.053	6405.65
553.417	6521.81
553.78	6511.18
554.143	6507.34
554.507	6526.33
554.87	6587.79
555.234	6624.85
555.597	6615.59
555.96	6616.94
556.323	6660.11
556.686	6642.03
557.05	6681.58
557.413	6715.93
557.776	6665.76
558.139	6768.81
558.502	6728.58
558.865	6730.39
559.228	6791.63
559.59	6855.36
559.953	6839.54
560.316	6846.32
560.679	6866.43
561.041	6923.38
561.404	6894.23
561.767	6914.56
562.129	6966.77
562.492	7011.06
562.854	7045.63
563.217	6997.05
563.579	7045.63
563.941	7026.65
564.304	7141.22
564.666	7150.94
565.028	7137.61
565.39	7183.94
565.753	7229.58
566.115	7166.99
566.477	7272.29
566.839	7265.06
567.201	7306.87
567.563	7327.21
567.925	7449.24
568.287	7436.36
568.648	7385.51
569.01	7457.37
569.372	7493.31
569.734	7495.34
570.095	7591.38
570.457	7540.54
570.819	7656.92
571.18	7605.39
571.542	7670.25
571.903	7718.38
572.265	7753.19
572.626	7776.69
572.987	7833.86
573.349	7818.04
573.71	7942.11
574.071	7993.18
574.432	8009.68
574.794	8101.88
575.155	8139.39
575.516	8132.16
575.877	8138.49
576.238	8242.44
576.599	8398.14
576.96	8376.45
577.32	8432.04
577.681	8565.82
578.042	8612.6
578.403	8672.26
578.763	8798.81
579.124	8828.41
579.485	9003.77
579.845	9100.5
580.206	9147.95
580.566	9286.03
580.927	9436.53
581.287	9540.03
581.648	9681.27
582.008	9814.83
582.368	9913.13
582.728	10037.19
583.089	10186.79
583.449	10363.29
583.809	10577.97
584.169	10681.02
584.529	10883.73
584.889	11191.97
585.249	11309.93
585.609	11461.11
585.969	11760.54
586.329	11906.98
586.688	12193.07
587.048	12253.18
587.408	12558.26
587.768	12691.14
588.127	13047.51
588.487	13224.45
588.846	13518.23
589.206	13718
589.565	13960.25
589.925	14250.64
590.284	14503.97
590.643	14807.24
591.003	15028.02
591.362	15391.4
591.721	15602.7
592.08	15824.16
592.44	16249.01
592.799	16537.36
593.158	16727.19
593.517	17139.38
593.876	17373.27
594.235	17613.27
594.593	17958.34
594.952	18249.63
595.311	18422.74
595.67	18782.05
596.029	19260
596.387	19525.08
596.746	19815.69
597.104	19943.83
597.463	20293.87
597.822	20701.77
598.18	20981.31
598.538	21153.06
598.897	21644.8
599.255	21753.04
599.613	22437.55
599.972	22594.6
600.33	22893.8
600.688	22950.98
601.046	23373.11
601.404	23728.81
601.762	23938.3
602.12	24390.71
602.478	24562.24
602.836	24875.9
603.194	25033.64
603.552	25281.09
603.91	25531.02
604.268	25867.96
604.625	25996.77
604.983	26456.87
605.341	26500.26
605.698	26933.02
606.056	27157.65
606.413	27354.93
606.771	27683.74
607.128	27929.6
607.485	28094.35
607.843	28263.61
608.2	28714.44
608.557	28945.85
608.914	28975
609.272	29406.63
609.629	29533.18
609.986	29882.1
610.343	29889.55
610.7	30341.29
611.057	30457.9
611.414	30575.41
611.771	30895.4
612.127	31090.88
612.484	31273.25
612.841	31501.94
613.198	31529.28
613.554	31755.04
613.911	32132.88
614.267	32290.85
614.624	32290.39
614.98	32576.94
615.337	32848.12
615.693	32956.59
616.05	33059.41
616.406	33437.93
616.762	33350.25
617.118	33444.49
617.475	33665.05
617.831	33818.49
618.187	33952.95
618.543	34187.75
618.899	34420.96
619.255	34401.3
619.611	34515.87
619.967	34724.45
620.323	34972.36
620.678	34910.89
621.034	34943.43
621.39	35052.81
621.746	35119.25
622.101	35573.92
622.457	35320.14
622.812	35574.15
623.168	35765.1
623.523	35839.68
623.879	35918.1
624.234	35704.09
624.589	36077.41
624.945	36187.69
625.3	36285.54
625.655	36264.98
626.01	36370.29
626.365	36465.88
626.72	36576.38
627.075	36436.27
627.43	36676.72
627.785	36551.75
628.14	36704.52
628.495	36730.05
628.85	36842.36
629.205	36754.46
629.559	36963.72
629.914	36951.06
630.269	36829.71
630.623	36864.51
630.978	36840.78
631.332	37046.2
631.687	37157.16
632.041	37032.87
632.396	37116.03
632.75	37130.72
633.104	37157.84
633.459	37315.8
633.813	37120.55
634.167	37156.71
634.521	37135.01
634.875	37335.68
635.229	37387.89
635.583	37111.74
635.937	37249.13
636.291	37166.2
636.645	37284.16
636.999	37138.4
637.352	37367.32
637.706	37254.56
638.06	37321.9
638.413	37140.21
638.767	37231.73
639.121	37250.26
639.474	37120.78
639.828	37106.54
640.181	37140.21
640.534	37272.64
640.888	37114.45
641.241	37004.85
641.594	37023.6
641.947	37164.62
642.301	37081.68
642.654	37093.43
643.007	37182.24
643.36	37151.51
643.713	37050.27
644.066	37207.55
644.419	36954
644.771	36541.58
645.124	36459.78
645.477	36456.39
645.83	36220.23
646.182	36191.08
646.535	36173.46
646.888	36320.8
647.24	35905.21
647.593	36195.83
647.945	36063.63
648.298	35875.84
648.65	35986.79
649.002	35734.15
649.355	36041.26
649.707	35926
650.059	36164.64
650.411	36649.38
650.763	36556.95
651.115	36850.5
651.467	36842.36
651.819	36779.32
652.171	36707.9
652.523	36775.02
652.875	36779.09
653.227	36422.71
653.578	36767.56
653.93	36779.99
654.282	36702.03
654.633	36554.46
654.985	36577.96
655.337	36660.67
655.688	36717.4
656.039	36774.34
656.391	36519.21
656.742	36529.38
657.094	36687.11
657.445	36736.6
657.796	36707.68
658.147	36587.91
658.498	36523.95
658.849	36658.41
659.2	36540.23
659.551	36466.56
659.902	36654.8
660.253	36572.77
660.604	36676.95
660.955	36378.87
661.306	36631.3
661.656	36523.95
662.007	36528.93
662.358	36696.38
662.708	36490.06
663.059	36455.48
663.409	36330.74
663.76	36580.68
664.11	36582.71
664.461	36534.8
664.811	36583.61
665.161	36545.65
665.511	36484.86
665.862	36389.5
666.212	36430.62
666.562	36519.44
666.912	36455.03
667.262	36439.44
667.612	36417.29
667.962	36582.26
668.312	36400.79
668.662	36535.03
669.011	36394.47
669.361	36392.21
669.711	36321.47
670.06	36398.31
670.41	36458.87
670.76	36267.92
671.109	36334.13
671.459	36338.42
671.808	36262.49
672.157	36357.41
672.507	36222.72
672.856	36115.83
673.205	36208.26
673.554	36461.81
673.904	36175.72
674.253	36409.83
674.602	36247.35
674.951	35646.92
675.3	35661.15
675.649	36190.18
675.998	35994.93
676.346	36141.37
676.695	36281.48
677.044	36028.6
677.393	36064.53
677.741	36106.56
678.09	36058.2
678.438	35962.84
678.787	35944.08
679.135	36039.67
679.484	35708.61
679.832	35700.25
680.181	35576.64
680.529	35705.22
680.877	35719
681.225	35758.33
681.573	35740.92
681.922	35544.55
682.27	35478.33
682.618	35345.23
682.966	35401.95
683.314	35448.5
683.661	35343.87
684.009	35110.88
684.357	35184.78
684.705	35103.2
685.053	35182.97
685.4	35055.97
685.748	35053.03
686.095	34867.5
686.443	34832.02
686.79	34794.28
687.138	34847.39
687.485	34813.94
687.832	34625.02
688.18	34759.26
688.527	34682.42
688.874	34515.87
689.221	34427.29
689.568	34281.75
689.915	34247.63
690.262	34120.18
690.609	34140.97
690.956	33976.23
691.303	34044.47
691.65	33863.23
691.997	33719.73
692.344	33715.67
692.69	33723.35
693.037	33570.36
693.383	33511.6
693.73	33479.97
694.077	33390.25
694.423	33301.21
694.769	33167.88
695.116	33140.99
695.462	33038.62
695.808	32901.9
696.155	33145.51
696.501	32864.62
696.847	32839.31
697.193	32540.1
697.539	32657.62
697.885	32354.35
698.231	32311.41
698.577	32430.73
698.923	32297.85
699.269	32158.65
699.614	31892.44
699.96	32062.38
700.306	32014.02
700.651	31826
700.997	31778.54
701.342	31623.07
701.688	31673.23
702.033	31576.06
702.379	31547.59
702.724	31552.11
703.069	31334.94
703.415	31102.4
703.76	31204.32
704.105	31200.71
704.45	31082.06
704.795	30962.29
705.14	30844.56
705.485	30877.1
705.83	30736.99
706.175	30683.2
706.52	30637.1
706.865	30537.67
707.209	30479.37
707.554	30396.66
707.899	30583.77
708.243	30350.11
708.588	30174.29
708.932	30162.09
709.277	30114.63
709.621	29955.54
709.966	29805.94
710.31	29950.12
710.654	29672.84
710.998	29724.59
711.342	29781.31
711.687	29716
712.031	29476.46
712.375	29449.11
712.719	29490.47
713.063	29337.48
713.407	29433.29
713.75	29309.68
714.094	29266.74
714.438	29076.02
714.782	29169.57
715.125	28972.06
715.469	28968.45
715.812	28860.43
716.156	28791.73
716.499	28782.24
716.843	28778.17
717.186	28716.25
717.53	28665.63
717.873	28666.08
718.216	28657.72
718.559	28353.32
718.902	28291.18
719.246	28502.7
719.589	28406.65
719.932	28314.45
720.275	28191.07
720.617	28241.01
720.96	28139.99
721.303	28111.07
721.646	28145.19
721.989	27964.41
722.331	27990.39
722.674	27993.56
723.016	27935.71
723.359	27878.76
723.701	27820.45
724.044	27798.31
724.386	27524.42
724.729	27712.89
725.071	27516.73
725.413	27457.07
725.755	27567.13
726.097	27436.28
726.439	27373.24
726.782	27260.02
727.124	27438.54
727.465	27303.18
727.807	27233.58
728.149	27241.26
728.491	27128.04
728.833	27244.2
729.175	27092.79
729.516	27135.95
729.858	27072
730.199	27017.99
730.541	27088.95
730.882	26905.68
731.224	27027.71
731.565	26838.33
731.906	26938.67
732.248	26830.65
732.589	26731.67
732.93	26708.17
733.271	26731.9
733.612	26626.81
733.953	26658.23
734.294	26526.25
734.635	26540.94
734.976	26645.8
735.317	26429.98
735.658	26491
735.999	26471.11
736.339	26396.54
736.68	26461.17
737.021	26382.53
737.361	26226.37
737.702	26390.66
738.042	26235.41
738.383	26258.01
738.723	26304.79
739.063	26124.91
739.404	26258.01
739.744	26217.79
740.084	26051.91
740.424	26043.33
740.764	26008.3
741.104	26125.58
741.444	25866.83
741.784	25919.49
742.124	25938.02
742.464	25808.08
742.804	25792.49
743.143	25676.56
743.483	25762.88
743.823	25669.55
744.162	25655.54
744.502	25759.94
744.841	25554.53
745.181	25679.49
745.52	25587.97
745.86	25522.21
746.199	25624.35
746.538	25532.38
746.877	25591.81
747.216	25546.39
747.556	25427.98
747.895	25483.79
748.234	25338.94
748.573	25354.98
748.911	25344.81
749.25	25244.03
749.589	25200.41
749.928	25294.87
750.267	25226.17
750.605	25214.65
750.944	25203.57
751.283	25096.01
751.621	25162.67
751.96	25035.67
752.298	24969.23
752.636	25037.7
752.975	24834.54
753.313	24854.43
753.651	25036.8
753.989	24790.03
754.327	24821.21
754.666	24691.72
755.004	24770.59
755.342	24731.27
755.679	24733.08
756.017	24565.63
756.355	24654.21
756.693	24532.41
757.031	24611.5
757.368	24409.25
757.706	24437.72
758.044	24320.21
758.381	24305.97
758.719	24287.44
759.056	24388.23
759.394	24207.22
759.731	24025.98
760.068	24063.04
760.405	24094.9
760.743	23983.27
761.08	24001.35
761.417	23894.91
761.754	23871.41
762.091	23710.05
762.428	23774.01
762.765	23540.79
763.102	23650.85
763.438	23593.9
763.775	23477.29
764.112	23469.83
764.449	23630.96
764.785	23381.7
765.122	23323.62
765.458	23254.93
765.795	23175.38
766.131	23133.35
766.467	23000.47
766.804	22995.5
767.14	22771.77
767.476	22873.47
767.812	22788.04
768.148	22889.74
768.485	22590.54
768.821	22531.78
769.157	22574.27
769.492	22380.82
769.828	22448.17
770.164	22303.09
770.5	22152.36
770.836	22243.43
771.171	22002.98
771.507	22059.02
771.842	21848.63
772.178	21821.29
772.513	21737.68
772.849	21727.96
773.184	21753.04
773.519	21672.37
773.855	21474.86
774.19	21476.67
774.525	21374.97
774.86	21342.89
775.195	21264.24
775.53	21205.94
775.865	21055.89
776.2	20984.02
776.535	20875.55
776.87	20777.93
777.205	20791.49
777.539	20678.95
777.874	20677.37
778.209	20515.79
778.543	20491.83
778.878	20395.34
779.212	20284.16
779.547	20188.11
779.881	20280.77
780.215	20070.15
780.55	20132.97
780.884	20069.02
781.218	19942.7
781.552	19949.7
781.886	19828.8
782.22	19690.95
782.554	19664.29
782.888	19483.5
783.222	19441.92
783.556	19316.27
783.889	19326.22
784.223	19256.16
784.557	19123.28
784.89	19232.21
785.224	19083.74
785.557	18949.73
785.891	18933.01
786.224	18868.37
786.558	18829.73
786.891	18704.31
787.224	18584.31
787.557	18586.12
787.891	18544.31
788.224	18512.45
788.557	18479.68
788.89	18419.8
789.223	18331.66
789.556	18164.66
789.888	18160.82
790.221	18158.79
790.554	17980.71
790.887	17944.56
791.219	17887.16
791.552	17810.32
791.884	17844.22
792.217	17778.23
792.549	17644.23
792.882	17580.27
793.214	17519.71
793.546	17520.84
793.879	17456.66
794.211	17301.86
794.543	17363.55
794.875	17330.34
795.207	17350.22
795.539	17132.83
795.871	17150.68
796.203	17090.12
796.535	16961.98
796.867	16875.21
797.198	16811.48
797.53	16815.32
797.862	16735.55
798.193	16714.53
798.525	16569.23
798.856	16604.48
799.188	16483.8
799.519	16457.59
799.85	16399.96
800.182	16449.45
800.513	16395.22
800.844	16208.56
801.175	16351.6
801.506	16236.13
801.837	16132.63
802.168	16116.13
802.499	16022.35
802.83	16000.43
803.161	15858.51
803.491	16011.27
803.822	15898.51
804.153	15816.93
804.483	15618.52
804.814	15621.23
805.145	15652.19
805.475	15666.88
805.805	15549.82
806.136	15561.79
806.466	15505.98
806.796	15424.85
807.126	15313.89
807.457	15343.95
807.787	15328.58
808.117	15247.45
808.447	15127.68
808.777	15227.79
809.107	15160.45
809.436	15121.13
809.766	15113.9
810.096	15047.23
810.426	14945.77
810.755	14944.18
811.085	14880.46
811.414	14883.39
811.744	14829.16
812.073	14732.21
812.403	14780.57
812.732	14694.47
813.061	14714.36
813.39	14591.42
813.719	14477.98
814.049	14586.23
814.378	14452.9
814.707	14461.48
815.036	14355.95
815.365	14369.06
815.693	14318.21
816.022	14331.54
816.351	14270.75
816.68	14169.97
817.008	14152.11
817.337	14118.89
817.665	14055.85
817.994	14024.89
818.322	14065.34
818.651	13975.4
818.979	13959.35
819.307	13977.66
819.636	13896.08
819.964	13897.21
820.292	13847.71
820.62	13877.54
820.948	13786.93
821.276	13806.13
821.604	13880.71
821.932	13855.85
822.259	13801.61
822.587	13820.6
822.915	13703.76
823.243	13800.48
823.57	13838.68
823.898	13788.73
824.225	13682.07
824.553	13736.31
824.88	13740.15
825.207	13775.85
825.535	13724.33
825.862	13730.88
826.189	13760.71
826.516	13749.41
826.843	13804.78
827.17	13777.21
827.497	13812.46
827.824	13802.74
828.151	13773.82
828.478	13712.35
828.805	13825.79
829.131	13731.56
829.458	13752.58
829.785	13673.03
830.111	13656.99
830.438	13802.07
830.764	13775.17
831.09	13765.68
831.417	13613.82
831.743	13662.86
832.069	13745.57
832.395	13647.95
832.722	13706.7
833.048	13623.09
833.374	13611.79
833.7	13617.21
834.026	13622.64
834.351	13567.5
834.677	13578.34
835.003	13649.3
835.329	13589.19
835.654	13504.22
835.98	13427.16
836.306	13523.2
836.631	13442.08
836.956	13504
837.282	13434.39
837.607	13398.01
837.932	13436.2
838.258	13299.03
838.583	13351.91
838.908	13269.2
839.233	13289.09
839.558	13222.65
839.883	13232.36
840.208	13118.47
840.533	13149.65
840.858	13188.98
841.182	13146.49
841.507	13124.8
841.832	13021.75
842.156	13077.34
842.481	13078.7
842.805	13006.38
843.13	12931.58
843.454	12956.21
843.778	12865.14
844.103	12844.58
844.427	12851.58
844.751	12798.25
845.075	12770
845.399	12687.52
845.723	12677.8
846.047	12728.65
846.371	12596
846.695	12575.21
847.019	12523.46
847.343	12437.13
847.666	12410.01
847.99	12313.97
848.313	12285.95
848.637	12214.09
848.96	12243.01
849.284	12154.88
849.607	12090.7
849.931	12012.96
850.254	11972.51
850.577	11926.18
850.9	11848.67
851.223	11855
851.546	11817.49
851.869	11691.61
852.192	11775.68
852.515	11622.91
852.838	11569.81
853.161	11574.33
853.483	11481.22
853.806	11463.82
854.129	11472.86
854.451	11439.64
854.774	11436.93
855.096	11387.67
855.419	11356.48
855.741	11341.11
856.063	11278.07
856.385	11178.63
856.708	11147
857.03	11109.03
857.352	11153.55
857.674	11103.15
857.996	11040.56
858.318	11034.91
858.64	10943.38
858.961	10921.69
859.283	10991.74
859.605	10895.48
859.926	10953.33
860.248	10834.46
860.57	10871.07
860.891	10875.14
861.212	10711.53
861.534	10773.22
861.855	10749.04
862.176	10712.88
862.498	10718.53
862.819	10703.16
863.14	10645.99
863.461	10560.12
863.782	10561.47
864.103	10624.07
864.424	10528.03
864.745	10557.18
865.065	10429.5
865.386	10461.14
865.707	10456.17
866.027	10452.78
866.348	10442.15
866.668	10437.86
866.989	10441.93
867.309	10286.9
867.63	10325.32
867.95	10302.27
868.27	10291.88
868.59	10255.95
868.91	10266.11
869.23	10235.38
869.55	10109.28
869.87	10274.48
870.19	10215.49
870.51	10189.51
870.83	10206.68
871.15	10134.82
871.469	10144.99
871.789	10124.42
872.109	10150.64
872.428	10093.92
872.748	10062.05
873.067	10153.35
873.386	10042.39
873.706	10034.93
874.025	9995.84
874.344	9938.67
874.663	9984.09
874.982	9923.07
875.301	9994.03
875.62	9959
875.939	9955.16
876.258	9859.8
876.577	9886.24
876.896	9872.68
877.214	9840.36
877.533	9808.95
877.852	9868.84
878.17	9781.38
878.489	9820.25
878.807	9834.94
879.125	9738.22
879.444	9751.78
879.762	9728.73
880.08	9759.46
880.398	9643.31
880.716	9690.31
881.034	9664.77
881.352	9631.78
881.67	9569.86
881.988	9589.97
882.306	9540.03
882.624	9538.68
882.941	9435.4
883.259	9446.7
883.577	9496.42
883.894	9334.84
884.212	9396.98
884.529	9475.17
884.846	9326.7
885.164	9319.92
885.481	9324.22
885.798	9368.96
886.115	9262.52
886.432	9260.26
886.75	9243.77
887.067	9232.02
887.383	9154.28
887.7	9107.27
888.017	9136.43
888.334	9186.14
888.651	9120.61
888.967	9102.08
889.284	9022.31
889.6	9105.47
889.917	8983.44
890.233	9022.08
890.55	8920.84
890.866	8977.33
891.182	8851.01
891.498	8884
891.815	8855.53
892.131	8815.53
892.447	8831.12
892.763	8740.96
893.079	8750.67
893.395	8675.42
893.71	8695.99
894.026	8671.81
894.342	8646.95
894.657	8582.99
894.973	8617.57
895.289	8563.33
895.604	8544.8
895.92	8553.16
896.235	8444.02
896.55	8418.71
896.865	8423.22
897.181	8430.46
897.496	8410.57
897.811	8272.27
898.126	8291.7
898.441	8304.36
898.756	8264.13
899.071	8162.44
899.386	8192.95
899.7	8170.12
900.015	8112.27
900.33	8067.53
900.644	7976.68
900.959	8117.24
901.273	8007.64
901.588	7957.93
901.902	7955.21
902.216	7936.23
902.531	7915.67
902.845	7887.19
903.159	7830.02
903.473	7819.62
903.787	7809.46
904.101	7684.49
904.415	7772.17
904.729	7683.58
905.042	7621.21
905.356	7653.75
905.67	7634.32
905.984	7622.57
906.297	7620.53
906.611	7482.01
906.924	7477.94
907.237	7482.23
907.551	7473.42
907.864	7401.56
908.177	7407.66
908.491	7328.56
908.804	7362.01
909.117	7266.87
909.43	7191.17
909.743	7240.88
910.056	7278.62
910.368	7180.77
910.681	7129.93
910.994	7130.38
911.307	7095.12
911.619	7036.59
911.932	7009.7
912.244	6953.21
912.557	6976.71
912.869	6927.44
913.181	6937.61
913.494	6854.23
913.806	6830.72
914.118	6842.02
914.43	6742.14
914.742	6767.45
915.054	6714.57
915.366	6670.05
915.678	6717.06
915.99	6689.49
916.302	6628.24
916.613	6641.8
916.925	6622.37
917.236	6529.72
917.548	6567.45
917.859	6541.47
918.171	6492.88
918.482	6453.11
918.794	6454.24
919.105	6360.68
919.416	6321.59
919.727	6360.23
920.038	6340.57
920.349	6253.11
920.66	6259.44
920.971	6225.32
921.282	6220.12
921.593	6165.43
921.903	6152.32
922.214	6157.52
922.525	6101.03
922.835	6069.84
923.146	6031.42
923.456	6030.97
923.767	6040.01
924.077	5973.8
924.387	6002.05
924.697	5952.1
925.008	5877.76
925.318	5867.59
925.628	5862.61
925.938	5847.47
926.248	5753.24
926.558	5751.88
926.867	5710.53
927.177	5717.31
927.487	5689.06
927.796	5587.37
928.106	5660.13
928.416	5614.03
928.725	5596.63
929.034	5545.11
929.344	5540.59
929.653	5492.23
929.962	5499.23
930.271	5512.79
930.581	5411.1
930.89	5422.17
931.199	5412.91
931.508	5349.86
931.817	5347.15
932.125	5380.59
932.434	5322.06
932.743	5270.99
933.051	5247.94
933.36	5263.76
933.669	5197.32
933.977	5195.74
934.286	5200.03
934.594	5204.33
934.902	5118.45
935.21	5128.62
935.519	5130.2
935.827	5081.84
936.135	5026.25
936.443	4988.96
936.751	4988.29
937.059	4981.96
937.367	4982.41
937.674	4946.71
937.982	4958.23
938.29	4916.88
938.597	4923.88
938.905	4837.78
939.213	4835.52
939.52	4804.34
939.827	4831
940.135	4748.52
940.442	4762.98
940.749	4770.89
941.056	4740.38
941.363	4715.75
941.67	4668.52
941.977	4691.57
942.284	4631.91
942.591	4645.92
942.898	4607.28
943.205	4569.31
943.511	4516.21
943.818	4530.22
944.125	4516.89
944.431	4546.04
944.738	4466.72
945.044	4478.7
945.35	4447.74
945.657	4440.96
945.963	4412.71
946.269	4436.44
946.575	4397.79
946.881	4343.78
947.187	4363.22
947.493	4319.15
947.799	4267.63
948.105	4284.58
948.41	4289.55
948.716	4241.87
949.022	4201.41
949.327	4208.87
949.633	4163.45
949.938	4186.5
950.244	4172.26
950.549	4101.08
950.854	4065.15
951.16	4104.47
951.465	4052.72
951.77	4053.17
952.075	4028.76
952.38	4022.66
952.685	4013.17
952.99	3972.04
953.294	3968.2
953.599	3919.39
953.904	3941.31
954.209	3945.38
954.513	3911.71
954.818	3886.62
955.122	3838.03
955.426	3820.18
955.731	3854.98
956.035	3839.84
956.339	3827.19
956.643	3785.83
956.948	3737.02
957.252	3719.85
957.556	3712.39
957.86	3706.29
958.163	3676.46
958.467	3704.7
958.771	3680.3
959.075	3683.01
959.378	3638.72
959.682	3659.06
959.985	3626.51
960.289	3593.52
960.592	3572.96
960.896	3523.01
961.199	3512.85
961.502	3522.34
961.805	3544.71
962.108	3537.03
962.411	3493.86
962.714	3417.03
963.017	3433.53
963.32	3433.75
963.623	3405.96
963.926	3455.22
964.228	3380.19
964.531	3375.45
964.833	3379.06
965.136	3352.4
965.438	3341.78
965.741	3281.67
966.043	3254.77
966.345	3273.3
966.648	3284.15
966.95	3247.09
967.252	3204.83
967.554	3230.82
967.856	3237.82
968.158	3221.33
968.46	3186.53
968.761	3171.39
969.063	3194.66
969.365	3200.31
969.666	3148.11
969.968	3106.08
970.269	3096.81
970.571	3092.07
970.872	3086.87
971.174	3034.89
971.475	3005.51
971.776	3038.06
972.077	3015.01
972.378	3010.49
972.679	3029.24
972.98	2980.2
973.281	2976.14
973.582	3001.67
973.883	2940.43
974.183	2924.39
974.484	2920.09
974.785	2916.93
975.085	2890.49
975.386	2866.08
975.686	2817.27
975.986	2857.72
976.287	2829.7
976.587	2838.06
976.887	2843.94
977.187	2849.36
977.487	2812.07
977.787	2787.44
978.087	2775.01
978.387	2774.79
978.687	2736.37
978.987	2755.35
979.286	2753.77
979.586	2747.22
979.885	2686.65
980.185	2727.33
980.484	2659.99
980.784	2622.7
981.083	2659.31
981.382	2653.66
981.682	2647.78
981.981	2610.95
982.28	2606.43
982.579	2578.86
982.878	2580.67
983.177	2550.61
983.475	2571.18
983.774	2536.37
984.073	2564.85
984.372	2500.89
984.67	2532.76
984.969	2518.75
985.267	2524.4
985.566	2479.88
985.864	2448.69
986.162	2426.32
986.461	2438.07
986.759	2434.23
987.057	2438.52
987.355	2414.8
987.653	2408.02
987.951	2386.1
988.249	2394
988.547	2362.59
988.844	2353.78
989.142	2362.82
989.44	2320.11
989.737	2340.22
990.035	2310.62
990.332	2268.58
990.63	2273.33
990.927	2275.14
991.224	2285.31
991.521	2271.3
991.819	2282.14
992.116	2251.41
992.413	2260.45
992.71	2200.34
993.006	2216.38
993.303	2201.24
993.6	2165.54
993.897	2184.74
994.193	2164.18
994.49	2139.77
994.787	2168.25
995.083	2161.24
995.379	2094.35
995.676	2149.27
995.972	2100.91
996.268	2077.4
996.565	2099.32
996.861	2090.06
997.157	2059.78
997.453	2035.14
997.749	2053.9
998.044	2031.98
998.34	2068.59
998.636	2006.44
998.932	2013.22
999.227	1994.24
999.523	1966.45
999.818	1975.26
1000.114	1963.06
1000.409	1938.65
1000.704	1939.55
1001	1924.64
1001.295	1918.09
1001.59	1905.88
1001.885	1934.81
1002.18	1915.6
1002.475	1843.96
1002.77	1872.44
1003.065	1853
1003.359	1860.46
1003.654	1850.97
1003.949	1832.89
1004.243	1850.97
1004.538	1777.98
1004.832	1791.76
1005.127	1787.69
1005.421	1788.37
1005.715	1768.03
1006.009	1775.26
1006.304	1748.37
1006.598	1751.99
1006.892	1724.64
1007.186	1734.36
1007.48	1691.88
1007.773	1724.19
1008.067	1695.72
1008.361	1668.6
1008.655	1676.74
1008.948	1673.35
1009.242	1675.15
1009.535	1632.89
1009.829	1637.87
1010.122	1634.7
1010.415	1641.48
1010.708	1626.34
1011.001	1604.87
1011.295	1599.22
1011.588	1574.82
1011.881	1584.31
1012.173	1566
1012.466	1554.7
1012.759	1567.81
1013.052	1561.94
1013.344	1541.82
1013.637	1540.47
1013.93	1538.66
1014.222	1483.07
1014.514	1482.84
1014.807	1470.19
1015.099	1502.5
1015.391	1460.7
1015.683	1465.67
1015.976	1448.72
1016.268	1464.31
1016.56	1427.7
1016.851	1442.39
1017.143	1417.31
1017.435	1418.89
1017.727	1420.92
1018.018	1412.11
1018.31	1393.35
1018.602	1363.07
1018.893	1382.96
1019.185	1377.08
1019.476	1342.06
1019.767	1340.93
1020.058	1325.56
1020.35	1326.01
1020.641	1317.2
1020.932	1311.55
1021.223	1271.77
1021.514	1278.78
1021.804	1294.15
1022.095	1282.4
1022.386	1279.23
1022.677	1266.58
1022.967	1234.49
1023.258	1268.84
1023.548	1240.81
1023.839	1204.43
1024.129	1220.25
1024.419	1217.09
1024.709	1186.8
1025	1177.99
1025.29	1178.22
1025.58	1174.38
1025.87	1171.44
1026.16	1165.34
1026.449	1144.55
1026.739	1157.88
1027.029	1151.1
1027.319	1154.04
1027.608	1134.6
1027.898	1129.63
1028.187	1136.64
1028.477	1108.61
1028.766	1080.37
1029.055	1087.15
1029.344	1098.9
1029.634	1090.76
1029.923	1067.26
1030.212	1058.9
1030.501	1055.28
1030.79	1027.71
1031.078	1046.47
1031.367	1044.89
1031.656	1005.34
1031.945	1020.93
1032.233	1026.81
1032.522	982.97
1032.81	1022.06
1033.099	1009.86
1033.387	1017.77
1033.675	1004.44
1033.963	1008.28
1034.251	978.45
1034.54	947.72
1034.828	972.12
1035.116	956.08
1035.403	957.21
1035.691	963.53
1035.979	928.96
1036.267	933.48
1036.554	938.22
1036.842	922.86
1037.129	904.78
1037.417	900.26
1037.704	893.71
1037.992	891.67
1038.279	899.35
1038.566	888.28
1038.853	888.28
1039.14	888.28
