Data from hue_80_FLMS001491_4.txt Node
Date: Mon Feb 06 15:22:22 GMT 2017
User: dcchb
Spectrometer: FLMS00149
Trigger mode: 0
Integration Time (sec): 2.000000E-2
Scans to average: 10
Electric dark correction enabled: true
Nonlinearity correction enabled: false
Boxcar width: 0
XAxis mode: Wavelengths
Number of Pixels in Spectrum: 2048
>>>>>Begin Spectral Data<<<<<
341.393	-4.96
341.776	-4.96
342.16	-4.96
342.543	-57.84
342.927	-51.28
343.31	-60.32
343.693	-57.84
344.077	-50.61
344.46	-54.22
344.843	-54.45
345.226	-49.02
345.61	-30.04
345.993	-24.17
346.376	-32.08
346.759	-0.21
347.142	20.35
347.525	56.28
347.908	60.35
348.291	66.91
348.674	93.35
349.057	115.72
349.44	114.36
349.823	133.12
350.206	159.56
350.588	190.97
350.971	209.27
351.354	229.39
351.737	221.7
352.119	240.91
352.502	247.01
352.884	259.22
353.267	288.59
353.65	289.95
354.032	292.21
354.414	300.12
354.797	333.34
355.179	322.27
355.562	323.85
355.944	322.94
356.326	328.59
356.709	325.88
357.091	337.18
357.473	327.92
357.855	325.43
358.238	324.98
358.62	335.82
359.002	355.49
359.384	333.34
359.766	350.51
360.148	331.3
360.53	344.41
360.912	322.27
361.294	336.73
361.676	334.24
362.057	330.85
362.439	328.59
362.821	341.02
363.203	340.8
363.584	324.3
363.966	315.26
364.348	325.43
364.729	306.45
365.111	335.6
365.493	327.92
365.874	327.01
366.256	316.39
366.637	323.62
367.019	308.48
367.4	312.1
367.781	314.36
368.163	325.2
368.544	316.16
368.925	305.32
369.306	317.07
369.688	314.58
370.069	312.1
370.45	298.31
370.831	315.94
371.212	327.69
371.593	312.32
371.974	317.52
372.355	319.55
372.736	319.55
373.117	312.1
373.498	301.93
373.879	297.63
374.26	314.81
374.641	313.9
375.021	307.58
375.402	304.19
375.783	343.73
376.163	341.47
376.544	312.32
376.925	298.31
377.305	325.88
377.686	329.5
378.066	303.51
378.447	359.33
378.827	318.88
379.208	311.87
379.588	320.23
379.968	311.42
380.349	294.02
380.729	334.02
381.109	330.85
381.489	331.76
381.87	331.76
382.25	347.8
382.63	320.91
383.01	328.82
383.39	344.41
383.77	317.52
384.15	313.23
384.53	336.28
384.91	345.32
385.29	336.05
385.67	350.06
386.049	345.77
386.429	344.64
386.809	338.99
387.189	367.69
387.568	327.46
387.948	342.83
388.328	328.82
388.707	347.8
389.087	361.81
389.466	365.2
389.846	364.98
390.225	353.45
390.605	349.16
390.984	369.27
391.363	351.87
391.743	336.95
392.122	364.98
392.501	355.49
392.881	366.11
393.26	364.07
393.639	371.76
394.018	393.45
394.397	367.91
394.776	355.26
395.155	371.3
395.534	352.77
395.913	354.36
396.292	366.33
396.671	390.51
397.05	366.56
397.429	376.95
397.808	392.09
398.186	394.58
398.565	390.74
398.944	379.89
399.323	387.12
399.701	387.12
400.08	408.59
400.458	407.46
400.837	404.07
401.215	393.9
401.594	381.47
401.972	404.07
402.351	403.39
402.729	405.65
403.107	406.56
403.486	385.99
403.864	407.91
404.242	409.04
404.62	410.85
404.999	421.92
405.377	408.59
405.755	413.34
406.133	385.31
406.511	416.27
406.889	430.51
407.267	419.44
407.645	431.87
408.023	423.05
408.401	437.29
408.779	437.06
409.156	421.92
409.534	414.69
409.912	441.81
410.29	444.3
410.667	437.06
411.045	451.75
411.422	456.27
411.8	431.42
412.178	441.58
412.555	477.52
412.933	452.43
413.31	460.12
413.687	475.48
414.065	464.41
414.442	476.39
414.819	494.92
415.197	473.67
415.574	484.75
415.951	481.13
416.328	470.28
416.705	465.76
417.082	485.2
417.46	500.11
417.837	501.7
418.214	495.59
418.591	504.18
418.967	499.21
419.344	500.79
419.721	515.48
420.098	515.03
420.475	498.31
420.852	529.72
421.228	529.04
421.605	543.28
421.982	527.23
422.358	506.89
422.735	532.43
423.111	522.49
423.488	534.92
423.864	519.1
424.241	560.68
424.617	542.6
424.994	545.99
425.37	563.16
425.746	536.05
426.123	573.78
426.499	554.58
426.875	577.63
427.251	574.69
427.627	556.16
428.003	574.91
428.379	597.96
428.756	569.72
429.132	590.96
429.507	590.73
429.883	596.83
430.259	608.13
430.635	611.98
431.011	592.09
431.387	631.64
431.763	610.62
432.138	635.25
432.514	636.16
432.89	635.48
433.265	619.43
433.641	667.79
434.016	645.19
434.392	656.95
434.767	688.36
435.143	651.3
435.518	658.98
435.894	684.06
436.269	685.19
436.644	699.43
437.02	710.05
437.395	707.57
437.77	714.57
438.145	729.49
438.52	731.29
438.895	728.13
439.271	728.81
439.646	740.79
440.021	735.81
440.395	722.48
440.77	736.27
441.145	751.18
441.52	766.1
441.895	762.93
442.27	775.81
442.645	785.98
443.019	774.01
443.394	786.66
443.769	793.89
444.143	788.02
444.518	775.13
444.892	784.4
445.267	784.85
445.641	807
446.016	802.48
446.39	805.87
446.764	820.11
447.139	817.62
447.513	828.24
447.887	832.08
448.262	842.48
448.636	834.34
449.01	843.83
449.384	850.61
449.758	844.51
450.132	866.43
450.506	868.47
450.88	887.67
451.254	852.65
451.628	882.25
452.002	894.23
452.376	912.08
452.75	914.11
453.123	909.82
453.497	933.77
453.871	958.41
454.244	950.95
454.618	961.12
454.992	958.63
455.365	1009.03
455.739	996.37
456.112	988.24
456.486	1006.54
456.859	1028.46
457.232	1037.73
457.606	1030.5
457.979	1049.7
458.352	1076.6
458.725	1052.42
459.099	1077.27
459.472	1103.04
459.845	1113.43
460.218	1132.41
460.591	1152.3
460.964	1111.62
461.337	1146.88
461.71	1190.94
462.083	1190.49
462.456	1182.36
462.829	1185.75
463.201	1241.79
463.574	1228.23
463.947	1253.77
464.32	1269.81
464.692	1301.9
465.065	1326.53
465.438	1322.24
465.81	1344.61
466.183	1380.77
466.555	1418.28
466.928	1399.98
467.3	1395.23
467.672	1432.97
468.045	1468
468.417	1489.69
468.789	1518.17
469.161	1512.29
469.534	1562.01
469.906	1597.94
470.278	1580.76
470.65	1637.71
471.022	1652.17
471.394	1701.89
471.766	1743.47
472.138	1802.23
472.51	1816.01
472.882	1840.42
473.253	1867.99
473.625	1901.43
473.997	1935.1
474.369	1976.91
474.74	2022.79
475.112	2046.29
475.484	2156.79
475.855	2172.39
476.227	2218.94
476.598	2263.91
476.97	2317.92
477.341	2376.9
477.713	2462.32
478.084	2508.65
478.455	2578.7
478.827	2658.25
479.198	2720.85
479.569	2738.47
479.94	2904.34
480.311	2924.23
480.682	3015.75
481.053	3129.2
481.424	3156.32
481.795	3238.35
482.166	3345.69
482.537	3425.46
482.908	3535.97
483.279	3547.49
483.65	3725.11
484.021	3852.57
484.391	3905.9
484.762	4035.61
485.133	4104.31
485.503	4260.92
485.874	4365.55
486.244	4439.67
486.615	4624.3
486.985	4684.86
487.356	4865.65
487.726	4937.51
488.097	5137.28
488.467	5133.89
488.837	5361.46
489.207	5516.03
489.578	5613.65
489.948	5711.73
490.318	5887.77
490.688	5964.83
491.058	6153.3
491.428	6286.18
491.798	6421.09
492.168	6558.71
492.538	6647.52
492.908	6832.83
493.278	7044.35
493.648	7084.8
494.017	7195.76
494.387	7419.93
494.757	7490.89
495.126	7664.67
495.496	7753.26
495.866	7977.21
496.235	8062.18
496.605	8198.89
496.974	8294.49
497.344	8483.41
497.713	8630.07
498.082	8691.76
498.452	8869.16
498.821	9019.44
499.19	9095.37
499.559	9259.21
499.928	9361.35
500.298	9416.72
500.667	9627.11
501.036	9675.69
501.405	9792.98
501.774	9905.97
502.143	10044.95
502.512	10138.5
502.88	10333.53
503.249	10353.41
503.618	10470.47
503.987	10610.36
504.356	10696
504.724	10848.09
505.093	10956.56
505.462	10981.42
505.83	11007.63
506.199	11294.63
506.567	11439.94
506.936	11406.49
507.304	11594.29
507.672	11648.97
508.041	11792.47
508.409	11888.52
508.777	11986.59
509.145	12242.63
509.514	12164.89
509.882	12253.7
510.25	12283.98
510.618	12359.24
510.986	12464.77
511.354	12657.53
511.722	12715.84
512.09	12824.76
512.458	12891.88
512.826	12967.58
513.193	13070.86
513.561	13120.35
513.929	13233.11
514.297	13391.3
514.664	13348.14
515.032	13444.41
515.4	13576.15
515.767	13593.1
516.135	13713.55
516.502	13583.84
516.869	13907.45
517.237	13923.26
517.604	13909.03
517.972	14046.2
518.339	14091.62
518.706	14117.61
519.073	14222.01
519.44	14307.21
519.808	14389.69
520.175	14379.07
520.542	14635.34
520.909	14585.39
521.276	14578.84
521.643	14709.91
522.009	14798.04
522.376	14979.96
522.743	15003.91
523.11	15094.53
523.477	15109.22
523.843	15215.43
524.21	15304.7
524.577	15424.24
524.943	15431.7
525.31	15551.7
525.676	15626.95
526.043	15723.44
526.409	15772.93
526.776	15804.12
527.142	15921.86
527.508	15885.25
527.874	15966.15
528.241	16075.75
528.607	16108.07
528.973	16206.14
529.339	16118.01
529.705	16214.73
530.071	16256.08
530.437	16351
530.803	16386.25
531.169	16445.68
531.535	16408.62
531.901	16419.92
532.267	16503.99
532.632	16484.1
532.998	16524.55
533.364	16623.53
533.73	16552.57
534.095	16784.88
534.461	16682.74
534.826	16740.82
535.192	16817.2
535.557	16886.12
535.923	16749.63
536.288	16740.14
536.653	16842.96
537.019	16822.62
537.384	16685.9
537.749	16762.96
538.114	16713.47
538.479	16780.82
538.845	16811.1
539.21	16713.47
539.575	16784.88
539.94	16847.71
540.305	16870.53
540.67	16727.71
541.034	16832.79
541.399	16821.49
541.764	16834.6
542.129	16948.72
542.494	16792.79
542.858	16886.12
543.223	16850.87
543.587	16786.01
543.952	16831.89
544.316	16798.44
544.681	16784.88
545.045	16773.13
545.41	16866.46
545.774	16788.27
546.138	16759.12
546.503	16848.84
546.867	16733.36
547.231	16821.27
547.595	16752.57
547.959	16773.36
548.324	16672.34
548.688	16815.62
549.052	16740.36
549.416	16705.79
549.779	16687.71
550.143	16759.57
550.507	16729.74
550.871	16841.61
551.235	16689.52
551.599	16911.66
551.962	16752.12
552.326	16794.6
552.689	16840.02
553.053	16706.47
553.417	16734.72
553.78	16854.94
554.143	16809.52
554.507	16742.17
554.87	16785.79
555.234	16907.37
555.597	16797.76
555.96	16839.57
556.323	16758.67
556.686	16777.2
557.05	16891.77
557.413	16897.2
557.776	16902.17
558.139	16943.07
558.502	16875.05
558.865	16850.87
559.228	17050.87
559.59	17038.44
559.953	16950.08
560.316	17131.54
560.679	16981.49
561.041	17105.1
561.404	17173.57
561.767	17176.06
562.129	17122.28
562.492	17321.37
562.854	17208.6
563.217	17172.67
563.579	17372.66
563.941	17322.95
564.304	17393
564.666	17469.16
565.028	17470.06
565.39	17451.08
565.753	17566.78
566.115	17529.72
566.477	17578.31
566.839	17567.69
567.201	17668.93
567.563	17542.38
567.925	17630.96
568.287	17677.52
568.648	17681.81
569.01	17717.06
569.372	17816.95
569.734	17757.97
570.095	17889.26
570.457	17970.16
570.819	17842.26
571.18	17886.78
571.542	17888.13
571.903	18022.59
572.265	18025.53
572.626	18049.48
572.987	18095.13
573.349	18095.13
573.71	18206.09
574.071	18166.77
574.432	18308.46
574.794	18315.01
575.155	18266.2
575.516	18228.46
575.877	18273.43
576.238	18222.81
576.599	18370.38
576.96	18228.46
577.32	18356.82
577.681	18305.3
578.042	18405.41
578.403	18435.24
578.763	18336.93
579.124	18296.71
579.485	18520.43
579.845	18471.39
580.206	18334.45
580.566	18407.21
580.927	18435.01
581.287	18506.65
581.648	18371.28
582.008	18485.18
582.368	18470.94
582.728	18429.36
583.089	18454.67
583.449	18392.3
583.809	18474.56
584.169	18520.66
584.529	18416.25
584.889	18478.4
585.249	18462.13
585.609	18439.76
585.969	18467.1
586.329	18450.83
586.688	18548.68
587.048	18430.04
587.408	18397.5
587.768	18339.64
588.127	18373.54
588.487	18301.23
588.846	18447.21
589.206	18206.99
589.565	18322.47
589.925	18432.07
590.284	18261.23
590.643	18387.55
591.003	18409.25
591.362	18363.83
591.721	18286.09
592.08	18352.53
592.44	18409.93
592.799	18313.88
593.158	18285.86
593.517	18361.57
593.876	18395.91
594.235	18291.06
594.593	18278.4
594.952	18328.12
595.311	18133.77
595.67	18317.5
596.029	18388.68
596.387	18339.42
596.746	18383.26
597.104	18309.82
597.463	18343.49
597.822	18380.77
598.18	18326.76
598.538	18289.25
598.897	18372.19
599.255	18139.2
599.613	18448.57
599.972	18304.84
600.33	18404.5
600.688	18249.25
601.046	18378.06
601.404	18413.09
601.762	18306.2
602.12	18474.33
602.478	18354.33
602.836	18331.74
603.194	18336.26
603.552	18394.33
603.91	18280.21
604.268	18377.84
604.625	18392.98
604.983	18323.37
605.341	18295.13
605.698	18429.59
606.056	18423.71
606.413	18432.07
606.771	18422.58
607.128	18446.08
607.485	18425.97
607.843	18478.17
608.2	18402.24
608.557	18537.38
608.914	18477.27
609.272	18605.63
609.629	18609.69
609.986	18640.43
610.343	18536.48
610.7	18616.25
611.057	18718.39
611.414	18621.67
611.771	18564.05
612.127	18668.45
612.484	18649.47
612.841	18723.36
613.198	18762.46
613.554	18638.62
613.911	18752.97
614.267	18797.71
614.624	18769.01
614.98	18844.04
615.337	18891.95
615.693	18800.42
616.05	18803.14
616.406	18930.82
616.762	18837.48
617.118	18915.67
617.475	18938.27
617.831	18969.01
618.187	18993.41
618.543	18984.6
618.899	19071.38
619.255	18987.76
619.611	19065.5
619.967	18999.06
620.323	19150.02
620.678	19015.79
621.034	18969.91
621.39	19010.14
621.746	19053.75
622.101	19168.78
622.457	19006.29
622.812	19144.6
623.168	19207.87
623.523	19099.85
623.879	19176.69
624.234	19099.17
624.589	19175.1
624.945	19136.23
625.3	19084.94
625.655	19116.8
626.01	19064.37
626.365	19190.24
626.72	19061.43
627.075	19071.83
627.43	19114.54
627.785	19017.82
628.14	19141.66
628.495	19185.5
628.85	19072.28
629.205	19024.37
629.559	19198.61
629.914	19044.49
630.269	19133.3
630.623	19001.1
630.978	19007.65
631.332	19102.79
631.687	19083.35
632.041	19051.04
632.396	19068.21
632.75	18979.63
633.104	19014.43
633.459	18883.13
633.813	18878.61
634.167	18812.17
634.521	18792.97
634.875	18904.15
635.229	18804.27
635.583	18771.27
635.937	18809.69
636.291	18842
636.645	18681.33
636.999	18723.36
637.352	18795.9
637.706	18642.01
638.06	18722.69
638.413	18696.02
638.767	18676.36
639.121	18651.95
639.474	18630.03
639.828	18532.86
640.181	18632.52
640.534	18624.38
640.888	18527.89
641.241	18445.86
641.594	18527.66
641.947	18595.46
642.301	18533.99
642.654	18600.88
643.007	18464.84
643.36	18496.25
643.713	18456.93
644.066	18500.09
644.419	18405.41
644.771	18185.75
645.124	18155.02
645.477	18167.22
645.83	17975.36
646.182	17942.14
646.535	17862.6
646.888	17929.26
647.24	17866.21
647.593	17956.83
647.945	17829.15
648.298	17787.34
648.65	17775.37
649.002	17728.36
649.355	17728.36
649.707	17757.51
650.059	17909.15
650.411	18048.35
650.763	18034.34
651.115	18198.63
651.467	18241.57
651.819	18214.68
652.171	18175.81
652.523	18131.51
652.875	18193.21
653.227	18106.66
653.578	18222.59
653.93	18192.08
654.282	18056.94
654.633	18081.8
654.985	18104.85
655.337	18104.62
655.688	18171.06
656.039	18181.01
656.391	18065.3
656.742	18151.4
657.094	18127.22
657.445	18138.52
657.796	18155.02
658.147	18118.41
658.498	18161.57
658.849	18232.08
659.2	18171.97
659.551	18108.46
659.902	18185.98
660.253	18128.13
660.604	18276.37
660.955	18088.13
661.306	18241.57
661.656	18164.28
662.007	18159.99
662.358	18231.63
662.708	18239.08
663.059	18241.12
663.409	18108.69
663.76	18264.62
664.11	18262.13
664.461	18236.6
664.811	18258.97
665.161	18218.74
665.511	18166.77
665.862	18216.71
666.212	18187.11
666.562	18189.59
666.912	18169.71
667.262	18138.52
667.612	18228.69
667.962	18168.58
668.312	18199.08
668.662	18325.18
669.011	18177.62
669.361	18208.8
669.711	18174.9
670.06	18153.66
670.41	18214.9
670.76	18098.3
671.109	18242.25
671.459	18099.65
671.808	18114.11
672.157	18095.36
672.507	17984.85
672.856	18038.86
673.205	18041.35
673.554	18094.68
673.904	18052.42
674.253	18120.89
674.602	18017.17
674.951	17786.44
675.3	17635.03
675.649	17965.42
675.998	17942.59
676.346	17996.15
676.695	18061.46
677.044	17828.47
677.393	17902.14
677.741	17882.48
678.09	17955.93
678.438	17851.52
678.787	17981.46
679.135	17937.62
679.484	17747.8
679.832	17872.99
680.181	17761.36
680.529	17716.84
680.877	17701.92
681.225	17588.7
681.573	17779.89
681.922	17605.43
682.27	17478.2
682.618	17532.43
682.966	17512.32
683.314	17574.02
683.661	17370.63
684.009	17426.9
684.357	17343.06
684.705	17372.44
685.053	17305.32
685.4	17352.78
685.748	17230.75
686.095	17206.79
686.443	17042.73
686.79	17074.59
687.138	17095.38
687.485	17101.49
687.832	16988.49
688.18	17017.19
688.527	16936.29
688.874	16943.75
689.221	16952.11
689.568	16849.51
689.915	16758.67
690.262	16726.58
690.609	16709.63
690.956	16681.16
691.303	16577.21
691.65	16503.99
691.997	16520.26
692.344	16436.64
692.69	16335.86
693.037	16339.25
693.383	16196.88
693.73	16284.78
694.077	16220.15
694.423	16194.16
694.769	16055.86
695.116	15987.39
695.462	16026.03
695.808	15955.3
696.155	15941.97
696.501	15913.72
696.847	15841.41
697.193	15699.49
697.539	15822.2
697.885	15582.88
698.231	15533.84
698.577	15463.79
698.923	15462.43
699.269	15409.33
699.614	15325.71
699.96	15406.61
700.306	15293.62
700.651	15192.61
700.997	15206.17
701.342	15224.02
701.688	15141.99
702.033	15117.81
702.379	15057.02
702.724	15015.21
703.069	15013.86
703.415	14802.11
703.76	14821.55
704.105	14778.61
704.45	14760.3
704.795	14647.54
705.14	14610.48
705.485	14572.74
705.83	14480.76
706.175	14495
706.52	14406.64
706.865	14392.18
707.209	14380.88
707.554	14352.86
707.899	14400.99
708.243	14293.65
708.588	14323.48
708.932	14158.74
709.277	14144.27
709.621	14083.94
709.966	14057.27
710.31	14072.19
710.654	13852.31
710.998	13914.22
711.342	13866.99
711.687	13971.85
712.031	13822.25
712.375	13824.28
712.719	13842.36
713.063	13716.26
713.407	13798.97
713.75	13684.85
714.094	13652.76
714.438	13657.06
714.782	13592.2
715.125	13575.25
715.469	13593.56
715.812	13526.89
716.156	13472.2
716.499	13419.77
716.843	13421.81
717.186	13350.17
717.53	13491.41
717.873	13450.73
718.216	13350.85
718.559	13301.59
718.902	13188.82
719.246	13251.42
719.589	13199.44
719.932	13208.48
720.275	13165.09
720.617	13166.9
720.96	13187.01
721.303	13149.72
721.646	13153.79
721.989	13088.48
722.331	13119.22
722.674	13088.71
723.016	13118.09
723.359	13084.19
723.701	13064.98
724.044	12971.65
724.386	12932.78
724.729	12989.5
725.071	12991.08
725.413	12975.04
725.755	12999.67
726.097	12970.52
726.439	12873.12
726.782	12848.49
727.124	12862.05
727.465	12880.81
727.807	12868.38
728.149	12806.46
728.491	12868.15
728.833	12890.07
729.175	12796.51
729.516	12764.42
729.858	12767.36
730.199	12785.21
730.541	12824.31
730.882	12724.43
731.224	12765.1
731.565	12726.46
731.906	12756.29
732.248	12831.77
732.589	12669.96
732.93	12707.7
733.271	12746.12
733.612	12672
733.953	12711.32
734.294	12668.38
734.635	12620.25
734.976	12735.95
735.317	12623.86
735.658	12665.9
735.999	12736.4
736.339	12636.07
736.68	12735.05
737.021	12648.95
737.361	12697.76
737.702	12705.22
738.042	12728.94
738.383	12589.06
738.723	12687.82
739.063	12702.73
739.404	12697.76
739.744	12766.91
740.084	12618.44
740.424	12740.24
740.764	12688.27
741.104	12789.06
741.444	12782.05
741.784	12698.89
742.124	12748.38
742.464	12763.29
742.804	12789.51
743.143	12815.95
743.483	12787.93
743.823	12740.92
744.162	12852.11
744.502	12902.05
744.841	12943.63
745.181	12988.15
745.52	12931.2
745.86	13038.09
746.199	13013.23
746.538	13083.96
746.877	13118.99
747.216	13186.11
747.556	13212.55
747.895	13201.93
748.234	13146.34
748.573	13284.86
748.911	13360.34
749.25	13416.38
749.589	13402.6
749.928	13557.85
750.267	13579.54
750.605	13617.51
750.944	13694.8
751.283	13703.38
751.621	13892.08
751.96	13854.79
752.298	13932.98
752.636	14064.28
752.975	14037.39
753.313	14107.67
753.651	14354.66
753.989	14352.63
754.327	14535.23
754.666	14547.65
755.004	14684.6
755.342	14842.79
755.679	14889.11
756.017	14987.19
756.355	15184.02
756.693	15211.59
757.031	15273.06
757.368	15360.97
757.706	15497.91
758.044	15564.58
758.381	15777.23
758.719	15836.43
759.056	15946.04
759.394	16085.47
759.731	16157.33
760.068	16247.72
760.405	16477.77
760.743	16451.33
761.08	16649.29
761.417	16679.12
761.754	16865.11
762.091	16915.73
762.428	17077.76
762.765	17000.02
763.102	17269.39
763.438	17230.52
763.775	17427.35
764.112	17495.37
764.449	17627.8
764.785	17663.05
765.122	17788.7
765.458	17828.7
765.795	17913.67
766.131	18063.72
766.467	18084.96
766.804	18100.33
767.14	18166.32
767.476	18246.99
767.812	18296.93
768.148	18446.31
768.485	18422.81
768.821	18453.09
769.157	18510.49
769.492	18586.42
769.828	18584.84
770.164	18566.08
770.5	18533.99
770.836	18694.66
771.171	18705.29
771.507	18703.25
771.842	18664.83
772.178	18904.15
772.513	18832.51
772.849	18887.88
773.184	18828.22
773.519	18942.57
773.855	18873.64
774.19	18953.19
774.525	18898.05
774.86	18921.78
775.195	18908.44
775.53	18855.79
775.865	18819.86
776.2	18846.3
776.535	18776.47
776.87	18891.27
777.205	18824.15
777.539	18771.95
777.874	18889.01
778.209	18740.31
778.543	18799.07
778.878	18732.85
779.212	18731.72
779.547	18715.91
779.881	18694.66
780.215	18585.06
780.55	18609.24
780.884	18542.58
781.218	18646.08
781.552	18651.05
781.886	18554.33
782.22	18402.47
782.554	18397.72
782.888	18275.92
783.222	18306.65
783.556	18322.47
783.889	18277.73
784.223	18078.18
784.557	18094.91
784.89	18225.98
785.224	18044.74
785.557	18054.45
785.891	18054.68
786.224	17928.36
786.558	17995.02
786.891	17891.97
787.224	17739.89
787.557	17743.05
787.891	17764.52
788.224	17811.75
788.557	17756.38
788.89	17646.33
789.223	17670.96
789.556	17551.19
789.888	17554.13
790.221	17420.12
790.554	17351.42
790.887	17396.84
791.219	17356.85
791.552	17350.29
791.884	17200.24
792.217	17180.81
792.549	17143.07
792.882	17066.46
793.214	16935.16
793.546	17037.98
793.879	16938.55
794.211	16841.15
794.543	16841.15
794.875	16880.25
795.207	16840.25
795.539	16764.32
795.871	16710.76
796.203	16613.59
796.535	16482.07
796.867	16525.23
797.198	16477.77
797.53	16434.38
797.862	16372.92
798.193	16414.95
798.525	16362.07
798.856	16370.88
799.188	16149.65
799.519	16233.03
799.85	16035.07
800.182	16100.83
800.513	16021.06
800.844	15941.52
801.175	16018.58
801.506	16005.92
801.837	15776.55
802.168	15854.51
802.499	15831.91
802.83	15655.65
803.161	15686.38
803.491	15697.91
803.822	15663.56
804.153	15615.2
804.483	15486.39
804.814	15407.74
805.145	15468.08
805.475	15388.99
805.805	15334.3
806.136	15288.88
806.466	15255.21
806.796	15275.77
807.126	15143.57
807.457	15089.33
807.787	15126.4
808.117	15051.37
808.447	15004.82
808.777	15017.7
809.107	14904.03
809.436	14929.34
809.766	14886.85
810.096	14893.41
810.426	14832.62
810.755	14813.41
811.085	14829.68
811.414	14756.91
811.744	14626.07
812.073	14575
812.403	14600.53
812.732	14551.72
813.061	14600.99
813.39	14480.31
813.719	14430.82
814.049	14542.23
814.378	14489.35
814.707	14346.3
815.036	14412.52
815.365	14359.41
815.693	14147.44
816.022	14266.08
816.351	14218.4
816.68	14102.69
817.008	14151.73
817.337	14016.59
817.665	13999.65
817.994	14047.78
818.322	13958.97
818.651	13954.68
818.979	13956.48
819.307	13992.64
819.636	13995.58
819.964	13807.33
820.292	13940.21
820.62	13910.61
820.948	13835.81
821.276	13874
821.604	13757.84
821.932	13809.37
822.259	13846.88
822.587	13749.03
822.915	13745.19
823.243	13808.46
823.57	13727.11
823.898	13754.68
824.225	13765.53
824.553	13776.6
824.88	13749.26
825.207	13772.76
825.535	13720.11
825.862	13780.67
826.189	13673.78
826.516	13792.87
826.843	13777.96
827.17	13789.03
827.497	13760.56
827.824	13817.05
828.151	13777.28
828.478	13800.56
828.805	13798.97
829.131	13727.79
829.458	13747.45
829.785	13706.55
830.111	13718.07
830.438	13771.4
830.764	13708.35
831.09	13759.2
831.417	13593.78
831.743	13810.5
832.069	13741.57
832.395	13626.32
832.722	13685.08
833.048	13664.51
833.374	13735.7
833.7	13668.81
834.026	13613.22
834.351	13679.2
834.677	13580.45
835.003	13680.78
835.329	13630.39
835.654	13560.11
835.98	13540.9
836.306	13586.78
836.631	13488.25
836.956	13497.74
837.282	13569.6
837.607	13401.7
837.932	13492.09
838.258	13357.4
838.583	13381.36
838.908	13311.3
839.233	13305.43
839.558	13302.72
839.883	13331.42
840.208	13298.87
840.533	13236.73
840.858	13181.59
841.182	13263.17
841.507	13257.97
841.832	13162.83
842.156	13172.32
842.481	13152.21
842.805	13059.56
843.13	13088.71
843.454	13052.1
843.778	13022.95
844.103	12945.44
844.427	12947.47
844.751	12936.85
845.075	12891.65
845.399	12916.06
845.723	12796.06
846.047	12807.36
846.371	12626.57
846.695	12654.14
847.019	12501.15
847.343	12586.12
847.666	12481.49
847.99	12458.67
848.313	12418.22
848.637	12320.59
848.96	12218.68
849.284	12368.5
849.607	12187.72
849.931	12191.56
850.254	12025.91
850.577	12003.09
850.9	11944.56
851.223	11950.89
851.546	11907.72
851.869	11790.66
852.192	11829.76
852.515	11737.78
852.838	11710.67
853.161	11731.01
853.483	11630.22
853.806	11552.25
854.129	11567.39
854.451	11488.75
854.774	11483.55
855.096	11457.79
855.419	11340.96
855.741	11397.23
856.063	11344.35
856.385	11237.68
856.708	11283.79
857.03	11176.67
857.352	11233.62
857.674	11161.98
857.996	11057.12
858.318	11093.06
858.64	11046.96
858.961	11022.78
859.283	10981.42
859.605	10912.27
859.926	11006.73
860.248	10861.42
860.57	10938.94
860.891	10843.34
861.212	10830.46
861.534	10787.08
861.855	10841.31
862.176	10823.91
862.498	10739.62
862.819	10776.23
863.14	10704.37
863.461	10658.49
863.782	10614.88
864.103	10760.86
864.424	10624.37
864.745	10658.49
865.065	10571.71
865.386	10530.36
865.707	10505.73
866.027	10494.2
866.348	10524.48
866.668	10480.64
866.989	10434.77
867.309	10401.32
867.63	10446.75
867.95	10328.56
868.27	10317.71
868.59	10410.14
868.91	10296.01
869.23	10269.35
869.55	10264.15
869.87	10309.8
870.19	10258.05
870.51	10299.18
870.83	10255.11
871.15	10174.21
871.469	10175.79
871.789	10143.7
872.109	10173.08
872.428	10165.62
872.748	10146.19
873.067	10182.57
873.386	10157.94
873.706	10107.54
874.025	10085.4
874.344	10048.34
874.663	10095.57
874.982	10035.91
875.301	10035.91
875.62	9970.37
875.939	9974.89
876.258	9998.85
876.577	9957.72
876.896	9948.91
877.214	9835.69
877.533	9901.9
877.852	9918.4
878.17	9937.15
878.489	9876.36
878.807	9856.25
879.125	9855.35
879.444	9850.38
879.762	9840.89
880.08	9813.54
880.398	9719.98
880.716	9750.49
881.034	9677.95
881.352	9671.85
881.67	9675.92
881.988	9689.02
882.306	9709.36
882.624	9597.95
882.941	9605.64
883.259	9529.71
883.577	9539.2
883.894	9475.25
884.212	9506.66
884.529	9553.44
884.846	9476.15
885.164	9418.3
885.481	9333.78
885.798	9397.06
886.115	9287.91
886.432	9336.04
886.75	9324.06
887.067	9291.75
887.383	9264.18
887.7	9343.05
888.017	9207
888.334	9259.21
888.651	9235.93
888.967	9204.07
889.284	9123.84
889.6	9035.93
889.917	9029.16
890.233	9067.57
890.55	8983.28
890.866	9023.73
891.182	9007.69
891.498	8964.98
891.815	8934.92
892.131	8857.86
892.447	8846.79
892.763	8833.68
893.079	8834.81
893.395	8828.26
893.71	8781.93
894.026	8715.04
894.342	8729.73
894.657	8614.48
894.973	8735.38
895.289	8652.89
895.604	8608.15
895.92	8546
896.235	8511.2
896.55	8498.1
896.865	8532.22
897.181	8409.06
897.496	8456.06
897.811	8402.51
898.126	8354.37
898.441	8359.79
898.756	8317.31
899.071	8234.15
899.386	8331.77
899.7	8225.33
900.015	8175.62
900.33	8166.58
900.644	8108.95
900.959	8072.57
901.273	8007.49
901.588	7991.44
901.902	8075.28
902.216	8038.22
902.531	8028.73
902.845	7966.36
903.159	7871.22
903.473	7755.97
903.787	7866.7
904.101	7847.04
904.415	7842.07
904.729	7737.66
905.042	7660.83
905.356	7720.94
905.67	7650.21
905.984	7670.77
906.297	7678
906.611	7520.49
906.924	7532.25
907.237	7543.09
907.551	7456.77
907.864	7459.7
908.177	7490.44
908.491	7408.18
908.804	7377.9
909.117	7309.65
909.43	7288.18
909.743	7320.5
910.056	7264.68
910.368	7191.46
910.681	7195.53
910.994	7150.79
911.307	7167.06
911.619	7032.82
911.932	7063.78
912.244	7040.73
912.557	7062.2
912.869	6977.01
913.181	6948.53
913.494	6986.95
913.806	6896.78
914.118	6846.16
914.43	6839.16
914.742	6823.56
915.054	6773.85
915.366	6793.28
915.678	6766.84
915.99	6776.33
916.302	6707.41
916.613	6675.09
916.925	6654.98
917.236	6639.39
917.548	6564.14
917.859	6589.22
918.171	6484.82
918.482	6519.16
918.794	6479.62
919.105	6504.93
919.416	6417.47
919.727	6339.28
920.038	6388.09
920.349	6353.52
920.66	6382.9
920.971	6306.51
921.282	6284.59
921.593	6290.92
921.903	6206.86
922.214	6228.32
922.525	6155.56
922.835	6134.32
923.146	6161.66
923.456	6122.34
923.767	6074.66
924.077	6015
924.387	5987.88
924.697	5976.13
925.008	5979.97
925.318	6009.57
925.628	5893.42
925.938	5853.19
926.248	5821.33
926.558	5844.61
926.867	5788.56
927.177	5782.23
927.487	5754.67
927.796	5712.63
928.106	5753.31
928.416	5684.61
928.725	5709.92
929.034	5618.17
929.344	5647.55
929.653	5615.46
929.962	5519.64
930.271	5560.32
930.581	5564.61
930.89	5481.68
931.199	5458.18
931.508	5414.56
931.817	5510.15
932.125	5453.43
932.434	5407.33
932.743	5345.64
933.051	5334.34
933.36	5354
933.669	5267.22
933.977	5301.8
934.286	5273.1
934.594	5231.51
934.902	5196.26
935.21	5173.21
935.519	5186.77
935.827	5143.38
936.135	5150.16
936.443	5073.33
936.751	5075.13
937.059	5063.38
937.367	5029.26
937.674	5069.71
937.982	5033.55
938.29	4938.64
938.597	4967.57
938.905	4945.19
939.213	4888.47
939.52	4860
939.827	4896.83
940.135	4949.94
940.442	4851.19
940.749	4820.23
941.056	4784.97
941.363	4772.32
941.67	4761.24
941.977	4724.41
942.284	4699.55
942.591	4708.14
942.898	4697.29
943.205	4644.41
943.511	4659.78
943.818	4621.36
944.125	4580.01
944.431	4571.19
944.738	4515.15
945.044	4537.52
945.35	4538.2
945.657	4498.65
945.963	4474.02
946.269	4431.08
946.575	4442.84
946.881	4416.17
947.187	4357.64
947.493	4359
947.799	4367.81
948.105	4318.77
948.41	4307.92
948.716	4349.28
949.022	4305.89
949.327	4312.44
949.633	4207.81
949.938	4257.08
950.244	4229.06
950.549	4149.96
950.854	4217.98
951.16	4171.2
951.465	4133.24
951.77	4152.22
952.075	4037.87
952.38	4077.87
952.685	4063.41
952.99	4079.45
953.294	4024.54
953.599	4008.04
953.904	3976.63
954.209	3960.81
954.513	3961.94
954.818	3981.38
955.122	3927.14
955.426	3923.98
955.731	3885.79
956.035	3876.07
956.339	3866.13
956.643	3852.57
956.948	3804.43
957.252	3802.85
957.556	3804.89
957.86	3776.19
958.163	3753.14
958.467	3748.39
958.771	3770.76
959.075	3731.22
959.378	3707.26
959.682	3688.96
959.985	3679.01
960.289	3656.64
960.592	3644.44
960.896	3613.03
961.199	3595.4
961.502	3599.69
961.805	3572.12
962.108	3552.01
962.411	3573.48
962.714	3533.03
963.017	3495.97
963.32	3530.99
963.623	3493.03
963.926	3464.78
964.228	3451
964.531	3450.09
964.833	3443.09
965.136	3402.41
965.438	3401.51
965.741	3412.13
966.043	3362.19
966.345	3379.81
966.648	3344.78
966.95	3342.75
967.252	3323.09
967.554	3327.38
967.856	3277.89
968.158	3305.24
968.46	3255.75
968.761	3205.35
969.063	3226.6
969.365	3259.36
969.666	3170.55
969.968	3156.99
970.269	3148.63
970.571	3140.27
970.872	3171.91
971.174	3124
971.475	3155.64
971.776	3072.7
972.077	3095.3
972.378	3082.64
972.679	3045.81
972.98	3067.5
973.281	3025.02
973.582	3016.43
973.883	3034.74
974.183	2971.01
974.484	2995.87
974.785	2963.78
975.085	2933.5
975.386	2958.35
975.686	2950.9
975.986	2920.16
976.287	2918.81
976.587	2883.1
976.887	2902.08
977.187	2892.14
977.487	2854.18
977.787	2906.38
978.087	2796.78
978.387	2837.23
978.687	2829.54
978.987	2778.92
979.286	2770.34
979.586	2759.04
979.885	2743.67
980.185	2742.09
980.484	2748.64
980.784	2748.19
981.083	2706.61
981.382	2707.29
981.682	2703.22
981.981	2673.84
982.28	2645.59
982.579	2637.01
982.878	2651.47
983.177	2593.84
983.475	2660.28
983.774	2610.57
984.073	2583.9
984.372	2567.4
984.67	2574.86
984.969	2542.55
985.267	2571.7
985.566	2546.16
985.864	2517.91
986.162	2513.85
986.461	2544.58
986.759	2484.24
987.057	2474.98
987.355	2444.24
987.653	2456.22
987.951	2457.12
988.249	2426.39
988.547	2429.1
988.844	2441.76
989.142	2415.09
989.44	2393.4
989.737	2418.71
990.035	2334.19
990.332	2387.07
990.63	2345.26
990.927	2347.3
991.224	2326.73
991.521	2324.25
991.819	2323.34
992.116	2310.69
992.413	2298.48
992.71	2244.93
993.006	2284.93
993.303	2255.1
993.6	2245.83
993.897	2245.83
994.193	2245.38
994.49	2188.66
994.787	2202.22
995.083	2172.16
995.379	2199.28
995.676	2191.59
995.972	2158.15
996.268	2159.51
996.565	2113.86
996.861	2149.11
997.157	2138.49
997.453	2130.13
997.749	2089.22
998.044	2086.51
998.34	2066.85
998.636	2061.65
998.932	2082.22
999.227	2054.42
999.523	2001.77
999.818	2047.87
1000.114	1983.69
1000.409	2011.94
1000.704	1984.37
1001	2026.85
1001.295	1963.58
1001.59	1975.56
1001.885	1969
1002.18	1903.01
1002.475	1952.05
1002.77	1917.25
1003.065	1891.94
1003.359	1886.97
1003.654	1878.61
1003.949	1884.26
1004.243	1881.32
1004.538	1862.11
1004.832	1857.14
1005.127	1839.06
1005.421	1842.45
1005.715	1805.39
1006.009	1802.23
1006.304	1796.58
1006.598	1778.72
1006.892	1776.01
1007.186	1777.82
1007.48	1770.14
1007.773	1783.47
1008.067	1719.06
1008.361	1711.16
1008.655	1738.27
1008.948	1692.17
1009.242	1700.08
1009.535	1706.41
1009.829	1677.71
1010.122	1664.38
1010.415	1659.18
1010.708	1636.36
1011.001	1626.86
1011.295	1647.88
1011.588	1622.8
1011.881	1619.18
1012.173	1614.66
1012.466	1635.9
1012.759	1578.05
1013.052	1589.12
1013.344	1571.05
1013.637	1597.03
1013.93	1551.16
1014.222	1552.74
1014.514	1525.85
1014.807	1519.3
1015.099	1532.18
1015.391	1509.8
1015.683	1491.73
1015.976	1464.61
1016.268	1495.57
1016.56	1471.61
1016.851	1473.65
1017.143	1443.82
1017.435	1454.89
1017.727	1453.08
1018.018	1438.17
1018.31	1403.82
1018.602	1427.1
1018.893	1395.23
1019.185	1411.5
1019.476	1376.48
1019.767	1391.84
1020.058	1376.25
1020.35	1363.59
1020.641	1332.63
1020.932	1336.25
1021.223	1331.73
1021.514	1321.34
1021.804	1310.49
1022.095	1320.21
1022.386	1327.21
1022.677	1315.91
1022.967	1280.66
1023.258	1286.76
1023.548	1234.56
1023.839	1272.75
1024.129	1281.56
1024.419	1247.66
1024.709	1242.92
1025	1221.45
1025.29	1247.89
1025.58	1239.3
1025.87	1209.93
1026.16	1215.12
1026.449	1175.58
1026.739	1170.38
1027.029	1171.06
1027.319	1196.59
1027.608	1171.28
1027.898	1165.18
1028.187	1152.07
1028.477	1138.74
1028.766	1128.12
1029.055	1105.07
1029.344	1145.52
1029.634	1133.77
1029.923	1095.58
1030.212	1090.83
1030.501	1103.49
1030.79	1058.97
1031.078	1078.86
1031.367	1050.83
1031.656	1062.36
1031.945	1045.86
1032.233	1029.82
1032.522	1062.81
1032.81	1039.53
1033.099	1046.54
1033.387	1023.94
1033.675	1022.13
1033.963	1011.96
1034.251	1016.03
1034.54	1014.45
1034.828	974
1035.116	971.29
1035.403	962.7
1035.691	958.63
1035.979	966.54
1036.267	960.89
1036.554	951.4
1036.842	955.02
1037.129	945.98
1037.417	930.84
1037.704	948.92
1037.992	920.89
1038.279	922.02
1038.566	914.57
1038.853	914.57
1039.14	914.57
