Data from hue_290_FLMS001491_00036.txt Node
Date: Tue Feb 07 15:52:40 GMT 2017
User: dcchb
Spectrometer: FLMS00149
Trigger mode: 0
Integration Time (sec): 2.000000E-2
Scans to average: 10
Electric dark correction enabled: true
Nonlinearity correction enabled: false
Boxcar width: 0
XAxis mode: Wavelengths
Number of Pixels in Spectrum: 2048
>>>>>Begin Spectral Data<<<<<
341.393	-24.26
341.776	-24.26
342.16	-24.26
342.543	-58.16
342.927	-54.77
343.31	-55.68
343.693	-62.46
344.077	-56.58
344.46	-73.3
344.843	-51.16
345.226	-52.96
345.61	-23.13
345.993	-18.62
346.376	-12.97
346.759	27.03
347.142	17.99
347.525	53.25
347.908	60.48
348.291	65
348.674	87.82
349.057	95.28
349.44	128.5
349.823	141.83
350.206	160.36
350.588	196.75
350.971	209.4
351.354	214.37
351.737	228.38
352.119	239.01
352.502	243.3
352.884	269.51
353.267	259.12
353.65	271.32
354.032	301.6
354.414	300.7
354.797	295.05
355.179	293.01
355.562	302.05
355.944	323.97
356.326	330.53
356.709	338.66
357.091	319.45
357.473	345.44
357.855	318.55
358.238	331.21
358.62	300.25
359.002	328.27
359.384	328.49
359.766	343.86
360.148	310.19
360.53	336.18
360.912	341.83
361.294	333.24
361.676	320.36
362.057	317.87
362.439	343.18
362.821	318.78
363.203	324.43
363.584	324.65
363.966	327.82
364.348	332.79
364.729	310.19
365.111	313.35
365.493	321.94
365.874	311.55
366.256	328.49
366.637	291.21
367.019	306.57
367.4	304.99
367.781	296.18
368.163	314.48
368.544	280.81
368.925	312
369.306	314.48
369.688	301.6
370.069	307.03
370.45	301.6
370.831	297.08
371.212	298.66
371.593	309.06
371.974	335.5
372.355	290.76
372.736	295.95
373.117	311.09
373.498	310.64
373.879	318.32
374.26	295.73
374.641	308.16
375.021	308.38
375.402	327.82
375.783	318.32
376.163	300.7
376.544	317.65
376.925	322.62
377.305	324.2
377.686	330.53
378.066	326.91
378.447	337.31
378.827	319
379.208	314.71
379.588	344.76
379.968	334.82
380.349	330.53
380.729	318.55
381.109	348.15
381.489	340.92
381.87	335.05
382.25	323.97
382.63	317.42
383.01	340.7
383.39	336.86
383.77	349.96
384.15	323.07
384.53	346.35
384.91	343.86
385.29	328.95
385.67	359
386.049	352.45
386.429	336.18
386.809	347.25
387.189	339.79
387.568	346.35
387.948	338.44
388.328	337.31
388.707	347.25
389.087	359.45
389.466	340.7
389.846	364.88
390.225	365.1
390.605	353.35
390.984	370.75
391.363	354.71
391.743	372.33
392.122	362.62
392.501	384.31
392.881	367.59
393.26	390.41
393.639	367.14
394.018	372.56
394.397	384.76
394.776	392
395.155	384.76
395.534	378.89
395.913	372.79
396.292	408.04
396.671	388.15
397.05	392
397.429	379.57
397.808	366.46
398.186	374.37
398.565	387.7
398.944	392
399.323	405.55
399.701	398.77
400.08	380.7
400.458	410.53
400.837	416.18
401.215	410.3
401.594	415.72
401.972	425.44
402.351	409.17
402.729	423.41
403.107	418.21
403.486	417.31
403.864	430.41
404.242	431.54
404.62	418.44
404.999	440.13
405.377	455.5
405.755	424.54
406.133	465.67
406.511	448.04
406.889	458.43
407.267	448.72
407.645	457.08
408.023	488.49
408.401	466.12
408.779	484.2
409.156	478.55
409.534	488.49
409.912	482.61
410.29	511.09
410.667	513.8
411.045	480.58
411.422	510.41
411.8	506.34
412.178	535.95
412.555	547.25
412.933	523.74
413.31	550.86
413.687	541.14
414.065	586.11
414.442	587.47
414.819	561.26
415.197	593.12
415.574	601.48
415.951	613.01
416.328	624.08
416.705	602.39
417.082	608.94
417.46	612.1
417.837	653.91
418.214	657.53
418.591	672.67
418.967	664.53
419.344	663.85
419.721	673.34
420.098	670.63
420.475	690.52
420.852	695.04
421.228	712.66
421.605	705.66
421.982	727.13
422.358	731.42
422.735	731.42
423.111	758.31
423.488	753.79
423.864	767.58
424.241	771.42
424.617	778.65
424.994	789.27
425.37	803.28
425.746	800.35
426.123	829.5
426.499	843.28
426.875	825.88
427.251	854.58
427.627	877.86
428.003	861.81
428.379	861.81
428.756	881.93
429.132	913.56
429.507	914.47
429.883	922.38
430.259	931.19
430.635	940.46
431.011	959.21
431.387	965.54
431.763	992.88
432.138	992.66
432.514	1010.74
432.89	1011.64
433.265	1041.02
433.641	1022.26
434.016	1066.33
434.392	1060
434.767	1076.5
435.143	1095.93
435.518	1102.71
435.894	1128.93
436.269	1117.17
436.644	1164.4
437.02	1152.2
437.395	1170.96
437.77	1163.73
438.145	1205.76
438.52	1192.88
438.895	1227.45
439.271	1219.32
439.646	1249.83
440.021	1221.8
440.395	1254.8
440.77	1243.95
441.145	1263.16
441.52	1300.9
441.895	1276.27
442.27	1299.09
442.645	1299.54
443.019	1315.81
443.394	1293.89
443.769	1332.31
444.143	1335.25
444.518	1323.95
444.892	1346.32
445.267	1361.69
445.641	1380.44
446.016	1358.52
446.39	1392.87
446.764	1382.48
447.139	1370.95
447.513	1385.87
447.887	1400.33
448.262	1379.77
448.636	1395.58
449.01	1406.21
449.384	1421.8
449.758	1438.3
450.132	1432.19
450.506	1455.24
450.88	1442.82
451.254	1447.11
451.628	1466.54
452.002	1488.69
452.376	1512.42
452.75	1489.14
453.123	1506.54
453.497	1525.75
453.871	1553.09
454.244	1538.63
454.618	1563.04
454.992	1567.33
455.365	1580.89
455.739	1597.16
456.112	1594.45
456.486	1608.46
456.859	1645.07
457.232	1640.78
457.606	1658.85
457.979	1686.2
458.352	1735.01
458.725	1696.37
459.099	1704.96
459.472	1728.91
459.845	1705.86
460.218	1741.79
460.591	1789.25
460.964	1775.01
461.337	1819.98
461.71	1833.54
462.083	1856.14
462.456	1849.13
462.829	1848.45
463.201	1880.09
463.574	1832.18
463.947	1839.87
464.32	1920.99
464.692	1913.31
465.065	1926.42
465.438	1939.75
465.81	1983.59
466.183	1986.08
466.555	2020.2
466.928	2060.2
467.3	2036.92
467.672	2064.95
468.045	2081.44
468.417	2122.8
468.789	2068.56
469.161	2105.4
469.534	2158.28
469.906	2161.44
470.278	2186.52
470.65	2208.67
471.022	2207.99
471.394	2259.97
471.766	2287.31
472.138	2297.48
472.51	2342
472.882	2350.14
473.253	2360.08
473.625	2364.15
473.997	2423.81
474.369	2437.59
474.74	2470.13
475.112	2495.67
475.484	2527.76
475.855	2544.26
476.227	2583.12
476.598	2630.13
476.97	2602.56
477.341	2716.45
477.713	2711.71
478.084	2727.53
478.455	2749.67
478.827	2803.01
479.198	2848.88
479.569	2871.25
479.94	2898.14
480.311	2918.48
480.682	2976.11
481.053	3021.98
481.424	3079.61
481.795	3057.24
482.166	3086.61
482.537	3151.02
482.908	3182.2
483.279	3165.26
483.65	3232.82
484.021	3290.9
484.391	3333.16
484.762	3308.3
485.133	3299.04
485.503	3361.41
485.874	3429.43
486.244	3486.38
486.615	3479.15
486.985	3521.86
487.356	3582.19
487.726	3545.36
488.097	3654.51
488.467	3701.29
488.837	3726.6
489.207	3745.58
489.578	3736.77
489.948	3802.75
490.318	3848.18
490.688	3860.83
491.058	3927.5
491.428	3859.47
491.798	3953.48
492.168	4014.72
492.538	4049.98
492.908	4066.93
493.278	4098.56
493.648	4065.35
494.017	4176.75
494.387	4184.66
494.757	4196.87
495.126	4180.6
495.496	4244.55
495.866	4282.74
496.235	4277.77
496.605	4328.84
496.974	4357.99
497.344	4339.69
497.713	4366.81
498.082	4384.43
498.452	4398.67
498.821	4470.31
499.19	4437.09
499.559	4478.67
499.928	4509.85
500.298	4462.85
500.667	4538.1
501.036	4535.62
501.405	4611.32
501.774	4595.27
502.143	4598.89
502.512	4661.04
502.88	4631.88
503.249	4619
503.618	4640.7
503.987	4719.57
504.356	4695.61
504.724	4734.25
505.093	4760.02
505.462	4771.54
505.83	4774.25
506.199	4765.89
506.567	4827.36
506.936	4843.86
507.304	4901.93
507.672	4861.48
508.041	4866.23
508.409	4933.34
508.777	4925.44
509.145	4941.93
509.514	4980.58
509.882	4939.9
510.25	4969.95
510.618	5009.73
510.986	5011.99
511.354	5050.18
511.722	5042.72
512.09	5077.07
512.458	5063.74
512.826	5156.16
513.193	5098.54
513.561	5094.24
513.929	5158.2
514.297	5182.38
514.664	5187.12
515.032	5203.62
515.4	5253.34
515.767	5200.23
516.135	5264.41
516.502	5196.16
516.869	5305.99
517.237	5273.9
517.604	5280.68
517.972	5298.08
518.339	5338.76
518.706	5324.52
519.073	5309.61
519.44	5380.56
519.808	5398.87
520.175	5375.82
520.542	5407.46
520.909	5417.85
521.276	5462.82
521.643	5496.27
522.009	5541.01
522.376	5489.49
522.743	5500.79
523.11	5522.48
523.477	5606.77
523.843	5642.93
524.21	5668.92
524.577	5709.6
524.943	5696.71
525.31	5759.99
525.676	5767.67
526.043	5742.14
526.409	5818.97
526.776	5815.58
527.142	5834.34
527.508	5843.38
527.874	5895.35
528.241	5908.01
528.607	5935.13
528.973	5981
529.339	5949.59
529.705	5976.26
530.071	6016.03
530.437	6031.62
530.803	6068.68
531.169	6073.65
531.535	6135.35
531.901	6127.21
532.267	6159.53
532.632	6151.17
532.998	6199.75
533.364	6232.97
533.73	6251.95
534.095	6293.99
534.461	6260.09
534.826	6347.54
535.192	6299.64
535.557	6329.01
535.923	6350.48
536.288	6376.92
536.653	6363.36
537.019	6351.84
537.384	6415.79
537.749	6384.15
538.114	6417.83
538.479	6454.43
538.845	6486.07
539.21	6489.24
539.575	6478.39
539.94	6568.78
540.305	6536.01
540.67	6524.26
541.034	6584.6
541.399	6588.67
541.764	6579.4
542.129	6642.45
542.494	6617.37
542.858	6640.19
543.223	6656.46
543.587	6741.43
543.952	6691.26
544.316	6750.25
544.681	6718.61
545.045	6794.54
545.41	6811.71
545.774	6804.03
546.138	6814.88
546.503	6849.45
546.867	6865.27
547.231	6860.53
547.595	6835.22
547.959	6941.43
548.324	6930.81
548.688	6941.2
549.052	6979.84
549.416	6952.05
549.779	6977.58
550.143	6962.67
550.507	6996.34
550.871	7012.61
551.235	7015.1
551.599	7052.84
551.962	7053.06
552.326	7083.12
552.689	7121.54
553.053	7082.67
553.417	7067.07
553.78	7190.91
554.143	7134.87
554.507	7211.93
554.87	7156.34
555.234	7171.93
555.597	7180.29
555.96	7239.5
556.323	7334.86
556.686	7191.59
557.05	7373.96
557.413	7324.24
557.776	7313.62
558.139	7332.83
558.502	7372.6
558.865	7333.96
559.228	7413.28
559.59	7399.27
559.953	7454.18
560.316	7475.88
560.679	7456.22
561.041	7474.07
561.404	7577.57
561.767	7537.34
562.129	7588.87
562.492	7670.67
562.854	7599.72
563.217	7603.56
563.579	7650.11
563.941	7700.73
564.304	7715.87
564.666	7749.54
565.028	7766.94
565.39	7784.57
565.753	7791.57
566.115	7801.52
566.477	7880.61
566.839	7881.52
567.201	7872.93
567.563	7931.23
567.925	8004.45
568.287	7931.46
568.648	8007.16
569.01	7987.28
569.372	8096.2
569.734	8053.49
570.095	8146.37
570.457	8100.27
570.819	8135.07
571.18	8166.48
571.542	8239.25
571.903	8236.08
572.265	8270.43
572.626	8252.13
572.987	8345.46
573.349	8353.37
573.71	8383.2
574.071	8348.17
574.432	8501.84
574.794	8583.87
575.155	8614.6
575.516	8564.44
575.877	8646.24
576.238	8665.45
576.599	8694.15
576.96	8715.84
577.32	8793.81
577.681	8869.74
578.042	8935.5
578.403	8893.47
578.763	8977.31
579.124	9079.45
579.485	9160.35
579.845	9233.12
580.206	9272.67
580.566	9351.53
580.927	9369.39
581.287	9473.11
581.648	9486.9
582.008	9607.12
582.368	9690.51
582.728	9784.74
583.089	9859.54
583.449	9984.74
583.809	10088.92
584.169	10195.81
584.529	10218.18
584.889	10430.15
585.249	10486.19
585.609	10548.34
585.969	10688.22
586.329	10764.83
586.688	10898.39
587.048	10992.62
587.408	11101.09
587.768	11274.87
588.127	11336.11
588.487	11399.62
588.846	11683.68
589.206	11655.65
589.565	11852.26
589.925	11972.71
590.284	12137.68
590.643	12274.62
591.003	12394.62
591.362	12568.4
591.721	12629.87
592.08	12793.48
592.44	12949.18
592.799	13077.76
593.158	13289.06
593.517	13390.3
593.876	13403.18
594.235	13544.42
594.593	13702.15
594.952	13907.8
595.311	13936.5
595.67	14259.2
596.029	14421.46
596.387	14509.36
596.746	14659.42
597.104	14725.18
597.463	14904.38
597.822	14992.52
598.18	15025.06
598.538	15256.01
598.897	15446.74
599.255	15394.09
599.613	15707.75
599.972	15681.76
600.33	15916.78
600.688	15888.54
601.046	16138.7
601.404	16218.02
601.762	16361.74
602.12	16501.85
602.478	16572.36
602.836	16722.19
603.194	16722.64
603.552	16840.6
603.91	16939.13
604.268	17054.83
604.625	17044.89
604.983	17249.41
605.341	17229.97
605.698	17427.93
606.056	17488.27
606.413	17614.14
606.771	17747.47
607.128	17852.55
607.485	17776.62
607.843	17920.57
608.2	18028.82
608.557	18208.48
608.914	18152.88
609.272	18341.13
609.629	18336.83
609.986	18555.81
610.343	18476.94
610.7	18691.4
611.057	18746.09
611.414	18740.67
611.771	18902.24
612.127	19055.91
612.484	19049.58
612.841	19102.69
613.198	19143.82
613.554	19173.65
613.911	19301.55
614.267	19293.65
614.624	19358.73
614.98	19516.46
615.337	19670.36
615.693	19570.25
616.05	19667.87
616.406	19835.78
616.762	19627.2
617.118	19850.92
617.475	19833.29
617.831	19884.59
618.187	20017.47
618.543	19980.86
618.899	20078.26
619.255	20150.35
619.611	20195.54
619.967	20316.67
620.323	20284.13
620.678	20208.65
621.034	20301.75
621.39	20293.62
621.746	20357.57
622.101	20485.7
622.457	20470.34
622.812	20492.48
623.168	20614.06
623.523	20605.25
623.879	20689.77
624.234	20612.03
624.589	20751.69
624.945	20750.33
625.3	20810.22
625.655	20718.92
626.01	20844.11
626.365	20809.76
626.72	20937.67
627.075	20872.36
627.43	20866.49
627.785	20740.61
628.14	20878.24
628.495	20919.37
628.85	20885.92
629.205	20889.99
629.559	20965.69
629.914	20791.46
630.269	20955.97
630.623	20940.83
630.978	20807.28
631.332	20866.26
631.687	20932.25
632.041	20895.64
632.396	20918.46
632.75	20756.66
633.104	20839.59
633.459	20721.18
633.813	20776.32
634.167	20857.45
634.521	20789.65
634.875	20782.65
635.229	20779.03
635.583	20686.15
635.937	20706.04
636.291	20759.82
636.645	20819.25
636.999	20745.81
637.352	20802.98
637.706	20603.44
638.06	20782.87
638.413	20727.28
638.767	20604.35
639.121	20690.9
639.474	20478.7
639.828	20615.42
640.181	20615.42
640.534	20725.7
640.888	20723.66
641.241	20529.54
641.594	20611.35
641.947	20614.06
642.301	20597.34
642.654	20560.5
643.007	20671.46
643.36	20609.77
643.713	20469.43
644.066	20589.2
644.419	20575.19
644.771	20380.62
645.124	20146.28
645.477	20055.89
645.83	20012.72
646.182	19944.7
646.535	19874.87
646.888	19998.03
647.24	19933.63
647.593	20008.43
647.945	19981.08
648.298	19886.4
648.65	19835.78
649.002	19806.63
649.355	20029.45
649.707	19838.49
650.059	19965.72
650.411	20232.15
650.763	20269.44
651.115	20490.22
651.467	20403.45
651.819	20411.36
652.171	20391.7
652.523	20333.39
652.875	20321.41
653.227	20300.62
653.578	20374.29
653.93	20340.85
654.282	20323.45
654.633	20205.03
654.985	20346.05
655.337	20416.55
655.688	20427.4
656.039	20466.27
656.391	20273.05
656.742	20341.3
657.094	20334.3
657.445	20438.02
657.796	20277.12
658.147	20360.96
658.498	20368.19
658.849	20459.04
659.2	20304.69
659.551	20323.22
659.902	20422.2
660.253	20391.47
660.604	20390.57
660.955	20199.61
661.306	20389.44
661.656	20499.04
662.007	20347.85
662.358	20388.53
662.708	20399.38
663.059	20600.28
663.409	20322.77
663.76	20554.63
664.11	20510.56
664.461	20420.17
664.811	20461.07
665.161	20502.2
665.511	20332.26
665.862	20427.63
666.212	20505.59
666.562	20477.12
666.912	20615.87
667.262	20530
667.612	20444.12
667.962	20462.43
668.312	20501.75
668.662	20564.35
669.011	20515.99
669.361	20539.71
669.711	20468.3
670.06	20340.85
670.41	20370
670.76	20428.76
671.109	20467.63
671.459	20379.94
671.808	20377.68
672.157	20396.67
672.507	20405.48
672.856	20347.85
673.205	20287.74
673.554	20323.67
673.904	20252.04
674.253	20450.9
674.602	20300.85
674.951	20072.38
675.3	19880.75
675.649	20176.56
675.998	20177.46
676.346	20261.76
676.695	20360.51
677.044	20107.18
677.393	20162.55
677.741	20183.79
678.09	20188.76
678.438	20033.74
678.787	20211.36
679.135	20088.65
679.484	20077.35
679.832	20054.3
680.181	20096.56
680.529	20053.85
680.877	19954.42
681.225	19920.97
681.573	20103.12
681.922	19844.14
682.27	19804.59
682.618	19869.22
682.966	19734.54
683.314	19769.56
683.661	19727.76
684.009	19623.58
684.357	19590.13
684.705	19558.72
685.053	19591.26
685.4	19477.14
685.748	19475.56
686.095	19418.39
686.443	19356.02
686.79	19267.66
687.138	19363.47
687.485	19254.55
687.832	19289.35
688.18	19378.16
688.527	19130.94
688.874	19120.77
689.221	19059.98
689.568	19019.3
689.915	18937.27
690.262	18940.43
690.609	18879.87
690.956	18777.73
691.303	18798.74
691.65	18730.72
691.997	18634.23
692.344	18588.58
692.69	18580.22
693.037	18459.32
693.383	18366.66
693.73	18373.22
694.077	18401.92
694.423	18328.7
694.769	18391.3
695.116	18226.78
695.462	18123.05
695.808	18158.53
696.155	18161.7
696.501	18040.34
696.847	17969.84
697.193	17890.74
697.539	17846.9
697.885	17831.31
698.231	17717.87
698.577	17593.8
698.923	17632.9
699.269	17470.42
699.614	17455.73
699.96	17336.18
700.306	17368.27
700.651	17316.75
700.997	17240.37
701.342	17067.26
701.688	17220.93
702.033	17077.21
702.379	17081.27
702.724	17018.68
703.069	16954.27
703.415	16730.55
703.76	16822.3
704.105	16836.76
704.45	16729.87
704.795	16613.26
705.14	16580.95
705.485	16537.79
705.83	16437.9
706.175	16429.54
706.52	16386.15
706.865	16381.41
707.209	16390.44
707.554	16282.88
707.899	16289.88
708.243	16163.11
708.588	16144.8
708.932	16036.33
709.277	16028.19
709.621	16053.05
709.966	16032.71
710.31	15924.47
710.654	15789.1
710.998	15882.66
711.342	15818.26
711.687	15750.69
712.031	15767.64
712.375	15685.38
712.719	15660.29
713.063	15577.58
713.407	15644.93
713.75	15576.23
714.094	15501.88
714.438	15474.99
714.782	15460.75
715.125	15453.07
715.469	15456.23
715.812	15377.82
716.156	15231.15
716.499	15281.1
716.843	15337.82
717.186	15216.46
717.53	15335.78
717.873	15295.78
718.216	15234.09
718.559	15177.14
718.902	15107.54
719.246	15117.48
719.589	15067.54
719.932	15018.5
720.275	15050.59
720.617	15080.65
720.96	15019.18
721.303	15062.34
721.646	15020.99
721.989	14982.35
722.331	14944.16
722.674	14971.5
723.016	14936.02
723.359	14910.71
723.701	14974.66
724.044	14826.19
724.386	14895.79
724.729	14848.79
725.071	14831.84
725.413	14779.41
725.755	14802.01
726.097	14684.5
726.439	14666.2
726.782	14717.04
727.124	14661.68
727.465	14703.48
727.807	14723.37
728.149	14734.22
728.491	14652.19
728.833	14665.07
729.175	14571.06
729.516	14561.34
729.858	14637.27
730.199	14574
730.541	14568.12
730.882	14581.45
731.224	14660.55
731.565	14431.85
731.906	14487.44
732.248	14510.27
732.589	14455.13
732.93	14491.74
733.271	14494
733.612	14496.94
733.953	14558.18
734.294	14481.57
734.635	14414.9
734.976	14463.26
735.317	14458.07
735.658	14437.05
735.999	14381.91
736.339	14469.82
736.68	14533.09
737.021	14475.69
737.361	14410.38
737.702	14420.78
738.042	14408.8
738.383	14391.4
738.723	14425.75
739.063	14430.27
739.404	14524.51
739.744	14449.25
740.084	14371.97
740.424	14461.91
740.764	14509.14
741.104	14606.08
741.444	14513.66
741.784	14467.33
742.124	14627.33
742.464	14534
742.804	14537.16
743.143	14571.06
743.483	14534.45
743.823	14550.72
744.162	14571.74
744.502	14642.24
744.841	14544.17
745.181	14729.02
745.52	14736.93
745.86	14724.73
746.199	14874.33
746.538	14749.36
746.877	14915.68
747.216	14857.6
747.556	14889.24
747.895	14959.07
748.234	14958.62
748.573	15013.08
748.911	15139.4
749.25	15208.55
749.589	15113.42
749.928	15249.91
750.267	15293.52
750.605	15330.13
750.944	15385.95
751.283	15426.18
751.621	15533.97
751.96	15587.75
752.298	15676.34
752.636	15790.46
752.975	15804.25
753.313	15875.66
753.651	16081.3
753.989	16092.15
754.327	16168.08
754.666	16254.18
755.004	16394.06
755.342	16477.45
755.679	16658.91
756.017	16587.73
756.355	16816.87
756.693	16947.94
757.031	17037.43
757.368	17043.99
757.706	17204.66
758.044	17246.02
758.381	17293.7
758.719	17425.45
759.056	17669.28
759.394	17648.72
759.731	17647.81
760.068	17833.12
760.405	17965.32
760.743	18020.46
761.08	18109.72
761.417	18173.67
761.754	18291.19
762.091	18409.83
762.428	18463.38
762.765	18549.94
763.102	18572.08
763.438	18703.15
763.775	18731.4
764.112	18811.17
764.449	18971.39
764.785	19078.74
765.122	18988.57
765.458	19012.75
765.795	19198.05
766.131	19259.97
766.467	19234.21
766.804	19156.47
767.14	19207.77
767.476	19315.57
767.812	19307.88
768.148	19484.15
768.485	19458.16
768.821	19357.37
769.157	19563.47
769.492	19580.64
769.828	19612.28
770.164	19578.16
770.5	19619.06
770.836	19612.51
771.171	19565.05
771.507	19610.47
771.842	19592.17
772.178	19589.46
772.513	19682.56
772.849	19715.56
773.184	19590.59
773.519	19663.13
773.855	19638.04
774.19	19574.32
774.525	19551.94
774.86	19668.78
775.195	19562.56
775.53	19600.76
775.865	19544.26
776.2	19423.13
776.535	19433.53
776.87	19366.41
777.205	19344.72
777.539	19325.96
777.874	19444.6
778.209	19207.09
778.543	19232.18
778.878	19144.04
779.212	19148.56
779.547	19117.83
779.881	19181.78
780.215	19059.53
780.55	19177.72
780.884	19207.77
781.218	19095.46
781.552	18978.63
781.886	18933.88
782.22	18882.36
782.554	18859.31
782.888	18681.23
783.222	18720.78
783.556	18626.77
783.889	18655.47
784.223	18554.91
784.557	18522.82
784.89	18520.78
785.224	18512.65
785.557	18368.7
785.891	18282.37
786.224	18297.51
786.558	18318.08
786.891	18139.78
787.224	18033.34
787.557	18057.07
787.891	18073.11
788.224	17989.95
788.557	17973.23
788.89	17963.74
789.223	17969.39
789.556	17838.54
789.888	17727.13
790.221	17739.79
790.554	17569.62
790.887	17554.26
791.219	17511.09
791.552	17576.18
791.884	17386.8
792.217	17405.33
792.549	17287.14
792.882	17197.88
793.214	17133.93
793.546	17224.1
793.879	17083.99
794.211	16927.83
794.543	17006.02
794.875	16969.86
795.207	17099.13
795.539	16962.86
795.871	16880.38
796.203	16806.48
796.535	16728.06
796.867	16674.96
797.198	16604.68
797.53	16611.68
797.862	16529.42
798.193	16611
798.525	16430.9
798.856	16443.78
799.188	16291.01
799.519	16259.6
799.85	16215.99
800.182	16183.67
800.513	16252.14
800.844	16018.03
801.175	16041.3
801.506	16076.1
801.837	16053.28
802.168	15908.2
802.499	15886.28
802.83	15838.59
803.161	15792.72
803.491	15788.88
803.822	15788.88
804.153	15638.37
804.483	15659.16
804.814	15467.08
805.145	15594.31
805.475	15573.52
805.805	15448.32
806.136	15514.54
806.466	15488.1
806.796	15419.85
807.126	15268.89
807.457	15284.03
807.787	15275.9
808.117	15167.2
808.447	15110.7
808.777	15191.83
809.107	15144.6
809.436	15023.7
809.766	15018.96
810.096	15010.82
810.426	14919.3
810.755	14946.87
811.085	14902.35
811.414	14879.07
811.744	14749.13
812.073	14811.5
812.403	14792.29
812.732	14700.09
813.061	14648.57
813.39	14669.81
813.719	14524.96
814.049	14516.82
814.378	14588.01
814.707	14377.39
815.036	14475.92
815.365	14385.75
815.693	14329.93
816.022	14323.38
816.351	14280.44
816.68	14209.71
817.008	14213.33
817.337	14142.59
817.665	14162.48
817.994	14102.14
818.322	14077.06
818.651	14052.65
818.979	14015.37
819.307	14053.11
819.636	14001.13
819.964	13893.34
820.292	13913.22
820.62	13915.71
820.948	13914.58
821.276	13846.33
821.604	13930.62
821.932	13854.01
822.259	13910.96
822.587	13813.34
822.915	13841.13
823.243	13874.35
823.57	13810.4
823.898	13851.98
824.225	13824.64
824.553	13796.39
824.88	13795.26
825.207	13895.37
825.535	13830.74
825.862	13859.66
826.189	13780.12
826.516	13870.06
826.843	13825.31
827.17	13846.1
827.497	13879.32
827.824	13853.34
828.151	13845.65
828.478	13786.9
828.805	13856.95
829.131	13768.37
829.458	13814.92
829.785	13723.4
830.111	13800.68
830.438	13837.07
830.764	13769.04
831.09	13779.67
831.417	13866.44
831.743	13793.22
832.069	13817.86
832.395	13653.34
832.722	13747.58
833.048	13686.79
833.374	13701.02
833.7	13695.6
834.026	13640.46
834.351	13713.68
834.677	13678.65
835.003	13684.75
835.329	13690.63
835.654	13633.91
835.98	13598.43
836.306	13581.71
836.631	13562.27
836.956	13628.94
837.282	13601.37
837.607	13468.71
837.932	13515.72
838.258	13461.71
838.583	13501.71
838.908	13411.54
839.233	13404.31
839.558	13336.97
839.883	13271.66
840.208	13273.92
840.533	13264.65
840.858	13283.41
841.182	13238.44
841.507	13278.89
841.832	13212.22
842.156	13146.91
842.481	13125.67
842.805	13136.52
843.13	13134.26
843.454	13059.68
843.778	13009.29
844.103	13027.82
844.427	12954.15
844.751	12887.03
845.075	12909.86
845.399	12880.25
845.723	12741.95
846.047	12814.95
846.371	12722.97
846.695	12681.62
847.019	12649.53
847.343	12521.17
847.666	12487.95
847.99	12435.52
848.313	12413.15
848.637	12361.17
848.96	12329.99
849.284	12291.12
849.607	12172.02
849.931	12136.55
850.254	12126.83
850.577	12078.47
850.9	11908.3
851.223	11944.46
851.546	11915.08
851.869	11812.94
852.192	11880.96
852.515	11827.85
852.838	11737.23
853.161	11716.44
853.483	11669.44
853.806	11587.41
854.129	11617.46
854.451	11532.72
854.774	11574.3
855.096	11510.12
855.419	11456.56
855.741	11464.47
856.063	11399.39
856.385	11264.93
856.708	11304.02
857.03	11241.43
857.352	11270.13
857.674	11227.42
857.996	11212.5
858.318	11125.05
858.64	11092.5
858.961	11035.33
859.283	11052.28
859.605	10946.75
859.926	11013.86
860.248	10953.53
860.57	10927.99
860.891	10899.52
861.212	10842.79
861.534	10854.32
861.855	10773.64
862.176	10759.41
862.498	10803.7
862.819	10779.07
863.14	10763.7
863.461	10739.75
863.782	10674.21
864.103	10699.75
864.424	10626.53
864.745	10678.96
865.065	10535.91
865.386	10641.67
865.707	10582.69
866.027	10564.38
866.348	10463.14
866.668	10596.25
866.989	10529.36
867.309	10456.59
867.63	10449.81
867.95	10453.2
868.27	10387.66
868.59	10445.97
868.91	10402.35
869.23	10400.55
869.55	10332.98
869.87	10376.37
870.19	10313.77
870.51	10274
870.83	10325.29
871.15	10308.8
871.469	10194
871.789	10251.4
872.109	10254.11
872.428	10165.07
872.748	10188.35
873.067	10189.25
873.386	10170.27
873.706	10188.35
874.025	10102.7
874.344	10128.91
874.663	10154.45
874.982	10024.96
875.301	10057.05
875.62	10049.82
875.939	10035.81
876.258	9968.47
876.577	10014.79
876.896	9988.81
877.214	9966.88
877.533	10010.95
877.852	9973.21
878.17	9956.04
878.489	9936.15
878.807	9879.88
879.125	9856.15
879.444	9822.71
879.762	9842.37
880.08	9794.01
880.398	9803.05
880.716	9829.49
881.034	9745.2
881.352	9725.76
881.67	9704.29
881.988	9730.51
882.306	9669.04
882.624	9642.6
882.941	9586.78
883.259	9578.65
883.577	9605.99
883.894	9529.38
884.212	9539.1
884.529	9534.58
884.846	9485.32
885.164	9471.08
885.481	9451.87
885.798	9397.18
886.115	9335.94
886.432	9391.53
886.75	9284.42
887.067	9375.04
887.383	9353.79
887.7	9264.76
888.017	9264.08
888.334	9289.84
888.651	9203.52
888.967	9258.43
889.284	9137.3
889.6	9092.56
889.917	9104.53
890.233	9048.94
890.55	9087.81
890.866	8993.35
891.182	8985.89
891.498	8966.23
891.815	8942.5
892.131	8874.26
892.447	8907.48
892.763	8848.27
893.079	8877.2
893.395	8794.71
893.71	8778.44
894.026	8821.38
894.342	8694.38
894.657	8728.27
894.973	8677.65
895.289	8692.12
895.604	8625.68
895.92	8590.42
896.235	8531.22
896.55	8599.46
896.865	8490.54
897.181	8478.34
897.496	8515.85
897.811	8460.48
898.126	8354.05
898.441	8405.34
898.756	8326.93
899.071	8343.42
899.386	8248.96
899.7	8250.09
900.015	8196.31
900.33	8152.02
900.644	8127.16
900.959	8166.03
901.273	8086.26
901.588	8103.43
901.902	8072.7
902.216	8036.09
902.531	7988.63
902.845	7933.49
903.159	7928.52
903.473	7948.86
903.787	7837.68
904.101	7842.19
904.415	7837.68
904.729	7806.26
905.042	7722.42
905.356	7714.97
905.67	7711.35
905.984	7724.01
906.297	7655.08
906.611	7596.33
906.924	7645.36
907.237	7559.49
907.551	7510.45
907.864	7488.31
908.177	7470.45
908.491	7460.51
908.804	7432.94
909.117	7384.81
909.43	7320.17
909.743	7359.95
910.056	7278.14
910.368	7248.76
910.681	7241.98
910.994	7173.29
911.307	7214.41
911.619	7114.3
911.932	7109.11
912.244	7097.58
912.557	7097.36
912.869	7023.01
913.181	6952.95
913.494	6947.53
913.806	6972.16
914.118	6918.6
914.43	6885.84
914.742	6826.85
915.054	6787.76
915.366	6753.64
915.678	6745.95
915.99	6791.15
916.302	6683.13
916.613	6685.39
916.925	6646.75
917.236	6652.62
917.548	6618.27
917.859	6571.27
918.171	6529.24
918.482	6510.48
918.794	6461.44
919.105	6464.38
919.416	6359.97
919.727	6421.89
920.038	6396.81
920.349	6412.85
920.66	6350.93
920.971	6327.21
921.282	6311.61
921.593	6259.19
921.903	6166.08
922.214	6235.68
922.525	6183.03
922.835	6129.47
923.146	6157.27
923.456	6144.16
923.767	6066.65
924.077	6026.88
924.387	6001.11
924.697	6028.01
925.008	5943.04
925.318	5959.98
925.628	5906.88
925.938	5950.49
926.248	5851.74
926.558	5872.3
926.867	5815.36
927.177	5770.38
927.487	5740.56
927.796	5678.18
928.106	5661.46
928.416	5715.25
928.725	5732.65
929.034	5608.13
929.344	5638.19
929.653	5609.03
929.962	5555.48
930.271	5533.1
930.581	5521.35
930.89	5547.79
931.199	5471.86
931.508	5502.14
931.817	5451.07
932.125	5409.26
932.434	5418.76
932.743	5379.21
933.051	5340.34
933.36	5357.51
933.669	5287.69
933.977	5301.7
934.286	5264.41
934.594	5239.55
934.902	5189.16
935.21	5186.45
935.519	5162.72
935.827	5176.95
936.135	5105.32
936.443	5127.92
936.751	5060.57
937.059	5082.72
937.367	5003.4
937.674	5053.12
937.982	4984.19
938.29	4960.69
938.597	5006.11
938.905	4862.61
939.213	4887.02
939.52	4906.23
939.827	4901.48
940.135	4851.77
940.442	4834.59
940.749	4824.65
941.056	4866.91
941.363	4770.86
941.67	4776.51
941.977	4731.99
942.284	4701.94
942.591	4704.65
942.898	4618.55
943.205	4663.07
943.511	4626.69
943.818	4606.57
944.125	4557.99
944.431	4580.13
944.738	4575.84
945.044	4498.78
945.35	4497.2
945.657	4481.83
945.963	4429.86
946.269	4467.37
946.575	4423.98
946.881	4443.87
947.187	4409.74
947.493	4345.79
947.799	4387.6
948.105	4334.49
948.41	4321.61
948.716	4346.47
949.022	4297.66
949.327	4292.91
949.633	4240.93
949.938	4242.74
950.244	4202.74
950.549	4186.92
950.854	4139.47
951.16	4170.88
951.465	4128.85
951.77	4104.44
952.075	4112.8
952.38	4094.95
952.685	4078
952.99	4007.72
953.294	4009.08
953.599	3996.87
953.904	3994.39
954.209	3937.66
954.513	3980.83
954.818	3916.2
955.122	3932.92
955.426	3942.18
955.731	3895.41
956.035	3899.93
956.339	3861.51
956.643	3869.19
956.948	3865.58
957.252	3826.71
957.556	3815.86
957.86	3758.91
958.163	3744.45
958.467	3746.71
958.771	3720.95
959.075	3715.75
959.378	3726.37
959.682	3686.6
959.985	3653.38
960.289	3630.55
960.592	3617.9
960.896	3685.47
961.199	3584.91
961.502	3590.56
961.805	3630.55
962.108	3533.83
962.411	3553.49
962.714	3526.38
963.017	3474.63
963.32	3521.4
963.623	3484.34
963.926	3462.2
964.228	3438.24
964.531	3419.26
964.833	3431.01
965.136	3419.26
965.438	3369.09
965.741	3351.24
966.043	3370.45
966.345	3337.45
966.648	3359.6
966.95	3350.11
967.252	3297.68
967.554	3273.73
967.856	3288.64
968.158	3279.83
968.46	3261.75
968.761	3222.2
969.063	3231.24
969.365	3215.2
969.666	3224.46
969.968	3180.62
970.269	3175.2
970.571	3113.51
970.872	3140.4
971.174	3127.74
971.475	3144.92
971.776	3082.09
972.077	3078.03
972.378	3064.24
972.679	3068.08
972.98	3011.14
973.281	3019.5
973.582	3013.4
973.883	3001.19
974.183	2975.88
974.484	2969.55
974.785	2977.92
975.085	2934.53
975.386	2941.53
975.686	2904.25
975.986	2889.56
976.287	2891.82
976.587	2874.64
976.887	2885.72
977.187	2887.97
977.487	2857.02
977.787	2843
978.087	2823.8
978.387	2793.29
978.687	2778.37
978.987	2770.92
979.286	2760.29
979.586	2774.76
979.885	2760.29
980.185	2739.5
980.484	2709.22
980.784	2707.19
981.083	2672.16
981.382	2671.94
981.682	2674.65
981.981	2652.27
982.28	2663.12
982.579	2607.3
982.878	2610.24
983.177	2613.63
983.475	2626.74
983.774	2574.31
984.073	2578.15
984.372	2566.63
984.67	2557.81
984.969	2549.23
985.267	2523.92
985.566	2562.33
985.864	2496.35
986.162	2524.82
986.461	2499.28
986.759	2500.87
987.057	2466.52
987.355	2448.66
987.653	2454.77
987.951	2452.73
988.249	2440.76
988.547	2397.37
988.844	2417.93
989.142	2397.82
989.44	2382.9
989.737	2354.2
990.035	2351.72
990.332	2325.73
990.63	2325.28
990.927	2334.54
991.224	2323.02
991.521	2306.97
991.819	2299.97
992.116	2302
992.413	2278.95
992.71	2250.03
993.006	2244.83
993.303	2257.71
993.6	2273.08
993.897	2236.92
994.193	2226.98
994.49	2204.6
994.787	2190.14
995.083	2206.64
995.379	2149.24
995.676	2134.77
995.972	2160.08
996.268	2141.55
996.565	2129.8
996.861	2111.5
997.157	2097.26
997.453	2062.46
997.749	2087.32
998.044	2054.1
998.34	2069.47
998.636	2043.7
998.932	2056.13
999.227	2017.94
999.523	2051.39
999.818	2013.2
1000.114	2004.16
1000.409	1970.03
1000.704	1971.16
1001	1957.38
1001.295	1914.44
1001.59	1988.34
1001.885	1945.17
1002.18	1921.22
1002.475	1888
1002.77	1894.78
1003.065	1885.29
1003.359	1886.87
1003.654	1863.6
1003.949	1866.31
1004.243	1841.22
1004.538	1826.76
1004.832	1824.95
1005.127	1801.45
1005.421	1835.8
1005.715	1799.42
1006.009	1810.72
1006.304	1812.07
1006.598	1774.78
1006.892	1770.49
1007.186	1784.95
1007.48	1740.89
1007.773	1746.54
1008.067	1720.77
1008.361	1718.51
1008.655	1700.44
1008.948	1690.94
1009.242	1695.69
1009.535	1683.94
1009.829	1678.52
1010.122	1683.26
1010.415	1643.04
1010.708	1637.61
1011.001	1634.67
1011.295	1603.49
1011.588	1629.02
1011.881	1611.85
1012.173	1587.22
1012.466	1598.07
1012.759	1573.66
1013.052	1571.85
1013.344	1561.23
1013.637	1538.63
1013.93	1495.7
1014.222	1517.84
1014.514	1536.37
1014.807	1518.97
1015.099	1501.12
1015.391	1510.61
1015.683	1489.59
1015.976	1476.49
1016.268	1476.03
1016.56	1445.75
1016.851	1422.7
1017.143	1439.43
1017.435	1439.88
1017.727	1415.92
1018.018	1411.18
1018.31	1416.38
1018.602	1420.22
1018.893	1398.3
1019.185	1403.27
1019.476	1365.53
1019.767	1367.56
1020.058	1336.38
1020.35	1330.95
1020.641	1331.18
1020.932	1312.65
1021.223	1330.05
1021.514	1304.51
1021.804	1308.58
1022.095	1313.55
1022.386	1271.75
1022.677	1285.31
1022.967	1245.31
1023.258	1262.48
1023.548	1279.66
1023.839	1258.87
1024.129	1240.79
1024.419	1231.97
1024.709	1240.79
1025	1233.78
1025.29	1186.78
1025.58	1191.97
1025.87	1179.77
1026.16	1218.19
1026.449	1182.48
1026.739	1163.73
1027.029	1163.73
1027.319	1137.96
1027.608	1180.22
1027.898	1152.2
1028.187	1120.56
1028.477	1120.34
1028.766	1092.32
1029.055	1108.59
1029.344	1113.78
1029.634	1096.38
1029.923	1097.29
1030.212	1059.1
1030.501	1100.68
1030.79	1077.4
1031.078	1077.63
1031.367	1069.27
1031.656	1071.75
1031.945	1046.89
1032.233	1023.17
1032.522	1026.33
1032.81	984.07
1033.099	1011.87
1033.387	1001.47
1033.675	1003.73
1033.963	1003.73
1034.251	992.88
1034.54	965.77
1034.828	1001.92
1035.116	949.04
1035.403	983.39
1035.691	944.98
1035.979	974.58
1036.267	944.3
1036.554	945.65
1036.842	919.67
1037.129	936.16
1037.417	944.3
1037.704	924.64
1037.992	930.06
1038.279	907.24
1038.566	926.67
1038.853	926.67
1039.14	926.67
