Data from hue_300_FLMS001491_00044.txt Node
Date: Tue Feb 07 15:50:46 GMT 2017
User: dcchb
Spectrometer: FLMS00149
Trigger mode: 0
Integration Time (sec): 2.000000E-2
Scans to average: 10
Electric dark correction enabled: true
Nonlinearity correction enabled: false
Boxcar width: 0
XAxis mode: Wavelengths
Number of Pixels in Spectrum: 2048
>>>>>Begin Spectral Data<<<<<
341.393	-20.11
341.776	-20.11
342.16	-20.11
342.543	-45.65
342.927	-60.79
343.31	-64.63
343.693	-65.53
344.077	-58.08
344.46	-62.82
344.843	-48.13
345.226	-35.48
345.61	-32.54
345.993	-19.66
346.376	-20.79
346.759	4.52
347.142	33.22
347.525	44.29
347.908	65.53
348.291	51.75
348.674	96.04
349.057	112.31
349.44	122.26
349.823	150.5
350.206	161.35
350.588	209.26
350.971	210.16
351.354	186.21
351.737	213.1
352.119	226.66
352.502	274.12
352.884	285.42
353.267	258.98
353.65	283.16
354.032	288.13
354.414	306.21
354.797	310.05
355.179	319.31
355.562	311.18
355.944	312.08
356.326	335.58
356.709	331.97
357.091	319.99
357.473	331.29
357.855	330.61
358.238	340.78
358.62	359.76
359.002	334
359.384	325.64
359.766	335.13
360.148	338.52
360.53	337.62
360.912	336.26
361.294	312.99
361.676	334
362.057	330.16
362.439	329.71
362.821	348.47
363.203	313.66
363.584	303.49
363.966	327.45
364.348	323.61
364.729	308.47
365.111	318.86
365.493	318.18
365.874	299.65
366.256	313.89
366.637	305.3
367.019	294.91
367.4	310.05
367.781	301.46
368.163	324.96
368.544	301.24
368.925	315.47
369.306	316.83
369.688	301.91
370.069	306.21
370.45	297.39
370.831	327.45
371.212	305.3
371.593	311.4
371.974	323.38
372.355	315.02
372.736	312.53
373.117	306.66
373.498	337.84
373.879	315.7
374.26	310.05
374.641	307.56
375.021	318.18
375.402	319.54
375.783	333.55
376.163	337.17
376.544	330.84
376.925	321.35
377.305	333.78
377.686	339.2
378.066	321.35
378.447	325.42
378.827	328.35
379.208	342.14
379.588	337.84
379.968	335.13
380.349	331.97
380.729	333.55
381.109	325.87
381.489	326.55
381.87	335.36
382.25	340.1
382.63	337.62
383.01	340.1
383.39	331.74
383.77	355.92
384.15	375.58
384.53	362.7
384.91	357.28
385.29	363.61
385.67	334.91
386.049	337.17
386.429	363.61
386.809	355.24
387.189	359.54
387.568	377.62
387.948	352.53
388.328	359.54
388.707	378.3
389.087	372.42
389.466	362.93
389.846	375.81
390.225	376.71
390.605	372.87
390.984	367.9
391.363	367.9
391.743	392.31
392.122	400.89
392.501	386.88
392.881	368.35
393.26	386.66
393.639	381.91
394.018	402.25
394.397	365.19
394.776	391.18
395.155	391.63
395.534	383.27
395.913	401.12
396.292	402.48
396.671	402.48
397.05	402.7
397.429	402.48
397.808	423.04
398.186	396.37
398.565	417.16
398.944	424.62
399.323	425.3
399.701	426.66
400.08	405.19
400.458	420.55
400.837	425.53
401.215	422.36
401.594	428.01
401.972	460.78
402.351	435.47
402.729	445.64
403.107	436.15
403.486	480.89
403.864	444.96
404.242	439.99
404.62	464.85
404.999	465.52
405.377	451.97
405.755	462.59
406.133	492.19
406.511	482.93
406.889	493.55
407.267	494
407.645	488.8
408.023	509.59
408.401	504.17
408.779	508.91
409.156	531.96
409.534	518.18
409.912	524.73
410.29	537.61
410.667	541.23
411.045	553.43
411.422	552.3
411.8	568.12
412.178	568.12
412.555	579.87
412.933	581.68
413.31	617.38
413.687	606.09
414.065	622.13
414.442	640.66
414.819	636.82
415.197	652.64
415.574	645.18
415.951	680.43
416.328	668.01
416.705	674.78
417.082	678.85
417.46	723.6
417.837	708.46
418.214	700.32
418.591	719.98
418.967	731.96
419.344	765.63
419.721	762.92
420.098	743.48
420.475	775.57
420.852	783.03
421.228	788
421.605	812.41
421.982	802.46
422.358	812.63
422.735	832.52
423.111	826.42
423.488	852.41
423.864	844.05
424.241	851.96
424.617	882.01
424.994	885.85
425.37	872.29
425.746	907.32
426.123	875.91
426.499	912.52
426.875	938.96
427.251	944.83
427.627	951.39
428.003	967.43
428.379	978.96
428.756	1011.27
429.132	995.68
429.507	1011.05
429.883	1009.24
430.259	1052.4
430.635	1055.34
431.011	1038.16
431.387	1067.32
431.763	1083.59
432.138	1114.09
432.514	1112.74
432.89	1129.01
433.265	1159.29
433.641	1138.28
434.016	1195.22
434.392	1202.45
434.767	1219.63
435.143	1219.63
435.518	1229.8
435.894	1264.83
436.269	1230.02
436.644	1279.06
437.02	1262.79
437.395	1267.76
437.77	1303.69
438.145	1316.12
438.52	1334.65
438.895	1335.33
439.271	1366.97
439.646	1385.5
440.021	1390.25
440.395	1384.14
440.77	1358.16
441.145	1369.46
441.52	1427.99
441.895	1400.19
442.27	1432.28
442.645	1416.46
443.019	1427.08
443.394	1427.08
443.769	1441.32
444.143	1436.57
444.518	1454.2
444.892	1467.76
445.267	1499.17
445.641	1463.01
446.016	1490.58
446.39	1475.89
446.764	1504.37
447.139	1484.93
447.513	1493.75
447.887	1533.07
448.262	1507.76
448.636	1524.71
449.01	1543.01
449.384	1538.72
449.758	1552.73
450.132	1555.89
450.506	1557.7
450.88	1571.48
451.254	1564.25
451.628	1571.94
452.002	1587.98
452.376	1620.97
452.75	1604.25
453.123	1655.1
453.497	1623.46
453.871	1639.73
454.244	1687.19
454.618	1661.88
454.992	1712.05
455.365	1700.29
455.739	1740.97
456.112	1732.84
456.486	1745.04
456.859	1713.4
457.232	1787.3
457.606	1780.74
457.979	1803.57
458.352	1822.78
458.725	1832.95
459.099	1825.49
459.472	1859.39
459.845	1887.41
460.218	1879.72
460.591	1910.01
460.964	1927.18
461.337	1965.6
461.71	1957.91
462.083	1952.94
462.456	1955.43
462.829	2001.53
463.201	2016.9
463.574	1995.2
463.947	2035.88
464.32	2063.45
464.692	2077.01
465.065	2084.24
465.438	2092.6
465.81	2125.37
466.183	2119.27
466.555	2147.74
466.928	2189.32
467.3	2164.46
467.672	2206.27
468.045	2244.46
468.417	2265.93
468.789	2255.99
469.161	2257.34
469.534	2304.35
469.906	2354.97
470.278	2338.24
470.65	2344.8
471.022	2417.11
471.394	2416.21
471.766	2456.66
472.138	2464.79
472.51	2495.08
472.882	2526.26
473.253	2559.25
473.625	2593.83
473.997	2643.77
474.369	2623.21
474.74	2653.26
475.112	2681.06
475.484	2735.07
475.855	2742.53
476.227	2744.56
476.598	2817.1
476.97	2820.94
477.341	2888.51
477.713	2919.92
478.084	2900.04
478.455	2967.83
478.827	2968.96
479.198	3052.12
479.569	3098.68
479.94	3076.98
480.311	3107.71
480.682	3189.52
481.053	3205.57
481.424	3243.53
481.795	3276.3
482.166	3327.14
482.537	3335.96
482.908	3396.97
483.279	3448.5
483.65	3480.59
484.021	3480.13
484.391	3546.57
484.762	3584.99
485.133	3597.19
485.503	3596.29
485.874	3676.29
486.244	3673.35
486.615	3749.96
486.985	3803.29
487.356	3820.01
487.726	3824.98
488.097	3916.51
488.467	3897.98
488.837	3995.15
489.207	4003.06
489.578	4062.72
489.948	4105.88
490.318	4104.52
490.688	4094.81
491.058	4163.73
491.428	4257.52
491.798	4228.82
492.168	4283.5
492.538	4342.71
492.908	4329.15
493.278	4386.1
493.648	4409.15
494.017	4416.38
494.387	4445.08
494.757	4549.26
495.126	4581.35
495.496	4529.15
495.866	4606.66
496.235	4628.58
496.605	4608.69
496.974	4668.8
497.344	4711.74
497.713	4711.29
498.082	4715.13
498.452	4781.8
498.821	4789.7
499.19	4776.15
499.559	4803.94
499.928	4854.11
500.298	4828.12
500.667	4880.32
501.036	4925.29
501.405	4918.06
501.774	4938.85
502.143	4982.24
502.512	4983.82
502.88	5068.12
503.249	5053.65
503.618	5033.31
503.987	5077.61
504.356	5078.74
504.724	5139.07
505.093	5114.44
505.462	5122.35
505.83	5106.53
506.199	5186.76
506.567	5268.79
506.936	5239.64
507.304	5303.59
507.672	5286.41
508.041	5287.09
508.409	5373.64
508.777	5348.33
509.145	5374.77
509.514	5356.92
509.882	5360.31
510.25	5391.27
510.618	5456.58
510.986	5455.45
511.354	5500.19
511.722	5589.46
512.09	5549.91
512.458	5527.54
512.826	5598.72
513.193	5583.13
513.561	5593.98
513.929	5647.99
514.297	5631.72
514.664	5666.07
515.032	5747.65
515.4	5744.03
515.767	5773.63
516.135	5735.22
516.502	5738.38
516.869	5780.86
517.237	5767.31
517.604	5841.88
517.972	5865.61
518.339	5787.87
518.706	5803.24
519.073	5863.35
519.44	5866.29
519.808	5937.25
520.175	5921.88
520.542	5981.76
520.909	5996.23
521.276	5971.82
521.643	6043.46
522.009	6047.98
522.376	6101.99
522.743	6119.16
523.11	6098.37
523.477	6200.51
523.843	6195.77
524.21	6259.27
524.577	6294.52
524.943	6311.47
525.31	6306.5
525.676	6425.82
526.043	6411.58
526.409	6432.37
526.776	6491.58
527.142	6492.71
527.508	6523.67
527.874	6562.09
528.241	6605.02
528.607	6594.18
528.973	6676.43
529.339	6692.25
529.705	6743.78
530.071	6763.66
530.437	6826.26
530.803	6803.44
531.169	6849.09
531.535	6845.24
531.901	6939.03
532.267	6891.34
532.632	6938.8
532.998	6944.68
533.364	7025.8
533.73	6995.52
534.095	7110.32
534.461	7108.51
534.826	7178.57
535.192	7127.04
535.557	7191.45
535.923	7214.5
536.288	7269.41
536.653	7288.17
537.019	7183.77
537.384	7271.9
537.749	7417.88
538.114	7349.64
538.479	7346.25
538.845	7426.47
539.21	7430.09
539.575	7439.13
539.94	7471.22
540.305	7586.69
540.67	7511.89
541.034	7569.97
541.399	7636.41
541.764	7671.66
542.129	7746.69
542.494	7741.94
542.858	7726.58
543.223	7732.9
543.587	7789.17
543.952	7860.58
544.316	7839.57
544.681	7877.08
545.045	7905.1
545.41	7905.78
545.774	8014.48
546.138	7924.99
546.503	8050.41
546.867	8045.21
547.231	8140.58
547.595	8157.07
547.959	8233.68
548.324	8173.8
548.688	8182.16
549.052	8246.56
549.416	8220.57
549.779	8282.72
550.143	8306.9
550.507	8336.96
550.871	8355.49
551.235	8378.99
551.599	8417.86
551.962	8479.78
552.326	8423.06
552.689	8532.66
553.053	8472.55
553.417	8529.49
553.78	8577.18
554.143	8542.37
554.507	8573.56
554.87	8632.77
555.234	8741.69
555.597	8668.02
555.96	8661.24
556.323	8673.67
556.686	8741.92
557.05	8767.68
557.413	8794.8
557.776	8796.15
558.139	8904.62
558.502	8902.82
558.865	8895.36
559.228	8964.28
559.59	8934.23
559.953	9009.71
560.316	9039.31
560.679	8992.98
561.041	9116.82
561.404	9052.42
561.767	9150.49
562.129	9150.95
562.492	9229.59
562.854	9218.51
563.217	9251.06
563.579	9311.62
563.941	9307.1
564.304	9352.97
564.666	9297.38
565.028	9316.37
565.39	9396.14
565.753	9478.85
566.115	9538.05
566.477	9527.66
566.839	9594.32
567.201	9617.6
567.563	9605.62
567.925	9684.04
568.287	9703.47
568.648	9738.28
569.01	9804.71
569.372	9846.29
569.734	9822.57
570.095	9880.87
570.457	9925.84
570.819	9920.64
571.18	9955.9
571.542	10037.25
571.903	10058.72
572.265	10147.08
572.626	10186.85
572.987	10208.55
573.349	10332.84
573.71	10333.74
574.071	10370.35
574.432	10471.36
574.794	10585.03
575.155	10540.97
575.516	10583.68
575.877	10718.81
576.238	10780.96
576.599	10883.78
576.96	10945.93
577.32	11046.26
577.681	11111.12
578.042	11182.08
578.403	11288.52
578.763	11451.22
579.124	11523.54
579.485	11668.39
579.845	11792.68
580.206	11815.96
580.566	11996.75
580.927	12206.23
581.287	12249.85
581.648	12407.58
582.008	12625.88
582.368	12774.81
582.728	12959.43
583.089	12996.72
583.449	13187
583.809	13362.13
584.169	13642.81
584.529	13673.09
584.889	14028.56
585.249	14146.29
585.609	14393.52
585.969	14650.01
586.329	14889.78
586.688	15095.2
587.048	15351.91
587.408	15519.59
587.768	15833.26
588.127	16061.27
588.487	16324.54
588.846	16638.88
589.206	16797.98
589.565	17094.01
589.925	17415.14
590.284	17673.21
590.643	17912.98
591.003	18263.02
591.362	18627.53
591.721	18925.83
592.08	19169.67
592.44	19480.17
592.799	19852.59
593.158	20113.6
593.517	20410.54
593.876	20663.64
594.235	20917.64
594.593	21310.63
594.952	21543.61
595.311	21843.95
595.67	22136.59
596.029	22476.25
596.387	22885.95
596.746	23198.49
597.104	23482.55
597.463	23576.78
597.822	24041.85
598.18	24419.7
598.538	24575.85
598.897	24986.24
599.255	25149.62
599.613	25728.82
599.972	25899.66
600.33	26173.78
600.688	26317.5
601.046	26864.83
601.404	27088.1
601.762	27310.47
602.12	27706.16
602.478	28017.79
602.836	28203.33
603.194	28363.55
603.552	28721.05
603.91	28900.48
604.268	29293.24
604.625	29400.81
604.983	29734.36
605.341	29940.91
605.698	30423.38
606.056	30586.77
606.413	30753.54
606.771	31037.83
607.128	31331.83
607.485	31449.79
607.843	31653.63
608.2	31933.85
608.557	32307.4
608.914	32386.04
609.272	32713.49
609.629	32976.53
609.986	33322.51
610.343	33270.31
610.7	33685.44
611.057	33724.31
611.414	33987.58
611.771	34277.52
612.127	34564.74
612.484	34526.32
612.841	34845.86
613.198	34886.09
613.554	35166.53
613.911	35500.31
614.267	35619.18
614.624	35798.83
614.98	35905.5
615.337	36206.51
615.693	36382.77
616.05	36364.47
616.406	36775.53
616.762	36784.57
617.118	36997.22
617.475	37018.24
617.831	37289.64
618.187	37480.82
618.543	37511.78
618.899	37941.83
619.255	37929.17
619.611	37950.41
619.967	38025.21
620.323	38316.96
620.678	38138.66
621.034	38297.07
621.39	38416.62
621.746	38433.11
622.101	38876.94
622.457	38768.47
622.812	39018.18
623.168	39043.04
623.523	39199.2
623.879	39413.65
624.234	39118.29
624.589	39365.52
624.945	39468.57
625.3	39639.86
625.655	39630.14
626.01	39649.35
626.365	39831.5
626.72	39933.64
627.075	39785.39
627.43	40090.7
627.785	40037.82
628.14	40192.62
628.495	40103.8
628.85	40220.86
629.205	40239.39
629.559	40406.17
629.914	40250.02
630.269	40379.05
630.623	40468.09
630.978	40287.3
631.332	40523.91
631.687	40655.43
632.041	40472.16
632.396	40557.8
632.75	40509.67
633.104	40607.07
633.459	40443.23
633.813	40476.45
634.167	40502.66
634.521	40614.53
634.875	40590.8
635.229	40671.02
635.583	40431.48
635.937	40562.78
636.291	40441.2
636.645	40522.55
636.999	40524.58
637.352	40686.61
637.706	40497.01
638.06	40609.78
638.413	40550.12
638.767	40338.37
639.121	40602.32
639.474	40261.09
639.828	40414.08
640.181	40555.09
640.534	40515.54
640.888	40484.81
641.241	40247.53
641.594	40355.1
641.947	40461.53
642.301	40406.85
642.654	40525.71
643.007	40491.14
643.36	40427.64
643.713	40292.95
644.066	40338.83
644.419	40289.11
644.771	40062.68
645.124	39628.11
645.477	39721.44
645.83	39361.68
646.182	39169.82
646.535	39195.58
646.888	39232.41
647.24	38978.41
647.593	39390.15
647.945	39295.69
648.298	39024.28
648.65	38984.74
649.002	39031.74
649.355	39238.52
649.707	39137.05
650.059	39415.01
650.411	39711.95
650.763	39805.06
651.115	40057.93
651.467	40094.99
651.819	40032.17
652.171	39861.55
652.523	39979.06
652.875	39927.99
653.227	39794.89
653.578	40074.65
653.93	39963.02
654.282	39846.18
654.633	39787.2
654.985	39840.31
655.337	40030.13
655.688	39903.36
656.039	40013.41
656.391	39725.28
656.742	39642.57
657.094	39787.2
657.445	39963.02
657.796	39730.25
658.147	39666.75
658.498	39796.24
658.849	39739.52
659.2	39757.15
659.551	39619.3
659.902	39671.73
660.253	39608.9
660.604	39827.2
660.955	39621.11
661.306	39731.38
661.656	39614.78
662.007	39688.9
662.358	39773.64
662.708	39572.29
663.059	39523.71
663.409	39426.99
663.76	39756.92
664.11	39712.4
664.461	39692.74
664.811	39790.59
665.161	39648.45
665.511	39529.13
665.862	39615.68
666.212	39640.77
666.562	39791.95
666.912	39587.43
667.262	39608.9
667.612	39666.53
667.962	39697.26
668.312	39563.93
668.662	39864.49
669.011	39784.49
669.361	39473.99
669.711	39489.81
670.06	39631.95
670.41	39429.7
670.76	39390.6
671.109	39436.03
671.459	39511.28
671.808	39422.24
672.157	39549.47
672.507	39184.05
672.856	39210.72
673.205	39252.53
673.554	39309.93
673.904	39244.84
674.253	39425.4
674.602	39321.45
674.951	38757.85
675.3	38535.94
675.649	39232.64
675.998	39134.34
676.346	39134.11
676.695	39339.76
677.044	38955.13
677.393	38951.97
677.741	39282.13
678.09	38956.04
678.438	38934.57
678.787	39047.56
679.135	39024.06
679.484	38759.43
679.832	38924.85
680.181	38612.54
680.529	38832.2
680.877	38621.58
681.225	38733.9
681.573	38970.73
681.922	38646.67
682.27	38504.3
682.618	38355.6
682.966	38419.1
683.314	38469.04
683.661	38311.54
684.009	38230.41
684.357	38155.61
684.705	38085.33
685.053	38141.14
685.4	38049.17
685.748	37892.56
686.095	37923.97
686.443	37772.34
686.79	37644.21
687.138	37829.97
687.485	37854.37
687.832	37677.65
688.18	37831.55
688.527	37474.95
688.874	37446.7
689.221	37429.98
689.568	37333.71
689.915	37256.2
690.262	37222.3
690.609	37046.71
690.956	36908.63
691.303	36875.41
691.65	36705.02
691.997	36732.14
692.344	36683.78
692.69	36675.65
693.037	36607.4
693.383	36279.72
693.73	36471.36
694.077	36262.55
694.423	36274.3
694.769	36138.03
695.116	35923.12
695.462	35987.08
695.808	35817.82
696.155	36101.65
696.501	35732.62
696.847	35682.68
697.193	35387.09
697.539	35617.59
697.885	35278.62
698.231	35232.75
698.577	35275.68
698.923	35169.7
699.269	34991.85
699.614	34722.7
699.96	34777.16
700.306	34722.93
700.651	34670.5
700.997	34534.46
701.342	34657.39
701.688	34501.92
702.033	34348.7
702.379	34395.48
702.724	34189.61
703.069	34209.27
703.415	33917.75
703.76	33920.24
704.105	33781.48
704.45	33810.86
704.795	33682.05
705.14	33464.43
705.485	33484.09
705.83	33360.93
706.175	33553.92
706.52	33373.81
706.865	33140.6
707.209	33153.03
707.554	33069.41
707.899	32973.37
708.243	32899.02
708.588	32878.01
708.932	32554.4
709.277	32561.63
709.621	32663.32
709.966	32531.12
710.31	32587.84
710.654	32121.64
710.998	32166.16
711.342	32290.9
711.687	32103.56
712.031	32094.52
712.375	31896.34
712.719	31895.66
713.063	31870.12
713.407	32075.54
713.75	31775.21
714.094	31855.66
714.438	31677.36
714.782	31750.35
715.125	31545.84
715.469	31502.67
715.812	31352.17
716.156	31255.68
716.499	31428.1
716.843	31389.91
717.186	31146.98
717.53	31313.07
717.873	31353.07
718.216	31156.69
718.559	31008
718.902	30873.99
719.246	30954.89
719.589	30902.24
719.932	30795.35
720.275	30801.68
720.617	30863.37
720.96	30663.6
721.303	30664.5
721.646	30688.68
721.989	30414.79
722.331	30584.28
722.674	30375.25
723.016	30485.53
723.359	30401.69
723.701	30354.23
724.044	30124.18
724.386	30057.97
724.729	30164.63
725.071	30010.96
725.413	30034.92
725.755	30044.86
726.097	29779.33
726.439	29684.42
726.782	29813.45
727.124	30012.54
727.465	29829.5
727.807	29756.28
728.149	29723.29
728.491	29568.49
728.833	29714.92
729.175	29406.23
729.516	29572.56
729.858	29367.82
730.199	29480.81
730.541	29329.4
730.882	29292.11
731.224	29367.82
731.565	29083.53
731.906	29181.61
732.248	29195.16
732.589	29079.91
732.93	28872.69
733.271	28945.91
733.612	28990.88
733.953	29021.16
734.294	28934.61
734.635	28841.05
734.976	28871.78
735.317	28616.65
735.658	28734.84
735.999	28718.79
736.339	28761.28
736.68	28696.19
737.021	28654.39
737.361	28512.47
737.702	28658.46
738.042	28618.68
738.383	28536.2
738.723	28573.03
739.063	28356.54
739.404	28433.15
739.744	28460.04
740.084	28291.91
740.424	28270.9
740.764	28276.32
741.104	28358.8
741.444	28132.14
741.784	28064.57
742.124	28245.59
742.464	28001.98
742.804	27949.55
743.143	27857.12
743.483	27923.33
743.823	27825.48
744.162	27924.69
744.502	27953.62
744.841	27775.54
745.181	27799.04
745.52	27747.74
745.86	27925.14
746.199	27679.95
746.538	27685.83
746.877	27792.94
747.216	27774.41
747.556	27623.91
747.895	27676.33
748.234	27448.77
748.573	27463.46
748.911	27466.62
749.25	27433.4
749.589	27429.79
749.928	27438.15
750.267	27529.22
750.605	27340.75
750.944	27335.1
751.283	27223.69
751.621	27265.27
751.96	27158.38
752.298	27117.93
752.636	27091.04
752.975	27054.2
753.313	26840.65
753.651	27067.31
753.989	27015.11
754.327	27068.21
754.666	26729.47
755.004	26832.06
755.342	26902.12
755.679	26702.57
756.017	26670.26
756.355	26699.64
756.693	26523.37
757.031	26623.93
757.368	26488.12
757.706	26471.85
758.044	26470.49
758.381	26431.62
758.719	26381.45
759.056	26324.51
759.394	26206.99
759.731	26126.54
760.068	26011.52
760.405	26007.9
760.743	25931.97
761.08	25983.05
761.417	25866.89
761.754	25857.4
762.091	25778.31
762.428	25621.25
762.765	25564.98
763.102	25591.64
763.438	25522.72
763.775	25396.17
764.112	25440.24
764.449	25376.51
764.785	25281.37
765.122	25160.69
765.458	24956.63
765.795	25073.92
766.131	25035.95
766.467	24957.76
766.804	24842.96
767.14	24725
767.476	24737.43
767.812	24614.95
768.148	24619.47
768.485	24335.41
768.821	24389.19
769.157	24311.9
769.492	24360.26
769.828	24138.12
770.164	23995.08
770.5	23943.55
770.836	23988.3
771.171	23777.91
771.507	23814.74
771.842	23677.57
772.178	23652.03
772.513	23561.41
772.849	23463.11
773.184	23323.45
773.519	23368.2
773.855	23261.31
774.19	23172.5
774.525	23107.42
774.86	23100.41
775.195	23029.45
775.53	22889.79
775.865	22695
776.2	22715.79
776.535	22557.6
776.87	22567.77
777.205	22383.14
777.539	22335.46
777.874	22358.51
778.209	22169.81
778.543	22129.59
778.878	21944.51
779.212	22004.39
779.547	21911.74
779.881	21857.05
780.215	21649.15
780.55	21837.84
780.884	21714.23
781.218	21496.38
781.552	21635.36
781.886	21427.46
782.22	21303.62
782.554	21288.48
782.888	21109.5
783.222	20931.2
783.556	21038.32
783.889	20868.38
784.223	20760.13
784.557	20703.86
784.89	20754.71
785.224	20593.58
785.557	20462.96
785.891	20440.14
786.224	20331.44
786.558	20378.9
786.891	20150.2
787.224	20073.14
787.557	20090.55
787.891	19999.02
788.224	19944.56
788.557	20013.26
788.89	19881.74
789.223	19876.54
789.556	19713.83
789.888	19719.26
790.221	19665.02
790.554	19477.68
790.887	19410.11
791.219	19407.85
791.552	19326.5
791.884	19249.44
792.217	19200.85
792.549	19080.63
792.882	19034.75
793.214	18955.21
793.546	18914.98
793.879	18838.15
794.211	18672.5
794.543	18752.05
794.875	18722.45
795.207	18710.47
795.539	18578.04
795.871	18617.14
796.203	18347.54
796.535	18372.4
796.867	18297.82
797.198	18260.76
797.53	18300.76
797.862	18080.43
798.193	18111.39
798.525	17997.49
798.856	18026.64
799.188	17806.09
799.519	17770.15
799.85	17763.83
800.182	17721.79
800.513	17729.25
800.844	17516.83
801.175	17635.92
801.506	17595.47
801.837	17420.56
802.168	17473.21
802.499	17423.5
802.83	17232.32
803.161	17225.08
803.491	17215.14
803.822	17197.51
804.153	17081.58
804.483	16947.13
804.814	16968.59
805.145	16893.34
805.475	17011.08
805.805	16805.21
806.136	16730.18
806.466	16783.74
806.796	16712.1
807.126	16598.43
807.457	16546.46
807.787	16574.03
808.117	16439.34
808.447	16415.61
808.777	16490.19
809.107	16386.69
809.436	16282.28
809.766	16259.91
810.096	16266.24
810.426	16208.61
810.755	16151.67
811.085	16090.2
811.414	16067.83
811.744	15919.81
812.073	16016.75
812.403	15967.49
812.732	15883.42
813.061	15861.28
813.39	15772.47
813.719	15708.29
814.049	15786.48
814.378	15720.26
814.707	15621.96
815.036	15752.81
815.365	15594.39
815.693	15408.86
816.022	15481.63
816.351	15426.04
816.68	15317.34
817.008	15404.79
817.337	15258.36
817.665	15233.27
817.994	15195.98
818.322	15177.91
818.651	15134.52
818.979	15065.14
819.307	15157.57
819.636	15063.78
819.964	14924.81
820.292	15105.82
820.62	14905.37
820.948	14857.01
821.276	14990.34
821.604	14909.44
821.932	14960.74
822.259	14933.39
822.587	14920.29
822.915	14798.25
823.243	14871.7
823.57	14819.5
823.898	14889.55
824.225	14821.53
824.553	14849.55
824.88	14843.68
825.207	14838.25
825.535	14887.97
825.862	14840.29
826.189	14767.52
826.516	14900.63
826.843	14890.91
827.17	14906.27
827.497	14923.45
827.824	14877.8
828.151	14917.8
828.478	14869.21
828.805	14869.44
829.131	14815.43
829.458	14826.05
829.785	14767.3
830.111	14894.98
830.438	14838.48
830.764	14789.44
831.09	14819.27
831.417	14814.75
831.743	14814.98
832.069	14778.37
832.395	14741.08
832.722	14818.82
833.048	14799.16
833.374	14663.12
833.7	14638.49
834.026	14574.76
834.351	14734.3
834.677	14635.55
835.003	14617.24
835.329	14613.85
835.654	14672.83
835.98	14547.41
836.306	14569.56
836.631	14453.41
836.956	14543.57
837.282	14578.83
837.607	14446.17
837.932	14482.56
838.258	14408.66
838.583	14452.05
838.908	14308.78
839.233	14398.72
839.558	14249.34
839.883	14336.8
840.208	14255.22
840.533	14283.47
840.858	14219.97
841.182	14293.41
841.507	14167.31
841.832	14099.97
842.156	14106.07
842.481	14137.03
842.805	14073.75
843.13	14033.98
843.454	14002.12
843.778	13978.84
844.103	13967.99
844.427	13898.84
844.751	13907.66
845.075	13820.43
845.399	13801.22
845.723	13700.2
846.047	13775.91
846.371	13614.78
846.695	13562.13
847.019	13535.69
847.343	13455.92
847.666	13430.61
847.99	13312.19
848.313	13304.51
848.637	13157.85
848.96	13129.6
849.284	13140.45
849.607	13042.59
849.931	13009.15
850.254	12937.96
850.577	12974.12
850.9	12780.45
851.223	12764.64
851.546	12743.62
851.869	12687.58
852.192	12695.26
852.515	12614.58
852.838	12538.2
853.161	12483.74
853.483	12450.75
853.806	12428.6
854.129	12377.08
854.451	12344.08
854.774	12374.59
855.096	12288.04
855.419	12209.17
855.741	12206.23
856.063	12122.39
856.385	12116.52
856.708	12109.74
857.03	12017.31
857.352	12008.95
857.674	12013.7
857.996	11923.98
858.318	11862.29
858.64	11894.6
858.961	11788.16
859.283	11803.98
859.605	11719.92
859.926	11726.7
860.248	11698.45
860.57	11702.29
860.891	11656.64
861.212	11590.88
861.534	11570.54
861.855	11547.27
862.176	11542.07
862.498	11503.88
862.819	11462.75
863.14	11462.75
863.461	11486.93
863.782	11424.33
864.103	11419.36
864.424	11365.8
864.745	11359.7
865.065	11302.75
865.386	11285.13
865.707	11272.47
866.027	11196.09
866.348	11238.35
866.668	11218.24
866.989	11193.15
867.309	11187.05
867.63	11168.29
867.95	11146.15
868.27	11081.97
868.59	11060.95
868.91	11080.16
869.23	11051.23
869.55	11022.99
869.87	11042.2
870.19	10956.1
870.51	11064.12
870.83	10951.35
871.15	10935.98
871.469	10929.2
871.789	10950.9
872.109	10887.62
872.428	10880.62
872.748	10924.68
873.067	10862.31
873.386	10849.88
873.706	10878.13
874.025	10807.85
874.344	10751.81
874.663	10782.09
874.982	10736.67
875.301	10800.17
875.62	10727.4
875.939	10669.78
876.258	10694.18
876.577	10695.99
876.896	10615.09
877.214	10691.24
877.533	10648.53
877.852	10586.16
878.17	10571.47
878.489	10595.43
878.807	10570.34
879.125	10513.4
879.444	10507.29
879.762	10449.67
880.08	10495.32
880.398	10422.1
880.716	10461.87
881.034	10383
881.352	10402.66
881.67	10343.23
881.988	10392.04
882.306	10263.46
882.624	10280.63
882.941	10262.1
883.259	10202.67
883.577	10225.27
883.894	10222.78
884.212	10114.99
884.529	10087.19
884.846	10072.73
885.164	10094.42
885.481	10038.15
885.798	10043.8
886.115	10031.37
886.432	10004.48
886.75	9903.69
887.067	9958.83
887.383	9961.32
887.7	9955.22
888.017	9914.32
888.334	9931.26
888.651	9882.23
888.967	9829.57
889.284	9737.37
889.6	9712.29
889.917	9693.3
890.233	9709.12
890.55	9631.84
890.866	9685.4
891.182	9568.79
891.498	9566.75
891.815	9606.75
892.131	9552.74
892.447	9481.78
892.763	9476.59
893.079	9418.06
893.395	9430.71
893.71	9389.81
894.026	9357.49
894.342	9361.11
894.657	9279.53
894.973	9318.63
895.289	9245.41
895.604	9217.38
895.92	9173.09
896.235	9163.83
896.55	9106.43
896.865	9128.35
897.181	9084.96
897.496	9058.97
897.811	8982.36
898.126	8932.19
898.441	8963.61
898.756	8917.51
899.071	8858.98
899.386	8828.47
899.7	8845.19
900.015	8737.17
900.33	8710.51
900.644	8729.49
900.959	8708.7
901.273	8677.51
901.588	8671.64
901.902	8581.24
902.216	8489.04
902.531	8508.7
902.845	8465.54
903.159	8439.1
903.473	8383.51
903.787	8362.04
904.101	8284.08
904.415	8357.52
904.729	8229.61
905.042	8241.37
905.356	8198.43
905.67	8188.26
905.984	8183.51
906.297	8118.88
906.611	8113.91
906.924	8075.72
907.237	8025.33
907.551	8037.08
907.864	7994.14
908.177	8014.48
908.491	7976.51
908.804	7938.1
909.117	7899.23
909.43	7825.33
909.743	7745.56
910.056	7823.98
910.368	7721.6
910.681	7692.23
910.994	7685.45
911.307	7623.75
911.619	7669.18
911.932	7611.55
912.244	7553.47
912.557	7565.9
912.869	7521.38
913.181	7453.59
913.494	7447.04
913.806	7403.2
914.118	7362.29
914.43	7285.46
914.742	7304.67
915.054	7300.82
915.366	7214.95
915.678	7173.82
915.99	7219.92
916.302	7141.06
916.613	7126.37
916.925	7082.75
917.236	7090.44
917.548	7048.63
917.859	7032.13
918.171	6957.11
918.482	6948.74
918.794	6893.83
919.105	6878.01
919.416	6872.59
919.727	6882.98
920.038	6819.48
920.349	6799.6
920.66	6727.96
920.971	6773.38
921.282	6689.09
921.593	6665.81
921.903	6601.63
922.214	6570
922.525	6538.13
922.835	6504.01
923.146	6468.08
923.456	6513.95
923.767	6471.69
924.077	6479.6
924.387	6409.1
924.697	6372.04
925.008	6340.4
925.318	6337.23
925.628	6343.11
925.938	6275.32
926.248	6251.59
926.558	6205.71
926.867	6203.68
927.177	6172.95
927.487	6116.68
927.796	6060.63
928.106	6128.65
928.416	6014.31
928.725	6077.81
929.034	5957.81
929.344	5978.15
929.653	5976.11
929.962	5949.67
930.271	5880.07
930.581	5906.74
930.89	5821.77
931.199	5789.9
931.508	5796.01
931.817	5792.16
932.125	5769.57
932.434	5754.2
932.743	5703.58
933.051	5681.21
933.36	5624.94
933.669	5649.12
933.977	5608.21
934.286	5565.28
934.594	5578.61
934.902	5500.19
935.21	5501.32
935.519	5497.48
935.827	5482.12
936.135	5409.8
936.443	5396.24
936.751	5360.54
937.059	5360.54
937.367	5367.09
937.674	5342.01
937.982	5357.6
938.29	5280.09
938.597	5283.02
938.905	5201.9
939.213	5204.83
939.52	5166.19
939.827	5170.49
940.135	5139.98
940.442	5151.05
940.749	5151.5
941.056	5141.79
941.363	5021.11
941.67	5024.73
941.977	4983.37
942.284	5008.23
942.591	5003.03
942.898	4987.44
943.205	4923.49
943.511	4900.44
943.818	4895.46
944.125	4879.87
944.431	4815.92
944.738	4860.89
945.044	4805.3
945.35	4786.77
945.657	4731.18
945.963	4697.28
946.269	4709.93
946.575	4680.55
946.881	4661.12
947.187	4645.75
947.493	4641.46
947.799	4637.39
948.105	4558.07
948.41	4565.3
948.716	4581.12
949.022	4545.87
949.327	4516.72
949.633	4494.57
949.938	4495.25
950.244	4492.31
950.549	4416.61
950.854	4389.94
951.16	4396.49
951.465	4351.52
951.77	4367.57
952.075	4324.41
952.38	4289.38
952.685	4276.72
952.99	4305.2
953.294	4304.29
953.599	4232.43
953.904	4206.67
954.209	4166.22
954.513	4176.61
954.818	4150.17
955.122	4184.3
955.426	4140.91
955.731	4110.4
956.035	4101.59
956.339	4090.74
956.643	4044.87
956.948	4007.35
957.252	4025.2
957.556	4021.36
957.86	4001.02
958.163	3982.49
958.467	3964.19
958.771	3933.46
959.075	3908.6
959.378	3939.11
959.682	3884.64
959.985	3881.71
960.289	3869.05
960.592	3848.26
960.896	3838.54
961.199	3780.69
961.502	3821.59
961.805	3780.92
962.108	3784.08
962.411	3751.09
962.714	3742.5
963.017	3728.49
963.32	3712.22
963.623	3650.53
963.926	3689.17
964.228	3620.92
964.531	3667.02
964.833	3642.84
965.136	3557.87
965.438	3609.85
965.741	3547.48
966.043	3551.09
966.345	3550.42
966.648	3517.65
966.95	3514.26
967.252	3478.33
967.554	3481.94
967.856	3455.28
968.158	3457.76
968.46	3415.5
968.761	3407.37
969.063	3394.49
969.365	3387.26
969.666	3399.46
969.968	3347.48
970.269	3318.33
970.571	3340.7
970.872	3331.66
971.174	3265.45
971.475	3274.94
971.776	3258.22
972.077	3285.34
972.378	3248.05
972.679	3232.68
972.98	3220.71
973.281	3191.55
973.582	3173.25
973.883	3199.92
974.183	3112.01
974.484	3156.53
974.785	3121.73
975.085	3095.29
975.386	3091.22
975.686	3079.47
975.986	3053.93
976.287	3042.18
976.587	3020.26
976.887	2995.18
977.187	3044.67
977.487	3028.39
977.787	3007.15
978.087	2958.11
978.387	2965.8
978.687	2962.41
978.987	2955.85
979.286	2897.1
979.586	2911.79
979.885	2882.86
980.185	2867.72
980.484	2860.72
980.784	2846.7
981.083	2831.34
981.382	2843.99
981.682	2798.8
981.981	2843.32
982.28	2806.71
982.579	2742.07
982.878	2770.1
983.177	2747.72
983.475	2724.67
983.774	2716.76
984.073	2707.5
984.372	2674.73
984.67	2666.14
984.969	2725.35
985.267	2683.09
985.566	2671.79
985.864	2659.59
986.162	2656.43
986.461	2618.24
986.759	2608.52
987.057	2563.77
987.355	2604.45
987.653	2566.26
987.951	2576.43
988.249	2547.5
988.547	2559.48
988.844	2535.98
989.142	2487.62
989.44	2512.7
989.737	2494.4
990.035	2512.02
990.332	2495.08
990.63	2433.61
990.927	2439.26
991.224	2434.51
991.521	2414.4
991.819	2438.35
992.116	2397.68
992.413	2418.47
992.71	2359.03
993.006	2359.71
993.303	2366.72
993.6	2346.83
993.897	2335.31
994.193	2332.14
994.49	2302.54
994.787	2289.43
995.083	2297.57
995.379	2276.1
995.676	2261.18
995.972	2240.85
996.268	2239.26
996.565	2230.68
996.861	2187.74
997.157	2203.78
997.453	2185.93
997.749	2192.26
998.044	2182.09
998.34	2164.24
998.636	2155.42
998.932	2135.31
999.227	2150.45
999.523	2118.14
999.818	2084.92
1000.114	2125.82
1000.409	2053.96
1000.704	2057.35
1001	2068.87
1001.295	2055.99
1001.59	2016.22
1001.885	1996.78
1002.18	2028.87
1002.475	2004.02
1002.77	1992.26
1003.065	1970.12
1003.359	1987.74
1003.654	1974.64
1003.949	1956.78
1004.243	1959.95
1004.538	1927.41
1004.832	1964.02
1005.127	1924.47
1005.421	1909.1
1005.715	1903.23
1006.009	1880.63
1006.304	1880.18
1006.598	1861.65
1006.892	1832.95
1007.186	1851.93
1007.48	1865.49
1007.773	1844.47
1008.067	1797.24
1008.361	1803.79
1008.655	1785.49
1008.948	1768.77
1009.242	1758.82
1009.535	1795.43
1009.829	1744.36
1010.122	1766.06
1010.415	1722.44
1010.708	1708.88
1011.001	1730.12
1011.295	1710.01
1011.588	1674.53
1011.881	1673.63
1012.173	1678.6
1012.466	1672.05
1012.759	1704.14
1013.052	1641.76
1013.344	1613.06
1013.637	1618.04
1013.93	1609.45
1014.222	1621.2
1014.514	1588.88
1014.807	1589.11
1015.099	1550.24
1015.391	1567.19
1015.683	1548.89
1015.976	1554.54
1016.268	1537.81
1016.56	1521.54
1016.851	1521.77
1017.143	1500.07
1017.435	1486.97
1017.727	1500.07
1018.018	1466.85
1018.31	1492.62
1018.602	1476.57
1018.893	1447.65
1019.185	1465.27
1019.476	1433.63
1019.767	1422.79
1020.058	1409.23
1020.35	1395.67
1020.641	1400.42
1020.932	1379.4
1021.223	1401.77
1021.514	1383.69
1021.804	1377.82
1022.095	1350.7
1022.386	1351.83
1022.677	1320.42
1022.967	1313.86
1023.258	1322.9
1023.548	1332.85
1023.839	1306.18
1024.129	1288.78
1024.419	1310.7
1024.709	1281.77
1025	1279.74
1025.29	1267.31
1025.58	1265.96
1025.87	1225.96
1026.16	1223.24
1026.449	1244.49
1026.739	1243.13
1027.029	1213.53
1027.319	1227.31
1027.608	1208.56
1027.898	1210.14
1028.187	1185.05
1028.477	1199.29
1028.766	1188.67
1029.055	1170.36
1029.344	1133.98
1029.634	1160.87
1029.923	1121.33
1030.212	1109.35
1030.501	1130.37
1030.79	1127.43
1031.078	1111.61
1031.367	1089.46
1031.656	1084.94
1031.945	1076.36
1032.233	1046.07
1032.522	1082.91
1032.81	1052.18
1033.099	1073.64
1033.387	1058.96
1033.675	1035.68
1033.963	1034.55
1034.251	1037.26
1034.54	1006.08
1034.828	1044.04
1035.116	1019.63
1035.403	1005.62
1035.691	1024.15
1035.979	1013.31
1036.267	986.64
1036.554	985.28
1036.842	978.96
1037.129	955.46
1037.417	957.49
1037.704	960.88
1037.992	952.97
1038.279	968.34
1038.566	922.24
1038.853	922.24
1039.14	922.24
