Data from hue_26_FLMS001491_00017.txt Node
Date: Tue Feb 07 17:13:38 GMT 2017
User: dcchb
Spectrometer: FLMS00149
Trigger mode: 0
Integration Time (sec): 2.000000E-2
Scans to average: 10
Electric dark correction enabled: true
Nonlinearity correction enabled: false
Boxcar width: 0
XAxis mode: Wavelengths
Number of Pixels in Spectrum: 2048
>>>>>Begin Spectral Data<<<<<
341.393	21.92
341.776	21.92
342.16	21.92
342.543	-51.3
342.927	-47.68
343.31	-70.96
343.693	-70.05
344.077	-64.41
344.46	-42.48
344.843	-54.01
345.226	-33.9
345.61	-32.54
345.993	-29.38
346.376	-7.23
346.759	-1.13
347.142	18.08
347.525	31.41
347.908	47.46
348.291	97.62
348.674	91.07
349.057	120.45
349.44	133.1
349.823	139.21
350.206	178.3
350.588	207.68
350.971	236.83
351.354	220.33
351.737	234.57
352.119	266.89
352.502	278.41
352.884	275.25
353.267	279.09
353.65	305.3
354.032	292.42
354.414	298.07
354.797	324.06
355.179	317.51
355.562	332.65
355.944	347.79
356.326	307.11
356.709	338.97
357.091	350.27
357.473	341.46
357.855	347.34
358.238	362.7
358.62	343.49
359.002	339.88
359.384	346.66
359.766	344.4
360.148	368.58
360.53	348.24
360.912	336.94
361.294	350.73
361.676	329.48
362.057	335.58
362.439	343.95
362.821	331.74
363.203	332.42
363.584	314.79
363.966	331.52
364.348	331.52
364.729	344.85
365.111	340.33
365.493	320.22
365.874	333.55
366.256	328.35
366.637	334.68
367.019	324.29
367.4	349.6
367.781	328.8
368.163	345.3
368.544	327
368.925	324.74
369.306	309.82
369.688	325.64
370.069	319.31
370.45	304.17
370.831	334.45
371.212	322.25
371.593	297.39
371.974	336.49
372.355	330.16
372.736	331.74
373.117	329.71
373.498	331.97
373.879	311.86
374.26	313.66
374.641	327.45
375.021	343.95
375.402	328.8
375.783	328.58
376.163	313.66
376.544	333.78
376.925	321.35
377.305	304.62
377.686	329.71
378.066	339.43
378.447	321.8
378.827	352.31
379.208	337.39
379.588	348.69
379.968	352.53
380.349	345.53
380.729	336.49
381.109	345.3
381.489	341.69
381.87	364.28
382.25	336.71
382.63	350.05
383.01	329.48
383.39	346.66
383.77	348.24
384.15	340.56
384.53	363.38
384.91	372.42
385.29	353.89
385.67	349.82
386.049	362.48
386.429	362.02
386.809	362.48
387.189	357.96
387.568	344.17
387.948	385.3
388.328	377.62
388.707	362.48
389.087	400.44
389.466	394.11
389.846	349.14
390.225	376.71
390.605	375.58
390.984	379.88
391.363	375.58
391.743	382.81
392.122	379.2
392.501	376.71
392.881	371.06
393.26	415.13
393.639	388.92
394.018	375.13
394.397	394.11
394.776	373.78
395.155	382.36
395.534	402.7
395.913	389.37
396.292	406.09
396.671	401.57
397.05	391.63
397.429	397.96
397.808	409.71
398.186	422.36
398.565	411.97
398.944	396.37
399.323	385.98
399.701	413.77
400.08	404.51
400.458	414.68
400.837	403.83
401.215	440.67
401.594	392.53
401.972	418.97
402.351	416.26
402.729	411.97
403.107	402.02
403.486	424.4
403.864	413.55
404.242	428.24
404.62	441.34
404.999	428.69
405.377	428.01
405.755	433.43
406.133	450.16
406.511	449.71
406.889	440.21
407.267	443.6
407.645	444.06
408.023	457.84
408.401	449.25
408.779	472.08
409.156	466.88
409.534	445.64
409.912	462.81
410.29	472.98
410.667	470.04
411.045	466.43
411.422	465.75
411.8	494.45
412.178	458.97
412.555	494.45
412.933	492.87
413.31	502.36
413.687	500.55
414.065	512.75
414.442	504.62
414.819	508.01
415.197	505.3
415.574	505.07
415.951	491.06
416.328	504.39
416.705	504.17
417.082	512.98
417.46	515.69
417.837	519.76
418.214	517.73
418.591	552.53
418.967	532.87
419.344	542.36
419.721	550.95
420.098	539.65
420.475	525.86
420.852	557.95
421.228	548.46
421.605	538.74
421.982	533.09
422.358	578.97
422.735	562.7
423.111	574.22
423.488	566.09
423.864	553.66
424.241	606.76
424.617	541
424.994	580.32
425.37	587.33
425.746	609.25
426.123	592.75
426.499	602.24
426.875	605.86
427.251	616.48
427.627	623.49
428.003	615.8
428.379	631.4
428.756	628.46
429.132	628.91
429.507	644.73
429.883	609.02
430.259	636.82
430.635	631.62
431.011	630.04
431.387	653.99
431.763	662.81
432.138	669.81
432.514	672.52
432.89	668.68
433.265	692.41
433.641	694.22
434.016	699.64
434.392	703.48
434.767	710.04
435.143	711.17
435.518	728.34
435.894	744.84
436.269	751.17
436.644	750.26
437.02	745.29
437.395	765.18
437.77	773.99
438.145	757.49
438.52	757.27
438.895	774.22
439.271	778.06
439.646	760.66
440.021	780.09
440.395	785.52
440.77	780.54
441.145	798.17
441.52	793.2
441.895	810.37
442.27	811.96
442.645	807.44
443.019	837.04
443.394	795.69
443.769	826.64
444.143	816.7
444.518	830.94
444.892	835.46
445.267	849.24
445.641	816.7
446.016	845.85
446.39	843.82
446.764	836.81
447.139	849.47
447.513	861.22
447.887	872.97
448.262	873.2
448.636	849.47
449.01	891.73
449.384	879.98
449.758	900.32
450.132	924.27
450.506	913.2
450.88	933.99
451.254	934.66
451.628	931.95
452.002	945.29
452.376	941.44
452.75	945.06
453.123	942.12
453.497	976.7
453.871	964.27
454.244	986.19
454.618	980.77
454.992	987.32
455.365	993.87
455.739	1020.76
456.112	1042.68
456.486	1027.54
456.859	1035.9
457.232	1070.03
457.606	1070.71
457.979	1088.56
458.352	1091.5
458.725	1086.3
459.099	1116.58
459.472	1118.61
459.845	1152.29
460.218	1162
460.591	1144.38
460.964	1167.88
461.337	1197.71
461.71	1159.29
462.083	1217.37
462.456	1201.1
462.829	1218.95
463.201	1222.11
463.574	1249.23
463.947	1255.33
464.32	1269.35
464.692	1281.55
465.065	1292.4
465.438	1305.5
465.81	1296.46
466.183	1326.29
466.555	1385.05
466.928	1391.38
467.3	1365.39
467.672	1403.35
468.045	1437.25
468.417	1430.7
468.789	1410.13
469.161	1442
469.534	1477.02
469.906	1518.15
470.278	1517.47
470.65	1563.12
471.022	1555.21
471.394	1589.79
471.766	1610.13
472.138	1597.02
472.51	1655.78
472.882	1723.57
473.253	1708.43
473.625	1720.18
473.997	1770.35
474.369	1791.59
474.74	1797.01
475.112	1854.41
475.484	1874.08
475.855	1899.39
476.227	1944.58
476.598	1975.77
476.97	1990
477.341	2054.41
477.713	2084.69
478.084	2087.63
478.455	2160.85
478.827	2160.62
479.198	2253.5
479.569	2258.47
479.94	2308.64
480.311	2326.04
480.682	2389.54
481.053	2449.2
481.424	2474.29
481.795	2546.15
482.166	2538.46
482.537	2613.26
482.908	2638.57
483.279	2733.94
483.65	2732.81
484.021	2790.21
484.391	2830.43
484.762	2882.64
485.133	2915.86
485.503	2940.49
485.874	3043.54
486.244	3106.81
486.615	3122.4
486.985	3192.68
487.356	3275.39
487.726	3304.32
488.097	3367.37
488.467	3390.42
488.837	3467.03
489.207	3512.22
489.578	3531.21
489.948	3624.09
490.318	3678.77
490.688	3682.39
491.058	3751.99
491.428	3832.89
491.798	3884.87
492.168	3942.27
492.538	3966.22
492.908	3970.74
493.278	4064.07
493.648	4093.23
494.017	4174.35
494.387	4219.78
494.757	4267.68
495.126	4331.64
495.496	4335.25
495.866	4376.61
496.235	4457.06
496.605	4431.3
496.974	4494.8
497.344	4570.05
497.713	4621.57
498.082	4621.12
498.452	4663.15
498.821	4706.09
499.19	4742.02
499.559	4735.69
499.928	4753.32
500.298	4801.23
500.667	4907.44
501.036	4891.17
501.405	4936.14
501.774	4910.61
502.143	5015.69
502.512	5025.63
502.88	5089.58
503.249	5096.36
503.618	5104.72
503.987	5167.77
504.356	5170.26
504.724	5208.22
505.093	5242.12
505.462	5278.96
505.83	5309.24
506.199	5353.76
506.567	5402.34
506.936	5363.02
507.304	5511.04
507.672	5472.17
508.041	5505.17
508.409	5514.88
508.777	5564.6
509.145	5621.1
509.514	5651.15
509.882	5667.2
510.25	5718.04
510.618	5733.63
510.986	5674.88
511.354	5741.54
511.722	5796.46
512.09	5852.5
512.458	5858.15
512.826	5928.88
513.193	5924.14
513.561	5927.75
513.929	5973.4
514.297	6028.77
514.664	6088.43
515.032	6024.7
515.4	6108.77
515.767	6132.49
516.135	6150.12
516.502	6155.09
516.869	6213.4
517.237	6204.36
517.604	6212.49
517.972	6270.12
518.339	6274.86
518.706	6355.31
519.073	6367.74
519.44	6375.88
519.808	6427.4
520.175	6374.97
520.542	6464.46
520.909	6525.93
521.276	6479.6
521.643	6591.01
522.009	6623.33
522.376	6596.21
522.743	6649.99
523.11	6748.52
523.477	6761.4
523.843	6793.72
524.21	6890.89
524.577	6926.6
524.943	6975.18
525.31	6942.19
525.676	7044.33
526.043	7036.43
526.409	7018.12
526.776	7153.26
527.142	7069.19
527.508	7202.75
527.874	7263.31
528.241	7322.29
528.607	7270.32
528.973	7330.43
529.339	7352.35
529.705	7439.35
530.071	7442.74
530.437	7498.11
530.803	7497.88
531.169	7614.26
531.535	7596.41
531.901	7618.33
532.267	7659.91
532.632	7679.12
532.998	7724.32
533.364	7758.21
533.73	7831.43
534.095	7868.49
534.461	7863.75
534.826	7903.52
535.192	7951.2
535.557	7970.19
535.923	8025.33
536.288	8036.85
536.653	8101.26
537.019	8034.82
537.384	8108.04
537.749	8135.38
538.114	8160.46
538.479	8185.77
538.845	8311.87
539.21	8206.56
539.575	8280.69
539.94	8308.26
540.305	8378.99
540.67	8380.34
541.034	8428.93
541.399	8457.4
541.764	8467.12
542.129	8567.46
542.494	8525.65
542.858	8583.96
543.223	8595.03
543.587	8736.27
543.952	8665.31
544.316	8789.15
544.681	8721.58
545.045	8820.11
545.41	8884.96
545.774	8852.42
546.138	8863.95
546.503	8902.36
546.867	8984.85
547.231	8998.18
547.595	9032.08
547.959	9020.78
548.324	9097.39
548.688	9117.73
549.052	9111.17
549.416	9192.3
549.779	9177.16
550.143	9217.16
550.507	9286.54
550.871	9296.7
551.235	9272.07
551.599	9317.27
551.962	9367.89
552.326	9466.19
552.689	9476.59
553.053	9428.23
553.417	9476.81
553.78	9586.41
554.143	9555.45
554.507	9556.58
554.87	9658.05
555.234	9734.89
555.597	9686.52
555.96	9783.47
556.323	9786.64
556.686	9693.08
557.05	9828.89
557.413	9827.54
557.776	9858.05
558.139	9929.91
558.502	9981.88
558.865	9968.33
559.228	9967.42
559.59	10083.35
559.953	10106.17
560.316	10201.99
560.679	10130.58
561.041	10234.99
561.404	10287.87
561.767	10284.02
562.129	10282.44
562.492	10360.63
562.854	10379.61
563.217	10388.88
563.579	10477.24
563.941	10499.38
564.304	10511.59
564.666	10571.25
565.028	10580.74
565.39	10611.92
565.753	10728.31
566.115	10669.32
566.477	10765.59
566.839	10752.26
567.201	10874.29
567.563	10805.37
567.925	10984.12
568.287	10995.87
568.648	10975.3
569.01	11083.55
569.372	11068.18
569.734	11119.48
570.095	11190.67
570.457	11282.42
570.819	11255.98
571.18	11263.21
571.542	11398.12
571.903	11424.33
572.265	11476.08
572.626	11492.58
572.987	11485.8
573.349	11630.43
573.71	11599.47
574.071	11762.4
574.432	11789.52
574.794	11842.85
575.155	11938.44
575.516	11912.91
575.877	12007.82
576.238	12081.04
576.599	12209.4
576.96	12237.42
577.32	12343.18
577.681	12451.2
578.042	12601.7
578.403	12609.39
578.763	12708.82
579.124	12751.08
579.485	13010.28
579.845	13102.25
580.206	13193.33
580.566	13211.86
580.927	13360.1
581.287	13567.33
581.648	13612.07
582.008	13852.29
582.368	13896.58
582.728	14070.82
583.089	14235.78
583.449	14411.37
583.809	14551.03
584.169	14675.09
584.529	14865.15
584.889	15147.17
585.249	15218.13
585.609	15408.41
585.969	15674.62
586.329	15821.05
586.688	16019.47
587.048	16230.76
587.408	16447.48
587.768	16589.17
588.127	16826.9
588.487	17115.48
588.846	17404.51
589.206	17519.31
589.565	17772.41
589.925	18155.45
590.284	18411.04
590.643	18606.97
591.003	18954.76
591.362	19191.36
591.721	19460.96
592.08	19695.75
592.44	20140.04
592.799	20282.86
593.158	20654.15
593.517	20787.25
593.876	21245.09
594.235	21424.52
594.593	21842.59
594.952	22113.54
595.311	22318.96
595.67	22605.28
596.029	23076.91
596.387	23405.49
596.746	23671.69
597.104	23908.52
597.463	24229.19
597.822	24618.34
598.18	24766.81
598.538	25011.55
598.897	25518.65
599.255	25647.01
599.613	26143.27
599.972	26346.2
600.33	26642.92
600.688	26871.38
601.046	27180.53
601.404	27638.14
601.762	27837.91
602.12	28322.65
602.478	28511.79
602.836	28794.5
603.194	28886.92
603.552	29264.99
603.91	29411.43
604.268	29873.11
604.625	29932.55
604.983	30407.34
605.341	30462.7
605.698	30860.43
606.056	31239.4
606.413	31445.95
606.771	31719.39
607.128	31974.98
607.485	32093.62
607.843	32344.01
608.2	32662.42
608.557	33084.78
608.914	33223.99
609.272	33479.35
609.629	33814.48
609.986	34140.57
610.343	34108.48
610.7	34550.73
611.057	34719.77
611.414	34768.13
611.771	35095.12
612.127	35455.34
612.484	35552.06
612.841	35811.26
613.198	35732.62
613.554	36115.21
613.911	36386.84
614.267	36571.02
614.624	36717
614.98	36841.29
615.337	37341.84
615.693	37277.66
616.05	37426.81
616.406	37832.68
616.762	37707.94
617.118	37898.44
617.475	37971.2
617.831	38248.94
618.187	38400.8
618.543	38494.81
618.899	38840.79
619.255	38925.3
619.611	38950.61
619.967	39205.07
620.323	39322.13
620.678	39431.96
621.034	39431.05
621.39	39581.33
621.746	39676.47
622.101	40156.23
622.457	39925.05
622.812	40196.23
623.168	40252.73
623.523	40315.1
623.879	40506.73
624.234	40343.8
624.589	40594.64
624.945	40735.88
625.3	40766.16
625.655	40789.89
626.01	40899.49
626.365	40957.34
626.72	40969.09
627.075	41042.76
627.43	41116.88
627.785	40949.88
628.14	41202.08
628.495	41295.19
628.85	41335.86
629.205	41268.29
629.559	41551
629.914	41631.22
630.269	41509.64
630.623	41469.64
630.978	41502.86
631.332	41782.4
631.687	41750.77
632.041	41814.72
632.396	41686.81
632.75	41716.87
633.104	41737.43
633.459	41578.57
633.813	41760.71
634.167	41862.4
634.521	41764.1
634.875	41879.58
635.229	41844.78
635.583	41680.49
635.937	41627.15
636.291	41595.52
636.645	41853.81
636.999	41469.42
637.352	41750.31
637.706	41679.13
638.06	41863.31
638.413	41614.27
638.767	41654.5
639.121	41715.29
639.474	41710.54
639.828	41620.6
640.181	41695.85
640.534	41687.49
640.888	41649.53
641.241	41427.84
641.594	41590.32
641.947	41715.74
642.301	41581.96
642.654	41695.17
643.007	41667.6
643.36	41617.89
643.713	41414.73
644.066	41708.51
644.419	41409.76
644.771	41130.22
645.124	40816.33
645.477	40896.33
645.83	40650.91
646.182	40535.88
646.535	40297.92
646.888	40357.58
647.24	40351.93
647.593	40542.66
647.945	40433.29
648.298	40164.37
648.65	40243.01
649.002	40171.15
649.355	40277.36
649.707	40306.96
650.059	40459.05
650.411	40847.74
650.763	40735.43
651.115	41316.65
651.467	41162.08
651.819	41199.59
652.171	41168.41
652.523	41145.81
652.875	41146.04
653.227	40961.63
653.578	41228.52
653.93	41046.38
654.282	40920.51
654.633	40919.6
654.985	40942.65
655.337	40858.81
655.688	41061.75
656.039	41091.35
656.391	40735.2
656.742	40796.67
657.094	40900.17
657.445	40959.15
657.796	40857.23
658.147	40822.43
658.498	40780.85
658.849	40966.38
659.2	40745.82
659.551	40760.06
659.902	40862.65
660.253	40775.88
660.604	40783.79
660.955	40569.55
661.306	40730.23
661.656	40759.38
662.007	40715.77
662.358	40801.41
662.708	40706.95
663.059	40751.24
663.409	40561.42
663.76	40839.15
664.11	40895.42
664.461	40871.92
664.811	40777.68
665.161	40669.44
665.511	40678.7
665.862	40754.63
666.212	40753.96
666.562	40673.51
666.912	40722.32
667.262	40622.66
667.612	40751.7
667.962	40626.95
668.312	40570.01
668.662	40833.95
669.011	40640.29
669.361	40526.39
669.711	40662.66
670.06	40523.45
670.41	40354.19
670.76	40452.95
671.109	40640.29
671.459	40539.27
671.808	40394.42
672.157	40457.24
672.507	40217.7
672.856	40306.74
673.205	40316.91
673.554	40548.54
673.904	40305.38
674.253	40491.82
674.602	40425.83
674.951	39817.48
675.3	39785.17
675.649	40273.74
675.998	40194.88
676.346	40292.73
676.695	40362.55
677.044	40189
677.393	40312.16
677.741	40284.36
678.09	40199.62
678.438	40038.72
678.787	40068.78
679.135	40029.46
679.484	39912.4
679.832	39909.91
680.181	39827.88
680.529	39936.13
680.877	39755.56
681.225	39776.13
681.573	39951.04
681.922	39700.65
682.27	39529.58
682.618	39596.02
682.966	39436.93
683.314	39599.64
683.661	39408.68
684.009	39319.19
684.357	39211.4
684.705	39229.25
685.053	39177.27
685.4	39352.64
685.748	39070.39
686.095	39004.17
686.443	38802.6
686.79	38765.76
687.138	38968.69
687.485	38859.77
687.832	38681.92
688.18	38809.15
688.527	38562.38
688.874	38522.6
689.221	38511.08
689.568	38475.15
689.915	38397.41
690.262	38241.03
690.609	38174.14
690.956	38063.18
691.303	38068.83
691.65	37941.38
691.997	37895.05
692.344	37667.71
692.69	37550.65
693.037	37699.57
693.383	37356.53
693.73	37296.19
694.077	37237.89
694.423	37233.82
694.769	37100.72
695.116	37074.51
695.462	36878.8
695.808	36922.42
696.155	36883.1
696.501	36629.77
696.847	36543.9
697.193	36413.51
697.539	36597.91
697.885	36319.27
698.231	36166.28
698.577	36371.25
698.923	36027.53
699.269	36013.06
699.614	35846.74
699.96	35702.79
700.306	35740.76
700.651	35614.2
700.997	35546.86
701.342	35553.42
701.688	35458.73
702.033	35210.6
702.379	35282.91
702.724	35112.52
703.069	35217.83
703.415	34838.18
703.76	34945.75
704.105	34777.39
704.45	34803.38
704.795	34473.67
705.14	34411.52
705.485	34532.43
705.83	34330.4
706.175	34330.17
706.52	34234.35
706.865	34075.94
707.209	34182.83
707.554	33861.93
707.899	34038.2
708.243	33815.83
708.588	33822.39
708.932	33622.84
709.277	33603.18
709.621	33694.48
709.966	33350.31
710.31	33501.94
710.654	33195.51
710.998	33242.52
711.342	33188.73
711.687	33160.94
712.031	33052.69
712.375	32926.82
712.719	32996.87
713.063	32873.03
713.407	32852.92
713.75	32693.38
714.094	32735.18
714.438	32587.62
714.782	32600.72
715.125	32507.62
715.469	32587.84
715.812	32341.3
716.156	32258.81
716.499	32193.96
716.843	32194.63
717.186	32166.84
717.53	32248.19
717.873	32222.88
718.216	32014.07
718.559	31906.28
718.902	31745.61
719.246	31839.84
719.589	31713.06
719.932	31524.82
720.275	31653.86
720.617	31625.61
720.96	31506.29
721.303	31377.03
721.646	31510.58
721.989	31269.69
722.331	31372.28
722.674	31221.1
723.016	31234.66
723.359	31374.99
723.701	31325.5
724.044	31099.07
724.386	30945.4
724.729	30981.56
725.071	30954.21
725.413	31010.94
725.755	31052.74
726.097	30682.81
726.439	30663.15
726.782	30611.4
727.124	30744.28
727.465	30693.2
727.807	30577.95
728.149	30516.49
728.491	30441.23
728.833	30440.1
729.175	30385.87
729.516	30287.34
729.858	30266.1
730.199	30331.18
730.541	30192.88
730.882	30065.65
731.224	30194.46
731.565	29992.43
731.906	29897.74
732.248	29977.97
732.589	29882.83
732.93	29803.96
733.271	29731.42
733.612	29784.75
733.953	29814.13
734.294	29627.92
734.635	29575.72
734.976	29636.51
735.317	29518.77
735.658	29551.77
735.999	29584.53
736.339	29465.89
736.68	29538.66
737.021	29457.98
737.361	29235.84
737.702	29474.48
738.042	29328.04
738.383	29446.23
738.723	29426.34
739.063	29267.25
739.404	29351.77
739.744	29131.89
740.084	29138.44
740.424	29185.45
740.764	29026.36
741.104	29042.85
741.444	28919.24
741.784	28900.03
742.124	28935.96
742.464	28794.72
742.804	28857.32
743.143	28722.86
743.483	28732.8
743.823	28628.85
744.162	28578.23
744.502	28501.4
744.841	28438.12
745.181	28562.41
745.52	28416.65
745.86	28530.1
746.199	28408.97
746.538	28370.1
746.877	28444.45
747.216	28321.74
747.556	28222.53
747.895	28395.19
748.234	28229.54
748.573	28088.98
748.911	28187.73
749.25	28058.7
749.589	28067.74
749.928	28070.45
750.267	27905.48
750.605	27987.74
750.944	28011.01
751.283	27783
751.621	27759.72
751.96	27729.44
752.298	27623.23
752.636	27659.84
752.975	27565.15
753.313	27423.69
753.651	27570.12
753.989	27404.93
754.327	27397.92
754.666	27240.41
755.004	27276.34
755.342	27247.65
755.679	27196.12
756.017	27083.36
756.355	27145.95
756.693	26877.03
757.031	27118.83
757.368	26884.94
757.706	26840.42
758.044	26821.89
758.381	26845.62
758.719	26778.5
759.056	26716.81
759.394	26588.68
759.731	26459.64
760.068	26463.94
760.405	26371.96
760.743	26244.06
761.08	26239.99
761.417	26175.81
761.754	26151.63
762.091	26011.29
762.428	25956.61
762.765	25791.64
763.102	25859.21
763.438	25718.19
763.775	25565.43
764.112	25620.12
764.449	25573.34
764.785	25476.62
765.122	25330.86
765.458	25343.06
765.795	25309.17
766.131	25117.08
766.467	25140.36
766.804	25031.88
767.14	24906.24
767.476	24856.52
767.812	24699.24
768.148	24806.13
768.485	24632.8
768.821	24378.12
769.157	24559.13
769.492	24361.85
769.828	24318
770.164	24114.85
770.5	24183.09
770.836	24172.7
771.171	23944.46
771.507	23960.05
771.842	23614.07
772.178	23784.46
772.513	23598.48
772.849	23530.91
773.184	23461.3
773.519	23404.13
773.855	23312.61
774.19	23274.64
774.525	23120.97
774.86	23159.17
775.195	23101.77
775.53	22983.58
775.865	22895.22
776.2	22748.1
776.535	22603.47
776.87	22631.95
777.205	22485.28
777.539	22471.73
777.874	22393.76
778.209	22317.38
778.543	22266.08
778.878	22087.78
779.212	22043.26
779.547	21918.97
779.881	22011.62
780.215	21799.2
780.55	21850.72
780.884	21615.7
781.218	21614.8
781.552	21570.96
781.886	21450.96
782.22	21297.75
782.554	21321.7
782.888	21181.36
783.222	21091.87
783.556	21027.02
783.889	20888.49
784.223	20720.13
784.557	20798.32
784.89	20812.79
785.224	20615.5
785.557	20511.33
785.891	20441.04
786.224	20444.21
786.558	20378.45
786.891	20139.13
787.224	20182.75
787.557	20169.87
787.891	20069.98
788.224	20025.24
788.557	20051.45
788.89	19914.05
789.223	19918.35
789.556	19846.94
789.888	19613.27
790.221	19610.11
790.554	19536.44
790.887	19484.69
791.219	19482.88
791.552	19337.57
791.884	19310.68
792.217	19208.31
792.549	19160.85
792.882	18950.46
793.214	18947.52
793.546	19016.9
793.879	18809.45
794.211	18733.52
794.543	18888.77
794.875	18752.73
795.207	18718.6
795.539	18651.04
795.871	18580.75
796.203	18459.18
796.535	18421.44
796.867	18360.87
797.198	18329.69
797.53	18212.85
797.862	18093.54
798.193	18162.01
798.525	18018.28
798.856	18048.34
799.188	17868.91
799.519	17849.25
799.85	17685.41
800.182	17773.09
800.513	17704.39
800.844	17644.06
801.175	17626.2
801.506	17593.44
801.837	17459.65
802.168	17489.48
802.499	17454.91
802.83	17259.21
803.161	17287.91
803.491	17331.52
803.822	17248.36
804.153	17185.76
804.483	17152.77
804.814	16969.27
805.145	16955.26
805.475	17011.53
805.805	16923.62
806.136	16818.09
806.466	16959.78
806.796	16833.91
807.126	16658.09
807.457	16519.79
807.787	16579.68
808.117	16509.17
808.447	16468.27
808.777	16468.49
809.107	16404.09
809.436	16323.41
809.766	16352.34
810.096	16211.33
810.426	16147.37
810.755	16143.3
811.085	16140.14
811.414	16151.44
811.744	16026.02
812.073	16030.99
812.403	15906.47
812.732	15930.65
813.061	15913.25
813.39	15814.5
813.719	15750.77
814.049	15872.8
814.378	15768.62
814.707	15660.83
815.036	15701.51
815.365	15622.41
815.693	15468.07
816.022	15478.01
816.351	15394.17
816.68	15303.78
817.008	15369.09
817.337	15337.68
817.665	15358.01
817.994	15177.68
818.322	15270.33
818.651	15168.87
818.979	15014.97
819.307	15225.59
819.636	15124.12
819.964	14986.72
820.292	14994.63
820.62	15039.38
820.948	14934.75
821.276	15008.19
821.604	14861.76
821.932	14992.15
822.259	14948.76
822.587	14914.18
822.915	14822.44
823.243	14900.63
823.57	14967.74
823.898	14923.22
824.225	14886.39
824.553	14826.73
824.88	14832.6
825.207	14831.02
825.535	14837.12
825.862	14901.98
826.189	14840.74
826.516	14923.9
826.843	14959.15
827.17	14901.08
827.497	14965.93
827.824	14913.28
828.151	14954.64
828.478	14918.93
828.805	14985.37
829.131	14800.97
829.458	14867.18
829.785	14759.84
830.111	14850.46
830.438	14919.61
830.764	14811.14
831.09	14885.03
831.417	14768.65
831.743	14831.7
832.069	14826.5
832.395	14772.72
832.722	14878.25
833.048	14795.77
833.374	14729.78
833.7	14747.63
834.026	14677.35
834.351	14788.54
834.677	14719.16
835.003	14694.08
835.329	14718.94
835.654	14647.75
835.98	14541.31
836.306	14625.15
836.631	14505.16
836.956	14584.93
837.282	14654.76
837.607	14553.74
837.932	14458.15
838.258	14438.26
838.583	14475.1
838.908	14419.28
839.233	14345.16
839.558	14369.34
839.883	14309.68
840.208	14286.63
840.533	14322.34
840.858	14306.06
841.182	14297.93
841.507	14328.66
841.832	14250.47
842.156	14096.35
842.481	14135.67
842.805	14079.63
843.13	14036.69
843.454	14091.15
843.778	13937.94
844.103	13965.06
844.427	13946.98
844.751	13937.49
845.075	13843.48
845.399	13847.32
845.723	13732.52
846.047	13788.56
846.371	13624.05
846.695	13665.18
847.019	13566.87
847.343	13491.4
847.666	13473.09
847.99	13289.59
848.313	13364.17
848.637	13249.37
848.96	13251.18
849.284	13226.32
849.607	13122.37
849.931	13098.41
850.254	13077.17
850.577	12978.87
850.9	12864.52
851.223	12874.01
851.546	12823.17
851.869	12730.51
852.192	12791.53
852.515	12693.23
852.838	12541.82
853.161	12608.71
853.483	12497.75
853.806	12482.84
854.129	12480.8
854.451	12391.31
854.774	12394.7
855.096	12287.36
855.419	12258.89
855.741	12257.3
856.063	12209.4
856.385	12170.98
856.708	12106.8
857.03	12043.98
857.352	12028.61
857.674	12066.35
857.996	11986.35
858.318	11914.49
858.64	12003.98
858.961	11811.89
859.283	11885.56
859.605	11738.67
859.926	11779.35
860.248	11782.06
860.57	11795.17
860.891	11679.92
861.212	11626.36
861.534	11540.71
861.855	11567.61
862.176	11648.96
862.498	11664.33
862.819	11555.85
863.14	11540.26
863.461	11527.15
863.782	11450.55
864.103	11456.42
864.424	11463.2
864.745	11466.14
865.065	11419.13
865.386	11317.89
865.707	11299.59
866.027	11318.57
866.348	11288.29
866.668	11266.6
866.989	11272.92
867.309	11224.11
867.63	11212.36
867.95	11251.68
868.27	11161.06
868.59	11091.69
868.91	11145.24
869.23	11089.43
869.55	11061.18
869.87	11096.21
870.19	11084.23
870.51	11145.24
870.83	11013.5
871.15	11007.85
871.469	10948.64
871.789	11025.47
872.109	10901.63
872.428	10916.1
872.748	10964.91
873.067	10886.72
873.386	10924.23
873.706	10867.51
874.025	10815.53
874.344	10736.44
874.663	10753.62
874.982	10798.81
875.301	10753.84
875.62	10758.14
875.939	10705.03
876.258	10695.54
876.577	10704.58
876.896	10665.71
877.214	10634.52
877.533	10628.42
877.852	10622.09
878.17	10670
878.489	10537.58
878.807	10551.36
879.125	10535.77
879.444	10505.03
879.762	10534.41
880.08	10457.58
880.398	10435.43
880.716	10466.39
881.034	10431.14
881.352	10411.7
881.67	10377.13
881.988	10389.78
882.306	10327.64
882.624	10336.45
882.941	10346.62
883.259	10294.42
883.577	10206.51
883.894	10160.64
884.212	10197.25
884.529	10126.97
884.846	10126.06
885.164	10145.5
885.481	10096.46
885.798	10105.27
886.115	10022.34
886.432	10008.78
886.75	9974.65
887.067	10025.5
887.383	9919.74
887.7	9941.21
888.017	9930.81
888.334	9881.55
888.651	9951.6
888.967	9861.66
889.284	9849.23
889.6	9801.78
889.917	9711.61
890.233	9797.03
890.55	9741.44
890.866	9745.96
891.182	9669.8
891.498	9664.83
891.815	9596.81
892.131	9565.62
892.447	9510.48
892.763	9547.32
893.079	9450.37
893.395	9474.1
893.71	9422.58
894.026	9430.26
894.342	9388.23
894.657	9366.99
894.973	9339.19
895.289	9293.54
895.604	9265.75
895.92	9170.83
896.235	9197.72
896.55	9179.65
896.865	9167.22
897.181	9179.65
897.496	9086.99
897.811	9060.1
898.126	9006.09
898.441	8973.1
898.756	9028.92
899.071	8944.62
899.386	8908.01
899.7	8798.64
900.015	8811.07
900.33	8674.35
900.644	8704.86
900.959	8728.13
901.273	8727.45
901.588	8717.06
901.902	8675.25
902.216	8597.51
902.531	8571.98
902.845	8578.53
903.159	8487.01
903.473	8486.33
903.787	8435.03
904.101	8411.98
904.415	8423.73
904.729	8316.62
905.042	8298.99
905.356	8336.5
905.67	8274.13
905.984	8259.67
906.297	8215.38
906.611	8150.52
906.924	8187.13
907.237	8186.45
907.551	8139.22
907.864	8049.73
908.177	8018.55
908.491	8065.78
908.804	7957.76
909.117	7938.55
909.43	7897.65
909.743	7838.89
910.056	7802.51
910.368	7793.02
910.681	7750.08
910.994	7756.18
911.307	7711.66
911.619	7593.02
911.932	7683.87
912.244	7661.72
912.557	7580.37
912.869	7520.25
913.181	7498.11
913.494	7501.95
913.806	7448.62
914.118	7441.16
914.43	7363.42
914.742	7369.3
915.054	7380.37
915.366	7242.52
915.678	7266.48
915.99	7254.95
916.302	7244.56
916.613	7170.43
916.925	7205.23
917.236	7113.26
917.548	7054.05
917.859	7069.42
918.171	7022.64
918.482	6972.25
918.794	6978.8
919.105	6953.72
919.416	6887.95
919.727	6925.92
920.038	6884.79
920.349	6820.84
920.66	6773.38
920.971	6769.09
921.282	6733.16
921.593	6719.15
921.903	6634.63
922.214	6653.16
922.525	6646.38
922.835	6639.6
923.146	6553.73
923.456	6525.7
923.767	6488.87
924.077	6489.09
924.387	6478.25
924.697	6423.11
925.008	6380.17
925.318	6364.58
925.628	6363
925.938	6378.36
926.248	6334.97
926.558	6211.81
926.867	6247.75
927.177	6261.76
927.487	6171.36
927.796	6172.95
928.106	6132.72
928.416	6122.78
928.725	6088.65
929.034	6032.84
929.344	6070.8
929.653	6040.52
929.962	5945.15
930.271	5952.84
930.581	5926.85
930.89	5941.54
931.199	5891.37
931.508	5850.02
931.817	5873.74
932.125	5803.01
932.434	5770.7
932.743	5732.73
933.051	5700.87
933.36	5726.63
933.669	5699.29
933.977	5660.87
934.286	5623.58
934.594	5599.63
934.902	5589.68
935.21	5541.78
935.519	5530.93
935.827	5542.91
936.135	5473.3
936.443	5441.89
936.751	5426.75
937.059	5429.91
937.367	5360.99
937.674	5360.31
937.982	5362.57
938.29	5290.71
938.597	5339.52
938.905	5292.29
939.213	5244.38
939.52	5257.71
939.827	5270.82
940.135	5164.38
940.442	5208.9
940.749	5197.38
941.056	5159.64
941.363	5095.23
941.67	5132.29
941.977	5065.63
942.284	5043.48
942.591	5031.05
942.898	4973.2
943.205	5005.97
943.511	5007.78
943.818	4950.38
944.125	4915.58
944.431	4857.27
944.738	4855.47
945.044	4848.01
945.35	4844.17
945.657	4791.06
945.963	4750.38
946.269	4769.14
946.575	4777.95
946.881	4719.42
947.187	4734.79
947.493	4715.58
947.799	4671.29
948.105	4647.34
948.41	4651.63
948.716	4641.69
949.022	4536.6
949.327	4639.88
949.633	4496.38
949.938	4524.17
950.244	4496.83
950.549	4495.93
950.854	4434.69
951.16	4443.27
951.465	4424.29
951.77	4406.89
952.075	4367.34
952.38	4365.31
952.685	4381.35
952.99	4318.53
953.294	4342.94
953.599	4274.46
953.904	4283.28
954.209	4240.79
954.513	4223.39
954.818	4171.42
955.122	4184.07
955.426	4177.74
955.731	4153.11
956.035	4158.53
956.339	4114.92
956.643	4110.4
956.948	4127.58
957.252	4076.28
957.556	4076.73
957.86	4029.05
958.163	4039.89
958.467	4008.71
958.771	3970.07
959.075	4002.83
959.378	3952.21
959.682	3909.05
959.985	3940.91
960.289	3916.51
960.592	3886
960.896	3843.06
961.199	3861.59
961.502	3842.84
961.805	3842.84
962.108	3848.03
962.411	3777.3
962.714	3760.58
963.017	3735.04
963.32	3772.78
963.623	3716.29
963.926	3765.1
964.228	3671.54
964.531	3676.74
964.833	3674.25
965.136	3642.16
965.438	3639.9
965.741	3593.13
966.043	3608.94
966.345	3590.87
966.648	3579.11
966.95	3553.35
967.252	3514.94
967.554	3523.75
967.856	3512.45
968.158	3494.82
968.46	3488.5
968.761	3452.11
969.063	3474.71
969.365	3429.97
969.666	3429.51
969.968	3383.87
970.269	3376.18
970.571	3363.3
970.872	3334.15
971.174	3317.65
971.475	3363.08
971.776	3328.27
972.077	3270.65
972.378	3280.14
972.679	3273.36
972.98	3267.03
973.281	3240.14
973.582	3260.93
973.883	3202.18
974.183	3199.24
974.484	3210.99
974.785	3162.63
975.085	3174.15
975.386	3179.35
975.686	3138.67
975.986	3131.44
976.287	3100.03
976.587	3083.31
976.887	3066.59
977.187	3060.94
977.487	3078.79
977.787	3025.68
978.087	2993.59
978.387	2999.24
978.687	2968.51
978.987	2992.24
979.286	2946.59
979.586	2949.08
979.885	2929.87
980.185	2918.57
980.484	2931.67
980.784	2908.62
981.083	2887.38
981.382	2845.35
981.682	2879.7
981.981	2836.99
982.28	2841.96
982.579	2831.79
982.878	2797.89
983.177	2817.78
983.475	2792.92
983.774	2753.6
984.073	2774.62
984.372	2718.8
984.67	2727.61
984.969	2708.63
985.267	2707.5
985.566	2675.64
985.864	2689.87
986.162	2718.12
986.461	2610.1
986.759	2686.48
987.057	2645.13
987.355	2623.66
987.653	2622.3
987.951	2599.25
988.249	2601.51
988.547	2575.53
988.844	2600.38
989.142	2600.61
989.44	2557.45
989.737	2535.75
990.035	2500.73
990.332	2543.66
990.63	2501.4
990.927	2508.41
991.224	2496.43
991.521	2502.08
991.819	2468.18
992.116	2461.86
992.413	2426.38
992.71	2416.89
993.006	2427.05
993.303	2411.46
993.6	2408.3
993.897	2375.53
994.193	2374.63
994.49	2374.85
994.787	2384.57
995.083	2347.73
995.379	2339.15
995.676	2303.67
995.972	2296.89
996.268	2268.87
996.565	2273.39
996.861	2244.23
997.157	2279.71
997.453	2254.86
997.749	2240.17
998.044	2212.15
998.34	2210.11
998.636	2170.56
998.932	2201.3
999.227	2188.64
999.523	2178.47
999.818	2139.6
1000.114	2134.18
1000.409	2119.72
1000.704	2099.15
1001	2078.14
1001.295	2061.87
1001.59	2072.94
1001.885	2074.97
1002.18	2087.63
1002.475	2045.37
1002.77	2044.47
1003.065	2039.72
1003.359	2020.51
1003.654	2037.46
1003.949	1994.07
1004.243	1978.25
1004.538	1983.45
1004.832	1978.71
1005.127	1963.79
1005.421	1944.81
1005.715	1964.47
1006.009	1951.36
1006.304	1892.61
1006.598	1902.1
1006.892	1900.06
1007.186	1869.1
1007.48	1870.69
1007.773	1919.05
1008.067	1842.66
1008.361	1807.86
1008.655	1855.77
1008.948	1796.56
1009.242	1818.03
1009.535	1804.7
1009.829	1797.47
1010.122	1802.66
1010.415	1756.34
1010.708	1779.16
1011.001	1757.02
1011.295	1753.63
1011.588	1731.93
1011.881	1728.54
1012.173	1708.66
1012.466	1703.68
1012.759	1667.07
1013.052	1663.23
1013.344	1657.58
1013.637	1642.44
1013.93	1681.99
1014.222	1656.45
1014.514	1640.41
1014.807	1626.17
1015.099	1602.22
1015.391	1627.53
1015.683	1588.88
1015.976	1571.94
1016.268	1586.85
1016.56	1574.2
1016.851	1534.87
1017.143	1546.4
1017.435	1514.99
1017.727	1514.99
1018.018	1509.34
1018.31	1480.64
1018.602	1477.25
1018.893	1483.12
1019.185	1505.5
1019.476	1507.98
1019.767	1483.8
1020.058	1470.47
1020.35	1449.68
1020.641	1458.72
1020.932	1432.05
1021.223	1403.58
1021.514	1401.09
1021.804	1368.33
1022.095	1396.8
1022.386	1381.66
1022.677	1393.86
1022.967	1371.04
1023.258	1359.51
1023.548	1335.78
1023.839	1322
1024.129	1336.01
1024.419	1311.15
1024.709	1303.47
1025	1311.38
1025.29	1309.34
1025.58	1297.14
1025.87	1264.6
1026.16	1287.88
1026.449	1300.53
1026.739	1246.52
1027.029	1259.85
1027.319	1236.58
1027.608	1225.28
1027.898	1226.41
1028.187	1211.72
1028.477	1207.65
1028.766	1215.79
1029.055	1178.95
1029.344	1171.49
1029.634	1179.18
1029.923	1190.25
1030.212	1164.94
1030.501	1149.8
1030.79	1152.29
1031.078	1133.08
1031.367	1140.53
1031.656	1139.41
1031.945	1113.19
1032.233	1101.67
1032.522	1096.24
1032.81	1098.5
1033.099	1109.58
1033.387	1082.46
1033.675	1073.19
1033.963	1067.99
1034.251	1051.72
1034.54	1049.92
1034.828	1058.05
1035.116	1042.91
1035.403	1051.95
1035.691	1025.96
1035.979	1041.78
1036.267	1017.37
1036.554	980.54
1036.842	997.04
1037.129	982.12
1037.417	971.5
1037.704	984.15
1037.992	981.9
1038.279	953.65
1038.566	963.59
1038.853	963.59
1039.14	963.59
