Data from hue_180_FLMS001491_00063.txt Node
Date: Tue Feb 07 16:47:19 GMT 2017
User: dcchb
Spectrometer: FLMS00149
Trigger mode: 0
Integration Time (sec): 2.000000E-2
Scans to average: 10
Electric dark correction enabled: true
Nonlinearity correction enabled: false
Boxcar width: 0
XAxis mode: Wavelengths
Number of Pixels in Spectrum: 2048
>>>>>Begin Spectral Data<<<<<
341.393	-23.88
341.776	-23.88
342.16	-23.88
342.543	-72.47
342.927	-57.55
343.31	-70.66
343.693	-63.2
344.077	-46.03
344.46	-75.63
344.843	-55.75
345.226	-55.75
345.61	-34.73
345.993	-21.17
346.376	-9.19
346.759	9.11
347.142	31.03
347.525	48.66
347.908	48.66
348.291	80.52
348.674	90.24
349.057	123.91
349.44	141.76
349.823	141.54
350.206	160.97
350.588	181.08
350.971	207.52
351.354	228.54
351.737	226.28
352.119	249.1
352.502	268.99
352.884	275.54
353.267	268.99
353.65	287.07
354.032	298.82
354.414	302.89
354.797	300.85
355.179	319.84
355.562	313.28
355.944	310.8
356.326	357.58
356.709	334.98
357.091	323.45
357.473	334.53
357.855	327.29
358.238	326.84
358.62	341.98
359.002	348.31
359.384	344.69
359.766	319.61
360.148	342.43
360.53	332.94
360.912	330.46
361.294	332.94
361.676	312.15
362.057	327.97
362.439	332.27
362.821	326.62
363.203	317.8
363.584	323.23
363.966	327.07
364.348	320.74
364.729	330.91
365.111	332.49
365.493	334.3
365.874	331.14
366.256	316.67
366.637	317.8
367.019	318.25
367.4	313.73
367.781	315.54
368.163	311.47
368.544	299.5
368.925	316.67
369.306	312.6
369.688	315.77
370.069	319.84
370.45	317.35
370.831	311.47
371.212	293.17
371.593	328.65
371.974	299.05
372.355	313.51
372.736	311.93
373.117	308.54
373.498	308.99
373.879	306.28
374.26	325.03
374.641	318.48
375.021	319.16
375.402	306.5
375.783	312.83
376.163	318.48
376.544	306.73
376.925	315.09
377.305	325.94
377.686	322.32
378.066	328.88
378.447	319.84
378.827	314.64
379.208	331.36
379.588	315.32
379.968	330.23
380.349	330.46
380.729	341.98
381.109	316.22
381.489	327.97
381.87	312.15
382.25	327.29
382.63	332.72
383.01	348.31
383.39	335.88
383.77	321.64
384.15	334.07
384.53	334.07
384.91	336.78
385.29	346.05
385.67	345.82
386.049	342.21
386.429	351.25
386.809	337.69
387.189	355.09
387.568	354.41
387.948	364.58
388.328	344.02
388.707	355.09
389.087	355.54
389.466	362.32
389.846	369.78
390.225	361.87
390.605	368.42
390.984	366.16
391.363	375.88
391.743	369.55
392.122	370.23
392.501	379.72
392.881	375.88
393.26	384.69
393.639	359.38
394.018	370.46
394.397	367.29
394.776	383.79
395.155	387.18
395.534	369.78
395.913	380.85
396.292	385.6
396.671	376.56
397.05	376.56
397.429	385.37
397.808	381.98
398.186	364.81
398.565	406.61
398.944	400.51
399.323	406.61
399.701	384.47
400.08	383.34
400.458	390.79
400.837	416.78
401.215	403
401.594	409.33
401.972	396.67
402.351	393.05
402.729	412.26
403.107	408.87
403.486	433.73
403.864	432.6
404.242	424.47
404.62	435.77
404.999	424.24
405.377	441.19
405.755	430.34
406.133	431.92
406.511	456.78
406.889	462.21
407.267	456.78
407.645	477.35
408.023	478.48
408.401	478.93
408.779	465.82
409.156	479.15
409.534	487.74
409.912	467.18
410.29	506.27
410.667	500.62
411.045	515.76
411.422	509.66
411.8	533.16
412.178	523.67
412.555	544.69
412.933	527.97
413.31	528.87
413.687	551.69
414.065	576.55
414.442	593.28
414.819	586.72
415.197	577.23
415.574	610.9
415.951	592.15
416.328	592.82
416.705	607.29
417.082	600.73
417.46	640.96
417.837	642.77
418.214	638.92
418.591	653.39
418.967	651.35
419.344	655.87
419.721	681.63
420.098	666.49
420.475	690.22
420.852	662.2
421.228	711.01
421.605	725.02
421.982	746.27
422.358	718.7
422.735	728.19
423.111	753.05
423.488	778.36
423.864	765.47
424.241	792.59
424.617	791.01
424.994	816.55
425.37	815.19
425.746	821.29
426.123	847.05
426.499	825.81
426.875	867.84
427.251	867.17
427.627	871.46
428.003	901.29
428.379	918.01
428.756	897
429.132	895.64
429.507	919.82
429.883	916.43
430.259	949.88
430.635	979.71
431.011	967.5
431.387	991.46
431.763	1002.76
432.138	1004.34
432.514	1021.51
432.89	981.06
433.265	1070.55
433.641	1079.14
434.016	1078.23
434.392	1090.21
434.767	1129.53
435.143	1124.33
435.518	1141.28
435.894	1134.73
436.269	1189.87
436.644	1205.91
437.02	1230.77
437.395	1231.22
437.77	1224.67
438.145	1265.8
438.52	1285.69
438.895	1303.09
439.271	1312.35
439.646	1345.35
440.021	1372.46
440.395	1359.13
440.77	1370.88
441.145	1395.06
441.52	1434.16
441.895	1434.16
442.27	1438
442.645	1438.22
443.019	1449.52
443.394	1475.51
443.769	1480.48
444.143	1491.1
444.518	1519.35
444.892	1522.52
445.267	1539.92
445.641	1542.63
446.016	1574.72
446.39	1594.15
446.764	1582.85
447.139	1597.32
447.513	1620.59
447.887	1605.68
448.262	1620.37
448.636	1676.41
449.01	1681.38
449.384	1685.22
449.758	1734.49
450.132	1729.97
450.506	1740.82
450.88	1752.57
451.254	1751.21
451.628	1789.18
452.002	1764.09
452.376	1796.41
452.75	1817.65
453.123	1861.04
453.497	1858.33
453.871	1882.96
454.244	1919.57
454.618	1929.29
454.992	1960.92
455.365	1960.47
455.739	2009.51
456.112	2031.66
456.486	2051.77
456.859	2090.41
457.232	2129.73
457.606	2101.71
457.979	2152.33
458.352	2154.14
458.725	2173.35
459.099	2256.51
459.472	2262.84
459.845	2284.08
460.218	2277.07
460.591	2363.62
460.964	2345.55
461.337	2394.58
461.71	2440.01
462.083	2458.76
462.456	2495.37
462.829	2489.27
463.201	2549.61
463.574	2555.94
463.947	2597.06
464.32	2620.57
464.692	2683.16
465.065	2680.45
465.438	2745.99
465.81	2769.26
466.183	2816.04
466.555	2864.4
466.928	2880.45
467.3	2953.67
467.672	2938.75
468.045	3008.13
468.417	3035.92
468.789	3058.3
469.161	3101.23
469.534	3197.95
469.906	3227.33
470.278	3244.73
470.65	3302.36
471.022	3350.27
471.394	3454.22
471.766	3465.52
472.138	3515.46
472.51	3576.7
472.882	3634.78
473.253	3684.04
473.625	3745.51
473.997	3855.34
474.369	3896.69
474.74	3930.14
475.112	3978.5
475.484	4084.93
475.855	4170.36
476.227	4180.3
476.598	4293.52
476.97	4343.91
477.341	4475.66
477.713	4517.92
478.084	4578.26
478.455	4696.44
478.827	4722.88
479.198	4903.22
479.569	4949.54
479.94	5065.47
480.311	5161.97
480.682	5229.99
481.053	5336.88
481.424	5445.13
481.795	5488.74
482.166	5619.58
482.537	5683.99
482.908	5883.31
483.279	5927.15
483.65	6096.63
484.021	6159.46
484.391	6275.61
484.762	6317.19
485.133	6420.01
485.503	6453.69
485.874	6659.78
486.244	6698.65
486.615	6856.39
486.985	6959.44
487.356	7094.8
487.726	7234.91
488.097	7275.59
488.467	7387.9
488.837	7547.44
489.207	7645.97
489.578	7721.45
489.948	7785.63
490.318	7929.81
490.688	7966.41
491.058	8137.48
491.428	8295.9
491.798	8313.3
492.168	8504.48
492.538	8538.38
492.908	8632.84
493.278	8774.53
493.648	8850.69
494.017	8869.22
494.387	9021.75
494.757	9085.26
495.126	9160.28
495.496	9204.8
495.866	9284.8
496.235	9347.17
496.605	9445.7
496.974	9555.98
497.344	9536.54
497.713	9610.89
498.082	9659.25
498.452	9748.74
498.821	9791.68
499.19	9871.9
499.559	9943.09
499.928	9966.36
500.298	10113.48
500.667	10120.03
501.036	10095.85
501.405	10238.45
501.774	10203.87
502.143	10283.42
502.512	10324.54
502.88	10368.84
503.249	10338.56
503.618	10466.46
503.987	10505.11
504.356	10530.87
504.724	10601.6
505.093	10558.66
505.462	10637.76
505.83	10666.46
506.199	10702.61
506.567	10852.21
506.936	10847.92
507.304	10917.75
507.672	10882.27
508.041	10964.3
508.409	11037.97
508.777	11050.18
509.145	11077.29
509.514	11080.91
509.882	11144.64
510.25	11115.48
510.618	11243.62
510.986	11146.22
511.354	11197.29
511.722	11339.21
512.09	11338.98
512.458	11286.55
512.826	11331.07
513.193	11370.17
513.561	11367
513.929	11447.91
514.297	11506.66
514.664	11536.94
515.032	11512.99
515.4	11597.28
515.767	11583.95
516.135	11652.19
516.502	11512.76
516.869	11623.27
517.237	11712.98
517.604	11617.17
517.972	11704.4
518.339	11664.85
518.706	11632.08
519.073	11763.38
519.44	11708.92
519.808	11828.46
520.175	11773.32
520.542	11917.05
520.909	11865.3
521.276	11821
521.643	11789.82
522.009	11926.99
522.376	11858.97
522.743	11900.1
523.11	11980.09
523.477	11955.01
523.843	11959.3
524.21	12017.61
524.577	12051.05
524.943	12043.82
525.31	12079.75
525.676	12085.4
526.043	12085.18
526.409	12116.81
526.776	12149.58
527.142	12088.79
527.508	12103.71
527.874	12137.15
528.241	12163.59
528.607	12136.7
528.973	12082.92
529.339	12072.52
529.705	12240.65
530.071	12190.48
530.437	12241.33
530.803	12098.51
531.169	12098.74
531.535	12036.36
531.901	12106.64
532.267	12045.63
532.632	12034.1
532.998	12044.27
533.364	11979.87
533.73	11929.47
534.095	11978.06
534.461	11922.69
534.826	11931.28
535.192	11868.46
535.557	11913.66
535.923	11842.02
536.288	11744.85
536.653	11816.94
537.019	11669.59
537.384	11655.36
537.749	11643.38
538.114	11689.93
538.479	11575.81
538.845	11573.1
539.21	11458.53
539.575	11541.91
539.94	11496.94
540.305	11443.39
540.67	11418.3
541.034	11388.02
541.399	11300.56
541.764	11282.49
542.129	11249.04
542.494	11299.21
542.858	11134.92
543.223	11065.09
543.587	11119.55
543.952	11059.21
544.316	11046.56
544.681	10988.03
545.045	11037.07
545.41	10914.36
545.774	10852.89
546.138	10870.97
546.503	10749.39
546.867	10693.12
547.231	10757.08
547.595	10717.3
547.959	10656.51
548.324	10593.24
548.688	10596.85
549.052	10534.26
549.416	10480.47
549.779	10449.97
550.143	10433.69
550.507	10393.24
550.871	10362.74
551.235	10299.69
551.599	10359.12
551.962	10232.57
552.326	10266.24
552.689	10213.81
553.053	10142.85
553.417	10115.96
553.78	10169.97
554.143	10076.64
554.507	10034.84
554.87	10044.1
555.234	10077.77
555.597	10045.68
555.96	9898.79
556.323	9936.98
556.686	9938.34
557.05	9898.57
557.413	9947.38
557.776	9911
558.139	9891.34
558.502	9865.35
558.865	9860.83
559.228	9859.25
559.59	9809.98
559.953	9813.37
560.316	9846.37
560.679	9843.88
561.041	9733.6
561.404	9779.25
561.767	9818.34
562.129	9682.53
562.492	9763.43
562.854	9747.16
563.217	9713.71
563.579	9650.66
563.941	9677.1
564.304	9762.53
564.666	9748.97
565.028	9714.17
565.39	9704.9
565.753	9708.74
566.115	9741.06
566.477	9801.39
566.839	9749.19
567.201	9727.05
567.563	9729.53
567.925	9798.46
568.287	9684.34
568.648	9726.59
569.01	9768.85
569.372	9797.33
569.734	9759.81
570.095	9720.27
570.457	9743.77
570.819	9770.66
571.18	9737.44
571.542	9779.25
571.903	9761.85
572.265	9747.38
572.626	9732.24
572.987	9743.32
573.349	9771.57
573.71	9843.2
574.071	9817.21
574.432	9794.16
574.794	9858.79
575.155	9811.56
575.516	9727.5
575.877	9816.99
576.238	9842.52
576.599	9814.95
576.96	9816.76
577.32	9788.97
577.681	9837.1
578.042	9834.39
578.403	9702.87
578.763	9840.49
579.124	9817.89
579.485	9833.94
579.845	9838.91
580.206	9765.01
580.566	9751.9
580.927	9732.92
581.287	9791.9
581.648	9756.2
582.008	9822.19
582.368	9776.76
582.728	9728.63
583.089	9746.71
583.449	9735.41
583.809	9788.29
584.169	9759.36
584.529	9706.48
584.889	9823.09
585.249	9711
585.609	9659.25
585.969	9766.37
586.329	9718.69
586.688	9697.44
587.048	9667.61
587.408	9613.15
587.768	9609.31
588.127	9642.98
588.487	9571.8
588.846	9668.06
589.206	9559.14
589.565	9645.47
589.925	9581.29
590.284	9533.38
590.643	9610.44
591.003	9537.67
591.362	9573.6
591.721	9627.16
592.08	9539.48
592.44	9634.39
592.799	9602.76
593.158	9475.75
593.517	9509.88
593.876	9490.89
594.235	9470.78
594.593	9498.58
594.952	9511.68
595.311	9531.57
595.67	9473.95
596.029	9463.78
596.387	9487.28
596.746	9491.12
597.104	9452.48
597.463	9440.05
597.822	9529.54
598.18	9343.33
598.538	9378.36
598.897	9455.64
599.255	9392.59
599.613	9570.67
599.972	9487.96
600.33	9429.43
600.688	9414.74
601.046	9459.48
601.404	9372.03
601.762	9393.27
602.12	9460.39
602.478	9390.78
602.836	9432.82
603.194	9348.98
603.552	9431.24
603.91	9379.03
604.268	9364.12
604.625	9396.66
604.983	9449.54
605.341	9315.53
605.698	9426.94
606.056	9387.85
606.413	9383.78
606.771	9419.48
607.128	9426.49
607.485	9426.72
607.843	9329.99
608.2	9387.85
608.557	9431.91
608.914	9340.62
609.272	9408.41
609.629	9452.48
609.986	9480.27
610.343	9438.47
610.7	9432.59
611.057	9411.35
611.414	9405.92
611.771	9464
612.127	9510.78
612.484	9461.97
612.841	9483.89
613.198	9527.5
613.554	9486.15
613.911	9527.96
614.267	9545.36
614.624	9495.41
614.98	9521.18
615.337	9610.44
615.693	9563.43
616.05	9512.14
616.406	9565.47
616.762	9522.08
617.118	9474.17
617.475	9541.06
617.831	9567.5
618.187	9602.53
618.543	9566.6
618.899	9553.72
619.255	9576.09
619.611	9574.51
619.967	9608.63
620.323	9586.49
620.678	9612.25
621.034	9602.3
621.39	9563.21
621.746	9565.47
622.101	9663.09
622.457	9590.33
622.812	9635.3
623.168	9640.27
623.523	9677.56
623.879	9708.06
624.234	9562.76
624.589	9636.88
624.945	9513.27
625.3	9585.13
625.655	9529.76
626.01	9629.87
626.365	9529.76
626.72	9571.8
627.075	9651.34
627.43	9650.44
627.785	9512.59
628.14	9617.67
628.495	9572.25
628.85	9554.85
629.205	9492.25
629.559	9621.06
629.914	9541.06
630.269	9516.43
630.623	9503.1
630.978	9535.19
631.332	9545.36
631.687	9500.61
632.041	9459.71
632.396	9468.52
632.75	9492.02
633.104	9502.65
633.459	9457.68
633.813	9402.08
634.167	9444.79
634.521	9369.99
634.875	9426.26
635.229	9351.92
635.583	9320.73
635.937	9334.06
636.291	9417.9
636.645	9386.49
636.999	9312.82
637.352	9301.29
637.706	9235.08
638.06	9241.86
638.413	9292.26
638.767	9286.83
639.121	9261.07
639.474	9237.79
639.828	9217.23
640.181	9257
640.534	9167.06
640.888	9225.82
641.241	9177
641.594	9142.66
641.947	9177.46
642.301	9171.13
642.654	9228.75
643.007	9174.52
643.36	9125.48
643.713	9159.38
644.066	9175.2
644.419	9080.06
644.771	9082.09
645.124	8899.5
645.477	8987.18
645.83	8919.84
646.182	8912.6
646.535	8864.92
646.888	8878.48
647.24	8779.5
647.593	8929.78
647.945	8834.87
648.298	8796.22
648.65	8806.39
649.002	8780.63
649.355	8853.85
649.707	8758.48
650.059	8879.16
650.411	8977.91
650.763	9003.22
651.115	9063.56
651.467	9068.76
651.819	9003.22
652.171	9037.12
652.523	9030.12
652.875	9043.22
653.227	8982.89
653.578	9049.1
653.93	8986.28
654.282	9057.01
654.633	8981.53
654.985	9015.88
655.337	8995.09
655.688	9070.11
656.039	9013.84
656.391	8993.51
656.742	9055.43
657.094	8986.95
657.445	9077.57
657.796	9053.17
658.147	9034.41
658.498	9009.55
658.849	9079.83
659.2	8985.82
659.551	9042.77
659.902	9075.09
660.253	9080.96
660.604	9027.63
660.955	9013.84
661.306	9050.91
661.656	9076.67
662.007	9102.88
662.358	9076.44
662.708	9076.89
663.059	9110.11
663.409	9014.3
663.76	9159.6
664.11	9106.72
664.461	9124.35
664.811	9099.49
665.161	9123.22
665.511	9083.9
665.862	9123.67
666.212	9088.65
666.562	9144.01
666.912	9138.81
667.262	9118.47
667.612	9084.58
667.962	9061.53
668.312	9079.61
668.662	9104.46
669.011	9110.79
669.361	9075.54
669.711	9085.71
670.06	9012.26
670.41	9109.89
670.76	9020.17
671.109	9090.91
671.459	9052.71
671.808	9064.69
672.157	9116.67
672.507	9089.78
672.856	9023.56
673.205	9070.11
673.554	9026.73
673.904	9021.75
674.253	9108.76
674.602	9043.9
674.951	8912.6
675.3	8808.88
675.649	8958.71
675.998	8941.08
676.346	8954.19
676.695	8956.9
677.044	8935.2
677.393	8859.5
677.741	8987.18
678.09	8854.75
678.438	8830.8
678.787	8879.16
679.135	8834.64
679.484	8848.65
679.832	8866.96
680.181	8740.86
680.529	8831.25
680.877	8823.12
681.225	8762.33
681.573	8857.46
681.922	8756.9
682.27	8733.17
682.618	8774.98
682.966	8703.12
683.314	8696.79
683.661	8677.13
684.009	8606.85
684.357	8689.79
684.705	8647.3
685.053	8621.76
685.4	8555.55
685.748	8569.56
686.095	8517.81
686.443	8504.93
686.79	8490.24
687.138	8496.12
687.485	8504.93
687.832	8457.7
688.18	8374.09
688.527	8364.82
688.874	8386.74
689.221	8353.52
689.568	8319.85
689.915	8305.84
690.262	8377.7
690.609	8240.53
690.956	8271.49
691.303	8249.8
691.65	8217.93
691.997	8236.69
692.344	8099.52
692.69	8125.28
693.037	8107.65
693.383	7992.4
693.73	8048.45
694.077	8014.1
694.423	7946.53
694.769	7960.77
695.116	7938.17
695.462	7897.49
695.808	7878.06
696.155	7900.2
696.501	7737.95
696.847	7762.58
697.193	7730.49
697.539	7754.67
697.885	7688
698.231	7654.11
698.577	7697.27
698.923	7669.25
699.269	7558.06
699.614	7546.31
699.96	7460.21
700.306	7563.04
700.651	7455.69
700.997	7445.07
701.342	7408.46
701.688	7379.54
702.033	7347.22
702.379	7413.89
702.724	7320.33
703.069	7296.15
703.415	7297.73
703.76	7245.76
704.105	7224.06
704.45	7206.21
704.795	7188.58
705.14	7150.39
705.485	7133.22
705.83	7074.46
706.175	7092.54
706.52	7095.93
706.865	7018.64
707.209	7052.77
707.554	7021.81
707.899	6994.01
708.243	6954.92
708.588	6989.72
708.932	6884.18
709.277	6802.6
709.621	6870.4
709.966	6836.28
710.31	6880.12
710.654	6794.69
710.998	6803.28
711.342	6814.13
711.687	6760.12
712.031	6720.8
712.375	6714.47
712.719	6732.77
713.063	6695.94
713.407	6690.06
713.75	6706.56
714.094	6634.92
714.438	6646.22
714.782	6629.73
715.125	6636.05
715.469	6647.13
715.812	6632.21
716.156	6563.74
716.499	6558.77
716.843	6595.83
717.186	6509.96
717.53	6588.6
717.873	6572.55
718.216	6560.35
718.559	6518.09
718.902	6519
719.246	6491.65
719.589	6487.58
719.932	6480.35
720.275	6491.65
720.617	6497.3
720.96	6452.56
721.303	6456.62
721.646	6474.25
721.989	6386.12
722.331	6491.88
722.674	6421.14
723.016	6415.04
723.359	6376.85
723.701	6393.35
724.044	6375.5
724.386	6403.07
724.729	6368.49
725.071	6350.86
725.413	6353.8
725.755	6379.11
726.097	6347.7
726.439	6339.34
726.782	6287.59
727.124	6354.25
727.465	6345.67
727.807	6326.46
728.149	6380.47
728.491	6258.89
728.833	6338.89
729.175	6302.96
729.516	6289.4
729.858	6330.07
730.199	6328.49
730.541	6268.15
730.882	6253.47
731.224	6328.49
731.565	6288.72
731.906	6312.9
732.248	6292.11
732.589	6306.35
732.93	6226.57
733.271	6251.21
733.612	6236.52
733.953	6274.03
734.294	6293.69
734.635	6271.09
734.976	6300.24
735.317	6262.73
735.658	6286.68
735.999	6312
736.339	6260.7
736.68	6314.93
737.021	6333.92
737.361	6262.96
737.702	6328.94
738.042	6302.5
738.383	6345.67
738.723	6372.56
739.063	6346.57
739.404	6445.55
739.744	6374.14
740.084	6393.8
740.424	6391.54
740.764	6434.25
741.104	6428.38
741.444	6465.21
741.784	6424.53
742.124	6484.87
742.464	6454.36
742.804	6504.76
743.143	6485.32
743.483	6530.75
743.823	6504.31
744.162	6563.97
744.502	6607.81
744.841	6620.69
745.181	6670.86
745.52	6667.92
745.86	6711.98
746.199	6767.8
746.538	6774.13
746.877	6830.4
747.216	6869.49
747.556	6852.77
747.895	6976.61
748.234	6977.74
748.573	6979.32
748.911	7062.26
749.25	7103.16
749.589	7193.33
749.928	7246.21
750.267	7317.39
750.605	7397.16
750.944	7489.82
751.283	7491.17
751.621	7586.54
751.96	7579.08
752.298	7760.77
752.636	7844.38
752.975	7921.9
753.313	7977.94
753.651	8095.22
753.989	8195.79
754.327	8298.84
754.666	8369.34
755.004	8500.86
755.342	8626.74
755.679	8776.79
756.017	8841.19
756.355	9018.14
756.693	9089.55
757.031	9291.58
757.368	9409.31
757.706	9540.84
758.044	9658.35
758.381	9810.66
758.719	9955.06
759.056	10128.84
759.394	10283.64
759.731	10373.58
760.068	10483.41
760.405	10642.05
760.743	10810.63
761.08	11023.28
761.417	11176.05
761.754	11336.5
762.091	11594.79
762.428	11651.06
762.765	11792.75
763.102	12075.23
763.438	12129.7
763.775	12248.11
764.112	12481.32
764.449	12738.27
764.785	12808.32
765.122	12864.37
765.458	13041.08
765.795	13194.53
766.131	13375.99
766.467	13501.86
766.804	13648.53
767.14	13694.4
767.476	13923.77
767.812	13971.45
768.148	14260.26
768.485	14267.27
768.821	14362.63
769.157	14510.88
769.492	14654.6
769.828	14795.84
770.164	14876.97
770.5	14965.33
770.836	15152.44
771.171	15189.28
771.507	15240.8
771.842	15342.94
772.178	15432.43
772.513	15499.78
772.849	15639.66
773.184	15665.2
773.519	15823.16
773.855	15888.92
774.19	15840.56
774.525	15991.06
774.86	16047.56
775.195	16148.8
775.53	16211.4
775.865	16273.77
776.2	16272.64
776.535	16286.65
776.87	16360.09
777.205	16374.78
777.539	16337.95
777.874	16542.01
778.209	16508.79
778.543	16508.79
778.878	16536.58
779.212	16587.66
779.547	16600.09
779.881	16711.27
780.215	16711.95
780.55	16715.79
780.884	16693.42
781.218	16696.58
781.552	16733.42
781.886	16821.78
782.22	16758.73
782.554	16662.91
782.888	16682.57
783.222	16709.24
783.556	16703.13
783.889	16723.7
784.223	16642.57
784.557	16679.63
784.89	16781.55
785.224	16681.67
785.557	16650.03
785.891	16589.24
786.224	16624.49
786.558	16677.6
786.891	16515.57
787.224	16472.86
787.557	16532.74
787.891	16530.94
788.224	16636.47
788.557	16640.31
788.89	16585.17
789.223	16497.49
789.556	16543.82
789.888	16450.49
790.221	16389.92
790.554	16330.94
790.887	16408
791.219	16395.35
791.552	16288.46
791.884	16237.16
792.217	16286.87
792.549	16283.03
792.882	16204.39
793.214	16145.63
793.546	16259.08
793.879	16080.33
794.211	16124.17
794.543	16084.62
794.875	16076.48
795.207	16093.88
795.539	16025.19
795.871	16055.92
796.203	15938.41
796.535	15823.84
796.867	15810.73
797.198	15834.91
797.53	15782.03
797.862	15743.16
798.193	15737.28
798.525	15663.61
798.856	15707.91
799.188	15499.1
799.519	15523.05
799.85	15476.5
800.182	15511.98
800.513	15496.61
800.844	15344.98
801.175	15476.27
801.506	15455.94
801.837	15420.91
802.168	15192.44
802.499	15293
802.83	15155.38
803.161	15217.3
803.491	15190.41
803.822	15190.63
804.153	15073.12
804.483	15063.4
804.814	15034.7
805.145	14928.04
805.475	14981.6
805.805	14912.9
806.136	14914.71
806.466	14932.33
806.796	14937.76
807.126	14849.62
807.457	14775.73
807.787	14823.18
808.117	14702.28
808.447	14664.32
808.777	14706.8
809.107	14639.91
809.436	14559.91
809.766	14543.42
810.096	14510.88
810.426	14509.75
810.755	14448.28
811.085	14438.34
811.414	14343.42
811.744	14387.71
812.073	14339.35
812.403	14407.6
812.732	14288.28
813.061	14312.91
813.39	14175.97
813.719	14134.61
814.049	14178.45
814.378	14187.04
814.707	14119.93
815.036	14152.01
815.365	14115.63
815.693	14013.26
816.022	14075.63
816.351	13952.02
816.68	13965.58
817.008	13987.95
817.337	13772.36
817.665	13786.6
817.994	13787.28
818.322	13829.76
818.651	13757.67
818.979	13717
819.307	13805.58
819.636	13785.24
819.964	13738.69
820.292	13739.82
820.62	13717.68
820.948	13656.43
821.276	13685.59
821.604	13689.2
821.932	13760.16
822.259	13704.12
822.587	13651.01
822.915	13655.08
823.243	13735.53
823.57	13547.51
823.898	13645.81
824.225	13580.5
824.553	13662.08
824.88	13627.51
825.207	13677.23
825.535	13619.37
825.862	13684
826.189	13669.77
826.516	13705.02
826.843	13669.99
827.17	13646.04
827.497	13693.27
827.824	13678.81
828.151	13740.95
828.478	13676.32
828.805	13700.73
829.131	13698.69
829.458	13692.14
829.785	13595.19
830.111	13680.61
830.438	13724.46
830.764	13711.57
831.09	13708.64
831.417	13566.95
831.743	13645.81
832.069	13691.46
832.395	13610.79
832.722	13617.79
833.048	13606.27
833.374	13592.93
833.7	13521.07
834.026	13561.52
834.351	13634.51
834.677	13541.64
835.003	13651.69
835.329	13559.26
835.654	13518.81
835.98	13573.95
836.306	13492.15
836.631	13450.79
836.956	13471.35
837.282	13491.92
837.607	13466.84
837.932	13397.23
838.258	13377.57
838.583	13382.32
838.908	13410.79
839.233	13357.23
839.558	13337.8
839.883	13313.39
840.208	13224.13
840.533	13261.19
840.858	13319.27
841.182	13206.73
841.507	13180.97
841.832	13095.77
842.156	13180.74
842.481	13077.69
842.805	13074.98
843.13	13039.95
843.454	13030.69
843.778	12953.4
844.103	12941.43
844.427	12874.76
844.751	12907.75
845.075	12836.12
845.399	12848.32
845.723	12743.92
846.047	12786.85
846.371	12662.11
846.695	12687.65
847.019	12638.83
847.343	12531.72
847.666	12458.05
847.99	12376.47
848.313	12418.73
848.637	12307.09
848.96	12319.29
849.284	12286.75
849.607	12152.97
849.931	12236.36
850.254	12041.34
850.577	12065.52
850.9	11907.78
851.223	11945.75
851.546	11943.94
851.869	11879.31
852.192	11925.41
852.515	11737.62
852.838	11752.08
853.161	11717.05
853.483	11718.41
853.806	11627.34
854.129	11642.25
854.451	11521.12
854.774	11486.1
855.096	11426.21
855.419	11496.04
855.741	11451.29
856.063	11287.01
856.385	11223.5
856.708	11304.41
857.03	11235.03
857.352	11211.75
857.674	11164.52
857.996	11168.82
858.318	11105.77
858.64	11159.78
858.961	10993
859.283	10985.32
859.605	10954.81
859.926	11018.54
860.248	10932.89
860.57	10940.35
860.891	10936.96
861.212	10853.12
861.534	10813.8
861.855	10728.38
862.176	10787.81
862.498	10782.16
862.819	10769.28
863.14	10692.44
863.461	10741.26
863.782	10696.06
864.103	10724.53
864.424	10635.5
864.745	10699
865.065	10523.18
865.386	10650.64
865.707	10552.11
866.027	10522.96
866.348	10497.87
866.668	10516.86
866.989	10492.9
867.309	10488.61
867.63	10481.38
867.95	10470.76
868.27	10363.64
868.59	10494.94
868.91	10356.41
869.23	10365.45
869.55	10276.18
869.87	10435.05
870.19	10362.51
870.51	10316.18
870.83	10306.92
871.15	10263.53
871.469	10221.04
871.789	10248.39
872.109	10313.47
872.428	10172.46
872.748	10235.96
873.067	10153.93
873.386	10180.37
873.706	10168.62
874.025	10133.14
874.344	10018.79
874.663	10096.08
874.982	10020.37
875.301	10019.69
875.62	10063.31
875.939	10042.07
876.258	9997.32
876.577	10023.08
876.896	9975.18
877.214	9970.88
877.533	9972.24
877.852	9929.75
878.17	9891.11
878.489	9894.95
878.807	9955.06
879.125	9832.13
879.444	9855.18
879.762	9817.21
880.08	9807.95
880.398	9853.82
880.716	9741.96
881.034	9749.64
881.352	9786.03
881.67	9757.1
881.988	9678.01
882.306	9638.91
882.624	9655.86
882.941	9626.71
883.259	9642.3
883.577	9595.52
883.894	9595.52
884.212	9478.69
884.529	9532.02
884.846	9505.36
885.164	9480.05
885.481	9460.84
885.798	9483.44
886.115	9404.12
886.432	9378.13
886.75	9372.71
887.067	9407.28
887.383	9372.25
887.7	9310.11
888.017	9363.67
888.334	9359.6
888.651	9258.13
888.967	9247.74
889.284	9190.34
889.6	9121.41
889.917	9094.97
890.233	9101.75
890.55	9080.51
890.866	9152.6
891.182	9027.4
891.498	9012.26
891.815	9003.68
892.131	8967.74
892.447	8967.52
892.763	8894.3
893.079	8869.22
893.395	8857.01
893.71	8814.53
894.026	8826.28
894.342	8759.39
894.657	8719.84
894.973	8679.16
895.289	8701.08
895.604	8687.98
895.92	8601.88
896.235	8579.28
896.55	8548.55
896.865	8510.36
897.181	8526.63
897.496	8556.68
897.811	8516
898.126	8452.73
898.441	8470.13
898.756	8371.38
899.071	8352.62
899.386	8279.85
899.7	8287.08
900.015	8180.42
900.33	8196.92
900.644	8205.5
900.959	8214.77
901.273	8176.35
901.588	8121.44
901.902	8073.08
902.216	8060.65
902.531	8002.57
902.845	8035.34
903.159	7944.72
903.473	7885.96
903.787	7937.49
904.101	7901.33
904.415	7858.17
904.729	7845.74
905.042	7759.41
905.356	7753.54
905.67	7750.15
905.984	7691.62
906.297	7610.49
906.611	7586.76
906.924	7606.88
907.237	7582.24
907.551	7570.49
907.864	7535.92
908.177	7504.05
908.491	7502.02
908.804	7389.25
909.117	7390.38
909.43	7280.56
909.743	7282.59
910.056	7244.17
910.368	7294.12
910.681	7191.29
910.994	7201.01
911.307	7184.06
911.619	7139.09
911.932	7067.23
912.244	7116.72
912.557	7061.13
912.869	6965.99
913.181	6976.16
913.494	6969.83
913.806	6942.71
914.118	6985.2
914.43	6834.92
914.742	6813.22
915.054	6817.29
915.366	6834.69
915.678	6788.14
915.99	6782.72
916.302	6679.44
916.613	6642.83
916.925	6636.73
917.236	6591.31
917.548	6601.25
917.859	6693.23
918.171	6571.65
918.482	6572.55
918.794	6473.35
919.105	6440.81
919.416	6434.25
919.727	6429.96
920.038	6345.44
920.349	6397.87
920.66	6337.08
920.971	6328.27
921.282	6338.89
921.593	6255.27
921.903	6263.86
922.214	6235.39
922.525	6216.86
922.835	6195.61
923.146	6106.58
923.456	6095.28
923.767	6078.78
924.077	6108.61
924.387	6060.7
924.697	6035.39
925.008	5980.03
925.318	6010.31
925.628	5945.23
925.938	5929.41
926.248	5896.64
926.558	5855.96
926.867	5883.98
927.177	5820.93
927.487	5833.59
927.796	5761.95
928.106	5794.27
928.416	5763.31
928.725	5724.67
929.034	5708.17
929.344	5676.53
929.653	5662.07
929.962	5667.04
930.271	5628.62
930.581	5564.67
930.89	5497.78
931.199	5545.24
931.508	5519.25
931.817	5516.31
932.125	5476.99
932.434	5445.8
932.743	5373.26
933.051	5407.84
933.36	5317.9
933.669	5331.91
933.977	5345.01
934.286	5319.7
934.594	5265.24
934.902	5220.95
935.21	5254.62
935.519	5214.4
935.827	5179.6
936.135	5193.83
936.443	5109.54
936.751	5135.98
937.059	5143.21
937.367	5104.12
937.674	5084.23
937.982	5060.73
938.29	5002.42
938.597	4991.35
938.905	4936.21
939.213	4955.42
939.52	4982.54
939.827	4978.24
940.135	4924.46
940.442	4881.75
940.749	4913.61
941.056	4870.23
941.363	4834.75
941.67	4777.35
941.977	4766.27
942.284	4729.89
942.591	4750.68
942.898	4709.1
943.205	4696.22
943.511	4667.52
943.818	4657.35
944.125	4612.6
944.431	4592.04
944.738	4606.5
945.044	4557.46
945.35	4564.47
945.657	4545.04
945.963	4502.33
946.269	4470.46
946.575	4533.51
946.881	4451.48
947.187	4455.77
947.493	4407.41
947.799	4419.62
948.105	4404.7
948.41	4379.62
948.716	4391.14
949.022	4328.77
949.327	4356.34
949.633	4298.71
949.938	4244.93
950.244	4299.84
950.549	4247.64
950.854	4213.52
951.16	4233.41
951.465	4209.23
951.77	4181.88
952.075	4146.18
952.38	4132.62
952.685	4157.93
952.99	4116.8
953.294	4077.25
953.599	4068.66
953.904	4019.4
954.209	4023.69
954.513	4050.59
954.818	4027.31
955.122	3941.21
955.426	3983.02
955.731	3934.66
956.035	3927.65
956.339	3943.47
956.643	3897.37
956.948	3868.22
957.252	3841.1
957.556	3824.15
957.86	3828.9
958.163	3854.21
958.467	3810.37
958.771	3819.41
959.075	3803.81
959.378	3771.95
959.682	3743.02
959.985	3744.15
960.289	3682.23
960.592	3661.9
960.896	3685.85
961.199	3653.53
961.502	3647.43
961.805	3675
962.108	3594.1
962.411	3572.63
962.714	3563.14
963.017	3547.55
963.32	3528.57
963.623	3547.55
963.926	3528.57
964.228	3512.97
964.531	3508.45
964.833	3495.8
965.136	3460.77
965.438	3461.45
965.741	3388
966.043	3404.95
966.345	3416.7
966.648	3358.4
966.95	3373.99
967.252	3373.99
967.554	3328.57
967.856	3324.73
968.158	3311.4
968.46	3297.39
968.761	3271.85
969.063	3249.7
969.365	3238.86
969.666	3224.62
969.968	3200.89
970.269	3217.16
970.571	3199.31
970.872	3162.93
971.174	3143.94
971.475	3140.33
971.776	3143.04
972.077	3140.55
972.378	3108.24
972.679	3126.32
972.98	3094.45
973.281	3104.62
973.582	3076.6
973.883	3053.1
974.183	3051.97
974.484	3041.12
974.785	3001.12
975.085	3010.84
975.386	3000.44
975.686	2964.96
975.986	2937.85
976.287	2934.23
976.587	2903.27
976.887	2910.05
977.187	2930.39
977.487	2890.62
977.787	2870.73
978.087	2867.34
978.387	2891.97
978.687	2874.12
978.987	2810.17
979.286	2846.78
979.586	2776.27
979.885	2832.76
980.185	2787.57
980.484	2749.38
980.784	2741.69
981.083	2765.65
981.382	2725.2
981.682	2731.52
981.981	2700.79
982.28	2713.9
982.579	2675.25
982.878	2670.28
983.177	2661.7
983.475	2640.45
983.774	2636.84
984.073	2619.89
984.372	2599.55
984.67	2602.49
984.969	2591.87
985.267	2591.64
985.566	2586.67
985.864	2552.09
986.162	2531.98
986.461	2547.12
986.759	2519.55
987.057	2458.31
987.355	2500.8
987.653	2495.82
987.951	2468.71
988.249	2480.91
988.547	2475.94
988.844	2437.75
989.142	2405.88
989.44	2432.55
989.737	2446.11
990.035	2388.93
990.332	2390.74
990.63	2390.97
990.927	2338.54
991.224	2378.09
991.521	2350.52
991.819	2362.49
992.116	2364.98
992.413	2281.82
992.71	2289.95
993.006	2301.93
993.303	2272.33
993.6	2280.46
993.897	2275.72
994.193	2239.11
994.49	2266
994.787	2212.67
995.083	2233.01
995.379	2222.39
995.676	2201.37
995.972	2200.01
996.268	2151.88
996.565	2143.74
996.861	2138.77
997.157	2162.05
997.453	2134.25
997.749	2119.11
998.044	2088.6
998.34	2131.77
998.636	2081.6
998.932	2049.51
999.227	2065.55
999.523	2066
999.818	2077.08
1000.114	2035.05
1000.409	2063.52
1000.704	1988.27
1001	1994.82
1001.295	1977.42
1001.59	2002.28
1001.885	1989.62
1002.18	1963.18
1002.475	1951.88
1002.77	1955.05
1003.065	1928.61
1003.359	1920.92
1003.654	1918.66
1003.949	1900.81
1004.243	1913.24
1004.538	1906.01
1004.832	1884.31
1005.127	1866.01
1005.421	1829.63
1005.715	1818.78
1006.009	1834.6
1006.304	1817.65
1006.598	1797.99
1006.892	1794.37
1007.186	1793.47
1007.48	1780.14
1007.773	1765
1008.067	1744.88
1008.361	1726.58
1008.655	1718.44
1008.948	1717.54
1009.242	1733.36
1009.535	1707.14
1009.829	1715.28
1010.122	1721.61
1010.415	1687.26
1010.708	1693.36
1011.001	1664.43
1011.295	1627.15
1011.588	1647.03
1011.881	1651.78
1012.173	1627.37
1012.466	1617.66
1012.759	1602.74
1013.052	1606.58
1013.344	1593.48
1013.637	1579.69
1013.93	1547.6
1014.222	1536.98
1014.514	1531.78
1014.807	1561.16
1015.099	1527.49
1015.391	1525
1015.683	1545.57
1015.976	1500.37
1016.268	1475.06
1016.56	1467.83
1016.851	1488.62
1017.143	1451.78
1017.435	1475.29
1017.727	1455.17
1018.018	1440.94
1018.31	1463.31
1018.602	1420.6
1018.893	1410.43
1019.185	1409.75
1019.476	1378.34
1019.767	1397.1
1020.058	1366.14
1020.35	1355.52
1020.641	1364.78
1020.932	1340.83
1021.223	1372.92
1021.514	1320.04
1021.804	1322.75
1022.095	1317.55
1022.386	1305.57
1022.677	1300.38
1022.967	1318.68
1023.258	1273.03
1023.548	1269.64
1023.839	1228.96
1024.129	1244.11
1024.419	1262.64
1024.709	1222.19
1025	1261.51
1025.29	1237.1
1025.58	1244.78
1025.87	1231.22
1026.16	1225.8
1026.449	1210.89
1026.739	1151.23
1027.029	1168.85
1027.319	1148.74
1027.608	1162.98
1027.898	1181.73
1028.187	1146.93
1028.477	1154.84
1028.766	1183.09
1029.055	1134.05
1029.344	1130.89
1029.634	1133.83
1029.923	1123.88
1030.212	1120.04
1030.501	1118.91
1030.79	1068.07
1031.078	1078.23
1031.367	1081.17
1031.656	1057.22
1031.945	1064.68
1032.233	1029.42
1032.522	1050.21
1032.81	1053.83
1033.099	1063.32
1033.387	1062.42
1033.675	1015.19
1033.963	1009.54
1034.251	1009.31
1034.54	1011.8
1034.828	995.52
1035.116	989.2
1035.403	993.94
1035.691	996.88
1035.979	977.9
1036.267	974.06
1036.554	958.01
1036.842	976.99
1037.129	960.95
1037.417	963.66
1037.704	923.89
1037.992	946.71
1038.279	901.06
1038.566	903.55
1038.853	903.55
1039.14	903.55
