Data from hue_90_FLMS001491_20.txt Node
Date: Mon Feb 06 15:24:46 GMT 2017
User: dcchb
Spectrometer: FLMS00149
Trigger mode: 0
Integration Time (sec): 2.000000E-2
Scans to average: 10
Electric dark correction enabled: true
Nonlinearity correction enabled: false
Boxcar width: 0
XAxis mode: Wavelengths
Number of Pixels in Spectrum: 2048
>>>>>Begin Spectral Data<<<<<
341.393	0.3
341.776	0.3
342.16	0.3
342.543	-38.8
342.927	-73.37
343.31	-77.44
343.693	-66.14
344.077	-60.04
344.46	-71.57
344.843	-55.97
345.226	-37.89
345.61	-20.49
345.993	-19.14
346.376	-9.19
346.759	7.98
347.142	27.64
347.525	34.65
347.908	56.79
348.291	68.54
348.674	101.76
349.057	120.52
349.44	128.65
349.823	142.89
350.206	168.2
350.588	193.06
350.971	209.33
351.354	250.01
351.737	220.4
352.119	239.16
352.502	261.31
352.884	262.44
353.267	290.68
353.65	272.83
354.032	284.13
354.414	296.56
354.797	301.53
355.179	312.6
355.562	337.24
355.944	338.82
356.326	312.15
356.709	334.53
357.091	330.91
357.473	347.41
357.855	331.59
358.238	337.46
358.62	341.3
359.002	362.55
359.384	340.63
359.766	334.3
360.148	336.33
360.53	342.89
360.912	330.23
361.294	334.3
361.676	330.68
362.057	355.77
362.439	315.32
362.821	312.6
363.203	327.29
363.584	320.29
363.966	316.22
364.348	320.97
364.729	334.75
365.111	310.8
365.493	333.62
365.874	304.47
366.256	313.73
366.637	312.38
367.019	301.53
367.4	292.94
367.781	328.42
368.163	305.15
368.544	290.46
368.925	310.34
369.306	302.21
369.688	304.24
370.069	293.62
370.45	325.49
370.831	306.73
371.212	316.67
371.593	321.19
371.974	308.09
372.355	311.25
372.736	321.19
373.117	329.78
373.498	307.63
373.879	329.33
374.26	321.64
374.641	309.67
375.021	320.74
375.402	314.64
375.783	308.09
376.163	351.25
376.544	333.4
376.925	325.49
377.305	325.71
377.686	313.28
378.066	317.8
378.447	327.07
378.827	306.5
379.208	319.61
379.588	320.29
379.968	317.8
380.349	321.19
380.729	328.88
381.109	326.16
381.489	336.11
381.87	341.53
382.25	341.98
382.63	342.89
383.01	332.72
383.39	335.66
383.77	356.67
384.15	326.39
384.53	341.76
384.91	363.9
385.29	352.15
385.67	354.86
386.049	353.96
386.429	346.5
386.809	337.01
387.189	343.79
387.568	355.09
387.948	337.01
388.328	362.32
388.707	335.88
389.087	359.61
389.466	366.61
389.846	344.24
390.225	363.22
390.605	353.73
390.984	351.02
391.363	368.87
391.743	380.4
392.122	351.7
392.501	385.82
392.881	368.87
393.26	362.32
393.639	374.52
394.018	355.09
394.397	389.44
394.776	374.3
395.155	381.98
395.534	372.04
395.913	375.43
396.292	379.95
396.671	382.66
397.05	367.52
397.429	380.85
397.808	368.87
398.186	392.38
398.565	378.59
398.944	378.37
399.323	374.52
399.701	407.74
400.08	400.74
400.458	397.35
400.837	414.07
401.215	395.99
401.594	400.96
401.972	408.42
402.351	409.55
402.729	412.94
403.107	391.02
403.486	386.5
403.864	403.68
404.242	412.72
404.62	400.51
404.999	419.04
405.377	413.62
405.755	427.86
406.133	407.29
406.511	413.39
406.889	432.38
407.267	427.4
407.645	418.59
408.023	433.96
408.401	443
408.779	434.86
409.156	417.46
409.534	440.74
409.912	449.55
410.29	438.93
410.667	457.23
411.045	449.78
411.422	444.35
411.8	468.08
412.178	453.84
412.555	467.63
412.933	455.88
413.31	468.53
413.687	465.82
414.065	499.49
414.442	463.56
414.819	503.11
415.197	480.28
415.574	481.41
415.951	477.8
416.328	490.45
416.705	459.72
417.082	508.31
417.46	489.55
417.837	494.29
418.214	513.96
418.591	490
418.967	487.29
419.344	496.78
419.721	496.1
420.098	506.95
420.475	502.43
420.852	517.57
421.228	507.4
421.605	520.28
421.982	500.62
422.358	537.91
422.735	520.96
423.111	527.06
423.488	528.42
423.864	541.98
424.241	555.76
424.617	551.02
424.994	545.82
425.37	546.5
425.746	528.64
426.123	548.76
426.499	554.63
426.875	579.26
427.251	584.91
427.627	573.39
428.003	582.2
428.379	576.78
428.756	578.13
429.132	584.01
429.507	616.78
429.883	603.44
430.259	622.88
430.635	584.91
431.011	609.32
431.387	606.61
431.763	640.28
432.138	604.35
432.514	624.23
432.89	639.83
433.265	660.84
433.641	659.49
434.016	655.87
434.392	674.86
434.767	663.33
435.143	661.07
435.518	671.92
435.894	680.28
436.269	712.82
436.644	700.84
437.02	709.2
437.395	694.97
437.77	688.41
438.145	716.66
438.52	726.61
438.895	738.13
439.271	725.7
439.646	748.3
440.021	742.65
440.395	746.94
440.77	746.49
441.145	750.56
441.52	758.69
441.895	779.03
442.27	766.6
442.645	765.47
443.019	799.6
443.394	787.85
443.769	786.04
444.143	778.81
444.518	805.47
444.892	792.14
445.267	789.43
445.641	829.43
446.016	809.99
446.39	832.59
446.764	818.35
447.139	828.3
447.513	821.97
447.887	834.62
448.262	820.61
448.636	836.43
449.01	846.38
449.384	889.54
449.758	900.61
450.132	859.48
450.506	867.39
450.88	877.56
451.254	875.53
451.628	901.97
452.002	904.91
452.376	900.16
452.75	886.15
453.123	894.51
453.497	915.75
453.871	930.89
454.244	945.13
454.618	971.8
454.992	984.45
455.365	965.92
455.739	991.23
456.112	983.77
456.486	1011.8
456.859	1024.45
457.232	1031.68
457.606	1040.04
457.979	1020.38
458.352	1054.28
458.725	1038.46
459.099	1081.4
459.472	1123.66
459.845	1115.97
460.218	1094.73
460.591	1111
460.964	1159.14
461.337	1164.11
461.71	1165.69
462.083	1225.12
462.456	1183.99
462.829	1207.5
463.201	1219.93
463.574	1240.04
463.947	1247.72
464.32	1255.63
464.692	1302.18
465.065	1287.72
465.438	1341.28
465.81	1328.85
466.183	1344.89
466.555	1378.34
466.928	1382.63
467.3	1424.44
467.672	1409.75
468.045	1445.91
468.417	1481.16
468.789	1473.7
469.161	1502.86
469.534	1518.67
469.906	1557.77
470.278	1560.03
470.65	1580.82
471.022	1640.71
471.394	1672.79
471.766	1689.29
472.138	1718.67
472.51	1763.87
472.882	1816.52
473.253	1810.19
473.625	1866.24
473.997	1908.95
474.369	1927.7
474.74	1978.1
475.112	1997.08
475.484	2049.06
475.855	2109.39
476.227	2104.2
476.598	2233.68
476.97	2230.97
477.341	2293.57
477.713	2374.92
478.084	2392.55
478.455	2501.7
478.827	2534.24
479.198	2604.75
479.569	2682.49
479.94	2768.13
480.311	2794.57
480.682	2904.4
481.053	2973.55
481.424	3078.41
481.795	3112.76
482.166	3199.08
482.537	3257.61
482.908	3370.38
483.279	3416.7
483.65	3529.92
484.021	3711.16
484.391	3738.05
484.762	3798.84
485.133	3883.58
485.503	4025.5
485.874	4102.11
486.244	4212.84
486.615	4346.62
486.985	4428.43
487.356	4516.11
487.726	4622.55
488.097	4773.73
488.467	4857.12
488.837	5030.67
489.207	5103.67
489.578	5206.04
489.948	5305.92
490.318	5487.16
490.688	5556.08
491.058	5658.45
491.428	5826.81
491.798	5970.54
492.168	6095.05
492.538	6147.03
492.908	6288.49
493.278	6422.5
493.648	6504.53
494.017	6650.97
494.387	6737.07
494.757	6771.87
495.126	7036.04
495.496	7088.02
495.866	7179.54
496.235	7323.95
496.605	7396.94
496.974	7548.57
497.344	7600.1
497.713	7688.23
498.082	7836.02
498.452	7963.25
498.821	7987.66
499.19	8089.12
499.559	8219.52
499.928	8319.63
500.298	8409.57
500.667	8551.71
501.036	8563.01
501.405	8725.26
501.774	8737.69
502.143	8828.54
502.512	8920.74
502.88	9089.1
503.249	9059.04
503.618	9193.05
503.987	9248.42
504.356	9355.98
504.724	9387.85
505.093	9493.15
505.462	9530.44
505.83	9604.34
506.199	9698.12
506.567	9831.68
506.936	9753.49
507.304	9906.48
507.672	9984.67
508.041	10027.38
508.409	10108.51
508.777	10199.8
509.145	10287.26
509.514	10270.08
509.882	10346.92
510.25	10312.12
510.618	10475.28
510.986	10474.37
511.354	10628.72
511.722	10567.48
512.09	10760.47
512.458	10675.27
512.826	10789.17
513.193	10802.5
513.561	10868.26
513.929	10949.16
514.297	10967.01
514.664	11066.9
515.032	11066.67
515.4	11082.94
515.767	11120.68
516.135	11200.45
516.502	11147.12
516.869	11316.61
517.237	11335.59
517.604	11370.17
517.972	11414.46
518.339	11463.5
518.706	11504.63
519.073	11474.8
519.44	11547.79
519.808	11629.37
520.175	11569.71
520.542	11719.31
520.909	11752.08
521.276	11676.83
521.643	11745.07
522.009	11773.09
522.376	11806.99
522.743	11880.89
523.11	11987.78
523.477	12037.27
523.843	12058.28
524.21	12120.66
524.577	12168.56
524.943	12122.69
525.31	12188
525.676	12152.07
526.043	12217.15
526.409	12219.18
526.776	12286.75
527.142	12335.57
527.508	12309.35
527.874	12342.57
528.241	12412.63
528.607	12433.19
528.973	12509.12
529.339	12412.63
529.705	12483.58
530.071	12491.04
530.437	12445.62
530.803	12555.67
531.169	12492.62
531.535	12472.51
531.901	12538.95
532.267	12498.05
532.632	12534.43
532.998	12482
533.364	12572.17
533.73	12502.34
534.095	12556.8
534.461	12512.06
534.826	12586.63
535.192	12518.39
535.557	12606.74
535.923	12455.34
536.288	12525.84
536.653	12475.45
537.019	12511.38
537.384	12510.7
537.749	12471.16
538.114	12377.82
538.479	12382.34
538.845	12375.34
539.21	12384.38
539.575	12261.9
539.94	12293.31
540.305	12325.4
540.67	12294.21
541.034	12252.63
541.399	12187.55
541.764	12207.89
542.129	12213.53
542.494	12205.63
542.858	12235.23
543.223	12179.86
543.587	12228
543.952	12113.2
544.316	12102.35
544.681	12073.88
545.045	12069.58
545.41	12106.42
545.774	12068
546.138	11907.55
546.503	12017.61
546.867	11870.27
547.231	11997.5
547.595	11957.27
547.959	11912.98
548.324	11825.75
548.688	11822.58
549.052	11769.93
549.416	11763.15
549.779	11694.9
550.143	11750.27
550.507	11733.77
550.871	11749.37
551.235	11678.41
551.599	11683.38
551.962	11642.93
552.326	11612.87
552.689	11649.71
553.053	11582.59
553.417	11538.52
553.78	11663.72
554.143	11516.6
554.507	11621.01
554.87	11549.6
555.234	11604.96
555.597	11493.1
555.96	11497.62
556.323	11525.87
556.686	11438.19
557.05	11479.99
557.413	11450.62
557.776	11522.93
558.139	11489.94
558.502	11538.98
558.865	11495.36
559.228	11581.91
559.59	11537.85
559.953	11480.9
560.316	11604.06
560.679	11469.6
561.041	11528.81
561.404	11525.64
561.767	11560.22
562.129	11468.92
562.492	11593.44
562.854	11583.04
563.217	11531.97
563.579	11502.82
563.941	11592.31
564.304	11578.75
564.666	11608.35
565.028	11629.37
565.39	11666.66
565.753	11698.29
566.115	11657.39
566.477	11708.24
566.839	11639.31
567.201	11686.09
567.563	11696.49
567.925	11698.52
568.287	11714.34
568.648	11733.77
569.01	11733.32
569.372	11772.87
569.734	11734
570.095	11814.9
570.457	11843.6
570.819	11875.92
571.18	11799.53
571.542	11902.58
571.903	11827.1
572.265	11860.1
572.626	11872.3
572.987	11792.98
573.349	11801.34
573.71	11986.42
574.071	12001.79
574.432	12013.09
574.794	12077.95
575.155	12021
575.516	11915.92
575.877	11924.05
576.238	12008.34
576.599	12077.95
576.96	12002.24
577.32	11978.96
577.681	12040.43
578.042	11996.59
578.403	11937.38
578.763	11987.78
579.124	12019.87
579.485	12096.93
579.845	12061
580.206	12035.69
580.566	12090.37
580.927	12048.12
581.287	12075.46
581.648	12019.19
582.008	12136.47
582.368	12030.49
582.728	11978.51
583.089	12013.31
583.449	12034.78
583.809	12117.72
584.169	12067.32
584.529	12033.2
584.889	12042.01
585.249	12004.5
585.609	11978.29
585.969	12041.34
586.329	11933.99
586.688	12011.05
587.048	12041.79
587.408	11922.69
587.768	11927.67
588.127	11946.65
588.487	11880.89
588.846	11955.01
589.206	11858.52
589.565	11877.27
589.925	11953.2
590.284	11807.67
590.643	11945.29
591.003	11884.05
591.362	11904.84
591.721	11877.95
592.08	11979.42
592.44	11863.26
592.799	11916.59
593.158	11908.23
593.517	11842.02
593.876	11895.35
594.235	11850.38
594.593	11888.57
594.952	11878.4
595.311	11755.92
595.67	11804.96
596.029	11887.22
596.387	11925.63
596.746	11875.46
597.104	11799.31
597.463	11824.62
597.822	11835.01
598.18	11834.79
598.538	11755.24
598.897	11827.78
599.255	11732.87
599.613	11848.57
599.972	11810.16
600.33	11872.07
600.688	11788.69
601.046	11835.69
601.404	11819.19
601.762	11849.48
602.12	11935.8
602.478	11822.81
602.836	11925.63
603.194	11747.78
603.552	11833.66
603.91	11735.36
604.268	11876.82
604.625	11770.83
604.983	11872.3
605.341	11772.87
605.698	11790.5
606.056	11836.14
606.413	11811.29
606.771	11837.73
607.128	11851.06
607.485	11792.3
607.843	11882.47
608.2	11862.58
608.557	11871.4
608.914	11817.61
609.272	11810.61
609.629	12021.45
609.986	11978.51
610.343	11942.58
610.7	11983.03
611.057	11972.86
611.414	11987.33
611.771	11942.58
612.127	12029.58
612.484	11962.47
612.841	12079.08
613.198	12006.76
613.554	12001.56
613.911	12093.99
614.267	12102.58
614.624	11981.68
614.98	12033.43
615.337	12092.63
615.693	12042.47
616.05	12020.55
616.406	12173.08
616.762	12081.11
617.118	12081.33
617.475	12093.54
617.831	12075.46
618.187	12089.92
618.543	12161.78
618.899	12152.52
619.255	12232.74
619.611	12190.48
619.967	12092.41
620.323	12131.96
620.678	12114.78
621.034	12065.29
621.39	12115.01
621.746	12075.01
622.101	12252.63
622.457	12124.27
622.812	12149.13
623.168	12135.12
623.523	12217.6
623.879	12197.72
624.234	12138.28
624.589	12173.76
624.945	12187.77
625.3	12231.84
625.655	12195
626.01	12255.79
626.365	12170.82
626.72	12194.1
627.075	12170.37
627.43	12183.71
627.785	12099.41
628.14	12094.44
628.495	12221.22
628.85	12113.88
629.205	12110.03
629.559	12150.49
629.914	12149.36
630.269	12101
630.623	12077.27
630.978	12103.03
631.332	12100.54
631.687	12123.14
632.041	11986.42
632.396	12087.21
632.75	11976.03
633.104	12011.73
633.459	11949.81
633.813	11951.85
634.167	11944.39
634.521	11968.8
634.875	11935.35
635.229	11905.75
635.583	11948.68
635.937	11963.82
636.291	11841.34
636.645	11839.08
636.999	11811.29
637.352	11803.6
637.706	11818.06
638.06	11809.7
638.413	11844.5
638.767	11739.42
639.121	11769.03
639.474	11724.96
639.828	11678.63
640.181	11790.95
640.534	11741.68
640.888	11654.68
641.241	11637.05
641.594	11687.9
641.947	11708.01
642.301	11677.28
642.654	11773.32
643.007	11723.6
643.36	11636.37
643.713	11626.21
644.066	11715.02
644.419	11627.79
644.771	11537.39
645.124	11406.32
645.477	11455.14
645.83	11311.41
646.182	11267.12
646.535	11244.29
646.888	11356.38
647.24	11222.83
647.593	11297.4
647.945	11253.11
648.298	11144.86
648.65	11172.88
649.002	11122.04
649.355	11217.63
649.707	11225.31
650.059	11266.44
650.411	11394.8
650.763	11397.29
651.115	11521.58
651.467	11513.89
651.819	11489.71
652.171	11479.32
652.523	11442.93
652.875	11537.17
653.227	11477.96
653.578	11541.24
653.93	11465.31
654.282	11433.89
654.633	11452.42
654.985	11445.87
655.337	11455.14
655.688	11490.39
656.039	11534.23
656.391	11400.45
656.742	11417.4
657.094	11519.09
657.445	11521.8
657.796	11509.82
658.147	11501.92
658.498	11407.23
658.849	11475.02
659.2	11433.89
659.551	11314.58
659.902	11492.65
660.253	11426.89
660.604	11515.47
660.955	11468.02
661.306	11499.43
661.656	11457.62
662.007	11485.87
662.358	11532.87
662.708	11501.46
663.059	11487.9
663.409	11453.1
663.76	11503.5
664.11	11508.24
664.461	11430.73
664.811	11442.93
665.161	11521.58
665.511	11484.97
665.862	11512.31
666.212	11551.86
666.562	11556.6
666.912	11495.36
667.262	11506.89
667.612	11552.54
667.962	11530.61
668.312	11478.64
668.662	11566.32
669.011	11432.09
669.361	11534.91
669.711	11378.3
670.06	11461.69
670.41	11449.49
670.76	11453.33
671.109	11408.58
671.459	11501.24
671.808	11444.52
672.157	11459.66
672.507	11394.35
672.856	11450.62
673.205	11349.6
673.554	11428.92
673.904	11428.7
674.253	11433.89
674.602	11420.34
674.951	11213.79
675.3	11196.84
675.649	11367.68
675.998	11362.94
676.346	11337.17
676.695	11366.33
677.044	11283.39
677.393	11280.9
677.741	11355.7
678.09	11250.62
678.438	11267.34
678.787	11255.37
679.135	11268.93
679.484	11139.66
679.832	11214.47
680.181	11237.74
680.529	11245.88
680.877	11096.73
681.225	11097.63
681.573	11167.69
681.922	11123.39
682.27	11101.02
682.618	11094.92
682.966	11009.95
683.314	10964.75
683.661	11015.6
684.009	10937.64
684.357	10985.77
684.705	10881.82
685.053	10887.02
685.4	10879.78
685.748	10769.96
686.095	10787.81
686.443	10775.15
686.79	10749.17
687.138	10807.02
687.485	10763.63
687.832	10739.9
688.18	10745.32
688.527	10723.86
688.874	10638.66
689.221	10618.32
689.568	10549.17
689.915	10655.16
690.262	10560.02
690.609	10503.98
690.956	10486.57
691.303	10459.46
691.65	10386.46
691.997	10367.26
692.344	10329.97
692.69	10342.62
693.037	10387.59
693.383	10222.63
693.73	10171.55
694.077	10167.94
694.423	10136.98
694.769	10034.61
695.116	10061.27
695.462	10114.15
695.808	10007.49
696.155	10074.16
696.501	9969.3
696.847	9938.11
697.193	9904.44
697.539	9917.55
697.885	9846.82
698.231	9798.46
698.577	9737.89
698.923	9708.74
699.269	9757.33
699.614	9613.6
699.96	9625.58
700.306	9685.92
700.651	9503.78
700.997	9612.47
701.342	9522.08
701.688	9459.48
702.033	9498.13
702.379	9440.95
702.724	9379.03
703.069	9395.53
703.415	9305.81
703.76	9365.25
704.105	9225.59
704.45	9237.34
704.795	9180.85
705.14	9175.87
705.485	9210
705.83	9121.64
706.175	9106.27
706.52	9090.45
706.865	9020.62
707.209	9003.45
707.554	8959.61
707.899	9031.92
708.243	8955.54
708.588	8880.52
708.932	8848.2
709.277	8819.05
709.621	8915.77
709.966	8806.17
710.31	8809.56
710.654	8741.31
710.998	8786.05
711.342	8731.59
711.687	8762.1
712.031	8711.71
712.375	8670.8
712.719	8662.67
713.063	8572.95
713.407	8631.93
713.75	8598.94
714.094	8601.43
714.438	8568.88
714.782	8574.76
715.125	8509.23
715.469	8531.6
715.812	8458.38
716.156	8426.74
716.499	8466.29
716.843	8415.44
717.186	8421.32
717.53	8450.24
717.873	8435.33
718.216	8415.44
718.559	8411.6
718.902	8378.61
719.246	8378.38
719.589	8328.89
719.932	8270.14
720.275	8280.3
720.617	8299.29
720.96	8284.82
721.303	8332.28
721.646	8231.49
721.989	8221.32
722.331	8287.76
722.674	8261.77
723.016	8252.06
723.359	8218.61
723.701	8252.51
724.044	8210.48
724.386	8118.5
724.729	8246.86
725.071	8150.82
725.413	8142.91
725.755	8158.27
726.097	8135.9
726.439	8134.55
726.782	8113.08
727.124	8133.87
727.465	8078.28
727.807	8059.75
728.149	8119.18
728.491	8053.64
728.833	8113.08
729.175	8051.61
729.516	8008
729.858	8036.92
730.199	8063.81
730.541	8075.11
730.882	7996.92
731.224	8051.38
731.565	8029.46
731.906	8011.61
732.248	8057.71
732.589	7981.1
732.93	8034.44
733.271	8033.53
733.612	8047.99
733.953	8067.66
734.294	8064.72
734.635	7968.67
734.976	8067.2
735.317	8001.89
735.658	8027.43
735.999	8019.75
736.339	7992.85
736.68	8026.53
737.021	8072.4
737.361	8009.35
737.702	8051.61
738.042	8072.17
738.383	8047.32
738.723	8066.3
739.063	8162.79
739.404	8091.16
739.744	8107.2
740.084	8024.04
740.424	8068.56
740.764	8072.63
741.104	8165.96
741.444	8059.07
741.784	8110.82
742.124	8111.5
742.464	8087.32
742.804	8167.31
743.143	8165.51
743.483	8233.3
743.823	8127.99
744.162	8250.02
744.502	8235.79
744.841	8253.41
745.181	8377.25
745.52	8305.39
745.86	8370.7
746.199	8337.03
746.538	8337.03
746.877	8430.36
747.216	8538.6
747.556	8503.12
747.895	8541.54
748.234	8543.12
748.573	8569.11
748.911	8661.31
749.25	8723.01
749.589	8755.09
749.928	8827.86
750.267	8866.05
750.605	8911.02
750.944	8946.5
751.283	9019.27
751.621	9088.87
751.96	9131.58
752.298	9204.8
752.636	9318.7
752.975	9312.59
753.313	9427.62
753.651	9589.2
753.989	9634.85
754.327	9702.64
754.666	9783.54
755.004	9896.31
755.342	10089.97
755.679	10130.2
756.017	10175.4
756.355	10299.69
756.693	10411.32
757.031	10593.69
757.368	10625.78
757.706	10785.32
758.044	10862.38
758.381	10957.97
758.719	11156.16
759.056	11269.38
759.394	11343.05
759.731	11483.61
760.068	11649.03
760.405	11746.2
760.743	11892.41
761.08	11966.31
761.417	12125.18
761.754	12325.17
762.091	12388.22
762.428	12520.87
762.765	12527.42
763.102	12823.91
763.438	12844.48
763.775	12923.8
764.112	13170.12
764.449	13317.69
764.785	13424.35
765.122	13465.03
765.458	13646.72
765.795	13742.31
766.131	13852.36
766.467	14019.14
766.804	14148.17
767.14	14226.14
767.476	14272.92
767.812	14401.27
768.148	14543.42
768.485	14592
768.821	14674.94
769.157	14765.78
769.492	14862.96
769.828	14942.95
770.164	14999.45
770.5	15036.74
770.836	15138.88
771.171	15143.85
771.507	15234.25
771.842	15284.87
772.178	15318.99
772.513	15503.84
772.849	15455.71
773.184	15561.7
773.519	15671.3
773.855	15736.38
774.19	15720.56
774.525	15733.22
774.86	15842.37
775.195	15962.36
775.53	15974.11
775.865	15903.61
776.2	15863.16
776.535	15910.84
776.87	15860.9
777.205	15948.35
777.539	16054.11
777.874	16073.32
778.209	15978.41
778.543	16046.65
778.878	15977.73
779.212	15994.45
779.547	15948.13
779.881	16090.49
780.215	16089.82
780.55	16073.55
780.884	16040.78
781.218	16063.6
781.552	16139.76
781.886	16081.23
782.22	16014.56
782.554	16011.63
782.888	15877.85
783.222	15952.65
783.556	15935.47
783.889	16026.54
784.223	15840.56
784.557	15857.28
784.89	16013.89
785.224	15902.25
785.557	15832.87
785.891	15831.07
786.224	15799.88
786.558	15885.75
786.891	15723.27
787.224	15695.03
787.557	15675.36
787.891	15742.03
788.224	15757.62
788.557	15772.99
788.89	15649.38
789.223	15677.85
789.556	15547.68
789.888	15592.88
790.221	15528.93
790.554	15416.39
790.887	15504.3
791.219	15425.43
791.552	15469.72
791.884	15416.39
792.217	15447.57
792.549	15283.74
792.882	15179.56
793.214	15165.32
793.546	15210.97
793.879	15092.78
794.211	15076.74
794.543	15122.16
794.875	15075.38
795.207	15200.57
795.539	15075.83
795.871	15067.92
796.203	14944.08
796.535	14896.4
796.867	14933.01
797.198	14867.7
797.53	14827.25
797.862	14757.2
798.193	14834.71
798.525	14788.61
798.856	14808.95
799.188	14679.46
799.519	14578.9
799.85	14522.17
800.182	14532.8
800.513	14572.79
800.844	14411.67
801.175	14452.35
801.506	14470.88
801.837	14460.26
802.168	14373.93
802.499	14379.58
802.83	14201.28
803.161	14249.64
803.491	14255.97
803.822	14222.75
804.153	14156.08
804.483	14036.54
804.814	14023.43
805.145	14033.83
805.475	14014.39
805.805	14027.72
806.136	13986.14
806.466	13994.73
806.796	13887.84
807.126	13772.36
807.457	13790.89
807.787	13761.97
808.117	13763.32
808.447	13710.22
808.777	13715.42
809.107	13690.11
809.436	13611.46
809.766	13679.94
810.096	13580.05
810.426	13565.14
810.755	13573.95
811.085	13531.47
811.414	13448.53
811.744	13399.49
812.073	13313.84
812.403	13358.82
812.732	13307.52
813.061	13309.1
813.39	13212.83
813.719	13140.97
814.049	13279.72
814.378	13291.7
814.707	13114.08
815.036	13140.52
815.365	13071.14
815.693	12974.19
816.022	13034.98
816.351	12942.78
816.68	12914.08
817.008	12988.66
817.337	12853.07
817.665	12861.2
817.994	12804.25
818.322	12860.3
818.651	12827.08
818.979	12740.3
819.307	12824.14
819.636	12661.43
819.964	12692.17
820.292	12718.38
820.62	12749.79
820.948	12636.57
821.276	12639.51
821.604	12603.13
821.932	12658.27
822.259	12653.07
822.587	12643.58
822.915	12606.74
823.243	12703.92
823.57	12707.76
823.898	12644.94
824.225	12563.36
824.553	12612.17
824.88	12606.07
825.207	12659.4
825.535	12559.51
825.862	12680.42
826.189	12664.6
826.516	12677.03
826.843	12722.9
827.17	12751.37
827.497	12715.44
827.824	12717.93
828.151	12708.66
828.478	12633.86
828.805	12757.7
829.131	12713.63
829.458	12642.68
829.785	12586.41
830.111	12660.3
830.438	12759.51
830.764	12722.22
831.09	12593.19
831.417	12626.86
831.743	12681.77
832.069	12620.08
832.395	12604.94
832.722	12588.67
833.048	12568.33
833.374	12641.55
833.7	12538.27
834.026	12590.7
834.351	12643.13
834.677	12549.12
835.003	12574.88
835.329	12490.14
835.654	12566.07
835.98	12526.97
836.306	12498.05
836.631	12456.69
836.956	12456.47
837.282	12471.38
837.607	12361.78
837.932	12371.27
838.258	12428.67
838.583	12347.32
838.908	12294.89
839.233	12341.44
839.558	12328.79
839.883	12289.69
840.208	12215.79
840.533	12183.48
840.858	12264.61
841.182	12162.01
841.507	12243.36
841.832	12142.8
842.156	12093.99
842.481	12058.96
842.805	12014.22
843.13	12054.67
843.454	12102.8
843.778	11913.66
844.103	11964.28
844.427	11931.73
844.751	11982.81
845.075	11886.31
845.399	11818.06
845.723	11758.18
846.047	11895.13
846.371	11798.4
846.695	11775.81
847.019	11576.26
847.343	11573.33
847.666	11493.1
847.99	11473.67
848.313	11511.86
848.637	11336.72
848.96	11422.14
849.284	11349.83
849.607	11313.9
849.931	11256.72
850.254	11249.27
850.577	11095.6
850.9	11022.61
851.223	11005.2
851.546	11015.83
851.869	10873.68
852.192	10986.9
852.515	10911.42
852.838	10833.46
853.161	10822.84
853.483	10702.16
853.806	10645.44
854.129	10786.23
854.451	10655.38
854.774	10624.88
855.096	10600.24
855.419	10530.19
855.741	10510.3
856.063	10444.77
856.385	10434.6
856.708	10422.85
857.03	10346.24
857.352	10426.01
857.674	10362.06
857.996	10333.58
858.318	10249.07
858.64	10278.22
858.961	10216.75
859.283	10120.03
859.605	10097.21
859.926	10117.54
860.248	10147.83
860.57	10029.86
860.891	10061.5
861.212	10000.03
861.534	9974.5
861.855	9995.74
862.176	10015.17
862.498	9910.09
862.819	9963.65
863.14	9944.89
863.461	9904.89
863.782	9769.76
864.103	9870.77
864.424	9809.76
864.745	9846.59
865.065	9800.72
865.386	9789.19
865.707	9815.86
866.027	9739.48
866.348	9761.62
866.668	9677.1
866.989	9649.53
867.309	9625.58
867.63	9676.43
867.95	9721.17
868.27	9619.48
868.59	9600.72
868.91	9584.9
869.23	9572.7
869.55	9537.45
869.87	9597.33
870.19	9638.69
870.51	9537.9
870.83	9489.76
871.15	9524.57
871.469	9449.77
871.789	9518.69
872.109	9419.26
872.428	9414.96
872.748	9390.78
873.067	9455.64
873.386	9456.32
873.706	9450.44
874.025	9340.16
874.344	9317.11
874.663	9299.26
874.982	9329.54
875.301	9374.74
875.62	9236.89
875.939	9259.04
876.258	9327.28
876.577	9266.04
876.896	9225.14
877.214	9143.11
877.533	9122.32
877.852	9183.78
878.17	9199.38
878.489	9195.99
878.807	9181.98
879.125	9074.86
879.444	9110.11
879.762	9057.23
880.08	9043
880.398	9065.59
880.716	9064.01
881.034	9045.71
881.352	9055.88
881.67	8981.53
881.988	9014.07
882.306	8972.49
882.624	8974.98
882.941	8849.78
883.259	8841.19
883.577	8809.33
883.894	8833.96
884.212	8852.27
884.529	8797.81
884.846	8738.37
885.164	8767.75
885.481	8730.01
885.798	8740.86
886.115	8713.51
886.432	8699.73
886.75	8660.86
887.067	8683.23
887.383	8619.05
887.7	8629.22
888.017	8532.5
888.334	8535.89
888.651	8602.33
888.967	8491.82
889.284	8524.14
889.6	8471.26
889.917	8390.81
890.233	8408.44
890.55	8353.3
890.866	8427.19
891.182	8313.98
891.498	8248.89
891.815	8338.83
892.131	8278.95
892.447	8253.64
892.763	8252.96
893.079	8132.51
893.395	8180.87
893.71	8151.04
894.026	8125.28
894.342	8128.67
894.657	8025.4
894.973	7973.65
895.289	8027.2
895.604	8049.12
895.92	7950.82
896.235	7951.73
896.55	7864.5
896.865	7937.49
897.181	7864.5
897.496	7879.41
897.811	7818.62
898.126	7826.98
898.441	7733.88
898.756	7733.2
899.071	7673.09
899.386	7662.69
899.7	7616.82
900.015	7582.47
900.33	7539.53
900.644	7492.75
900.959	7584.73
901.273	7565.97
901.588	7432.87
901.902	7459.76
902.216	7377.96
902.531	7423.15
902.845	7443.49
903.159	7295.02
903.473	7305.19
903.787	7311.52
904.101	7241.69
904.415	7250.28
904.729	7227.23
905.042	7142.26
905.356	7097.96
905.67	7118.3
905.984	7099.09
906.297	7096.83
906.611	7047.12
906.924	6993.79
907.237	7040.79
907.551	6949.04
907.864	6919.44
908.177	6909.27
908.491	6911.53
908.804	6808.03
909.117	6847.12
909.43	6740.23
909.743	6716.96
910.056	6754.7
910.368	6703.85
910.681	6724.19
910.994	6637.86
911.307	6586.11
911.619	6555.83
911.932	6550.18
912.244	6540.24
912.557	6534.81
912.869	6450.97
913.181	6493.01
913.494	6429.28
913.806	6405.1
914.118	6399.22
914.43	6352.22
914.742	6348.83
915.054	6307.02
915.366	6270.87
915.678	6325.78
915.99	6217.31
916.302	6217.53
916.613	6187.48
916.925	6144.99
917.236	6172.11
917.548	6100.93
917.859	6092.11
918.171	6060.02
918.482	6091.66
918.794	6023.19
919.105	5991.33
919.416	5922.63
919.727	5949.29
920.038	5921.72
920.349	5909.07
920.66	5879.24
920.971	5873.81
921.282	5904.55
921.593	5802.86
921.903	5756.98
922.214	5794.49
922.525	5741.61
922.835	5693.93
923.146	5720.37
923.456	5601.96
923.767	5658.45
924.077	5605.8
924.387	5616.65
924.697	5577.1
925.008	5582.52
925.318	5501.85
925.628	5571.45
925.938	5512.92
926.248	5446.93
926.558	5447.61
926.867	5408.06
927.177	5394.05
927.487	5356.99
927.796	5351.12
928.106	5356.99
928.416	5361.96
928.725	5262.76
929.034	5256.88
929.344	5269.08
929.653	5244.68
929.962	5186.6
930.271	5148.64
930.581	5131.24
930.89	5153.83
931.199	5124
931.508	5100.28
931.817	5123.55
932.125	5035.19
932.434	4984.35
932.743	5009.88
933.051	4999.71
933.36	4920.39
933.669	4924.01
933.977	4881.52
934.286	4907.51
934.594	4898.7
934.902	4844.46
935.21	4808.31
935.519	4772.83
935.827	4831.58
936.135	4783.67
936.443	4737.8
936.751	4697.8
937.059	4779.61
937.367	4731.92
937.674	4712.72
937.982	4694.18
938.29	4616.45
938.597	4634.75
938.905	4583.45
939.213	4543.23
939.52	4604.7
939.827	4564.02
940.135	4545.49
940.442	4511.36
940.749	4484.02
941.056	4477.24
941.363	4448.09
941.67	4427.75
941.977	4383.23
942.284	4404.93
942.591	4375.1
942.898	4331.71
943.205	4363.35
943.511	4331.93
943.818	4307.98
944.125	4276.79
944.431	4292.61
944.738	4255.1
945.044	4214.2
945.35	4238.15
945.657	4182.79
945.963	4171.03
946.269	4188.44
946.575	4164.71
946.881	4121.77
947.187	4094.88
947.493	4063.92
947.799	4060.75
948.105	4087.42
948.41	4054.65
948.716	3997.48
949.022	3986.41
949.327	4022.11
949.633	3955.9
949.938	3992.51
950.244	3937.14
950.549	3933.53
950.854	3884.26
951.16	3857.82
951.465	3892.62
951.77	3862.57
952.075	3825.05
952.38	3823.47
952.685	3793.42
952.99	3813.98
953.294	3753.42
953.599	3749.8
953.904	3719.52
954.209	3728.11
954.513	3705.51
954.818	3687.66
955.122	3690.82
955.426	3682.91
955.731	3660.54
956.035	3621.9
956.339	3629.58
956.643	3637.94
956.948	3575.34
957.252	3562.46
957.556	3566.98
957.86	3547.55
958.163	3564.27
958.467	3537.83
958.771	3524.05
959.075	3518.4
959.378	3433.88
959.682	3479.3
959.985	3449.25
960.289	3439.53
960.592	3399.53
960.896	3402.24
961.199	3412.64
961.502	3388.91
961.805	3341.9
962.108	3333.99
962.411	3352.52
962.714	3313.88
963.017	3291.06
963.32	3267.56
963.623	3263.49
963.926	3289.02
964.228	3211.06
964.531	3232.08
964.833	3208.35
965.136	3218.97
965.438	3134.68
965.741	3130.38
966.043	3164.51
966.345	3157.28
966.648	3150.04
966.95	3130.38
967.252	3129.93
967.554	3104.85
967.856	3068.46
968.158	3089.71
968.46	3054
968.761	3081.8
969.063	3083.38
969.365	3006.32
969.666	3008.58
969.968	2995.47
970.269	2978.52
970.571	2981.24
970.872	3004.06
971.174	2935.59
971.475	2919.32
971.776	2940.56
972.077	2912.54
972.378	2914.34
972.679	2901.69
972.98	2844.52
973.281	2868.24
973.582	2857.85
973.883	2848.36
974.183	2840.9
974.484	2799.77
974.785	2830.5
975.085	2794.57
975.386	2775.59
975.686	2732.88
975.986	2752.09
976.287	2767.68
976.587	2742.6
976.887	2674.8
977.187	2710.96
977.487	2646.1
977.787	2667.8
978.087	2680.9
978.387	2652.66
978.687	2630.28
978.987	2652.43
979.286	2643.39
979.586	2601.13
979.885	2571.53
980.185	2603.62
980.484	2568.14
980.784	2553.22
981.083	2523.39
981.382	2561.81
981.682	2516.16
981.981	2518.42
982.28	2490.17
982.579	2469.38
982.878	2498.08
983.177	2496.28
983.475	2453.11
983.774	2439.78
984.073	2472.32
984.372	2433.45
984.67	2417.18
984.969	2414.92
985.267	2427.8
985.566	2390.29
985.864	2395.04
986.162	2372.89
986.461	2407.01
986.759	2355.94
987.057	2330.18
987.355	2331.31
987.653	2347.58
987.951	2294.02
988.249	2283.63
988.547	2276.85
988.844	2293.8
989.142	2246.79
989.44	2294.93
989.737	2271.2
990.035	2214.93
990.332	2219.9
990.63	2222.61
990.927	2201.59
991.224	2194.59
991.521	2241.14
991.819	2203.85
992.116	2170.86
992.413	2155.72
992.71	2148.71
993.006	2123.63
993.303	2139.68
993.6	2109.39
993.897	2126.57
994.193	2097.64
994.49	2103.74
994.787	2080.47
995.083	2033.92
995.379	2051.54
995.676	2029.85
995.972	2041.37
996.268	2061.26
996.565	2021.26
996.861	1988.04
997.157	1997.76
997.453	1998.21
997.749	1983.07
998.044	1974.48
998.34	1964.09
998.636	1954.82
998.932	1961.37
999.227	1920.7
999.523	1908.27
999.818	1914.14
1000.114	1881.38
1000.409	1865.78
1000.704	1879.57
1001	1896.97
1001.295	1917.99
1001.59	1868.27
1001.885	1847.25
1002.18	1836.18
1002.475	1849.97
1002.77	1832.34
1003.065	1812.23
1003.359	1832.11
1003.654	1786.24
1003.949	1773.36
1004.243	1788.72
1004.538	1757.76
1004.832	1770.87
1005.127	1730.19
1005.421	1720.93
1005.715	1734.49
1006.009	1699.69
1006.304	1703.08
1006.598	1683.42
1006.892	1701.04
1007.186	1667.82
1007.48	1668.28
1007.773	1641.61
1008.067	1629.63
1008.361	1611.55
1008.655	1619.24
1008.948	1600.93
1009.242	1611.1
1009.535	1609.29
1009.829	1593.7
1010.122	1579.92
1010.415	1598.45
1010.708	1554.61
1011.001	1538.34
1011.295	1572.46
1011.588	1541.27
1011.881	1541.72
1012.173	1552.12
1012.466	1519.13
1012.759	1538.56
1013.052	1499.92
1013.344	1482.29
1013.637	1489.97
1013.93	1473.93
1014.222	1458.56
1014.514	1476.19
1014.807	1456.76
1015.099	1447.72
1015.391	1445.91
1015.683	1422.18
1015.976	1433.48
1016.268	1424.44
1016.56	1384.67
1016.851	1373.37
1017.143	1375.4
1017.435	1377.44
1017.727	1390.32
1018.018	1363.2
1018.31	1356.42
1018.602	1340.37
1018.893	1333.14
1019.185	1332.24
1019.476	1296.76
1019.767	1312.13
1020.058	1299.92
1020.35	1324.33
1020.641	1281.39
1020.932	1287.72
1021.223	1273.03
1021.514	1259.47
1021.804	1258.12
1022.095	1264.67
1022.386	1230.77
1022.677	1235.29
1022.967	1209.76
1023.258	1238.23
1023.548	1217.21
1023.839	1218.8
1024.129	1206.82
1024.419	1209.76
1024.709	1174.73
1025	1185.12
1025.29	1172.47
1025.58	1159.36
1025.87	1152.13
1026.16	1177.44
1026.449	1125.01
1026.739	1146.93
1027.029	1111.23
1027.319	1125.69
1027.608	1094.73
1027.898	1118.23
1028.187	1106.48
1028.477	1066.71
1028.766	1107.84
1029.055	1078.46
1029.344	1053.15
1029.634	1041.4
1029.923	1047.95
1030.212	1038.46
1030.501	1030.1
1030.79	1021.51
1031.078	1024.22
1031.367	1012.7
1031.656	997.11
1031.945	1011.34
1032.233	984.68
1032.522	1001.4
1032.81	989.2
1033.099	970.44
1033.387	981.29
1033.675	964.11
1033.963	985.36
1034.251	946.03
1034.54	973.15
1034.828	948.52
1035.116	961.18
1035.403	918.69
1035.691	943.1
1035.979	911.91
1036.267	929.76
1036.554	887.73
1036.842	913.27
1037.129	925.7
1037.417	914.4
1037.704	873.27
1037.992	858.58
1038.279	905.36
1038.566	891.12
1038.853	891.12
1039.14	891.12
