Data from hue_10_FLMS001491_71.txt Node
Date: Mon Feb 06 15:32:30 GMT 2017
User: dcchb
Spectrometer: FLMS00149
Trigger mode: 0
Integration Time (sec): 2.000000E-2
Scans to average: 10
Electric dark correction enabled: true
Nonlinearity correction enabled: false
Boxcar width: 0
XAxis mode: Wavelengths
Number of Pixels in Spectrum: 2048
>>>>>Begin Spectral Data<<<<<
341.393	-5.01
341.776	-5.01
342.16	-5.01
342.543	-37.56
342.927	-75.29
343.31	-64
343.693	-62.19
344.077	-63.09
344.46	-73.03
344.843	-43.43
345.226	-36.43
345.61	-43.43
345.993	-20.83
346.376	-16.31
346.759	17.58
347.142	38.83
347.525	26.17
347.908	67.53
348.291	82.22
348.674	91.25
349.057	99.16
349.44	128.32
349.823	142.33
350.206	150.46
350.588	190.46
350.971	205.15
351.354	220.29
351.737	253.28
352.119	280.4
352.502	248.54
352.884	281.53
353.267	287.63
353.65	297.35
354.032	298.93
354.414	299.16
354.797	303
355.179	336.67
355.562	323.56
355.944	332.6
356.326	340.06
356.709	348.42
357.091	346.62
357.473	351.59
357.855	370.12
358.238	359.72
358.62	337.35
359.002	353.62
359.384	329.44
359.766	344.58
360.148	327.18
360.53	363.11
360.912	346.39
361.294	340.97
361.676	326.73
362.057	333.06
362.439	306.62
362.821	327.86
363.203	318.37
363.584	320.18
363.966	326.28
364.348	323.34
364.729	319.72
365.111	322.21
365.493	315.88
365.874	315.66
366.256	309.1
366.637	314.98
367.019	307.97
367.4	327.41
367.781	311.36
368.163	314.98
368.544	313.85
368.925	311.59
369.306	319.5
369.688	294.87
370.069	301.19
370.45	312.94
370.831	324.47
371.212	317.46
371.593	303
371.974	302.77
372.355	331.47
372.736	298.25
373.117	315.43
373.498	309.55
373.879	316.11
374.26	326.28
374.641	307.75
375.021	322.66
375.402	312.72
375.783	323.34
376.163	335.77
376.544	339.61
376.925	320.4
377.305	350.91
377.686	325.37
378.066	309.1
378.447	323.56
378.827	334.19
379.208	343.68
379.588	335.32
379.968	334.41
380.349	328.54
380.729	362.89
381.109	326.5
381.489	319.95
381.87	312.04
382.25	329.21
382.63	333.06
383.01	317.24
383.39	346.39
383.77	341.19
384.15	347.29
384.53	342.1
384.91	347.29
385.29	331.47
385.67	340.51
386.049	337.8
386.429	328.08
386.809	345.94
387.189	344.13
387.568	341.87
387.948	343.45
388.328	365.82
388.707	354.52
389.087	336.22
389.466	354.07
389.846	359.72
390.225	354.98
390.605	354.75
390.984	345.26
391.363	349.1
391.743	363.34
392.122	361.53
392.501	343.23
392.881	365.82
393.26	359.04
393.639	365.15
394.018	349.55
394.397	347.07
394.776	350.91
395.155	347.52
395.534	357.91
395.913	362.66
396.292	375.77
396.671	373.28
397.05	379.61
397.429	357.01
397.808	365.15
398.186	366.73
398.565	388.87
398.944	379.38
399.323	361.98
399.701	396.33
400.08	372.83
400.458	371.93
400.837	384.58
401.215	373.06
401.594	386.61
401.972	374.41
402.351	379.16
402.729	360.85
403.107	364.02
403.486	393.39
403.864	396.33
404.242	375.99
404.62	372.6
404.999	385.48
405.377	383.45
405.755	398.37
406.133	395.88
406.511	370.34
406.889	394.3
407.267	392.49
407.645	411.47
408.023	406.5
408.401	433.17
408.779	397.69
409.156	401.75
409.534	400.17
409.912	415.54
410.29	430.91
410.667	395.65
411.045	418.93
411.422	406.73
411.8	424.58
412.178	419.61
412.555	435.88
412.933	446.95
413.31	423.9
413.687	444.01
414.065	428.87
414.442	458.7
414.819	423
415.197	438.36
415.574	444.47
415.951	451.02
416.328	452.83
416.705	437.01
417.082	450.79
417.46	467.97
417.837	471.36
418.214	450.34
418.591	446.73
418.967	445.14
419.344	460.74
419.721	467.97
420.098	465.48
420.475	458.93
420.852	480.17
421.228	479.72
421.605	463.9
421.982	488.08
422.358	466.84
422.735	465.48
423.111	492.37
423.488	493.96
423.864	483.79
424.241	474.97
424.617	498.93
424.994	510.45
425.37	500.06
425.746	486.05
426.123	518.36
426.499	503
426.875	502.54
427.251	498.93
427.627	507.97
428.003	513.39
428.379	503
428.756	519.72
429.132	541.86
429.507	526.72
429.883	532.37
430.259	537.12
430.635	526.72
431.011	559.72
431.387	561.07
431.763	560.39
432.138	542.09
432.514	542.99
432.89	552.26
433.265	546.84
433.641	541.19
434.016	574.63
434.392	569.21
434.767	579.15
435.143	562.88
435.518	576.67
435.894	575.31
436.269	583.9
436.644	593.84
437.02	583.9
437.395	595.2
437.77	617.57
438.145	625.03
438.52	592.26
438.895	615.08
439.271	611.24
439.646	623.22
440.021	613.95
440.395	624.12
440.77	631.35
441.145	620.51
441.52	640.62
441.895	636.33
442.27	625.7
442.645	642.43
443.019	641.3
443.394	665.25
443.769	641.07
444.143	668.64
444.518	635.2
444.892	641.75
445.267	660.28
445.641	670.67
446.016	660.05
446.39	643.1
446.764	672.26
447.139	659.6
447.513	665.02
447.887	670
448.262	661.41
448.636	677.68
449.01	684.69
449.384	674.52
449.758	680.84
450.132	667.96
450.506	705.7
450.88	703.22
451.254	705.02
451.628	711.13
452.002	692.37
452.376	721.52
452.75	705.7
453.123	728.3
453.497	757.23
453.871	726.49
454.244	736.44
454.618	735.76
454.992	740.05
455.365	753.38
455.739	783.89
456.112	745.7
456.486	789.54
456.859	759.71
457.232	789.32
457.606	784.12
457.979	804.46
458.352	808.07
458.725	791.8
459.099	820.05
459.472	826.6
459.845	821.63
460.218	851.01
460.591	821.86
460.964	872.25
461.337	849.88
461.71	866.38
462.083	863.21
462.456	875.41
462.829	910.44
463.201	884
463.574	861.63
463.947	909.09
464.32	928.97
464.692	921.52
465.065	928.52
465.438	960.16
465.81	964.9
466.183	948.63
466.555	994.96
466.928	978.91
467.3	977.33
467.672	1027.73
468.045	1019.14
468.417	997.22
468.789	1042.42
469.161	1048.97
469.534	1056.88
469.906	1085.35
470.278	1092.36
470.65	1093.94
471.022	1124.67
471.394	1114.5
471.766	1154.5
472.138	1146.59
472.51	1152.24
472.882	1185.69
473.253	1209.42
473.625	1213.94
473.997	1246.48
474.369	1277.89
474.74	1269.53
475.112	1262.75
475.484	1292.35
475.855	1367.83
476.227	1356.76
476.598	1388.85
476.97	1403.99
477.341	1426.81
477.713	1455.29
478.084	1479.69
478.455	1523.08
478.827	1535.28
479.198	1601.72
479.569	1588.16
479.94	1650.08
480.311	1651.21
480.682	1689.63
481.053	1730.99
481.424	1726.47
481.795	1795.84
482.166	1815.73
482.537	1862.73
482.908	1895.5
483.279	1924.88
483.65	1953.35
484.021	1986.57
484.391	2060.47
484.762	2062.05
485.133	2070.41
485.503	2129.62
485.874	2156.74
486.244	2208.04
486.615	2240.8
486.985	2270.18
487.356	2314.02
487.726	2356.51
488.097	2402.15
488.467	2405.09
488.837	2468.37
489.207	2496.16
489.578	2550.63
489.948	2572.55
490.318	2600.79
490.688	2630.17
491.058	2702.94
491.428	2725.08
491.798	2776.61
492.168	2829.49
492.538	2822.48
492.908	2859.32
493.278	2913.1
493.648	2954
494.017	2980.9
494.387	3012.08
494.757	3065.64
495.126	3080.55
495.496	3127.78
495.866	3099.54
496.235	3167.33
496.605	3227.67
496.974	3209.14
497.344	3251.4
497.713	3280.78
498.082	3295.92
498.452	3312.19
498.821	3358.51
499.19	3361
499.559	3395.12
499.928	3410.94
500.298	3438.06
500.667	3483.48
501.036	3460.21
501.405	3529.81
501.774	3516.25
502.143	3563.71
502.512	3547.43
502.88	3635.57
503.249	3599.64
503.618	3661.78
503.987	3657.71
504.356	3667.66
504.724	3708.33
505.093	3731.16
505.462	3739.97
505.83	3747.88
506.199	3807.77
506.567	3827.88
506.936	3843.47
507.304	3855.68
507.672	3866.3
508.041	3857.94
508.409	3904.71
508.777	3910.14
509.145	3942
509.514	3951.04
509.882	3986.07
510.25	3975.45
510.618	4015.67
510.986	4038.72
511.354	4000.53
511.722	4031.49
512.09	4051.38
512.458	4042.56
512.826	4065.39
513.193	4085.5
513.561	4108.32
513.929	4085.05
514.297	4130.7
514.664	4181.32
515.032	4139.74
515.4	4177.02
515.767	4211.82
516.135	4203.24
516.502	4184.93
516.869	4245.72
517.237	4231.26
517.604	4269
517.972	4275.1
518.339	4285.04
518.706	4310.8
519.073	4292.5
519.44	4243.69
519.808	4321.2
520.175	4279.62
520.542	4360.07
520.909	4350.13
521.276	4318.26
521.643	4378.83
522.009	4364.81
522.376	4413.4
522.743	4388.32
523.11	4420.63
523.477	4430.8
523.843	4444.36
524.21	4509.44
524.577	4546.5
524.943	4569.78
525.31	4563.45
525.676	4582.89
526.043	4619.95
526.409	4561.19
526.776	4632.83
527.142	4649.1
527.508	4678.93
527.874	4708.53
528.241	4764.35
528.607	4741.3
528.973	4801.64
529.339	4714.64
529.705	4830.79
530.071	4887.29
530.437	4868.3
530.803	4847.74
531.169	4900.85
531.535	4870.56
531.901	4896.1
532.267	4962.31
532.632	4967.06
532.998	4978.13
533.364	5004.8
533.73	4998.92
534.095	5036.21
534.461	5070.56
534.826	5087.96
535.192	5095.19
535.557	5137.68
535.923	5148.07
536.288	5156.88
536.653	5166.83
537.019	5151.91
537.384	5191.69
537.749	5203.89
538.114	5248.41
538.479	5255.41
538.845	5249.76
539.21	5259.03
539.575	5301.51
539.94	5301.97
540.305	5336.31
540.67	5365.01
541.034	5381.74
541.399	5480.04
541.764	5428.74
542.129	5474.39
542.494	5486.14
542.858	5542.41
543.223	5532.69
543.587	5599.13
543.952	5585.35
544.316	5619.02
544.681	5586.48
545.045	5635.29
545.41	5666.7
545.774	5720.49
546.138	5761.39
546.503	5708.73
546.867	5765.46
547.231	5815.17
547.595	5788.73
547.959	5808.84
548.324	5844.32
548.688	5836.87
549.052	5913.25
549.416	5885
549.779	5911.67
550.143	5881.84
550.507	5950.76
550.871	6011.32
551.235	5949.63
551.599	6086.13
551.962	6077.54
552.326	6063.98
552.689	6041.83
553.053	6084.09
553.417	6116.18
553.78	6135.62
554.143	6133.13
554.507	6112.34
554.87	6215.61
555.234	6218.55
555.597	6180.13
555.96	6271.88
556.323	6266.23
556.686	6270.75
557.05	6292.67
557.413	6287.7
557.776	6269.4
558.139	6361.15
558.502	6359.79
558.865	6356.63
559.228	6444.08
559.59	6382.39
559.953	6400.02
560.316	6454.93
560.679	6388.49
561.041	6528.37
561.404	6492.22
561.767	6577.64
562.129	6536.51
562.492	6574.02
562.854	6632.1
563.217	6612.21
563.579	6634.81
563.941	6624.64
564.304	6631.42
564.666	6706.9
565.028	6726.56
565.39	6728.59
565.753	6745.99
566.115	6786.45
566.477	6800
566.839	6793.9
567.201	6889.04
567.563	6793
567.925	6887.91
568.287	6927.23
568.648	6921.58
569.01	6946.67
569.372	7030.51
569.734	7002.49
570.095	7089.94
570.457	7100.34
570.819	7130.39
571.18	7126.32
571.542	7158.41
571.903	7148.92
572.265	7273.66
572.626	7308.47
572.987	7310.73
573.349	7359.76
573.71	7436.82
574.071	7463.49
574.432	7503.94
574.794	7570.83
575.155	7598.85
575.516	7668.68
575.877	7755.69
576.238	7810.6
576.599	7923.14
576.96	7941.9
577.32	8094.89
577.681	8192.28
578.042	8250.14
578.403	8366.52
578.763	8410.13
579.124	8499.4
579.485	8635.89
579.845	8713.85
580.206	8854.41
580.566	8977.8
580.927	9081.3
581.287	9288.07
581.648	9355.19
582.008	9571.23
582.368	9674.73
582.728	9876.08
583.089	10003.08
583.449	10183.42
583.809	10373.02
584.169	10648.04
584.529	10774.82
584.889	11104.3
585.249	11197.86
585.609	11429.49
585.969	11687.33
586.329	11923.26
586.688	12134.78
587.048	12387.2
587.408	12645.05
587.768	12929.34
588.127	13211.59
588.487	13399.61
588.846	13862.64
589.206	13955.97
589.565	14315.06
589.925	14706.92
590.284	15020.35
590.643	15357.07
591.003	15698.3
591.362	16024.17
591.721	16236.59
592.08	16630.93
592.44	17063.69
592.799	17406.51
593.158	17744.35
593.517	18049.88
593.876	18397.67
594.235	18794.49
594.593	19119.23
594.952	19574.36
595.311	19802.83
595.67	20227.67
596.029	20669.24
596.387	21116.92
596.746	21504.48
597.104	21720.52
597.463	22090.45
597.822	22597.78
598.18	22885.68
598.538	23185.11
598.897	23780.35
599.255	23979.44
599.613	24711.17
599.972	24764.73
600.33	25238.16
600.688	25432.74
601.046	25875.21
601.404	26531.69
601.762	26749.99
602.12	27167.83
602.478	27537.31
602.836	27761.26
603.194	27985.66
603.552	28471.3
603.91	28667
604.268	29202.13
604.625	29332.52
604.983	29759.18
605.341	29988.77
605.698	30464.69
606.056	30673.05
606.413	31058.58
606.771	31574.95
607.128	31851.32
607.485	31934.26
607.843	32295.61
608.2	32844.74
608.557	33008.58
608.914	33270.95
609.272	33624.84
609.629	33970.82
609.986	34394.53
610.343	34387.75
610.7	34890.57
611.057	35052.37
611.414	35285.58
611.771	35589.53
612.127	35997.88
612.484	36088.27
612.841	36472.44
613.198	36534.82
613.554	36878.99
613.911	37197.62
614.267	37270.39
614.624	37557.16
614.98	37870.15
615.337	38043.03
615.693	38255
616.05	38457.25
616.406	38752.39
616.762	38907.41
617.118	39016.78
617.475	39195.76
617.831	39460.61
618.187	39704.22
618.543	39788.29
618.899	40096.76
619.255	40295.17
619.611	40379.69
619.967	40571.55
620.323	40944.42
620.678	40878.2
621.034	40880.24
621.39	41030.07
621.746	41176.5
622.101	41542.59
622.457	41420.11
622.812	41703.27
623.168	41858.97
623.523	41982.13
623.879	42286.3
624.234	41999.98
624.589	42355.68
624.945	42239.75
625.3	42555.67
625.655	42439.52
626.01	42806.52
626.365	42785.73
626.72	42871.82
627.075	42964.03
627.43	43064.36
627.785	43027.75
628.14	43229.78
628.495	43370.12
628.85	43354.75
629.205	43293.96
629.559	43648.53
629.914	43459.38
630.269	43642.65
630.623	43584.12
630.978	43486.27
631.332	43762.65
631.687	43782.76
632.041	43655.31
632.396	43842.65
632.75	43638.13
633.104	43768.98
633.459	43657.79
633.813	43607.4
634.167	43816.66
634.521	43880.16
634.875	43925.36
635.229	43955.64
635.583	43665.25
635.937	43803.1
636.291	43892.81
636.645	43982.76
636.999	43823.89
637.352	43938.24
637.706	43751.8
638.06	43962.87
638.413	43893.72
638.767	43727.4
639.121	44095.75
639.474	43832.25
639.828	43761.07
640.181	43964.9
640.534	43869.09
640.888	43782.08
641.241	43713.61
641.594	43799.48
641.947	43862.08
642.301	43783.21
642.654	43946.6
643.007	43841.29
643.36	43862.08
643.713	43793.38
644.066	43925.58
644.419	43672.26
644.771	43491.7
645.124	43062.1
645.477	43222.32
645.83	42823.46
646.182	42716.8
646.535	42629.35
646.888	42841.77
647.24	42517.26
647.593	42856.46
647.945	42683.36
648.298	42554.54
648.65	42384.15
649.002	42317.94
649.355	42502.34
649.707	42383.48
650.059	42531.27
650.411	43165.6
650.763	43137.35
651.115	43559.26
651.467	43434.75
651.819	43472.03
652.171	43438.82
652.523	43287.63
652.875	43300.74
653.227	43341.42
653.578	43495.09
653.93	43384.13
654.282	43107.52
654.633	43146.62
654.985	43420.96
655.337	43259.61
655.688	43288.54
656.039	43335.99
656.391	43131.93
656.742	43217.58
657.094	43108.2
657.445	43319.72
657.796	43213.74
658.147	42984.36
658.498	43100.75
658.849	43208.99
659.2	43107.3
659.551	43015.55
659.902	43198.6
660.253	43071.59
660.604	43050.58
660.955	42864.59
661.306	43077.24
661.656	42904.37
662.007	43049
662.358	43042.89
662.708	42925.16
663.059	42932.39
663.409	42716.57
663.76	43165.38
664.11	42877.25
664.461	43125.6
664.811	42972.39
665.161	43062.55
665.511	42855.55
665.862	42968.77
666.212	42973.97
666.562	43030.46
666.912	42982.33
667.262	42820.75
667.612	42925.38
667.962	42949.34
668.312	42879.06
668.662	42995.89
669.011	42844.71
669.361	42801.77
669.711	42733.75
670.06	42747.31
670.41	42605.39
670.76	42727.87
671.109	42783.47
671.459	42874.08
671.808	42790.24
672.157	42781.21
672.507	42529.91
672.856	42599.52
673.205	42717.7
673.554	42749.12
673.904	42465.73
674.253	42731.04
674.602	42623.92
674.951	41984.39
675.3	41820.1
675.649	42537.14
675.998	42478.84
676.346	42498.28
676.695	42515.68
677.044	42346.87
677.393	42415.11
677.741	42487.2
678.09	42329.92
678.438	42235.68
678.787	42376.24
679.135	42334.89
679.484	42107.78
679.832	42242.46
680.181	42005.86
680.529	42035.01
680.877	41952.53
681.225	41872.75
681.573	42088.34
681.922	41905.07
682.27	41723.15
682.618	41802.25
682.966	41621.69
683.314	41671.63
683.661	41539.66
684.009	41408.81
684.357	41425.54
684.705	41208.37
685.053	41532.88
685.4	41312.77
685.748	41099.67
686.095	41039.78
686.443	40908.94
686.79	41035.26
687.138	41001.37
687.485	41031.2
687.832	40887.47
688.18	40728.83
688.527	40564.09
688.874	40635.5
689.221	40412.45
689.568	40567.93
689.915	40431.44
690.262	40362.74
690.609	40317.09
690.956	40096.53
691.303	40198.22
691.65	40088.85
691.997	40064.21
692.344	39739.48
692.69	39745.58
693.037	39706.26
693.383	39425.59
693.73	39546.49
694.077	39327.06
694.423	39363.67
694.769	39203.45
695.116	39169.78
695.462	39095.43
695.808	38948.99
696.155	39145.37
696.501	38755.77
696.847	38668.77
697.193	38475.1
697.539	38600.75
697.885	38369.57
698.231	38258.39
698.577	38370.02
698.923	38243.02
699.269	38026.08
699.614	37974.78
699.96	37638.74
700.306	37824.27
700.651	37611.17
700.997	37535.02
701.342	37488.92
701.688	37476.03
702.033	37326.43
702.379	37210.73
702.724	37169.15
703.069	37265.64
703.415	36862.27
703.76	36756.51
704.105	36797.86
704.45	36689.16
704.795	36492.11
705.14	36306.35
705.485	36346.12
705.83	36345.44
706.175	36398.77
706.52	36252.56
706.865	36287.37
707.209	36051.21
707.554	35940.71
707.899	36074.26
708.243	35830.65
708.588	35869.97
708.932	35565.12
709.277	35529.42
709.621	35624.11
709.966	35403.55
710.31	35353.15
710.654	35189.31
710.998	35194.51
711.342	35165.13
711.687	35067.06
712.031	34967.63
712.375	34847.85
712.719	34834.07
713.063	34727.18
713.407	34872.04
713.75	34681.31
714.094	34588.43
714.438	34474.76
714.782	34535.09
715.125	34271.6
715.469	34465.72
715.812	34211.94
716.156	33937.82
716.499	34109.57
716.843	34119.96
717.186	33887.43
717.53	34000.19
717.873	33994.54
718.216	34035.22
718.559	33794.55
718.902	33622.12
719.246	33743.93
719.589	33515.46
719.932	33405.63
720.275	33397.27
720.617	33387.55
720.96	33208.8
721.303	33294
721.646	33358.18
721.989	33043.16
722.331	33124.28
722.674	32982.59
723.016	33127.67
723.359	32999.77
723.701	33075.47
724.044	32749.83
724.386	32608.59
724.729	32880.67
725.071	32690.62
725.413	32792.54
725.755	32724.07
726.097	32534.7
726.439	32432.55
726.782	32526.33
727.124	32464.41
727.465	32292.89
727.807	32354.81
728.149	32274.36
728.491	32193.69
728.833	32113.24
729.175	32060.13
729.516	32052.67
729.858	31927.48
730.199	32112.56
730.541	31950.76
730.882	31802.29
731.224	31932.9
731.565	31724.32
731.906	31704.21
732.248	31762.29
732.589	31573.82
732.93	31537.21
733.271	31430.32
733.612	31561.61
733.953	31532.46
734.294	31360.26
734.635	31199.36
734.976	31493.82
735.317	31101.29
735.658	31246.82
735.999	31253.15
736.339	31077.33
736.68	31135.41
737.021	31147.16
737.361	30873.27
737.702	31006.6
738.042	30915.08
738.383	30976.77
738.723	30935.42
739.063	30817.23
739.404	30872.82
739.744	30774.06
740.084	30555.09
740.424	30527.29
740.764	30550.79
741.104	30564.13
741.444	30470.34
741.784	30291.59
742.124	30427.86
742.464	30362.78
742.804	30281.2
743.143	30225.15
743.483	30417.91
743.823	30133.85
744.162	30172.95
744.502	30132.72
744.841	30097.47
745.181	30062.44
745.52	29919.85
745.86	30003.69
746.199	29937.93
746.538	29895.44
746.877	29902.45
747.216	29873.07
747.556	29804.37
747.895	29753.07
748.234	29657.48
748.573	29662.45
748.911	29529.58
749.25	29542.01
749.589	29507.2
749.928	29478.05
750.267	29480.76
750.605	29366.19
750.944	29248.91
751.283	29130.49
751.621	29232.86
751.96	29170.26
752.298	29106.31
752.636	29063.83
752.975	29012.08
753.313	28763.72
753.651	28916.94
753.989	28891.85
754.327	28732.31
754.666	28628.13
755.004	28698.64
755.342	28698.19
755.679	28511.75
756.017	28305.2
756.355	28412.09
756.693	28277.86
757.031	28441.02
757.368	28303.85
757.706	28140.46
758.044	28050.29
758.381	28108.6
758.719	27986.57
759.056	28002.84
759.394	27935.95
759.731	27719.23
760.068	27749.28
760.405	27528.73
760.743	27580.25
761.08	27585.22
761.417	27376.86
761.754	27430.87
762.091	27329.41
762.428	27184.1
762.765	26988.4
763.102	27091
763.438	26894.84
763.775	26847.16
764.112	26829.31
764.449	26860.95
764.785	26603.78
765.122	26582.31
765.458	26460.5
765.795	26464.35
766.131	26356.55
766.467	26317.01
766.804	26224.35
767.14	26116.11
767.476	26095.09
767.812	25894.87
768.148	25963.34
768.485	25764.25
768.821	25643.58
769.157	25704.82
769.492	25496.69
769.828	25464.82
770.164	25329.91
770.5	25284.49
770.836	25253.08
771.171	25088.79
771.507	25060.99
771.842	24786.65
772.178	24868.68
772.513	24760.21
772.849	24629.82
773.184	24503.49
773.519	24519.31
773.855	24463.72
774.19	24331.52
774.525	24146.67
774.86	24276.38
775.195	24132.66
775.53	24055.37
775.865	23876.39
776.2	23803.63
776.535	23685.21
776.87	23659.9
777.205	23595.04
777.539	23458.1
777.874	23461.26
778.209	23347.37
778.543	23209.06
778.878	23168.84
779.212	23210.19
779.547	23103.53
779.881	22967.72
780.215	22844.55
780.55	22781.28
780.884	22747.83
781.218	22544.22
781.552	22675.75
781.886	22534.73
782.22	22383.32
782.554	22309.43
782.888	22154.4
783.222	22047.29
783.556	21957.8
783.889	21972.26
784.223	21766.16
784.557	21821.98
784.89	21741.53
785.224	21627.19
785.557	21501.31
785.891	21450.24
786.224	21441.2
786.558	21416.12
786.891	21277.82
787.224	21054.77
787.557	21047.09
787.891	20967.09
788.224	20999.86
788.557	20964.6
788.89	20815.46
789.223	20881.44
789.556	20719.41
789.888	20590.83
790.221	20530.72
790.554	20389.7
790.887	20350.61
791.219	20351.96
791.552	20291.85
791.884	20096.38
792.217	20009.15
792.549	19952.2
792.882	19870.85
793.214	19886.21
793.546	19844.63
793.879	19782.71
794.211	19610.97
794.543	19613.91
794.875	19544.53
795.207	19574.36
795.539	19481.25
795.871	19502.95
796.203	19296.85
796.535	19197.19
796.867	19116.52
797.198	19082.85
797.53	19156.52
797.862	18908.16
798.193	19013.47
798.525	18795.17
798.856	18906.35
799.188	18727.83
799.519	18592.24
799.85	18554.72
800.182	18554.95
800.513	18541.39
800.844	18347.5
801.175	18481.28
801.506	18375.52
801.837	18298.01
802.168	18164.45
802.499	18128.75
802.83	18027.73
803.161	17968.75
803.491	18066.38
803.822	18021.4
804.153	17884.23
804.483	17683.79
804.814	17806.5
805.145	17748.64
805.475	17588.42
805.805	17679.72
806.136	17575.99
806.466	17654.63
806.796	17510.91
807.126	17408.31
807.457	17343.46
807.787	17388.65
808.117	17293.29
808.447	17213.06
808.777	17261.42
809.107	17252.61
809.436	17076.57
809.766	17063.46
810.096	17027.31
810.426	17043.58
810.755	16946.86
811.085	16873.19
811.414	16832.51
811.744	16746.86
812.073	16731.5
812.403	16655.79
812.732	16572.18
813.061	16581.44
813.39	16426.19
813.719	16425.97
814.049	16491.5
814.378	16395.01
814.707	16400.2
815.036	16421.9
815.365	16287.21
815.693	16087.44
816.022	16211.73
816.351	16011.74
816.68	15997.28
817.008	16107.1
817.337	15969.03
817.665	15903.72
817.994	15909.14
818.322	15952.53
818.651	15810.62
818.979	15709.6
819.307	15845.19
819.636	15761.8
819.964	15669.83
820.292	15684.07
820.62	15778.07
820.948	15642.26
821.276	15666.89
821.604	15575.59
821.932	15674.12
822.259	15554.35
822.587	15596.61
822.915	15454.92
823.243	15643.84
823.57	15557.74
823.898	15597.97
824.225	15397.74
824.553	15435.26
824.88	15588.25
825.207	15533.56
825.535	15541.92
825.862	15574.69
826.189	15478.19
826.516	15593.45
826.843	15634.35
827.17	15604.97
827.497	15597.51
827.824	15555.71
828.151	15538.53
828.478	15480.23
828.805	15524.52
829.131	15447.01
829.458	15455.82
829.785	15461.92
830.111	15486.56
830.438	15605.87
830.764	15498.31
831.09	15489.49
831.417	15361.14
831.743	15558.42
832.069	15382.38
832.395	15421.7
832.722	15449.04
833.048	15402.04
833.374	15371.53
833.7	15323.4
834.026	15298.99
834.351	15364.3
834.677	15294.02
835.003	15408.82
835.329	15290.86
835.654	15324.98
835.98	15171.99
836.306	15197.52
836.631	15136.28
836.956	15208.82
837.282	15148.26
837.607	15120.01
837.932	15128.83
838.258	15115.27
838.583	15089.05
838.908	15021.48
839.233	15045.44
839.558	15010.18
839.883	15028.72
840.208	14922.73
840.533	14896.74
840.858	14847.48
841.182	14899.45
841.507	14813.13
841.832	14664.88
842.156	14676.63
842.481	14687.71
842.805	14694.94
843.13	14612.91
843.454	14549.86
843.778	14557.54
844.103	14473.93
844.427	14498.11
844.751	14506.69
845.075	14449.3
845.399	14449.3
845.723	14327.94
846.047	14350.99
846.371	14204.56
846.695	14251.11
847.019	14218.79
847.343	14077.55
847.666	13951.68
847.99	13920.5
848.313	13938.35
848.637	13857.22
848.96	13836.88
849.284	13681.41
849.607	13732.25
849.931	13674.4
850.254	13495.65
850.577	13500.17
850.9	13437.34
851.223	13378.36
851.546	13267.18
851.869	13224.69
852.192	13287.97
852.515	13181.98
852.838	13071.03
853.161	13148.76
853.483	12983.35
853.806	12941.09
854.129	12991.93
854.451	12897.25
854.774	12923.23
855.096	12824.03
855.419	12738.61
855.741	12796.46
856.063	12688.44
856.385	12692.28
856.708	12596.01
857.03	12605.5
857.352	12581.77
857.674	12446.86
857.996	12535
858.318	12381.78
858.64	12444.6
858.961	12466.3
859.283	12310.59
859.605	12165.29
859.926	12279.86
860.248	12249.13
860.57	12143.59
860.891	12181.11
861.212	12035.35
861.534	12116.02
861.855	12097.94
862.176	12022.92
862.498	12002.81
862.819	11944.73
863.14	11972.98
863.461	11912.64
863.782	11872.41
864.103	11967.78
864.424	11870.61
864.745	11839.19
865.065	11846.43
865.386	11802.81
865.707	11815.24
866.027	11724.4
866.348	11749.03
866.668	11699.54
866.989	11716.94
867.309	11626.77
867.63	11602.36
867.95	11646.88
868.27	11498.41
868.59	11565.3
868.91	11554.91
869.23	11456.61
869.55	11507.23
869.87	11488.92
870.19	11594.46
870.51	11501.35
870.83	11422.48
871.15	11410.05
871.469	11403.05
871.789	11392.88
872.109	11386.1
872.428	11300.9
872.748	11402.6
873.067	11296.38
873.386	11309.49
873.706	11245.76
874.025	11251.41
874.344	11239.66
874.663	11235.82
874.982	11212.32
875.301	11234.46
875.62	11149.49
875.939	11101.36
876.258	11140.68
876.577	11134.81
876.896	11105.2
877.214	11018.42
877.533	11087.58
877.852	11035.6
878.17	11059.55
878.489	11001.93
878.807	10948.6
879.125	10975.94
879.444	10984.98
879.762	10943.62
880.08	10894.36
880.398	10779.34
880.716	10865.66
881.034	10856.85
881.352	10848.26
881.67	10811.42
881.988	10809.39
882.306	10780.47
882.624	10695.27
882.941	10684.2
883.259	10714.93
883.577	10629.51
883.894	10648.94
884.212	10567.59
884.529	10605.55
884.846	10580.47
885.164	10550.19
885.481	10530.08
885.798	10455.05
886.115	10448.04
886.432	10432
886.75	10375.73
887.067	10366.01
887.383	10373.47
887.7	10380.93
888.017	10261.83
888.334	10319.91
888.651	10274.49
888.967	10260.03
889.284	10192.23
889.6	10169.63
889.917	10085.12
890.233	10175.96
890.55	10036.98
890.866	10071.11
891.182	9996.08
891.498	10015.97
891.815	9999.47
892.131	9956.53
892.447	9910.66
892.763	9828.17
893.079	9821.62
893.395	9741.17
893.71	9820.94
894.026	9728.29
894.342	9723.77
894.657	9726.93
894.973	9676.31
895.289	9698.01
895.604	9646.48
895.92	9606.48
896.235	9523.55
896.55	9560.84
896.865	9488.97
897.181	9441.07
897.496	9412.37
897.811	9328.07
898.126	9308.64
898.441	9339.6
898.756	9286.27
899.071	9269.09
899.386	9215.53
899.7	9208.3
900.015	9185.93
900.33	9063.67
900.644	9033.84
900.959	9058.02
901.273	9021.42
901.588	8999.04
901.902	8950.23
902.216	8881.98
902.531	8820.52
902.845	8883.11
903.159	8796.11
903.473	8743.91
903.787	8723.8
904.101	8686.51
904.415	8730.35
904.729	8663.68
905.042	8626.17
905.356	8623.91
905.67	8576.23
905.984	8553.18
906.297	8545.5
906.611	8478.6
906.924	8419.62
907.237	8438.15
907.551	8416.91
907.864	8408.78
908.177	8291.94
908.491	8358.61
908.804	8284.26
909.117	8191.15
909.43	8187.31
909.743	8170.82
910.056	8136.24
910.368	8131.5
910.681	8030.71
910.994	8033.42
911.307	7979.86
911.619	7965.85
911.932	7989.58
912.244	7808.79
912.557	7918.17
912.869	7851.28
913.181	7765.86
913.494	7821.22
913.806	7718.4
914.118	7663.71
914.43	7659.64
914.742	7658.06
915.054	7616.25
915.366	7622.36
915.678	7562.92
915.99	7466.43
916.302	7480.44
916.613	7402.25
916.925	7421.01
917.236	7346.43
917.548	7310.95
917.859	7369.48
918.171	7294.91
918.482	7211.29
918.794	7201.58
919.105	7238.41
919.416	7168.36
919.727	7138.3
920.038	7118.41
920.349	7022.82
920.66	7044.29
920.971	7036.16
921.282	6995.71
921.593	6937.85
921.903	6929.94
922.214	6924.75
922.525	6926.1
922.835	6795.03
923.146	6836.39
923.456	6825.31
923.767	6795.03
924.077	6708.71
924.387	6733.34
924.697	6703.06
925.008	6618.54
925.318	6640.46
925.628	6584.87
925.938	6545.77
926.248	6500.13
926.558	6528.6
926.867	6516.17
927.177	6468.04
927.487	6410.18
927.796	6369.96
928.106	6362.73
928.416	6317.76
928.725	6322.05
929.034	6272.79
929.344	6266.46
929.653	6243.18
929.962	6195.27
930.271	6128.61
930.581	6151.21
930.89	6076.86
931.199	6094.94
931.508	6041.15
931.817	6059.23
932.125	6037.09
932.434	6051.55
932.743	5932.01
933.051	5944.89
933.36	5897.43
933.669	5840.03
933.977	5821.73
934.286	5817.21
934.594	5764.55
934.902	5805.45
935.21	5722.52
935.519	5731.78
935.827	5726.81
936.135	5704.89
936.443	5588.29
936.751	5570.66
937.059	5633.71
937.367	5564.33
937.674	5529.76
937.982	5502.41
938.29	5538.57
938.597	5485.01
938.905	5443.88
939.213	5438.46
939.52	5394.84
939.827	5450.21
940.135	5399.59
940.442	5349.2
940.749	5345.58
941.056	5320.72
941.363	5286.15
941.67	5268.07
941.977	5191.01
942.284	5187.39
942.591	5162.76
942.898	5146.94
943.205	5149.88
943.511	5121.86
943.818	5088.86
944.125	5050.67
944.431	5050.45
944.738	5031.01
945.044	5024.46
945.35	4986.04
945.657	4955.99
945.963	4981.75
946.269	4913.05
946.575	4926.38
946.881	4877.57
947.187	4852.26
947.493	4836.21
947.799	4854.29
948.105	4798.25
948.41	4769.78
948.716	4750.12
949.022	4739.04
949.327	4758.7
949.633	4697.91
949.938	4662.89
950.244	4703.34
950.549	4645.49
950.854	4642.77
951.16	4588.76
951.465	4572.49
951.77	4505.15
952.075	4517.58
952.38	4478.48
952.685	4477.35
952.99	4472.83
953.294	4377.92
953.599	4459.28
953.904	4389.67
954.209	4365.27
954.513	4337.24
954.818	4409.11
955.122	4360.07
955.426	4334.53
955.731	4268.77
956.035	4251.82
956.339	4240.98
956.643	4267.64
956.948	4246.4
957.252	4270.13
957.556	4201.66
957.86	4145.16
958.163	4126.18
958.467	4144.71
958.771	4120.3
959.075	4127.31
959.378	4106.29
959.682	4047.76
959.985	4048.44
960.289	4050.02
960.592	4005.28
960.896	4027.87
961.199	3959.18
961.502	3918.5
961.805	3928.67
962.108	3923.92
962.411	3920.98
962.714	3900.65
963.017	3861.1
963.32	3861.78
963.623	3862.45
963.926	3831.95
964.228	3762.12
964.531	3798.73
964.833	3786.75
965.136	3749.46
965.438	3735.45
965.741	3685.06
966.043	3696.13
966.345	3706.75
966.648	3666.98
966.95	3671.05
967.252	3650.48
967.554	3638.51
967.856	3631.5
968.158	3619.75
968.46	3542.69
968.761	3565.06
969.063	3571.16
969.365	3544.72
969.666	3513.09
969.968	3499.98
970.269	3475.35
970.571	3459.08
970.872	3438.29
971.174	3412.3
971.475	3456.14
971.776	3396.93
972.077	3349.02
972.378	3393.31
972.679	3435.8
972.98	3351.06
973.281	3329.14
973.582	3342.02
973.883	3267.89
974.183	3322.81
974.484	3266.54
974.785	3291.62
975.085	3235.58
975.386	3250.04
975.686	3175.69
975.986	3232.64
976.287	3191.29
976.587	3169.82
976.887	3171.63
977.187	3154.45
977.487	3122.81
977.787	3121.91
978.087	3080.33
978.387	3048.24
978.687	3070.61
978.987	3067
979.286	3018.64
979.586	3036.49
979.885	3019.54
980.185	3031.06
980.484	2999.65
980.784	2961.24
981.083	2968.47
981.382	2957.39
981.682	2959.43
981.981	2957.85
982.28	2926.21
982.579	2919.88
982.878	2914.68
983.177	2886.21
983.475	2869.94
983.774	2861.58
984.073	2827
984.372	2830.17
984.67	2845.98
984.969	2795.36
985.267	2802.82
985.566	2764.4
985.864	2757.63
986.162	2755.37
986.461	2710.85
986.759	2745.42
987.057	2689.83
987.355	2684.63
987.653	2726.89
987.951	2665.42
988.249	2660.68
988.547	2671.3
988.844	2673.79
989.142	2652.32
989.44	2598.08
989.737	2610.28
990.035	2617.06
990.332	2580
990.63	2586.56
990.927	2601.47
991.224	2531.19
991.521	2551.3
991.819	2533.9
992.116	2500
992.413	2521.7
992.71	2451.42
993.006	2443.96
993.303	2454.58
993.6	2485.32
993.897	2449.16
994.193	2427.92
994.49	2425.2
994.787	2402.61
995.083	2397.63
995.379	2370.29
995.676	2388.82
995.972	2372.32
996.268	2370.74
996.565	2351.53
996.861	2338.88
997.157	2322.38
997.453	2288.94
997.749	2306.79
998.044	2276.51
998.34	2250.07
998.636	2248.03
998.932	2257.75
999.227	2213.91
999.523	2207.81
999.818	2203.06
1000.114	2195.15
1000.409	2175.49
1000.704	2191.09
1001	2183.86
1001.295	2132.78
1001.59	2162.16
1001.885	2133.01
1002.18	2104.08
1002.475	2106.57
1002.77	2092.56
1003.065	2079.68
1003.359	2074.93
1003.654	2080.35
1003.949	2043.07
1004.243	2047.36
1004.538	2043.52
1004.832	2044.2
1005.127	1995.39
1005.421	1993.8
1005.715	1986.8
1006.009	2002.62
1006.304	1961.49
1006.598	1953.13
1006.892	1963.52
1007.186	1900.25
1007.48	1928.49
1007.773	1905.22
1008.067	1883.75
1008.361	1887.14
1008.655	1892.11
1008.948	1861.15
1009.242	1852.34
1009.535	1839.91
1009.829	1883.3
1010.122	1817.76
1010.415	1796.07
1010.708	1772.11
1011.001	1794.03
1011.295	1752
1011.588	1745.9
1011.881	1768.95
1012.173	1779.35
1012.466	1734.6
1012.759	1741.15
1013.052	1702.74
1013.344	1681.5
1013.637	1704.55
1013.93	1678.33
1014.222	1697.54
1014.514	1667.03
1014.807	1642.63
1015.099	1667.71
1015.391	1636.52
1015.683	1655.51
1015.976	1624.1
1016.268	1603.53
1016.56	1602.4
1016.851	1589.97
1017.143	1571.89
1017.435	1568.5
1017.727	1564.44
1018.018	1551.56
1018.31	1575.74
1018.602	1545.91
1018.893	1507.26
1019.185	1518.34
1019.476	1504.78
1019.767	1515.62
1020.058	1495.96
1020.35	1503.19
1020.641	1462.29
1020.932	1476.98
1021.223	1459.81
1021.514	1448.51
1021.804	1452.8
1022.095	1428.39
1022.386	1413.03
1022.677	1413.71
1022.967	1393.59
1023.258	1382.29
1023.548	1358.11
1023.839	1365.35
1024.129	1345.23
1024.419	1357.21
1024.709	1335.52
1025	1345.01
1025.29	1323.76
1025.58	1331.45
1025.87	1298.45
1026.16	1293.26
1026.449	1307.27
1026.739	1290.55
1027.029	1271.34
1027.319	1256.42
1027.608	1272.69
1027.898	1270.66
1028.187	1249.87
1028.477	1233.15
1028.766	1215.52
1029.055	1206.93
1029.344	1215.29
1029.634	1212.13
1029.923	1209.42
1030.212	1193.37
1030.501	1174.62
1030.79	1164.67
1031.078	1155.63
1031.367	1133.71
1031.656	1141.17
1031.945	1142.53
1032.233	1124
1032.522	1126.93
1032.81	1114.73
1033.099	1100.27
1033.387	1102.53
1033.675	1085.8
1033.963	1105.24
1034.251	1051
1034.54	1051.46
1034.828	1088.97
1035.116	1043.55
1035.403	1025.47
1035.691	1060.95
1035.979	1021.63
1036.267	1034.28
1036.554	1040.16
1036.842	1012.36
1037.129	1019.59
1037.417	980.5
1037.704	985.92
1037.992	980.72
1038.279	966.71
1038.566	985.47
1038.853	985.47
1039.14	985.47
