Data from hue_290_FLMS001491_00094.txt Node
Date: Tue Feb 07 15:53:44 GMT 2017
User: dcchb
Spectrometer: FLMS00149
Trigger mode: 0
Integration Time (sec): 2.000000E-2
Scans to average: 10
Electric dark correction enabled: true
Nonlinearity correction enabled: false
Boxcar width: 0
XAxis mode: Wavelengths
Number of Pixels in Spectrum: 2048
>>>>>Begin Spectral Data<<<<<
341.393	-9.84
341.776	-9.84
342.16	-9.84
342.543	-87.81
342.927	-71.54
343.31	-71.09
343.693	-62.5
344.077	-76.28
344.46	-62.05
344.843	-49.62
345.226	-42.39
345.61	-43.97
345.993	2.81
346.376	-6.91
346.759	5.07
347.142	15.24
347.525	47.56
347.908	73.54
348.291	67.67
348.674	89.81
349.057	113.09
349.44	140.43
349.823	145.86
350.206	160.77
350.588	189.47
350.971	205.52
351.354	217.49
351.737	234.22
352.119	251.39
352.502	250.71
352.884	278.51
353.267	279.19
353.65	270.83
354.032	270.83
354.414	299.75
354.797	306.76
355.179	309.02
355.562	307.21
355.944	324.38
356.326	313.08
356.709	331.84
357.091	317.6
357.473	329.36
357.855	328.23
358.238	358.51
358.62	344.27
359.002	335.68
359.384	318.73
359.766	342.91
360.148	339.98
360.53	365.51
360.912	332.97
361.294	309.24
361.676	315.34
362.057	339.3
362.439	304.27
362.821	318.51
363.203	316.25
363.584	309.02
363.966	323.48
364.348	322.8
364.729	312.86
365.111	299.98
365.493	323.25
365.874	314.21
366.256	315.12
366.637	308.57
367.019	303.37
367.4	326.64
367.781	310.15
368.163	321.9
368.544	295.46
368.925	298.62
369.306	319.19
369.688	309.24
370.069	318.28
370.45	294.78
370.831	312.41
371.212	316.02
371.593	324.16
371.974	299.53
372.355	313.31
372.736	326.64
373.117	340.65
373.498	311.96
373.879	335.01
374.26	329.13
374.641	317.6
375.021	303.59
375.402	311.5
375.783	306.76
376.163	353.31
376.544	330.49
376.925	322.35
377.305	323.48
377.686	335.46
378.066	330.71
378.447	336.14
378.827	328.23
379.208	325.06
379.588	341.33
379.968	305.63
380.349	349.69
380.729	325.51
381.109	332.07
381.489	340.43
381.87	334.55
382.25	326.19
382.63	341.11
383.01	336.59
383.39	356.47
383.77	339.07
384.15	354.44
384.53	350.82
384.91	350.82
385.29	354.67
385.67	340.43
386.049	359.41
386.429	350.6
386.809	363.93
387.189	368.45
387.568	337.49
387.948	360.09
388.328	362.58
388.707	370.03
389.087	368.9
389.466	376.36
389.846	361.9
390.225	414.1
390.605	364.84
390.984	356.47
391.363	360.99
391.743	364.84
392.122	377.72
392.501	373.65
392.881	380.88
393.26	378.39
393.639	372.74
394.018	398.73
394.397	397.38
394.776	391.05
395.155	398.73
395.534	374.33
395.913	396.92
396.292	385.4
396.671	402.35
397.05	412.74
397.429	384.04
397.808	409.35
398.186	413.2
398.565	400.09
398.944	421.1
399.323	425.4
399.701	407.09
400.08	420.43
400.458	392.86
400.837	408.22
401.215	431.05
401.594	425.62
401.972	429.47
402.351	445.51
402.729	424.95
403.107	445.51
403.486	419.07
403.864	460.65
404.242	440.77
404.62	456.81
404.999	429.01
405.377	431.73
405.755	475.57
406.133	438.28
406.511	466.08
406.889	479.86
407.267	496.81
407.645	485.96
408.023	493.42
408.401	506.53
408.779	511.27
409.156	473.98
409.534	510.59
409.912	517.83
410.29	532.06
410.667	534.77
411.045	531.38
411.422	544.94
411.8	543.59
412.178	545.62
412.555	554.43
412.933	553.08
413.31	578.16
413.687	583.13
414.065	594.66
414.442	597.37
414.819	606.18
415.197	607.31
415.574	622.68
415.951	643.7
416.328	665.39
416.705	644.38
417.082	656.35
417.46	676.24
417.837	670.82
418.214	656.58
418.591	703.58
418.967	701.78
419.344	701.55
419.721	718.95
420.098	720.76
420.475	720.31
420.852	712.85
421.228	744.03
421.605	760.76
421.982	779.06
422.358	764.37
422.735	776.8
423.111	786.97
423.488	782.9
423.864	801.43
424.241	836.69
424.617	831.94
424.994	812.28
425.37	848.89
425.746	868.32
426.123	859.51
426.499	858.61
426.875	897.93
427.251	899.74
427.627	896.12
428.003	912.17
428.379	931.6
428.756	929.57
429.132	937.7
429.507	949
429.883	963.46
430.259	972.05
430.635	975.89
431.011	994.65
431.387	983.35
431.763	1043.69
432.138	1019.06
432.514	1043.69
432.89	1070.13
433.265	1074.87
433.641	1098.38
434.016	1101.31
434.392	1128.88
434.767	1130.69
435.143	1134.76
435.518	1149.45
435.894	1167.07
436.269	1195.32
436.644	1211.14
437.02	1198.26
437.395	1202.1
437.77	1253.17
438.145	1268.31
438.52	1281.42
438.895	1255.89
439.271	1284.13
439.646	1328.43
440.021	1309.89
440.395	1314.87
440.77	1299.73
441.145	1308.31
441.52	1351.7
441.895	1364.58
442.27	1365.03
442.645	1350.8
443.019	1377.92
443.394	1392.6
443.769	1399.16
444.143	1417.69
444.518	1411.59
444.892	1410.01
445.267	1417.01
445.641	1421.98
446.016	1427.86
446.39	1447.74
446.764	1435.32
447.139	1449.1
447.513	1465.37
447.887	1450.91
448.262	1458.82
448.636	1477.57
449.01	1496.33
449.384	1482.77
449.758	1504.92
450.132	1511.7
450.506	1538.36
450.88	1504.69
451.254	1535.65
451.628	1542.21
452.002	1571.13
452.376	1575.65
452.75	1560.74
453.123	1583.79
453.497	1609.32
453.871	1623.11
454.244	1630.11
454.618	1647.51
454.992	1631.02
455.365	1638.47
455.739	1722.99
456.112	1684.35
456.486	1721.86
456.859	1698.13
457.232	1775.19
457.606	1741.52
457.979	1718.25
458.352	1778.58
458.725	1786.72
459.099	1860.16
459.472	1811.58
459.845	1831.69
460.218	1852.25
460.591	1850.67
460.964	1840.05
461.337	1872.14
461.71	1922.53
462.083	1934.06
462.456	1951.91
462.829	1968.18
463.201	1971.35
463.574	1967.28
463.947	2000.95
464.32	2054.73
464.692	2034.62
465.065	2040.27
465.438	2089.99
465.81	2093.38
466.183	2136.31
466.555	2151.23
466.928	2157.33
467.3	2172.7
467.672	2186.71
468.045	2216.31
468.417	2236.65
468.789	2225.35
469.161	2258.8
469.534	2282.07
469.906	2316.42
470.278	2342.18
470.65	2359.58
471.022	2391.9
471.394	2414.72
471.766	2446.14
472.138	2431.45
472.51	2496.08
472.882	2539.24
473.253	2536.08
473.625	2531.11
473.997	2617.88
474.369	2587.38
474.74	2642.52
475.112	2647.03
475.484	2704.43
475.855	2750.54
476.227	2736.07
476.598	2832.79
476.97	2808.84
477.341	2862.85
477.713	2872.11
478.084	2873.47
478.455	2994.6
478.827	2966.12
479.198	3060.81
479.569	3053.35
479.94	3124.76
480.311	3156.85
480.682	3186.91
481.053	3248.83
481.424	3263.52
481.795	3294.7
482.166	3325.21
482.537	3334.93
482.908	3408.14
483.279	3454.7
483.65	3489.27
484.021	3543.06
484.391	3562.94
484.762	3587.8
485.133	3603.17
485.503	3640.46
485.874	3708.93
486.244	3711.64
486.615	3733.56
486.985	3870.28
487.356	3894.01
487.726	3895.14
488.097	3943.5
488.467	3929.71
488.837	3983.04
489.207	4029.6
489.578	4145.98
489.948	4146.2
490.318	4187.56
490.688	4145.53
491.058	4190.27
491.428	4244.73
491.798	4322.47
492.168	4383.94
492.538	4418.74
492.908	4409.47
493.278	4439.76
493.648	4476.59
494.017	4511.62
494.387	4541.9
494.757	4523.82
495.126	4584.39
495.496	4602.24
495.866	4592.75
496.235	4610.6
496.605	4719.97
496.974	4743.7
497.344	4740.99
497.713	4745.51
498.082	4785.96
498.452	4809.24
498.821	4870.48
499.19	4872.06
499.559	4893.3
499.928	4942.12
500.298	4895.56
500.667	4973.98
501.036	4932.17
501.405	4968.78
501.774	5044.49
502.143	5035.45
502.512	5043.58
502.88	5084.48
503.249	5085.16
503.618	5132.39
503.987	5121.09
504.356	5141.21
504.724	5149.57
505.093	5135.33
505.462	5148.21
505.83	5212.84
506.199	5291.94
506.567	5286.74
506.936	5317.25
507.304	5338.04
507.672	5336
508.041	5344.37
508.409	5361.31
508.777	5408.09
509.145	5459.84
509.514	5350.47
509.882	5439.05
510.25	5471.37
510.618	5498.03
510.986	5560.4
511.354	5532.61
511.722	5582.1
512.09	5623
512.458	5631.14
512.826	5639.27
513.193	5632.72
513.561	5700.06
513.929	5639.27
514.297	5724.92
514.664	5763.34
515.032	5714.75
515.4	5761.76
515.767	5805.6
516.135	5839.04
516.502	5769.21
516.869	5861.87
517.237	5827.97
517.604	5799.72
517.972	5888.98
518.339	5880.85
518.706	5943.22
519.073	5975.31
519.44	5914.29
519.808	5998.59
520.175	5960.39
520.542	6014.4
520.909	6062.09
521.276	6024.12
521.643	6090.11
522.009	6098.47
522.376	6145.93
522.743	6157.68
523.11	6207.39
523.477	6216.66
523.843	6237.9
524.21	6267.96
524.577	6310.22
524.943	6353.15
525.31	6380.27
525.676	6368.07
526.043	6426.14
526.409	6440.16
526.776	6486.03
527.142	6527.84
527.508	6513.37
527.874	6588.17
528.241	6605.12
528.607	6617.1
528.973	6637.44
529.339	6635.86
529.705	6677.21
530.071	6740.94
530.437	6802.86
530.803	6767.15
531.169	6817.09
531.535	6790.2
531.901	6806.02
532.267	6882.18
532.632	6891.67
532.998	6932.8
533.364	6923.53
533.73	6991.55
534.095	7010.76
534.461	7046.47
534.826	7083.75
535.192	7091.89
535.557	7134.83
535.923	7143.41
536.288	7089.18
536.653	7125.11
537.019	7091.89
537.384	7152.91
537.749	7175.96
538.114	7238.33
538.479	7297.31
538.845	7229.29
539.21	7239
539.575	7311.09
539.94	7307.93
540.305	7382.05
540.67	7319
541.034	7362.84
541.399	7446.46
541.764	7359
542.129	7436.97
542.494	7438.1
542.858	7466.57
543.223	7470.41
543.587	7579.79
543.952	7573.23
544.316	7595.38
544.681	7589.28
545.045	7568.26
545.41	7596.74
545.774	7635.83
546.138	7612.1
546.503	7694.59
546.867	7691.2
547.231	7782.27
547.595	7806.67
547.959	7761.7
548.324	7762.83
548.688	7781.82
549.052	7815.26
549.416	7857.29
549.779	7873.11
550.143	7844.86
550.507	7895.26
550.871	7964.64
551.235	7879.67
551.599	7954.47
551.962	7957.4
552.326	7986.56
552.689	8102.03
553.053	8030.62
553.417	8018.87
553.78	8108.36
554.143	8097.06
554.507	8141.58
554.87	8109.49
555.234	8166.89
555.597	8148.13
555.96	8163.95
556.323	8186.55
556.686	8258.41
557.05	8234.68
557.413	8260.22
557.776	8285.98
558.139	8335.92
558.502	8281.01
558.865	8333.67
559.228	8344.74
559.59	8402.14
559.953	8381.8
560.316	8498.63
560.679	8469.71
561.041	8519.65
561.404	8564.17
561.767	8582.92
562.129	8546.77
562.492	8659.98
562.854	8584.05
563.217	8589.03
563.579	8634.22
563.941	8688.46
564.304	8824.5
564.666	8806.2
565.028	8799.19
565.39	8869.02
565.753	8840.09
566.115	8902.46
566.477	8890.71
566.839	8892.75
567.201	8970.48
567.563	8958.51
567.925	9034.21
568.287	9010.26
568.648	9036.47
569.01	9164.15
569.372	9135.23
569.734	9119.63
570.095	9161.89
570.457	9286.63
570.819	9222.23
571.18	9252.06
571.542	9312.85
571.903	9334.54
572.265	9370.25
572.626	9392.62
572.987	9473.75
573.349	9478.49
573.71	9511.26
574.071	9589.23
574.432	9664.93
574.794	9671.48
575.155	9758.26
575.516	9723.23
575.877	9828.99
576.238	9818.15
576.599	9896.56
576.96	9953.06
577.32	9999.16
577.681	10121.87
578.042	10120.06
578.403	10185.59
578.763	10205.03
579.124	10250.9
579.485	10353.27
579.845	10402.76
580.206	10526.15
580.566	10527.05
580.927	10555.75
581.287	10668.07
581.648	10690.67
582.008	10894.05
582.368	10926.59
582.728	11014.27
583.089	11072.35
583.449	11270.76
583.809	11250.2
584.169	11409.74
584.529	11502.85
584.889	11633.92
585.249	11673.69
585.609	11722.5
585.969	11980.12
586.329	12025.77
586.688	12179.21
587.048	12220.12
587.408	12309.83
587.768	12479.09
588.127	12586.89
588.487	12701.46
588.846	12916.14
589.206	12943.04
589.565	13095.8
589.925	13290.82
590.284	13371.5
590.643	13510.7
591.003	13603.58
591.362	13846.74
591.721	13972.61
592.08	14133.29
592.44	14256.22
592.799	14375.31
593.158	14490.11
593.517	14625.7
593.876	14748.19
594.235	14831.35
594.593	15083.32
594.952	15183.43
595.311	15328.28
595.67	15378
596.029	15543.87
596.387	15716.97
596.746	15902.05
597.104	15923.75
597.463	16057.3
597.822	16302.04
598.18	16366.22
598.538	16431.76
598.897	16600.79
599.255	16634.01
599.613	16961.91
599.972	17004.85
600.33	17089.37
600.688	17192.87
601.046	17383.37
601.404	17549.24
601.762	17640.31
602.12	17820.65
602.478	17932.06
602.836	17940.42
603.194	17991.72
603.552	18051.6
603.91	18159.85
604.268	18260.41
604.625	18331.59
604.983	18631.25
605.341	18520.29
605.698	18743.56
606.056	18846.16
606.413	18975.19
606.771	18956.89
607.128	19165.92
607.485	19145.81
607.843	19160.27
608.2	19401.4
608.557	19574.27
608.914	19460.6
609.272	19672.12
609.629	19753.25
609.986	19756.19
610.343	19762.29
610.7	20047.93
611.057	20098.33
611.414	20096.07
611.771	20186.46
612.127	20374.03
612.484	20374.48
612.841	20363.86
613.198	20442.5
613.554	20528.6
613.911	20611.76
614.267	20602.27
614.624	20719.55
614.98	20711.64
615.337	20968.36
615.693	20953.67
616.05	20943.73
616.406	21174.23
616.762	21091.75
617.118	21126.32
617.475	21154.34
617.831	21300.78
618.187	21310.05
618.543	21358.63
618.899	21549.36
619.255	21373.32
619.611	21533.77
619.967	21598.63
620.323	21706.65
620.678	21746.19
621.034	21658.06
621.39	21736.02
621.746	21696.03
622.101	21936.02
622.457	21720.88
622.812	21844.04
623.168	21987.32
623.523	21980.54
623.879	22013.76
624.234	21949.13
624.589	21986.19
624.945	22070.03
625.3	22064.15
625.655	22026.41
626.01	22063.47
626.365	22182.57
626.72	22161.32
627.075	22074.09
627.43	22193.64
627.785	22212.4
628.14	22166.07
628.495	22259.4
628.85	22147.54
629.205	22041.55
629.559	22300.08
629.914	22183.02
630.269	22065.28
630.623	22234.32
630.978	22123.13
631.332	22217.59
631.687	22341.43
632.041	22185.5
632.396	22189.57
632.75	22177.37
633.104	22281.77
633.459	22126.07
633.813	22177.37
634.167	22047.88
634.521	22080.2
634.875	22130.36
635.229	22158.39
635.583	22046.52
635.937	21997.49
636.291	21977.6
636.645	22012.4
636.999	21973.98
637.352	21981.44
637.706	21989.35
638.06	22026.86
638.413	22022.8
638.767	21925.17
639.121	22074.55
639.474	21813.76
639.828	21881.11
640.181	21853.54
640.534	21984.61
640.888	21873.42
641.241	21851.5
641.594	21909.13
641.947	21893.53
642.301	21849.24
642.654	21926.3
643.007	21927.88
643.36	21823.93
643.713	21841.78
644.066	21871.61
644.419	21807.66
644.771	21709.81
645.124	21472.3
645.477	21461.23
645.83	21333.78
646.182	21189.82
646.535	21197.73
646.888	21289.71
647.24	21023.5
647.593	21266.66
647.945	21133.55
648.298	21163.38
648.65	21190.05
649.002	21044.29
649.355	21162.48
649.707	21102.59
650.059	21263.72
650.411	21501.45
650.763	21530.38
651.115	21673.2
651.467	21724.27
651.819	21685.63
652.171	21640.66
652.523	21619.87
652.875	21598.4
653.227	21601.11
653.578	21682.69
653.93	21675.01
654.282	21511.85
654.633	21522.02
654.985	21641.56
655.337	21642.69
655.688	21710.94
656.039	21809.47
656.391	21538.74
656.742	21629.59
657.094	21560.66
657.445	21682.92
657.796	21696.48
658.147	21623.03
658.498	21542.81
658.849	21637.95
659.2	21666.87
659.551	21619.64
659.902	21772.63
660.253	21730.6
660.604	21687.21
660.955	21534.67
661.306	21725.18
661.656	21735.8
662.007	21682.92
662.358	21802.24
662.708	21695.35
663.059	21620.55
663.409	21604.95
663.76	21724.05
664.11	21657.38
664.461	21731.96
664.811	21773.31
665.161	21690.83
665.511	21791.62
665.862	21769.47
666.212	21703.03
666.562	21802.69
666.912	21732.86
667.262	21704.84
667.612	21804.27
667.962	21758.17
668.312	21787.77
668.662	21763.82
669.011	21782.13
669.361	21729.47
669.711	21731.5
670.06	21674.33
670.41	21689.25
670.76	21528.57
671.109	21641.34
671.459	21672.07
671.808	21552.3
672.157	21641.56
672.507	21534
672.856	21572.41
673.205	21510.95
673.554	21627.33
673.904	21456.71
674.253	21719.53
674.602	21640.66
674.951	21183.27
675.3	21048.81
675.649	21394.34
675.998	21486.77
676.346	21389.14
676.695	21503.26
677.044	21304.4
677.393	21443.38
677.741	21374.23
678.09	21330.16
678.438	21330.61
678.787	21283.61
679.135	21303.95
679.484	21087.68
679.832	21245.87
680.181	21136.94
680.529	21132.42
680.877	21112.76
681.225	21148.7
681.573	21193.67
681.922	21007.23
682.27	20968.81
682.618	21050.84
682.966	20904.41
683.314	20941.47
683.661	20931.3
684.009	20780.12
684.357	20850.62
684.705	20761.36
685.053	20762.49
685.4	20690.85
685.748	20636.84
686.095	20528.6
686.443	20479.79
686.79	20497.19
687.138	20510.52
687.485	20477.98
687.832	20480.69
688.18	20400.92
688.527	20353.69
688.874	20273.92
689.221	20148.5
689.568	20047.71
689.915	20040.25
690.262	19981.04
690.609	19990.76
690.956	19882.29
691.303	19870.54
691.65	19748.73
691.997	19792.12
692.344	19705.34
692.69	19628.06
693.037	19594.39
693.383	19525.24
693.73	19488.17
694.077	19455.86
694.423	19437.33
694.769	19317.56
695.116	19279.59
695.462	19273.04
695.808	19135.19
696.155	19157.56
696.501	19038.92
696.847	19004.12
697.193	18759.83
697.539	18939.71
697.885	18713.96
698.231	18709.66
698.577	18588.31
698.923	18691.81
699.269	18507.41
699.614	18453.62
699.96	18450.91
700.306	18353.06
700.651	18355.55
700.997	18194.65
701.342	18288.66
701.688	18206.4
702.033	18214.99
702.379	18126.4
702.724	18009.57
703.069	18104.71
703.415	17860.19
703.76	17894.77
704.105	17863.58
704.45	17806.64
704.795	17645.28
705.14	17575.46
705.485	17593.31
705.83	17450.94
706.175	17496.36
706.52	17376.37
706.865	17368.46
707.209	17357.38
707.554	17330.26
707.899	17281.68
708.243	17144.05
708.588	17177.95
708.932	17126.65
709.277	17003.04
709.621	17052.31
709.966	16834.46
710.31	16936.38
710.654	16683.5
710.998	16870.16
711.342	16706.1
711.687	16772.77
712.031	16693.22
712.375	16586.33
712.719	16625.88
713.063	16635.14
713.407	16683.5
713.75	16485.54
714.094	16499.1
714.438	16433.79
714.782	16418.88
715.125	16296.62
715.469	16476.05
715.812	16319.22
716.156	16168.71
716.499	16151.54
716.843	16231.99
717.186	16147.47
717.53	16267.47
717.873	16253.91
718.216	16129.39
718.559	16106.34
718.902	15977.31
719.246	16118.32
719.589	15961.04
719.932	15926.01
720.275	15884.88
720.617	15949.74
720.96	15881.26
721.303	15898.66
721.646	15911.54
721.989	15798.78
722.331	15863.86
722.674	15756.97
723.016	15828.16
723.359	15783.86
723.701	15787.25
724.044	15661.16
724.386	15605.11
724.729	15771.44
725.071	15632.46
725.413	15729.18
725.755	15675.17
726.097	15471.1
726.439	15490.77
726.782	15588.16
727.124	15597.65
727.465	15544.77
727.807	15463.87
728.149	15464.1
728.491	15533.25
728.833	15496.87
729.175	15450.77
729.516	15368.06
729.858	15416.64
730.199	15454.61
730.541	15310.43
730.882	15357.89
731.224	15411.22
731.565	15368.96
731.906	15370.77
732.248	15404.44
732.589	15363.99
732.93	15351.79
733.271	15323.54
733.612	15261.62
733.953	15360.82
734.294	15259.58
734.635	15300.94
734.976	15333.71
735.317	15349.75
735.658	15292.13
735.999	15262.3
736.339	15247.16
736.68	15335.06
737.021	15310.66
737.361	15166.93
737.702	15364.44
738.042	15319.24
738.383	15275.63
738.723	15366.02
739.063	15263.2
739.404	15318.34
739.744	15365.57
740.084	15253.03
740.424	15397.21
740.764	15302.75
741.104	15439.92
741.444	15290.54
741.784	15302.52
742.124	15389.07
742.464	15376.87
742.804	15463.42
743.143	15292.58
743.483	15417.09
743.823	15363.31
744.162	15411.67
744.502	15504.78
744.841	15468.84
745.181	15527.83
745.52	15529.18
745.86	15530.31
746.199	15578.67
746.538	15678.33
746.877	15780.25
747.216	15791.32
747.556	15712.45
747.895	15850.76
748.234	15839.68
748.573	15834.48
748.911	15938.66
749.25	16016.17
749.589	16029.28
749.928	16116.74
750.267	16233.8
750.605	16278.31
750.944	16362.61
751.283	16332.1
751.621	16480.8
751.96	16509.04
752.298	16558.53
752.636	16750.39
752.975	16788.81
753.313	16746.78
753.651	16958.52
753.989	17011.18
754.327	17143.15
754.666	17138.86
755.004	17277.16
755.342	17475.8
755.679	17428.34
756.017	17556.25
756.355	17596.7
756.693	17759.86
757.031	17924.15
757.368	17906.52
757.706	18035.1
758.044	18086.4
758.381	18207.53
758.719	18379.95
759.056	18405.94
759.394	18487.75
759.731	18499.05
760.068	18690.45
760.405	18704.24
760.743	18764.58
761.08	19033.5
761.417	18946.04
761.754	19188.29
762.091	19336.54
762.428	19328.63
762.765	19220.38
763.102	19499.02
763.438	19485.91
763.775	19559.58
764.112	19674.38
764.449	19750.99
764.785	19790.09
765.122	19814.72
765.458	19855.4
765.795	20033.92
766.131	20015.84
766.467	20068.72
766.804	20065.56
767.14	20037.31
767.476	20217.65
767.812	20286.12
768.148	20307.14
768.485	20172.22
768.821	20249.51
769.157	20222.17
769.492	20374.03
769.828	20397.98
770.164	20287.48
770.5	20383.07
770.836	20345.78
771.171	20384.42
771.507	20397.75
771.842	20361.37
772.178	20251.77
772.513	20384.87
772.849	20459.67
773.184	20373.57
773.519	20433.01
773.855	20346.23
774.19	20297.87
774.525	20278.21
774.86	20374.03
775.195	20326.8
775.53	20329.51
775.865	20331.99
776.2	20273.92
776.535	20009.06
776.87	20168.83
777.205	20056.29
777.539	20099.68
777.874	20235.5
778.209	20025.56
778.543	20052.23
778.878	19957.77
779.212	20038.67
779.547	19928.39
779.881	19988.5
780.215	19747.15
780.55	19940.14
780.884	19755.29
781.218	19838.67
781.552	19729.07
781.886	19737.66
782.22	19613.37
782.554	19509.19
782.888	19440.72
783.222	19377.22
783.556	19324.79
783.889	19295.41
784.223	19151.23
784.557	19222.42
784.89	19298.8
785.224	19151.01
785.557	19115.98
785.891	19035.98
786.224	18987.4
786.558	18896.33
786.891	18862.43
787.224	18743.11
787.557	18753.96
787.891	18674.86
788.224	18694.3
788.557	18637.12
788.89	18628.31
789.223	18667.63
789.556	18494.75
789.888	18477.58
790.221	18347.19
790.554	18324.81
790.887	18196.68
791.219	18244.82
791.552	18187.19
791.884	18099.28
792.217	18086.63
792.549	18083.47
792.882	17911.27
793.214	17873.75
793.546	17907.42
793.879	17706.3
794.211	17666.98
794.543	17722.34
794.875	17657.49
795.207	17748.33
795.539	17587.43
795.871	17618.39
796.203	17482.13
796.535	17299.98
796.867	17265.63
797.198	17350.83
797.53	17281.45
797.862	17159.87
798.193	17184.05
798.525	17069.25
798.856	17139.31
799.188	16944.51
799.519	16904.06
799.85	16783.16
800.182	16859.77
800.513	16813.67
800.844	16657.97
801.175	16764.18
801.506	16784.52
801.837	16530.06
802.168	16654.58
802.499	16568.7
802.83	16414.81
803.161	16372.78
803.491	16361.7
803.822	16410.06
804.153	16303.62
804.483	16257.07
804.814	16153.35
805.145	16203.97
805.475	16151.99
805.805	16069.96
806.136	16108.83
806.466	16032.22
806.796	15968.72
807.126	15891.66
807.457	15816.41
807.787	15835.61
808.117	15728.5
808.447	15692.57
808.777	15817.76
809.107	15742.96
809.436	15617.54
809.766	15697.54
810.096	15589.29
810.426	15530.76
810.755	15535.51
811.085	15522.18
811.414	15423.42
811.744	15300.71
812.073	15351.11
812.403	15262.3
812.732	15240.15
813.061	15302.97
813.39	15092.36
813.719	15116.09
814.049	15142.3
814.378	15051.23
814.707	14958.58
815.036	15014.62
815.365	14844
815.693	14793.83
816.022	14868.63
816.351	14805.13
816.68	14739.6
817.008	14760.39
817.337	14691.24
817.665	14596.33
817.994	14667.06
818.322	14667.06
818.651	14575.76
818.979	14474.97
819.307	14589.32
819.636	14533.73
819.964	14460.74
820.292	14509.77
820.62	14500.06
820.948	14433.39
821.276	14491.7
821.604	14372.15
821.932	14434.75
822.259	14375.99
822.587	14398.14
822.915	14300.51
823.243	14456.67
823.57	14295.77
823.898	14320.63
824.225	14256.22
824.553	14246.05
824.88	14337.8
825.207	14364.69
825.535	14367.4
825.862	14382.77
826.189	14338.7
826.516	14335.54
826.843	14392.04
827.17	14397.69
827.497	14424.13
827.824	14338.03
828.151	14393.62
828.478	14288.54
828.805	14385.71
829.131	14319.27
829.458	14352.26
829.785	14225.04
830.111	14260.51
830.438	14318.59
830.764	14390
831.09	14335.32
831.417	14153.63
831.743	14231.59
832.069	14257.35
832.395	14150.69
832.722	14251.7
833.048	14148.2
833.374	14201.08
833.7	14169.44
834.026	14208.31
834.351	14223.68
834.677	14142.1
835.003	14126.51
835.329	14151.59
835.654	14140.29
835.98	14101.65
836.306	14153.63
836.631	14031.37
836.956	14126.51
837.282	14087.86
837.607	14014.87
837.932	14017.81
838.258	14027.07
838.583	13983.01
838.908	13854.88
839.233	13925.83
839.558	13837.25
839.883	13914.99
840.208	13816.91
840.533	13884.25
840.858	13815.78
841.182	13834.31
841.507	13780.98
841.832	13697.14
842.156	13659.85
842.481	13700.76
842.805	13605.16
843.13	13559.97
843.454	13523.13
843.778	13498.95
844.103	13485.85
844.427	13427.32
844.751	13453.53
845.075	13415.57
845.399	13419.18
845.723	13303.03
846.047	13334.21
846.371	13164.05
846.695	13190.49
847.019	13075.91
847.343	13028.91
847.666	12920.89
847.99	12910.27
848.313	12912.08
848.637	12833.89
848.96	12833.89
849.284	12853.55
849.607	12679.77
849.931	12685.64
850.254	12461.69
850.577	12524.06
850.9	12419.66
851.223	12359.55
851.546	12350.96
851.869	12245.43
852.192	12314.58
852.515	12236.61
852.838	12185.54
853.161	12204.07
853.483	12122.94
853.806	12048.14
854.129	12092.21
854.451	11999.78
854.774	12053.34
855.096	11910.07
855.419	11875.27
855.741	11856.74
856.063	11803.63
856.385	11750.52
856.708	11722.28
857.03	11661.71
857.352	11605.22
857.674	11640.7
857.996	11547.59
858.318	11564.54
858.64	11475.96
858.961	11518.21
859.283	11491.1
859.605	11402.74
859.926	11388.05
860.248	11403.87
860.57	11293.14
860.891	11372.91
861.212	11255.62
861.534	11256.98
861.855	11206.36
862.176	11248.62
862.498	11241.16
862.819	11129.75
863.14	11145.34
863.461	11070.09
863.782	11054.5
864.103	11079.58
864.424	11035.97
864.745	11039.58
865.065	10974.5
865.386	10896.99
865.707	10963.2
866.027	10962.97
866.348	10903.54
866.668	10910.09
866.989	10857.21
867.309	10816.09
867.63	10822.64
867.95	10872.36
868.27	10773.6
868.59	10753.26
868.91	10748.97
869.23	10729.99
869.55	10700.38
869.87	10825.8
870.19	10694.28
870.51	10695.64
870.83	10734.05
871.15	10609.31
871.469	10582.65
871.789	10672.81
872.109	10603.44
872.428	10584
872.748	10587.84
873.067	10533.38
873.386	10608.41
873.706	10582.65
874.025	10467.17
874.344	10452.48
874.663	10469.2
874.982	10465.59
875.301	10467.62
875.62	10352.14
875.939	10380.39
876.258	10423.55
876.577	10305.82
876.896	10369.54
877.214	10289.09
877.533	10263.11
877.852	10285.48
878.17	10249.77
878.489	10318.92
878.807	10293.39
879.125	10213.62
879.444	10167.06
879.762	10168.87
880.08	10186.05
880.398	10185.59
880.716	10142.88
881.034	10136.56
881.352	10127.29
881.67	10078.03
881.988	10080.51
882.306	9980.18
882.624	9994.41
882.941	9955.32
883.259	9947.18
883.577	9870.35
883.894	9860.63
884.212	9852.72
884.529	9881.65
884.846	9819.05
885.164	9786.06
885.481	9816.11
885.798	9824.25
886.115	9695.21
886.432	9697.92
886.75	9651.14
887.067	9728.2
887.383	9618.83
887.7	9670.13
888.017	9621.31
888.334	9662.67
888.651	9559.85
888.967	9527.98
889.284	9500.64
889.6	9486.4
889.917	9364.82
890.233	9365.73
890.55	9419.29
890.866	9393.07
891.182	9370.7
891.498	9302.91
891.815	9324.15
892.131	9276.47
892.447	9308.78
892.763	9229.01
893.079	9169.58
893.395	9175.22
893.71	9159.18
894.026	9024.49
894.342	9020.88
894.657	8996.92
894.973	9050.03
895.289	8918.73
895.604	8969.81
895.92	8872.41
896.235	8842.58
896.55	8884.16
896.865	8822.47
897.181	8802.81
897.496	8747.21
897.811	8748.57
898.126	8732.98
898.441	8602.58
898.756	8582.7
899.071	8617.5
899.386	8591.96
899.7	8565.98
900.015	8517.16
900.33	8533.89
900.644	8404.62
900.959	8484.85
901.273	8426.32
901.588	8346.09
901.902	8351.74
902.216	8259.32
902.531	8319.43
902.845	8254.35
903.159	8198.98
903.473	8158.3
903.787	8139.77
904.101	8104.29
904.415	8115.14
904.729	8054.35
905.042	8046.21
905.356	7989.04
905.67	7986.78
905.984	7998.76
906.297	7965.31
906.611	7889.61
906.924	7860.23
907.237	7879.89
907.551	7804.19
907.864	7767.35
908.177	7755.38
908.491	7714.02
908.804	7705.43
909.117	7666.56
909.43	7653.68
909.743	7588.83
910.056	7600.13
910.368	7477.64
910.681	7534.14
910.994	7505.21
911.307	7454.14
911.619	7408.72
911.932	7400.81
912.244	7292.56
912.557	7289.17
912.869	7299.34
913.181	7250.3
913.494	7215.73
913.806	7174.83
914.118	7142.06
914.43	7070.2
914.742	7126.01
915.054	7093.92
915.366	7053.7
915.678	7035.39
915.99	6949.75
916.302	6985
916.613	6933.7
916.925	6818
917.236	6832.69
917.548	6800.37
917.859	6822.07
918.171	6729.87
918.482	6776.19
918.794	6705.46
919.105	6706.14
919.416	6646.93
919.727	6649.19
920.038	6640.6
920.349	6587.72
920.66	6580.04
920.971	6563.77
921.282	6553.15
921.593	6455.97
921.903	6433.15
922.214	6419.14
922.525	6381.17
922.835	6391.8
923.146	6362.87
923.456	6325.36
923.767	6284.45
924.077	6263.89
924.387	6221.4
924.697	6237.67
925.008	6209.43
925.318	6148.41
925.628	6175.3
925.938	6103.22
926.248	6073.61
926.558	6076.55
926.867	6017.57
927.177	6032.48
927.487	5980.96
927.796	5955.65
928.106	5939.15
928.416	5916.1
928.725	5893.73
929.034	5855.54
929.344	5881.75
929.653	5815.31
929.962	5777.35
930.271	5755.65
930.581	5698.71
930.89	5711.14
931.199	5687.18
931.508	5661.19
931.817	5680.18
932.125	5655.32
932.434	5610.8
932.743	5605.83
933.051	5494.42
933.36	5506.62
933.669	5504.36
933.977	5489.22
934.286	5478.6
934.594	5472.5
934.902	5413.06
935.21	5314.54
935.519	5336
935.827	5416.91
936.135	5301.65
936.443	5291.49
936.751	5237.02
937.059	5266.4
937.367	5222.11
937.674	5154.54
937.982	5187.99
938.29	5167.42
938.597	5158.61
938.905	5126.52
939.213	5081.77
939.52	5034.32
939.827	5102.34
940.135	5050.14
940.442	4988.22
940.749	4990.48
941.056	4966.3
941.363	4912.29
941.67	4929.01
941.977	4882.23
942.284	4904.83
942.591	4858.95
942.898	4855.79
943.205	4872.97
943.511	4797.71
943.818	4756.58
944.125	4737.83
944.431	4750.93
944.738	4728.79
945.044	4699.18
945.35	4641.78
945.657	4634.1
945.963	4602.24
946.269	4571.73
946.575	4573.31
946.881	4606.98
947.187	4566.31
947.493	4550.26
947.799	4503.71
948.105	4473.2
948.41	4461.9
948.716	4459.19
949.022	4458.51
949.327	4419.42
949.633	4392.53
949.938	4396.14
950.244	4380.77
950.549	4363.15
950.854	4295.58
951.16	4275.92
951.465	4273.66
951.77	4276.82
952.075	4269.14
952.38	4250.16
952.685	4218.07
952.99	4189.82
953.294	4176.03
953.599	4135.81
953.904	4131.52
954.209	4120.67
954.513	4123.61
954.818	4048.81
955.122	4105.53
955.426	4031.41
955.731	4061.24
956.035	4038.41
956.339	4034.12
956.643	4010.84
956.948	3945.08
957.252	3922.71
957.556	3962.25
957.86	3910.96
958.163	3909.15
958.467	3904.4
958.771	3862.14
959.075	3822.37
959.378	3837.29
959.682	3836.16
959.985	3814.69
960.289	3767.23
960.592	3764.97
960.896	3783.28
961.199	3750.06
961.502	3748.7
961.805	3718.65
962.108	3669.61
962.411	3663.05
962.714	3677.06
963.017	3647.46
963.32	3627.8
963.623	3616.95
963.926	3575.37
964.228	3628.7
964.531	3566.33
964.833	3541.25
965.136	3494.24
965.438	3491.53
965.741	3487.01
966.043	3464.19
966.345	3431.2
966.648	3449.5
966.95	3453.57
967.252	3395.04
967.554	3400.91
967.856	3399.78
968.158	3338.77
968.46	3386.22
968.761	3361.37
969.063	3306.9
969.365	3296.74
969.666	3272.33
969.968	3279.11
970.269	3266.91
970.571	3273.01
970.872	3284.08
971.174	3249.28
971.475	3212.9
971.776	3244.99
972.077	3187.59
972.378	3140.81
972.679	3163.63
972.98	3189.85
973.281	3123.63
973.582	3150.98
973.883	3112.79
974.183	3094.48
974.484	3073.01
974.785	3079.11
975.085	3088.15
975.386	3066.68
975.686	3028.04
975.986	3003.86
976.287	3008.83
976.587	2967.48
976.887	2972.22
977.187	2944.43
977.487	2952.34
977.787	2936.52
978.087	2946.91
978.387	2905.11
978.687	2887.93
978.987	2891.1
979.286	2845.67
979.586	2829.85
979.885	2825.79
980.185	2828.95
980.484	2796.18
980.784	2804.32
981.083	2774.04
981.382	2776.3
981.682	2755.73
981.981	2725
982.28	2713.25
982.579	2739.69
982.878	2686.13
983.177	2670.76
983.475	2711.89
983.774	2680.93
984.073	2661.95
984.372	2659.92
984.67	2666.02
984.969	2622.18
985.267	2652.46
985.566	2591.9
985.864	2622.63
986.162	2567.49
986.461	2590.54
986.759	2579.01
987.057	2578.79
987.355	2532.69
987.653	2535.85
987.951	2544.21
988.249	2534.5
988.547	2461.73
988.844	2498.34
989.142	2446.81
989.44	2436.19
989.737	2392.8
990.035	2412.92
990.332	2401.17
990.63	2369.98
990.927	2409.08
991.224	2375.63
991.521	2384.22
991.819	2388.06
992.116	2375.18
992.413	2368.85
992.71	2335.86
993.006	2333.14
993.303	2325.69
993.6	2304.22
993.897	2319.59
994.193	2303.54
994.49	2287.27
994.787	2300.15
995.083	2251.34
995.379	2244.79
995.676	2210.66
995.972	2199.14
996.268	2215.86
996.565	2178.57
996.861	2176.09
997.157	2179.25
997.453	2155.3
997.749	2147.61
998.044	2146.71
998.34	2157.1
998.636	2154.62
998.932	2128.86
999.227	2110.1
999.523	2068.75
999.818	2101.51
1000.114	2070.55
1000.409	2019.48
1000.704	2038.01
1001	2021.97
1001.295	1990.1
1001.59	2021.97
1001.885	1961.18
1002.18	2009.99
1002.475	1996.2
1002.77	1985.13
1003.065	1953.49
1003.359	1932.25
1003.654	1959.37
1003.949	1924.34
1004.243	1916.43
1004.538	1874.85
1004.832	1896.55
1005.127	1909.43
1005.421	1870.56
1005.715	1870.33
1006.009	1871.69
1006.304	1858.81
1006.598	1850.67
1006.892	1816.1
1007.186	1819.03
1007.48	1792.37
1007.773	1779.04
1008.067	1809.09
1008.361	1762.54
1008.655	1714.4
1008.948	1749.21
1009.242	1741.97
1009.535	1746.04
1009.829	1707.4
1010.122	1689.09
1010.415	1699.26
1010.708	1696.33
1011.001	1682.31
1011.295	1647.29
1011.588	1659.49
1011.881	1648.19
1012.173	1635.31
1012.466	1641.41
1012.759	1643.45
1013.052	1600.73
1013.344	1608.64
1013.637	1598.25
1013.93	1581.53
1014.222	1570.68
1014.514	1540.85
1014.807	1560.28
1015.099	1521.41
1015.391	1551.02
1015.683	1525.71
1015.976	1497.46
1016.268	1509.89
1016.56	1522.32
1016.851	1482.77
1017.143	1498.14
1017.435	1472.15
1017.727	1454.52
1018.018	1452.49
1018.31	1443.9
1018.602	1438.93
1018.893	1462.66
1019.185	1409.55
1019.476	1431.25
1019.767	1418.14
1020.058	1405.71
1020.35	1382.44
1020.641	1375.43
1020.932	1396.67
1021.223	1361.42
1021.514	1381.31
1021.804	1356.22
1022.095	1330.91
1022.386	1315.32
1022.677	1328.43
1022.967	1323.68
1023.258	1292.49
1023.548	1285.04
1023.839	1302.66
1024.129	1256.79
1024.419	1294.98
1024.709	1273.06
1025	1234.64
1025.29	1249.56
1025.58	1214.53
1025.87	1245.72
1026.16	1226.51
1026.449	1228.32
1026.739	1197.36
1027.029	1219.73
1027.319	1196
1027.608	1170.46
1027.898	1152.16
1028.187	1172.72
1028.477	1163.68
1028.766	1161.2
1029.055	1156
1029.344	1129.56
1029.634	1130.69
1029.923	1135.44
1030.212	1110.8
1030.501	1105.15
1030.79	1113.74
1031.078	1069.68
1031.367	1113.74
1031.656	1094.99
1031.945	1071.48
1032.233	1065.16
1032.522	1076.68
1032.81	1065.61
1033.099	1061.31
1033.387	1037.81
1033.675	1056.12
1033.963	1007.3
1034.251	1043.91
1034.54	1033.52
1034.828	1003.91
1035.116	995.33
1035.403	972.28
1035.691	1000.52
1035.979	992.84
1036.267	986.06
1036.554	972.95
1036.842	968.43
1037.129	976.8
1037.417	961.43
1037.704	968.21
1037.992	942.67
1038.279	937.02
1038.566	942.67
1038.853	942.67
1039.14	942.67
