Data from hue_250_FLMS001491_00039.txt Node
Date: Tue Feb 07 16:00:54 GMT 2017
User: dcchb
Spectrometer: FLMS00149
Trigger mode: 0
Integration Time (sec): 2.000000E-2
Scans to average: 10
Electric dark correction enabled: true
Nonlinearity correction enabled: false
Boxcar width: 0
XAxis mode: Wavelengths
Number of Pixels in Spectrum: 2048
>>>>>Begin Spectral Data<<<<<
341.393	8.01
341.776	8.01
342.16	8.01
342.543	-54.81
342.927	-64.08
343.31	-55.27
343.693	-84.19
344.077	-81.48
344.46	-65.21
344.843	-52.56
345.226	-41.71
345.61	-23.18
345.993	-4.65
346.376	17.05
346.759	17.73
347.142	8.69
347.525	34.22
347.908	56.14
348.291	74.9
348.674	89.59
349.057	109.93
349.44	134.33
349.823	125.97
350.206	176.37
350.588	189.47
350.971	199.64
351.354	195.8
351.737	236.02
352.119	252.97
352.502	255.01
352.884	259.75
353.267	267.89
353.65	275.12
354.032	292.75
354.414	292.75
354.797	307.21
355.179	309.24
355.562	306.98
355.944	314.44
356.326	315.8
356.709	339.98
357.091	321.45
357.473	335.68
357.855	336.81
358.238	327.32
358.62	347.89
359.002	328
359.384	316.7
359.766	318.51
360.148	345.63
360.53	333.88
360.912	328
361.294	317.38
361.676	327.1
362.057	326.87
362.439	327.1
362.821	318.06
363.203	314.89
363.584	316.93
363.966	320.09
364.348	314.89
364.729	331.84
365.111	321.22
365.493	317.83
365.874	298.62
366.256	330.71
366.637	309.92
367.019	310.83
367.4	306.53
367.781	328.68
368.163	304.05
368.544	312.18
368.925	285.52
369.306	301.79
369.688	308.34
370.069	299.07
370.45	312.86
370.831	323.25
371.212	313.08
371.593	301.56
371.974	305.18
372.355	324.16
372.736	325.74
373.117	312.63
373.498	292.07
373.879	314.67
374.26	296.59
374.641	286.87
375.021	302.92
375.402	297.27
375.783	300.2
376.163	308.34
376.544	308.11
376.925	315.57
377.305	321.9
377.686	308.57
378.066	324.16
378.447	342.46
378.827	325.97
379.208	313.08
379.588	328.9
379.968	329.36
380.349	301.33
380.729	331.39
381.109	327.77
381.489	326.42
381.87	326.64
382.25	330.94
382.63	335.46
383.01	325.51
383.39	332.07
383.77	302.01
384.15	324.61
384.53	318.51
384.91	346.98
385.29	336.14
385.67	351.05
386.049	353.31
386.429	323.93
386.809	331.39
387.189	356.7
387.568	354.89
387.948	350.6
388.328	351.73
388.707	341.56
389.087	327.77
389.466	370.26
389.846	354.89
390.225	370.26
390.605	362.8
390.984	354.67
391.363	363.03
391.743	343.14
392.122	360.54
392.501	374.55
392.881	384.04
393.26	381.56
393.639	376.59
394.018	386.3
394.397	364.16
394.776	380.88
395.155	352.18
395.534	372.52
395.913	370.26
396.292	403.25
396.671	387.21
397.05	373.87
397.429	387.43
397.808	393.53
398.186	374.33
398.565	389.02
398.944	384.27
399.323	382.91
399.701	400.77
400.08	394.21
400.458	394.89
400.837	419.07
401.215	405.51
401.594	403.25
401.972	418.17
402.351	433.31
402.729	422.23
403.107	430.37
403.486	433.99
403.864	424.04
404.242	425.85
404.62	433.76
404.999	433.53
405.377	424.72
405.755	451.39
406.133	431.5
406.511	438.73
406.889	439.86
407.267	472.85
407.645	447.77
408.023	465.85
408.401	484.38
408.779	457.94
409.156	470.59
409.534	482.12
409.912	496.81
410.29	483.93
410.667	499.52
411.045	489.8
411.422	520.09
411.8	511.72
412.178	529.12
412.555	523.7
412.933	546.07
413.31	524.15
413.687	531.16
414.065	562.57
414.442	570.03
414.819	576.58
415.197	589.91
415.574	579.07
415.951	601.89
416.328	602.57
416.705	607.54
417.082	614.77
417.46	596.69
417.837	621.33
418.214	633.08
418.591	608.44
418.967	612.51
419.344	647.77
419.721	651.61
420.098	661.1
420.475	652.96
420.852	679.63
421.228	662
421.605	671.49
421.982	678.5
422.358	680.31
422.735	723.7
423.111	739.51
423.488	740.42
423.864	742.45
424.241	743.81
424.617	771.38
424.994	759.17
425.37	770.25
425.746	770.47
426.123	790.59
426.499	771.6
426.875	806.18
427.251	813.64
427.627	827.2
428.003	844.37
428.379	846.18
428.756	856.12
429.132	875.78
429.507	878.49
429.883	895.22
430.259	927.08
430.635	908.55
431.011	916.23
431.387	954.42
431.763	974.31
432.138	956.01
432.514	970.92
432.89	974.08
433.265	992.39
433.641	1014.31
434.016	991.49
434.392	1030.58
434.767	1067.87
435.143	1081.43
435.518	1060.18
435.894	1069.68
436.269	1114.65
436.644	1094.08
437.02	1114.87
437.395	1139.5
437.77	1170.69
438.145	1152.16
438.52	1216.34
438.895	1184.25
439.271	1224.93
439.646	1253.85
440.021	1265.15
440.395	1284.81
440.77	1255.21
441.145	1300.86
441.52	1328.43
441.895	1317.35
442.27	1352.83
442.645	1349.22
443.019	1330.69
443.394	1330.91
443.769	1343.34
444.143	1366.62
444.518	1398.93
444.892	1388.76
445.267	1424.02
445.641	1422.21
446.016	1421.98
446.39	1435.54
446.764	1446.16
447.139	1445.71
447.513	1466.95
447.887	1483.68
448.262	1523.45
448.636	1506.5
449.01	1509.89
449.384	1532.49
449.758	1505.14
450.132	1547.63
450.506	1534.75
450.88	1565.03
451.254	1548.08
451.628	1590.57
452.002	1617.91
452.376	1632.15
452.75	1657.91
453.123	1641.64
453.497	1658.59
453.871	1703.1
454.244	1708.98
454.618	1734.29
454.992	1717.34
455.365	1710.79
455.739	1783.55
456.112	1773.84
456.486	1813.16
456.859	1836.43
457.232	1828.53
457.606	1852.93
457.979	1870.56
458.352	1911.46
458.725	1917.11
459.099	1939.93
459.472	1964.12
459.845	1992.36
460.218	2001.63
460.591	1982.19
460.964	2025.58
461.337	2043.89
461.71	2059.71
462.083	2111
462.456	2115.98
462.829	2129.76
463.201	2150.1
463.574	2195.52
463.947	2207.72
464.32	2245.24
464.692	2239.14
465.065	2279.13
465.438	2310.32
465.81	2340.15
466.183	2352.58
466.555	2385.57
466.928	2388.96
467.3	2425.35
467.672	2446.59
468.045	2442.07
468.417	2466.93
468.789	2499.24
469.161	2513.93
469.534	2602.06
469.906	2635.06
470.278	2625.79
470.65	2645.91
471.022	2717.09
471.394	2747.6
471.766	2773.59
472.138	2786.01
472.51	2854.71
472.882	2870.53
473.253	2931.32
473.625	2942.62
473.997	2993.92
474.369	3035.5
474.74	3055.84
475.112	3121.15
475.484	3120.24
475.855	3206.57
476.227	3214.03
476.598	3283.4
476.97	3314.81
477.341	3379.67
477.713	3379.67
478.084	3430.52
478.455	3476.62
478.827	3520.23
479.198	3622.15
479.569	3593.22
479.94	3676.84
480.311	3742.83
480.682	3770.62
481.053	3865.31
481.424	3940.33
481.795	3941.24
482.166	3992.08
482.537	4019.43
482.908	4122.48
483.279	4137.39
483.65	4218.29
484.021	4291.06
484.391	4307.78
484.762	4317.5
485.133	4360.21
485.503	4428.91
485.874	4537.15
486.244	4543.93
486.615	4577.61
486.985	4685.85
487.356	4740.54
487.726	4771.72
488.097	4830.71
488.467	4882.91
488.837	4957.71
489.207	4985.5
489.578	5064.15
489.948	5095.56
490.318	5146.18
490.688	5181.21
491.058	5232.28
491.428	5279.06
491.798	5315.89
492.168	5426.62
492.538	5460.97
492.908	5476.57
493.278	5527.86
493.648	5564.92
494.017	5606.51
494.387	5651.48
494.757	5676.11
495.126	5765.6
495.496	5771.92
495.866	5875.65
496.235	5847.63
496.605	5871.36
496.974	5922.2
497.344	5950.68
497.713	5992.03
498.082	6018.25
498.452	6061.86
498.821	6049.88
499.19	6080.84
499.559	6108.64
499.928	6154.29
500.298	6172.82
500.667	6237.67
501.036	6224.12
501.405	6286.26
501.774	6285.36
502.143	6334.85
502.512	6364.23
502.88	6363.55
503.249	6364.45
503.618	6443.77
503.987	6410.78
504.356	6478.57
504.724	6447.16
505.093	6512.24
505.462	6502.3
505.83	6504.56
506.199	6626.37
506.567	6632.47
506.936	6610.32
507.304	6692.8
507.672	6673.37
508.041	6742.75
508.409	6769.64
508.777	6750.2
509.145	6809.41
509.514	6777.1
509.882	6863.2
510.25	6872.01
510.618	6898.9
510.986	6892.35
511.354	6931.44
511.722	6936.19
512.09	6986.58
512.458	7021.84
512.826	7028.16
513.193	7021.84
513.561	7068.39
513.929	7116.97
514.297	7124.88
514.664	7103.41
515.032	7163.98
515.4	7178.89
515.767	7223.86
516.135	7189.74
516.502	7160.81
516.869	7258.44
517.237	7236.07
517.604	7261.38
517.972	7282.85
518.339	7336.86
518.706	7341.37
519.073	7315.16
519.44	7371.66
519.808	7431.32
520.175	7366.23
520.542	7449.62
520.909	7465.21
521.276	7372.79
521.643	7433.8
522.009	7490.07
522.376	7502.05
522.743	7523.06
523.11	7544.99
523.477	7673.57
523.843	7658.2
524.21	7692.33
524.577	7681.93
524.943	7692.1
525.31	7717.86
525.676	7729.16
526.043	7808.03
526.409	7792.21
526.776	7837.86
527.142	7829.5
527.508	7865.88
527.874	7788.14
528.241	7910.63
528.607	7843.06
528.973	7963.96
529.339	7902.26
529.705	7934.58
530.071	7951.3
530.437	8054.35
530.803	8012.54
531.169	8082.15
531.535	7994.92
531.901	7956.27
532.267	8044.86
532.632	8049.15
532.998	8025.88
533.364	8042.83
533.73	8031.07
534.095	8108.36
534.461	8036.05
534.826	8114.69
535.192	8057.74
535.557	8132.99
535.923	8085.08
536.288	8069.49
536.653	8117.85
537.019	8005.09
537.384	8057.29
537.749	8113.78
538.114	8034.01
538.479	8080.34
538.845	8104.29
539.21	7980.45
539.575	8004.86
539.94	8000.79
540.305	8075.37
540.67	8076.5
541.034	7976.16
541.399	8032.88
541.764	8052.99
542.129	7967.8
542.494	8038.98
542.858	8028.59
543.223	8074.24
543.587	8100.68
543.952	8033.79
544.316	8024.07
544.681	8009.38
545.045	7980.68
545.41	8010.06
545.774	8043.5
546.138	8003.73
546.503	7935.03
546.867	7956.27
547.231	8057.74
547.595	7983.39
547.959	7978.42
548.324	7994.24
548.688	7915.82
549.052	8050.96
549.416	8015.03
549.779	7951.75
550.143	7964.18
550.507	7985.88
550.871	7952.66
551.235	7937.07
551.599	7962.38
551.962	7955.6
552.326	7953.56
552.689	7978.87
553.053	7950.17
553.417	7893.9
553.78	7966.9
554.143	7929.61
554.507	7956.27
554.87	7971.64
555.234	8017.06
555.597	7994.69
555.96	7955.37
556.323	7919.44
556.686	7928.48
557.05	7937.97
557.413	7983.39
557.776	8009.38
558.139	8004.63
558.502	8058.19
558.865	8026.33
559.228	8077.85
559.59	8048.93
559.953	8051.41
560.316	8117.4
560.679	8103.39
561.041	8128.92
561.404	8155.14
561.767	8144.97
562.129	8150.39
562.492	8206.21
562.854	8198.75
563.217	8187
563.579	8253.22
563.941	8220.67
564.304	8250.05
564.666	8276.04
565.028	8339.77
565.39	8381.35
565.753	8367.11
566.115	8360.11
566.477	8411.18
566.839	8370.95
567.201	8462.48
567.563	8452.31
567.925	8428.8
568.287	8480.78
568.648	8478.52
569.01	8502.47
569.372	8581.12
569.734	8507.67
570.095	8593.77
570.457	8648.23
570.819	8603.94
571.18	8596.71
571.542	8600.32
571.903	8629.02
572.265	8681.45
572.626	8700.89
572.987	8708.57
573.349	8757.83
573.71	8754.67
574.071	8783.37
574.432	8807.78
574.794	8864.5
575.155	8849.13
575.516	8777.5
575.877	8915.8
576.238	8895.68
576.599	9005.74
576.96	8989.92
577.32	8935.68
577.681	8982.91
578.042	9000.77
578.403	8939.52
578.763	9016.58
579.124	9029.92
579.485	9036.47
579.845	9123.02
580.206	9083.7
580.566	9094.55
580.927	9125.06
581.287	9162.57
581.648	9073.08
582.008	9156.92
582.368	9161.44
582.728	9177.94
583.089	9136.58
583.449	9187.88
583.809	9226.07
584.169	9276.47
584.529	9266.97
584.889	9338.38
585.249	9284.37
585.609	9222
585.969	9294.09
586.329	9293.41
586.688	9366.63
587.048	9359.4
587.408	9269.01
587.768	9292.51
588.127	9337.93
588.487	9343.13
588.846	9419.51
589.206	9318.27
589.565	9331.83
589.925	9435.78
590.284	9460.19
590.643	9432.85
591.003	9440.08
591.362	9474.2
591.721	9459.29
592.08	9529.34
592.44	9428.33
592.799	9496.8
593.158	9513.97
593.517	9432.17
593.876	9556.68
594.235	9481.66
594.593	9472.17
594.952	9533.86
595.311	9479.4
595.67	9559.4
596.029	9531.6
596.387	9566.18
596.746	9571.15
597.104	9535.67
597.463	9551.71
597.822	9631.71
598.18	9594.2
598.538	9560.98
598.897	9620.64
599.255	9529.11
599.613	9661.31
599.972	9657.7
600.33	9680.3
600.688	9630.81
601.046	9642.56
601.404	9672.16
601.762	9647.75
602.12	9743.12
602.478	9717.81
602.836	9736.34
603.194	9632.61
603.552	9642.11
603.91	9647.98
604.268	9734.31
604.625	9618.15
604.983	9751.03
605.341	9685.04
605.698	9756.9
606.056	9697.47
606.413	9727.75
606.771	9737.7
607.128	9751.48
607.485	9721.2
607.843	9734.31
608.2	9839.84
608.557	9779.73
608.914	9790.12
609.272	9781.31
609.629	9815.89
609.986	9848.43
610.343	9840.52
610.7	9884.81
611.057	9870.12
611.414	9853.85
611.771	9868.77
612.127	9883
612.484	9887.52
612.841	9899.27
613.198	9900.63
613.554	9931.82
613.911	9955.54
614.267	9982.66
614.624	9998.93
614.98	9939.72
615.337	9948.76
615.693	9943.79
616.05	9969.1
616.406	10027.86
616.762	10006.16
617.118	9954.64
617.475	9970.23
617.831	10007.29
618.187	10011.36
618.543	10067.18
618.899	10060.17
619.255	10042.77
619.611	10063.11
619.967	10028.31
620.323	10060.4
620.678	10092.04
621.034	10015.43
621.39	10106.73
621.746	10050.91
622.101	10126.84
622.457	10054.07
622.812	10134.3
623.168	10159.61
623.523	10153.73
623.879	10144.24
624.234	10035.77
624.589	10153.73
624.945	10106.73
625.3	10121.87
625.655	10093.84
626.01	10127.29
626.365	10101.98
626.72	10149.66
627.075	10122.77
627.43	10058.82
627.785	10033.28
628.14	10101.75
628.495	10138.82
628.85	10093.84
629.205	10078.03
629.559	10078.25
629.914	10033.73
630.269	10119.15
630.623	10012.04
630.978	9976.33
631.332	10054.07
631.687	10006.39
632.041	9937.69
632.396	10006.39
632.75	9912.83
633.104	9926.62
633.459	9937.01
633.813	9904.47
634.167	9906.51
634.521	9904.47
634.875	9890.23
635.229	9875.55
635.583	9817.69
635.937	9866.51
636.291	9749.67
636.645	9779.5
636.999	9793.29
637.352	9782.67
637.706	9646.17
638.06	9791.25
638.413	9784.7
638.767	9784.02
639.121	9741.99
639.474	9647.3
639.828	9656.34
640.181	9718.26
640.534	9687.75
640.888	9619.73
641.241	9585.38
641.594	9631.03
641.947	9726.4
642.301	9643.01
642.654	9577.25
643.007	9706.51
643.36	9566.63
643.713	9613.86
644.066	9661.31
644.419	9609.79
644.771	9501.09
645.124	9407.99
645.477	9487.08
645.83	9367.99
646.182	9372.06
646.535	9278.27
646.888	9327.99
647.24	9254.32
647.593	9349.91
647.945	9275.79
648.298	9255.45
648.65	9228.1
649.002	9256.13
649.355	9261.32
649.707	9307.65
650.059	9296.13
650.411	9350.59
650.763	9426.97
651.115	9468.1
651.467	9450.02
651.819	9425.16
652.171	9492.73
652.523	9419.96
652.875	9414.54
653.227	9369.34
653.578	9465.16
653.93	9477.82
654.282	9393.98
654.633	9382.9
654.985	9393.3
655.337	9476.01
655.688	9408.67
656.039	9424.94
656.391	9400.53
656.742	9390.59
657.094	9350.59
657.445	9404.37
657.796	9380.64
658.147	9428.1
658.498	9378.61
658.849	9436.69
659.2	9391.26
659.551	9374.99
659.902	9487.31
660.253	9414.99
660.604	9454.31
660.955	9378.16
661.306	9393.98
661.656	9376.35
662.007	9350.36
662.358	9406.63
662.708	9371.83
663.059	9379.29
663.409	9349.23
663.76	9438.27
664.11	9405.73
664.461	9431.49
664.811	9448.89
665.161	9393.75
665.511	9344.26
665.862	9387.87
666.212	9426.52
666.562	9479.4
666.912	9427.2
667.262	9341.55
667.612	9436.01
667.962	9432.17
668.312	9408.67
668.662	9460.19
669.011	9422.22
669.361	9395.11
669.711	9380.19
670.06	9362.79
670.41	9349.23
670.76	9427.87
671.109	9348.78
671.459	9365.95
671.808	9382.9
672.157	9384.03
672.507	9322.79
672.856	9304.26
673.205	9309.46
673.554	9348.33
673.904	9343.58
674.253	9315.79
674.602	9339.74
674.951	9178.39
675.3	9160.76
675.649	9290.02
675.998	9301.55
676.346	9268.1
676.695	9271.49
677.044	9176.58
677.393	9229.91
677.741	9187.65
678.09	9238.27
678.438	9248.22
678.787	9213.64
679.135	9164.83
679.484	9116.24
679.832	9164.38
680.181	9098.16
680.529	9189.24
680.877	9122.8
681.225	9179.52
681.573	9132.74
681.922	9076.24
682.27	9101.1
682.618	9008.22
682.966	9008.9
683.314	9049.13
683.661	9040.31
684.009	8993.76
684.357	8955.12
684.705	8916.93
685.053	8992.86
685.4	8880.77
685.748	8840.09
686.095	8824.27
686.443	8776.82
686.79	8844.16
687.138	8849.36
687.485	8817.72
687.832	8882.58
688.18	8810.26
688.527	8746.76
688.874	8726.88
689.221	8683.03
689.568	8630.61
689.915	8587.9
690.262	8651.17
690.609	8656.37
690.956	8599.87
691.303	8649.14
691.65	8472.19
691.997	8493.66
692.344	8425.87
692.69	8435.81
693.037	8438.75
693.383	8377.05
693.73	8405.08
694.077	8361.69
694.423	8390.16
694.769	8228.13
695.116	8329.37
695.462	8261.35
695.808	8247.11
696.155	8281.24
696.501	8172.54
696.847	8243.95
697.193	8123.5
697.539	8159.88
697.885	8003.5
698.231	8016.84
698.577	8101.58
698.923	8037.4
699.269	7989.95
699.614	7911.08
699.96	7921.92
700.306	7922.6
700.651	7857.07
700.997	7862.72
701.342	7832.44
701.688	7821.81
702.033	7805.77
702.379	7794.7
702.724	7778.88
703.069	7731.65
703.415	7661.14
703.76	7664.53
704.105	7669.05
704.45	7593.8
704.795	7530.07
705.14	7584.31
705.485	7594.7
705.83	7504.31
706.175	7508.83
706.52	7422.05
706.865	7525.32
707.209	7467.93
707.554	7393.8
707.899	7408.49
708.243	7396.97
708.588	7325.33
708.932	7316.06
709.277	7309.06
709.621	7312.67
709.966	7227.03
710.31	7269.29
710.654	7185.22
710.998	7178.22
711.342	7257.99
711.687	7183.64
712.031	7133.7
712.375	7138.44
712.719	7136.18
713.063	7046.47
713.407	7069.97
713.75	7090.76
714.094	7056.86
714.438	7079.69
714.782	7097.77
715.125	7017.32
715.469	7019.58
715.812	6963.31
716.156	6926.47
716.499	6967.15
716.843	6943.65
717.186	6911.33
717.53	6941.61
717.873	6972.34
718.216	6942.97
718.559	6934.38
718.902	6815.06
719.246	6896.19
719.589	6860.03
719.932	6850.99
720.275	6783.42
720.617	6801.05
720.96	6850.54
721.303	6835.17
721.646	6867.94
721.989	6761.95
722.331	6766.93
722.674	6798.11
723.016	6792.01
723.359	6712.24
723.701	6740.49
724.044	6670.88
724.386	6716.76
724.729	6742.97
725.071	6724.89
725.413	6726.7
725.755	6716.53
726.097	6685.8
726.439	6668.62
726.782	6676.53
727.124	6676.99
727.465	6696.87
727.807	6643.99
728.149	6664.78
728.491	6565.12
728.833	6635.4
729.175	6621.17
729.516	6592.24
729.858	6616.2
730.199	6615.07
730.541	6629.98
730.882	6616.2
731.224	6643.09
731.565	6658.23
731.906	6576.88
732.248	6570.77
732.589	6569.87
732.93	6526.71
733.271	6604.22
733.612	6608.74
733.953	6553.15
734.294	6541.85
734.635	6560.38
734.976	6559.93
735.317	6546.14
735.658	6583.65
735.999	6581.62
736.339	6565.12
736.68	6602.86
737.021	6546.59
737.361	6563.09
737.702	6600.15
738.042	6584.78
738.383	6578.23
738.723	6600.83
739.063	6557.21
739.404	6611.22
739.744	6592.69
740.084	6596.54
740.424	6601.73
740.764	6541.17
741.104	6664.56
741.444	6612.81
741.784	6620.72
742.124	6627.95
742.464	6644.22
742.804	6676.53
743.143	6632.69
743.483	6693.03
743.823	6646.93
744.162	6709.53
744.502	6678.79
744.841	6724.44
745.181	6752.24
745.52	6689.64
745.86	6749.75
746.199	6770.99
746.538	6806.02
746.877	6850.31
747.216	6843.53
747.556	6866.13
747.895	6831.33
748.234	6935.28
748.573	6947.71
748.911	6982.97
749.25	7014.38
749.589	7065.9
749.928	7112.23
750.267	7162.85
750.605	7206.24
750.944	7255.28
751.283	7230.19
751.621	7307.25
751.96	7374.82
752.298	7414.59
752.636	7513.12
752.975	7471.77
753.313	7608.26
753.651	7715.6
753.989	7697.52
754.327	7789.27
754.666	7810.97
755.004	7924.64
755.342	8014.58
755.679	8109.49
756.017	8140.9
756.355	8273.78
756.693	8368.01
757.031	8463.61
757.368	8526.65
757.706	8647.1
758.044	8690.04
758.381	8815.23
758.719	8965.51
759.056	9010.48
759.394	9069.69
759.731	9123.25
760.068	9285.73
760.405	9320.98
760.743	9441.66
761.08	9629.9
761.417	9624.25
761.754	9776.56
762.091	9878.03
762.428	9961.42
762.765	10015.65
763.102	10162.54
763.438	10217.23
763.775	10341.52
764.112	10433.5
764.449	10509.43
764.785	10649.31
765.122	10682.76
765.458	10698.8
765.795	10849.98
766.131	11028.96
766.467	11026.93
766.804	11134.5
767.14	11154.38
767.476	11254.72
767.812	11276.86
768.148	11424.88
768.485	11503.98
768.821	11553.47
769.157	11542.17
769.492	11555.73
769.828	11761.82
770.164	11699.9
770.5	11828.04
770.836	11875.72
771.171	11952.1
771.507	11993.46
771.842	12001.59
772.178	12105.32
772.513	12120.91
772.849	12158.65
773.184	12194.35
773.519	12262.15
773.855	12278.87
774.19	12238.42
774.525	12254.69
774.86	12400
775.195	12442.03
775.53	12416.95
775.865	12355.48
776.2	12372.43
776.535	12327.91
776.87	12500.11
777.205	12457.85
777.539	12435.25
777.874	12498.75
778.209	12532.88
778.543	12471.86
778.878	12435.25
779.212	12509.6
779.547	12404.07
779.881	12529.71
780.215	12463.05
780.55	12477.28
780.884	12422.82
781.218	12434.8
781.552	12546.66
781.886	12491.07
782.22	12435.7
782.554	12435.48
782.888	12448.36
783.222	12417.85
783.556	12327.68
783.889	12467.79
784.223	12317.29
784.557	12306.44
784.89	12395.25
785.224	12349.83
785.557	12224.64
785.891	12204.3
786.224	12217.63
786.558	12297.63
786.891	12155.03
787.224	12193.45
787.557	12184.41
787.891	12179.89
788.224	12113.68
788.557	12201.36
788.89	12077.07
789.223	12177.63
789.556	12056.05
789.888	12079.56
790.221	12016.96
790.554	11988.94
790.887	12028.26
791.219	11863.97
791.552	11981.7
791.884	11909.16
792.217	11836.17
792.549	11795.72
792.882	11771.31
793.214	11756.63
793.546	11775.16
793.879	11691.09
794.211	11630.3
794.543	11714.14
794.875	11594.37
795.207	11679.57
795.539	11606.57
795.871	11649.96
796.203	11494.49
796.535	11446.13
796.867	11529.29
797.198	11528.84
797.53	11373.36
797.862	11373.81
798.193	11399.57
798.525	11365.68
798.856	11388.5
799.188	11282.51
799.519	11196.19
799.85	11165.46
800.182	11236.19
800.513	11252.01
800.844	11125.68
801.175	11236.87
801.506	11174.49
801.837	11133.59
802.168	11078.45
802.499	11145.34
802.83	11040.49
803.161	11008.4
803.491	10939.47
803.822	10996.19
804.153	10901.28
804.483	10805.01
804.814	10837.1
805.145	10917.55
805.475	10840.72
805.805	10775.18
806.136	10744.22
806.466	10750.78
806.796	10746.71
807.126	10666.49
807.457	10673.26
807.787	10675.98
808.117	10586.26
808.447	10633.49
808.777	10620.38
809.107	10564.79
809.436	10567.96
809.766	10520.95
810.096	10500.84
810.426	10498.13
810.755	10448.19
811.085	10457
811.414	10420.84
811.744	10369.09
812.073	10328.64
812.403	10333.61
812.732	10267.17
813.061	10297.46
813.39	10253.39
813.719	10134.3
814.049	10210.23
814.378	10198.02
814.707	10146.27
815.036	10140.85
815.365	10116.44
815.693	10031.25
816.022	10028.54
816.351	9959.61
816.68	10025.82
817.008	10007.75
817.337	9962.77
817.665	9885.94
817.994	9949.89
818.322	9859.05
818.651	9877.58
818.979	9832.38
819.307	9880.29
819.636	9857.69
819.964	9784.7
820.292	9820.18
820.62	9801.88
820.948	9825.15
821.276	9777.24
821.604	9753.51
821.932	9767.07
822.259	9805.94
822.587	9763.46
822.915	9765.72
823.243	9775.21
823.57	9737.47
823.898	9780.41
824.225	9747.87
824.553	9746.51
824.88	9790.58
825.207	9748.77
825.535	9822.21
825.862	9845.26
826.189	9712.16
826.516	9839.61
826.843	9795.32
827.17	9815.89
827.497	9853.63
827.824	9782.89
828.151	9831.7
828.478	9748.77
828.805	9811.14
829.131	9847.98
829.458	9776.56
829.785	9768.2
830.111	9829.22
830.438	9911.48
830.764	9755.32
831.09	9849.78
831.417	9768.43
831.743	9834.19
832.069	9810.91
832.395	9740.18
832.722	9788.32
833.048	9781.76
833.374	9787.19
833.7	9691.6
834.026	9738.6
834.351	9697.47
834.677	9668.77
835.003	9705.61
835.329	9747.41
835.654	9726.17
835.98	9725.04
836.306	9751.93
836.631	9692.95
836.956	9647.08
837.282	9660.86
837.607	9626.06
837.932	9606.63
838.258	9584.03
838.583	9605.27
838.908	9547.87
839.233	9545.38
839.558	9622.9
839.883	9523.92
840.208	9507.65
840.533	9471.71
840.858	9456.35
841.182	9462.9
841.507	9466.06
841.832	9377.93
842.156	9431.94
842.481	9316.46
842.805	9367.76
843.13	9340.64
843.454	9344.26
843.778	9319.63
844.103	9317.37
844.427	9226.97
844.751	9293.64
845.075	9195.34
845.399	9204.6
845.723	9065.4
846.047	9169.35
846.371	9082.8
846.695	9093.87
847.019	9014.33
847.343	8975.23
847.666	8945.85
847.99	8914.21
848.313	8829.47
848.637	8878.51
848.96	8798.51
849.284	8871.28
849.607	8746.31
849.931	8732.98
850.254	8664.05
850.577	8661.11
850.9	8565.75
851.223	8525.98
851.546	8498.86
851.869	8424.74
852.192	8462.93
852.515	8453.21
852.838	8449.82
853.161	8384.96
853.483	8290.95
853.806	8337.73
854.129	8298.41
854.451	8297.96
854.774	8287.79
855.096	8245.76
855.419	8217.28
855.741	8182.26
856.063	8123.95
856.385	8182.48
856.708	8151.3
857.03	8116.27
857.352	8099.32
857.674	8074.01
857.996	8010.51
858.318	8045.09
858.64	7975.71
858.961	7944.97
859.283	7984.52
859.605	7879.89
859.926	7938.42
860.248	7916.27
860.57	7851.87
860.891	7859.55
861.212	7820.91
861.534	7774.81
861.855	7745.43
862.176	7771.19
862.498	7763.51
862.819	7766.67
863.14	7711.08
863.461	7760.57
863.782	7682.16
864.103	7678.32
864.424	7692.33
864.745	7686
865.065	7586.57
865.386	7644.87
865.707	7622.05
866.027	7658.43
866.348	7578.43
866.668	7611.42
866.989	7547.02
867.309	7516.96
867.63	7549.96
867.95	7511.31
868.27	7491.65
868.59	7512.67
868.91	7505.89
869.23	7464.54
869.55	7482.61
869.87	7528.71
870.19	7441.03
870.51	7445.78
870.83	7436.51
871.15	7404.2
871.469	7436.06
871.789	7408.27
872.109	7415.27
872.428	7369.62
872.748	7316.52
873.067	7351.09
873.386	7407.14
873.706	7320.13
874.025	7298.89
874.344	7294.6
874.663	7305.44
874.982	7286.91
875.301	7219.57
875.62	7256.86
875.939	7229.06
876.258	7221.38
876.577	7221.15
876.896	7145.67
877.214	7220.47
877.533	7157.42
877.852	7158.1
878.17	7180.48
878.489	7152.91
878.807	7152.91
879.125	7125.79
879.444	7114.71
879.762	7115.62
880.08	7093.47
880.398	7048.73
880.716	7059.57
881.034	7004.21
881.352	6991.33
881.67	6971.22
881.988	7050.76
882.306	6948.39
882.624	6945.45
882.941	6928.05
883.259	6895.51
883.577	6882.86
883.894	6924.21
884.212	6858.9
884.529	6918.56
884.846	6881.73
885.164	6854.16
885.481	6772.58
885.798	6843.31
886.115	6765.8
886.432	6809.41
886.75	6745.68
887.067	6794.04
887.383	6687.61
887.7	6714.72
888.017	6689.19
888.334	6674.95
888.651	6610.55
888.967	6666.36
889.284	6588.17
889.6	6619.36
889.917	6544.11
890.233	6561.96
890.55	6555.86
890.866	6490.78
891.182	6524
891.498	6554.73
891.815	6476.99
892.131	6473.6
892.447	6495.07
892.763	6438.57
893.079	6425.69
893.395	6395.41
893.71	6409.2
894.026	6366.94
894.342	6398.12
894.657	6302.31
894.973	6355.41
895.289	6289.88
895.604	6237.67
895.92	6269.76
896.235	6200.84
896.55	6164
896.865	6192.93
897.181	6107.73
897.496	6215.98
897.811	6092.37
898.126	6147.51
898.441	6166.72
898.756	6070.45
899.071	6020.73
899.386	6011.92
899.7	5978.47
900.015	5997
900.33	5906.84
900.644	5928.3
900.959	5905.71
901.273	5876.78
901.588	5839.49
901.902	5841.75
902.216	5810.12
902.531	5801.75
902.845	5808.31
903.159	5743.9
903.473	5768.76
903.787	5718.14
904.101	5677.92
904.415	5644.92
904.729	5623.91
905.042	5659.39
905.356	5639.05
905.67	5594.53
905.984	5631.59
906.297	5581.87
906.611	5533.96
906.924	5535.32
907.237	5539.39
907.551	5479.95
907.864	5509.33
908.177	5471.14
908.491	5444.48
908.804	5413.74
909.117	5417.36
909.43	5330.58
909.743	5358.83
910.056	5315.21
910.368	5288.77
910.681	5248.32
910.994	5240.87
911.307	5238.61
911.619	5198.61
911.932	5182.11
912.244	5230.47
912.557	5186.18
912.869	5149.79
913.181	5077.48
913.494	5090.81
913.806	5065.05
914.118	5046.07
914.43	4999.74
914.742	5011.04
915.054	4985.05
915.366	4964.04
915.678	4966.75
915.99	4941.66
916.302	4895.11
916.613	4909.8
916.925	4857.6
917.236	4871.38
917.548	4795.9
917.859	4819.41
918.171	4776.7
918.482	4754.55
918.794	4763.14
919.105	4721.56
919.416	4710.48
919.727	4721.78
920.038	4710.94
920.349	4678.17
920.66	4656.25
920.971	4650.37
921.282	4636.81
921.593	4603.82
921.903	4548
922.214	4539.87
922.525	4568.34
922.835	4486.99
923.146	4453.32
923.456	4457.61
923.767	4474.33
924.077	4512.07
924.387	4461.22
924.697	4421.23
925.008	4388.23
925.318	4329.48
925.628	4425.75
925.938	4352.3
926.248	4356.59
926.558	4284.28
926.867	4264.85
927.177	4269.82
927.487	4272.3
927.796	4218.07
928.106	4270.27
928.416	4251.96
928.725	4197.05
929.034	4173.55
929.344	4233.66
929.653	4228.01
929.962	4147.79
930.271	4121.8
930.581	4090.16
930.89	4076.6
931.199	4076.15
931.508	4099.88
931.817	4024.63
932.125	4029.82
932.434	3991.18
932.743	3977.4
933.051	3959.54
933.36	3984.4
933.669	3956.61
933.977	3891.3
934.286	3911.41
934.594	3891.52
934.902	3888.13
935.21	3874.12
935.519	3827.34
935.827	3830.28
936.135	3819.21
936.443	3788.47
936.751	3785.99
937.059	3778.53
937.367	3753.9
937.674	3736.5
937.982	3764.29
938.29	3727.91
938.597	3734.92
938.905	3654.24
939.213	3662.83
939.52	3641.59
939.827	3682.71
940.135	3643.62
940.442	3597.97
940.749	3587.58
941.056	3573.34
941.363	3547.8
941.67	3561.81
941.977	3515.03
942.284	3528.37
942.591	3503.51
942.898	3457.64
943.205	3487.69
943.511	3458.76
943.818	3451.08
944.125	3432.33
944.431	3404.3
944.738	3402.04
945.044	3397.07
945.35	3361.37
945.657	3317.53
945.963	3320.01
946.269	3324.76
946.575	3367.92
946.881	3288.15
947.187	3299.45
947.493	3291.76
947.799	3261.93
948.105	3226.91
948.41	3247.7
948.716	3214.25
949.022	3191.65
949.327	3188.94
949.633	3176.29
949.938	3195.27
950.244	3172.67
950.549	3132.22
950.854	3111.43
951.16	3120.47
951.465	3111.43
951.77	3079.57
952.075	3101.71
952.38	3087.7
952.685	3100.58
952.99	3060.13
953.294	3025.1
953.599	3062.17
953.904	3004.09
954.209	2968.16
954.513	2985.56
954.818	2961.38
955.122	2990.75
955.426	2953.69
955.731	2953.92
956.035	2901.94
956.339	2902.85
956.643	2873.92
956.948	2888.84
957.252	2847.48
957.556	2861.49
957.86	2840.7
958.163	2848.61
958.467	2790.99
958.771	2814.94
959.075	2795.51
959.378	2796.41
959.682	2793.47
959.985	2778.78
960.289	2733.36
960.592	2754.6
960.896	2759.57
961.199	2705.56
961.502	2721.84
961.805	2717.99
962.108	2679.35
962.411	2666.24
962.714	2679.35
963.017	2663.08
963.32	2665.57
963.623	2659.69
963.926	2631.44
964.228	2621.05
964.531	2611.1
964.833	2563.65
965.136	2598.22
965.438	2567.49
965.741	2528.39
966.043	2531.33
966.345	2546.02
966.648	2536.3
966.95	2532.01
967.252	2502.41
967.554	2505.34
967.856	2465.57
968.158	2470.09
968.46	2454.05
968.761	2459.47
969.063	2451.33
969.365	2415.4
969.666	2392.13
969.968	2404.1
970.269	2411.79
970.571	2379.92
970.872	2377.89
971.174	2382.41
971.475	2405.69
971.776	2350.77
972.077	2358
972.378	2335.18
972.679	2304.9
972.98	2308.29
973.281	2329.98
973.582	2331.79
973.883	2320.04
974.183	2279.36
974.484	2248.85
974.785	2287.04
975.085	2251.34
975.386	2268.06
975.686	2264.9
975.986	2226.03
976.287	2210.44
976.587	2227.84
976.887	2200.94
977.187	2224
977.487	2210.44
977.787	2181.06
978.087	2169.76
978.387	2150.78
978.687	2142.64
978.987	2116.88
979.286	2093.15
979.586	2095.19
979.885	2086.37
980.185	2102.19
980.484	2062.64
980.784	2079.37
981.083	2055.19
981.382	2056.32
981.682	2081.17
981.981	2041.63
982.28	2001.18
982.579	2063.1
982.878	1985.13
983.177	2025.58
983.475	2000.5
983.774	2012.93
984.073	1997.33
984.372	1961.4
984.67	1930.22
984.969	1947.39
985.267	1954.62
985.566	1951.91
985.864	1948.07
986.162	1940.16
986.461	1920.05
986.759	1902.65
987.057	1906.72
987.355	1903.78
987.653	1889.09
987.951	1883.21
988.249	1861.97
988.547	1885.02
988.844	1840.28
989.142	1839.82
989.44	1842.99
989.737	1858.36
990.035	1801.18
990.332	1809.32
990.63	1816.1
990.927	1780.84
991.224	1794.63
991.521	1772.26
991.819	1791.46
992.116	1761.18
992.413	1736.55
992.71	1740.39
993.006	1761.41
993.303	1705.82
993.6	1745.82
993.897	1745.36
994.193	1715.08
994.49	1692.03
994.787	1697.68
995.083	1687.51
995.379	1689.32
995.676	1682.54
995.972	1672.6
996.268	1629.66
996.565	1648.42
996.861	1658.81
997.157	1639.38
997.453	1649.55
997.749	1631.24
998.044	1606.16
998.34	1577.91
998.636	1598.47
998.932	1598.02
999.227	1601.19
999.523	1600.51
999.818	1560.06
1000.114	1558.7
1000.409	1536.78
1000.704	1519.15
1001	1539.27
1001.295	1525.93
1001.59	1519.38
1001.885	1548.31
1002.18	1492.94
1002.475	1502.21
1002.77	1492.71
1003.065	1468.08
1003.359	1473.96
1003.654	1490.23
1003.949	1437.8
1004.243	1474.18
1004.538	1459.95
1004.832	1452.72
1005.127	1442.77
1005.421	1420.85
1005.715	1429.67
1006.009	1427.41
1006.304	1419.95
1006.598	1392.83
1006.892	1386.5
1007.186	1384.02
1007.48	1375.2
1007.773	1367.97
1008.067	1325.71
1008.361	1403.23
1008.655	1340.4
1008.948	1360.74
1009.242	1345.83
1009.535	1322.78
1009.829	1303.57
1010.122	1295.43
1010.415	1299.73
1010.708	1292.72
1011.001	1291.59
1011.295	1289.78
1011.588	1274.19
1011.881	1303.57
1012.173	1253.63
1012.466	1245.49
1012.759	1249.56
1013.052	1230.35
1013.344	1233.51
1013.637	1242.1
1013.93	1208.43
1014.222	1189.9
1014.514	1229.67
1014.807	1192.61
1015.099	1201.65
1015.391	1177.47
1015.683	1197.13
1015.976	1176.79
1016.268	1153.97
1016.56	1148.54
1016.851	1159.62
1017.143	1164.14
1017.435	1167.98
1017.727	1160.07
1018.018	1128.88
1018.31	1113.29
1018.602	1112.16
1018.893	1099.73
1019.185	1139.96
1019.476	1106.06
1019.767	1091.14
1020.058	1075.32
1020.35	1080.3
1020.641	1074.87
1020.932	1053.18
1021.223	1064.25
1021.514	1072.39
1021.804	1036.91
1022.095	1031.26
1022.386	1066.51
1022.677	1026.29
1022.967	1029.22
1023.258	1040.3
1023.548	1026.51
1023.839	964.82
1024.129	1023.57
1024.419	972.95
1024.709	992.39
1025	992.39
1025.29	995.78
1025.58	955.33
1025.87	975.89
1026.16	970.69
1026.449	969.79
1026.739	958.04
1027.029	934.54
1027.319	916.46
1027.608	930.24
1027.898	911.26
1028.187	916.46
1028.477	928.21
1028.766	905.61
1029.055	903.58
1029.344	927.98
1029.634	893.86
1029.923	894.99
1030.212	883.69
1030.501	897.02
1030.79	880.08
1031.078	880.75
1031.367	838.27
1031.656	864.26
1031.945	869.45
1032.233	843.01
1032.522	826.74
1032.81	832.39
1033.099	856.12
1033.387	830.13
1033.675	831.04
1033.963	801.43
1034.251	821.32
1034.54	810.25
1034.828	818.61
1035.116	805.95
1035.403	804.15
1035.691	799.63
1035.979	782.68
1036.267	785.84
1036.554	790.36
1036.842	789
1037.129	784.49
1037.417	774.32
1037.704	774.99
1037.992	795.78
1038.279	774.54
1038.566	747.65
1038.853	747.65
1039.14	747.65
