Data from hue_320_FLMS001491_46.txt Node
Date: Mon Feb 06 15:47:15 GMT 2017
User: dcchb
Spectrometer: FLMS00149
Trigger mode: 0
Integration Time (sec): 2.000000E-2
Scans to average: 10
Electric dark correction enabled: true
Nonlinearity correction enabled: false
Boxcar width: 0
XAxis mode: Wavelengths
Number of Pixels in Spectrum: 2048
>>>>>Begin Spectral Data<<<<<
341.393	-0.41
341.776	-0.41
342.16	-0.41
342.543	-71.59
342.927	-71.82
343.31	-70.24
343.693	-83.57
344.077	-66.17
344.46	-40.41
344.843	-63.23
345.226	-47.87
345.61	-38.15
345.993	-14.87
346.376	-1.99
346.759	-4.93
347.142	26.71
347.525	32.13
347.908	81.62
348.291	82.75
348.674	80.72
349.057	127.5
349.44	114.62
349.823	135.86
350.206	176.76
350.588	186.03
350.971	193.26
351.354	221.05
351.737	248.4
352.119	230.77
352.502	279.13
352.884	283.88
353.267	259.47
353.65	293.14
354.032	290.66
354.414	315.51
354.797	310.32
355.179	299.02
355.562	316.87
355.944	309.41
356.326	303.54
356.709	329.53
357.091	324.33
357.473	348.28
357.855	349.19
358.238	347.15
358.62	327.72
359.002	330.43
359.384	331.79
359.766	339.02
360.148	353.03
360.53	314.61
360.912	351.45
361.294	308.96
361.676	346.02
362.057	353.93
362.439	325.46
362.821	339.92
363.203	326.36
363.584	309.86
363.966	340.37
364.348	324.55
364.729	318.23
365.111	315.97
365.493	309.19
365.874	320.94
366.256	311.67
366.637	325.23
367.019	297.21
367.4	313.48
367.781	309.19
368.163	305.57
368.544	294.72
368.925	304.67
369.306	306.25
369.688	313.48
370.069	290.88
370.45	295.85
370.831	289.98
371.212	304.89
371.593	337.21
371.974	311.67
372.355	310.09
372.736	311.45
373.117	303.09
373.498	313.71
373.879	315.97
374.26	282.97
374.641	306.25
375.021	311.67
375.402	308.06
375.783	302.41
376.163	324.78
376.544	318.45
376.925	329.3
377.305	315.51
377.686	319.81
378.066	313.93
378.447	316.64
378.827	296.53
379.208	323.65
379.588	323.2
379.968	316.19
380.349	317.32
380.729	317.55
381.109	322.29
381.489	305.57
381.87	330.88
382.25	328.17
382.63	325.68
383.01	332.91
383.39	340.6
383.77	318
384.15	315.74
384.53	339.47
384.91	330.43
385.29	327.04
385.67	331.11
386.049	355.74
386.429	327.27
386.809	335.17
387.189	363.2
387.568	343.31
387.948	337.43
388.328	346.93
388.707	355.74
389.087	336.98
389.466	334.72
389.846	311.45
390.225	355.06
390.605	372.46
390.984	356.87
391.363	347.38
391.743	357.77
392.122	349.86
392.501	353.93
392.881	359.58
393.26	360.03
393.639	360.71
394.018	342.41
394.397	357.1
394.776	366.81
395.155	368.85
395.534	364.1
395.913	375.85
396.292	383.76
396.671	371.56
397.05	359.58
397.429	391.44
397.808	356.19
398.186	404.55
398.565	377.89
398.944	377.21
399.323	375.4
399.701	386.47
400.08	382.63
400.458	390.31
400.837	388.05
401.215	366.59
401.594	411.11
401.972	389.18
402.351	384.21
402.729	391.67
403.107	407.04
403.486	408.39
403.864	388.05
404.242	400.48
404.62	398.22
404.999	381.73
405.377	412.23
405.755	422.63
406.133	435.74
406.511	397.55
406.889	433.93
407.267	414.27
407.645	436.87
408.023	441.61
408.401	428.96
408.779	430.31
409.156	440.93
409.534	441.39
409.912	461.5
410.29	436.42
410.667	457.43
411.045	452.01
411.422	464.89
411.8	467.15
412.178	491.78
412.555	491.55
412.933	497.43
413.31	507.15
413.687	491.33
414.065	513.48
414.442	513.7
414.819	506.92
415.197	523.87
415.574	524.55
415.951	532.46
416.328	540.14
416.705	538.11
417.082	582.85
417.46	557.99
417.837	568.39
418.214	548.73
418.591	560.48
418.967	586.02
419.344	585.34
419.721	592.57
420.098	605.45
420.475	600.7
420.852	612.46
421.228	615.62
421.605	632.34
421.982	640.25
422.358	641.61
422.735	643.87
423.111	640.7
423.488	652.23
423.864	665.34
424.241	642.06
424.617	661.72
424.994	684.32
425.37	685.9
425.746	675.96
426.123	687.48
426.499	694.49
426.875	708.5
427.251	708.72
427.627	739.91
428.003	724.09
428.379	722.28
428.756	754.37
429.132	744.88
429.507	770.42
429.883	794.15
430.259	771.77
430.635	799.34
431.011	804.32
431.387	814.48
431.763	799.8
432.138	816.07
432.514	814.03
432.89	819.46
433.265	826.69
433.641	870.98
434.016	863.97
434.392	882.28
434.767	861.94
435.143	883.18
435.518	896.74
435.894	912.79
436.269	902.39
436.644	923.86
437.02	945.55
437.395	931.09
437.77	938.55
438.145	950.07
438.52	947.14
438.895	958.21
439.271	945.78
439.646	990.52
440.021	998.89
440.395	973.12
440.77	979.45
441.145	990.98
441.52	1026.23
441.895	1007.02
442.27	1035.27
442.645	1013.8
443.019	1048.15
443.394	1039.79
443.769	1043.63
444.143	1034.82
444.518	1061.94
444.892	1036.85
445.267	1050.64
445.641	1071.88
446.016	1059.68
446.39	1049.51
446.764	1073.23
447.139	1073.69
447.513	1069.62
447.887	1082.5
448.262	1086.12
448.636	1089.96
449.01	1110.75
449.384	1103.97
449.758	1096.28
450.132	1110.97
450.506	1114.14
450.88	1128.37
451.254	1120.46
451.628	1122.27
452.002	1117.75
452.376	1160.46
452.75	1140.8
453.123	1161.14
453.497	1162.5
453.871	1171.54
454.244	1174.47
454.618	1178.99
454.992	1163.85
455.365	1176.06
455.739	1207.02
456.112	1219.22
456.486	1226.45
456.859	1254.25
457.232	1242.72
457.606	1230.97
457.979	1258.77
458.352	1280.69
458.725	1266.22
459.099	1270.07
459.472	1290.4
459.845	1313.91
460.218	1294.25
460.591	1315.04
460.964	1332.89
461.337	1338.76
461.71	1363.4
462.083	1385.77
462.456	1351.65
462.829	1363.4
463.201	1380.35
463.574	1404.53
463.947	1437.29
464.32	1420.34
464.692	1410.85
465.065	1443.39
465.438	1432.32
465.81	1455.82
466.183	1462.15
466.555	1477.97
466.928	1507.35
467.3	1492.88
467.672	1494.01
468.045	1536.95
468.417	1555.48
468.789	1568.14
469.161	1589.61
469.534	1554.13
469.906	1630.28
470.278	1615.37
470.65	1594.8
471.022	1655.59
471.394	1663.28
471.766	1661.02
472.138	1687
472.51	1696.04
472.882	1739.21
473.253	1736.27
473.625	1737.62
473.997	1757.06
474.369	1787.34
474.74	1774.46
475.112	1807.45
475.484	1825.53
475.855	1872.31
476.227	1875.02
476.598	1943.72
476.97	1881.57
477.341	1948.24
477.713	1975.13
478.084	1960.89
478.455	2018.97
478.827	2003.61
479.198	2037.95
479.569	2048.35
479.94	2103.26
480.311	2098.74
480.682	2123.15
481.053	2161.34
481.424	2198.85
481.795	2212.41
482.166	2229.36
482.537	2266.65
482.908	2303.03
483.279	2308.46
483.65	2335.12
484.021	2382.13
484.391	2385.74
484.762	2384.84
485.133	2438.17
485.503	2454.22
485.874	2453.99
486.244	2511.84
486.615	2546.19
486.985	2526.53
487.356	2609.92
487.726	2624.15
488.097	2622.57
488.467	2605.4
488.837	2652.85
489.207	2688.56
489.578	2738.73
489.948	2755.45
490.318	2751.83
490.688	2802.23
491.058	2797.03
491.428	2856.92
491.798	2846.75
492.168	2885.84
492.538	2895.79
492.908	2901.21
493.278	2957.25
493.648	2971.04
494.017	2992.05
494.387	3020.53
494.757	3056.91
495.126	3071.83
495.496	3079.74
495.866	3088.55
496.235	3114.31
496.605	3133.97
496.974	3120.64
497.344	3177.81
497.713	3147.08
498.082	3215.78
498.452	3213.07
498.821	3245.83
499.19	3223.91
499.559	3223.23
499.928	3269.79
500.298	3277.92
500.667	3292.16
501.036	3264.82
501.405	3325.6
501.774	3305.49
502.143	3351.37
502.512	3353.63
502.88	3383
503.249	3369.22
503.618	3343.23
503.987	3381.2
504.356	3419.61
504.724	3457.58
505.093	3406.05
505.462	3462.78
505.83	3463.91
506.199	3471.82
506.567	3502.32
506.936	3499.39
507.304	3499.61
507.672	3568.08
508.041	3581.87
508.409	3582.55
508.777	3525.6
509.145	3607.18
509.514	3595.65
509.882	3620.51
510.25	3604.69
510.618	3594.98
510.986	3630.91
511.354	3686.05
511.722	3649.66
512.09	3660.96
512.458	3649.44
512.826	3651.02
513.193	3696.22
513.561	3700.06
513.929	3709.78
514.297	3721.75
514.664	3714.52
515.032	3692.83
515.4	3738.02
515.767	3744.35
516.135	3791.81
516.502	3761.98
516.869	3798.81
517.237	3813.73
517.604	3778.47
517.972	3820.96
518.339	3791.36
518.706	3804.46
519.073	3842.2
519.44	3844.46
519.808	3908.19
520.175	3848.3
520.542	3865.7
520.909	3884.69
521.276	3919.04
521.643	3914.52
522.009	3918.58
522.376	3944.12
522.743	3974.63
523.11	3955.87
523.477	3989.99
523.843	4058.24
524.21	4022.99
524.577	4058.24
524.943	4072.03
525.31	4094.62
525.676	4089.2
526.043	4141.85
526.409	4128.97
526.776	4148.86
527.142	4135.98
527.508	4180.5
527.874	4188.63
528.241	4204.9
528.607	4201.51
528.973	4296.88
529.339	4258.69
529.705	4300.95
530.071	4324.9
530.437	4269.99
530.803	4343.43
531.169	4328.29
531.535	4366.26
531.901	4430.21
532.267	4399.7
532.632	4407.61
532.998	4406.48
533.364	4426.37
533.73	4455.74
534.095	4503.2
534.461	4494.84
534.826	4539.58
535.192	4573.03
535.557	4627.27
535.923	4587.04
536.288	4578.23
536.653	4639.69
537.019	4627.04
537.384	4653.48
537.749	4691.44
538.114	4670.2
538.479	4721.27
538.845	4723.08
539.21	4763.08
539.575	4784.55
539.94	4786.36
540.305	4766.92
540.67	4839.92
541.034	4815.96
541.399	4907.94
541.764	4851.21
542.129	4864.1
542.494	4966.47
542.858	4933.92
543.223	4900.03
543.587	4984.32
543.952	4991.55
544.316	5033.81
544.681	5006.69
545.045	5037.42
545.41	5090.3
545.774	5079
546.138	5111.09
546.503	5128.04
546.867	5147.93
547.231	5173.47
547.595	5136.63
547.959	5216.18
548.324	5275.61
548.688	5220.02
549.052	5253.46
549.416	5264.99
549.779	5291.2
550.143	5278.77
550.507	5341.6
550.871	5308.38
551.235	5383.63
551.599	5382.27
551.962	5352.9
552.326	5430.86
552.689	5398.09
553.053	5403.97
553.417	5445.32
553.78	5467.02
554.143	5471.54
554.507	5486.23
554.87	5497.07
555.234	5531.2
555.597	5552.44
555.96	5546.56
556.323	5555.15
556.686	5549.5
557.05	5608.71
557.413	5674.24
557.776	5657.97
558.139	5627.92
558.502	5635.37
558.865	5704.3
559.228	5705.66
559.59	5711.53
559.953	5722.6
560.316	5787.69
560.679	5770.29
561.041	5822.26
561.404	5816.84
561.767	5808.48
562.129	5837.4
562.492	5926.89
562.854	5863.62
563.217	5871.53
563.579	5934.58
563.941	5984.29
564.304	5943.39
564.666	5941.81
565.028	5986.55
565.39	5968.47
565.753	5996.27
566.115	5997.85
566.477	6060.9
566.839	6104.51
567.201	6132.31
567.563	6123.05
567.925	6167.79
568.287	6172.31
568.648	6156.72
569.01	6187.68
569.372	6225.19
569.734	6282.59
570.095	6257.28
570.457	6328.24
570.819	6291.85
571.18	6348.12
571.542	6405.3
571.903	6392.64
572.265	6505.18
572.626	6477.61
572.987	6506.09
573.349	6580.43
573.71	6596.25
574.071	6706.76
574.432	6710.15
574.794	6742.69
575.155	6778.4
575.516	6803.25
575.877	6877.15
576.238	6922.57
576.599	7031.95
576.96	7065.17
577.32	7158.72
577.681	7228.55
578.042	7291.15
578.403	7249.57
578.763	7441.88
579.124	7527.53
579.485	7630.35
579.845	7707.41
580.206	7754.64
580.566	7845.71
580.927	8025.59
581.287	8141.52
581.648	8192.14
582.008	8386.71
582.368	8507.39
582.728	8607.73
583.089	8777.89
583.449	8914.16
583.809	9110.54
584.169	9179.01
584.529	9401.38
584.889	9565.89
585.249	9690.41
585.609	9900.35
585.969	10083.39
586.329	10312.99
586.688	10519.54
587.048	10695.81
587.408	10870.49
587.768	11180.54
588.127	11311.16
588.487	11463.92
588.846	11843.35
589.206	12003.34
589.565	12291.02
589.925	12522.65
590.284	12809.42
590.643	13081.51
591.003	13331.44
591.362	13576.63
591.721	13862.95
592.08	14038.77
592.44	14507.68
592.799	14654.35
593.158	14942.7
593.517	15178.4
593.876	15472.18
594.235	15774.77
594.593	16056.12
594.952	16345.38
595.311	16631.24
595.67	16891.12
596.029	17307.38
596.387	17642.52
596.746	17897.2
597.104	18086.57
597.463	18432.1
597.822	18780.11
598.18	19036.6
598.538	19216.71
598.897	19755.23
599.255	19724.5
599.613	20293.75
599.972	20493.97
600.33	20794.07
600.688	20900.28
601.046	21336.88
601.404	21676.76
601.762	21919.69
602.12	22216.41
602.478	22510.18
602.836	22768.26
603.194	22880.34
603.552	23303.16
603.91	23411.18
604.268	23783.15
604.625	23957.38
604.983	24285.05
605.341	24327.99
605.698	24862.44
606.056	25114.86
606.413	25208.87
606.771	25599.14
607.128	25858.35
607.485	25967.72
607.843	26249.97
608.2	26586.24
608.557	26736.51
608.914	26891.54
609.272	27257.63
609.629	27465.76
609.986	27790.5
610.343	27839.76
610.7	28095.8
611.057	28404.27
611.414	28490.82
611.771	28743.47
612.127	28999.28
612.484	29078.37
612.841	29504.13
613.198	29409.21
613.554	29603.11
613.911	29950.89
614.267	30081.96
614.624	30264.11
614.98	30391.11
615.337	30782.06
615.693	30810.98
616.05	30931.43
616.406	31241.25
616.762	31229.73
617.118	31380.23
617.475	31498.65
617.831	31852.76
618.187	31907.45
618.543	31941.8
618.899	32411.85
619.255	32431.05
619.611	32342.69
619.967	32706.3
620.323	32759.41
620.678	32824.94
621.034	32943.36
621.39	32971.38
621.746	32984.26
622.101	33496.79
622.457	33267.19
622.812	33508.31
623.168	33570.23
623.523	33613.17
623.879	33717.35
624.234	33664.24
624.589	34000.73
624.945	34184
625.3	34142.2
625.655	34238.92
626.01	34226.71
626.365	34433.71
626.72	34308.29
627.075	34453.15
627.43	34619.25
627.785	34569.3
628.14	34587.83
628.495	34829.86
628.85	34784.89
629.205	34526.59
629.559	34958.45
629.914	34806.58
630.269	34840.48
630.623	34830.99
630.978	34870.76
631.332	34936.3
631.687	35047.03
632.041	35140.81
632.396	35043.87
632.75	34988.27
633.104	35111.21
633.459	35108.27
633.813	35079.12
634.167	35124.99
634.521	35181.26
634.875	35241.15
635.229	35244.99
635.583	35209.29
635.937	35064.88
636.291	35107.82
636.645	35112.34
636.999	35159.12
637.352	35262.17
637.706	35135.84
638.06	35130.64
638.413	35234.37
638.767	35232.56
639.121	35130.42
639.474	35034.6
639.828	35089.52
640.181	35224.43
640.534	35239.79
640.888	35027.6
641.241	35013.13
641.594	35111.89
641.947	35170.42
642.301	35132
642.654	35267.14
643.007	35251.77
643.36	35152.56
643.713	35098.33
644.066	35176.74
644.419	34967.48
644.771	34889.75
645.124	34549.87
645.477	34384.22
645.83	34242.31
646.182	34075.3
646.535	34123.44
646.888	34178.35
647.24	34038.02
647.593	34210.89
647.945	34163.21
648.298	33907.4
648.65	33812.49
649.002	33911.24
649.355	34038.47
649.707	33990.56
650.059	34075.53
650.411	34393.04
650.763	34489.08
651.115	34860.82
651.467	34753.7
651.819	34893.14
652.171	34729.3
652.523	34610.88
652.875	34647.27
653.227	34609.53
653.578	34844.55
653.93	34808.17
654.282	34544.67
654.633	34473.94
654.985	34553.48
655.337	34563.43
655.688	34570.21
656.039	34628.74
656.391	34353.26
656.742	34496.08
657.094	34452.02
657.445	34586.7
657.796	34506.48
658.147	34535.86
658.498	34402.75
658.849	34465.35
659.2	34575.4
659.551	34397.78
659.902	34535.63
660.253	34480.49
660.604	34473.26
660.955	34347.16
661.306	34508.51
661.656	34418.12
662.007	34428.29
662.358	34420.38
662.708	34241.18
663.059	34327.5
663.409	34105.36
663.76	34532.24
664.11	34415.41
664.461	34532.47
664.811	34410.89
665.161	34496.99
665.511	34239.14
665.862	34336.09
666.212	34415.86
666.562	34485.92
666.912	34374.05
667.262	34348.07
667.612	34266.94
667.962	34381.96
668.312	34301.06
668.662	34401.85
669.011	34297.45
669.361	34252.7
669.711	34381.74
670.06	34255.86
670.41	34289.08
670.76	34205.24
671.109	34413.6
671.459	34094.51
671.808	34256.99
672.157	34217.9
672.507	34049.09
672.856	34072.14
673.205	34078.24
673.554	34259.71
673.904	34150.78
674.253	34283.43
674.602	34118.92
674.951	33617.69
675.3	33436.23
675.649	34016.1
675.998	33941.75
676.346	33964.57
676.695	34188.97
677.044	33851.81
677.393	33914.4
677.741	33897.46
678.09	33871.47
678.438	33796.89
678.787	33942.2
679.135	33884.58
679.484	33628.31
679.832	33723.45
680.181	33512.16
680.529	33643
680.877	33538.6
681.225	33541.31
681.573	33738.82
681.922	33407.53
682.27	33421.31
682.618	33519.39
682.966	33386.06
683.314	33457.02
683.661	33287.3
684.009	33126.85
684.357	33039.85
684.705	33039.63
685.053	33084.37
685.4	33046.86
685.748	32869.91
686.095	32830.82
686.443	32787.88
686.79	32664.04
687.138	32684.38
687.485	32799.63
687.832	32651.84
688.18	32685.96
688.527	32589.92
688.874	32616.36
689.221	32517.15
689.568	32405.97
689.915	32364.16
690.262	32316.71
690.609	32287.78
690.956	32139.31
691.303	32031.06
691.65	31992.65
691.997	31855.48
692.344	31768.7
692.69	31728.47
693.037	31818.19
693.383	31515.82
693.73	31690.51
694.077	31457.75
694.423	31422.72
694.769	31343.4
695.116	31291.87
695.462	31217.3
695.808	31034.03
696.155	31224.53
696.501	30928.72
696.847	30916.97
697.193	30628.39
697.539	30733.7
697.885	30623.64
698.231	30542.29
698.577	30519.24
698.923	30481.95
699.269	30329.64
699.614	30193.15
699.96	30202.41
700.306	30218.23
700.651	29949.76
700.997	30059.14
701.342	29978.46
701.688	29870.67
702.033	29841.97
702.379	29686.95
702.724	29617.79
703.069	29668.64
703.415	29287.63
703.76	29397.24
704.105	29378.03
704.45	29255.77
704.795	29120.63
705.14	29127.19
705.485	29217.35
705.83	28954.08
706.175	29014.19
706.52	28935.1
706.865	28766.07
707.209	28770.59
707.554	28626.41
707.899	28716.35
708.243	28495.34
708.588	28544.83
708.932	28296.02
709.277	28303.48
709.621	28436.13
709.966	28115.01
710.31	28178.51
710.654	28005.41
710.998	28046.08
711.342	28023.26
711.687	28015.58
712.031	27845.86
712.375	27663.95
712.719	27713.66
713.063	27743.04
713.407	27749.14
713.75	27599.77
714.094	27574.23
714.438	27564.52
714.782	27494.91
715.125	27360.68
715.469	27268.03
715.812	27315.93
716.156	27084.75
716.499	27172.21
716.843	27155.71
717.186	27091.53
717.53	27217.18
717.873	27061.25
718.216	26988.26
718.559	26832.56
718.902	26731.32
719.246	26876.4
719.589	26657.42
719.932	26635.73
720.275	26661.49
720.617	26506.69
720.96	26493.13
721.303	26643.86
721.646	26496.75
721.989	26336.75
722.331	26461.27
722.674	26245.45
723.016	26337.43
723.359	26286.36
723.701	26254.95
724.044	26125.01
724.386	26002.3
724.729	26234.83
725.071	26075.06
725.413	25952.35
725.755	26076.42
726.097	25861.96
726.439	25795.97
726.782	25872.58
727.124	25865.35
727.465	25683.21
727.807	25714.85
728.149	25595.53
728.491	25521.41
728.833	25669.42
729.175	25504.46
729.516	25560.05
729.858	25496.32
730.199	25398.7
730.541	25375.42
730.882	25391.01
731.224	25579.03
731.565	25249.1
731.906	25276.89
732.248	25327.51
732.589	25124.58
732.93	25108.76
733.271	25088.87
733.612	25137.23
733.953	25156.44
734.294	24919.16
734.635	24964.58
734.976	25081.64
735.317	24915.09
735.658	24837.81
735.999	24908.77
736.339	24737.7
736.68	24922.1
737.021	24744.93
737.361	24588.32
737.702	24699.96
738.042	24671.71
738.383	24619.06
738.723	24697.7
739.063	24591.71
739.404	24539.28
739.744	24410.47
740.084	24339.52
740.424	24495.67
740.764	24362.34
741.104	24473.07
741.444	24286.64
741.784	24275.34
742.124	24309.91
742.464	24339.06
742.804	24103.82
743.143	24091.39
743.483	24166.86
743.823	24019.98
744.162	23865.86
744.502	24009.13
744.841	23935.01
745.181	24011.84
745.52	23904.95
745.86	23796.03
746.199	23849.36
746.538	23774.33
746.877	23793.99
747.216	23740.21
747.556	23732.75
747.895	23797.61
748.234	23621.79
748.573	23592.42
748.911	23524.62
749.25	23494.34
749.589	23504.06
749.928	23407.79
750.267	23482.14
750.605	23423.83
750.944	23301.12
751.283	23269.71
751.621	23317.4
751.96	23147.46
752.298	23158.3
752.636	23271.29
752.975	23064.97
753.313	22927.58
753.651	22980.91
753.989	22927.8
754.327	22909.04
754.666	22806.45
755.004	22737.07
755.342	22859.1
755.679	22717.64
756.017	22545.21
756.355	22643.51
756.693	22546.34
757.031	22479.68
757.368	22398.32
757.706	22326.23
758.044	22338.66
758.381	22436.51
758.719	22330.3
759.056	22201.27
759.394	22205.11
759.731	21922.86
760.068	22036.07
760.405	21907.04
760.743	21959.01
761.08	21859.58
761.417	21743.43
761.754	21812.35
762.091	21694.39
762.428	21583.66
762.765	21384.11
763.102	21520.15
763.438	21388.18
763.775	21347.73
764.112	21273.61
764.449	21259.14
764.785	21088.53
765.122	21164.23
765.458	20963.56
765.795	20974.18
766.131	20958.14
766.467	20797.69
766.804	20754.3
767.14	20670.91
767.476	20703.9
767.812	20543.46
768.148	20578.03
768.485	20442.22
768.821	20253.97
769.157	20279.51
769.492	20135.78
769.828	20185.5
770.164	20109.12
770.5	20066.63
770.836	20056.69
771.171	19915.22
771.507	19870.48
771.842	19787.32
772.178	19658.51
772.513	19656.02
772.849	19584.61
773.184	19431.85
773.519	19450.38
773.855	19218.52
774.19	19211.51
774.525	19178.52
774.86	19288.35
775.195	19162.25
775.53	18974.68
775.865	19029.15
776.2	18857.17
776.535	18714.35
776.87	18771.98
777.205	18693.11
777.539	18527.01
777.874	18697.4
778.209	18409.5
778.543	18461.03
778.878	18228.72
779.212	18371.08
779.547	18190.3
779.881	18225.78
780.215	18098.78
780.55	18142.62
780.884	17951.21
781.218	17966.58
781.552	18008.83
781.886	17870.08
782.22	17729.97
782.554	17694.49
782.888	17595.06
783.222	17465.57
783.556	17394.39
783.889	17344.67
784.223	17267.38
784.557	17240.27
784.89	17256.31
785.224	17123.21
785.557	17113.49
785.891	16974.96
786.224	17003.89
786.558	16875.53
786.891	16773.84
787.224	16689.55
787.557	16793.05
787.891	16628.53
788.224	16564.8
788.557	16551.25
788.89	16518.93
789.223	16468.54
789.556	16315.32
789.888	16292.27
790.221	16175.66
790.554	16104.03
790.887	16129.34
791.219	16028.55
791.552	15967.31
791.884	15959.85
792.217	15850.7
792.549	15815.22
792.882	15797.37
793.214	15742.23
793.546	15681.44
793.879	15665.85
794.211	15510.59
794.543	15542.91
794.875	15560.54
795.207	15512.63
795.539	15411.16
795.871	15320.32
796.203	15324.61
796.535	15216.37
796.867	15205.52
797.198	15129.36
797.53	15083.04
797.862	14958.52
798.193	15015.47
798.525	14915.13
798.856	14968.46
799.188	14819.09
799.519	14785.87
799.85	14678.3
800.182	14733.89
800.513	14723.72
800.844	14526.21
801.175	14599.88
801.506	14625.42
801.837	14473.11
802.168	14516.72
802.499	14394.92
802.83	14395.37
803.161	14328.03
803.491	14360.79
803.822	14312.89
804.153	14189.05
804.483	14069.28
804.814	14084.19
805.145	14061.82
805.475	14121.7
805.805	13951.54
806.136	13968.94
806.466	13951.54
806.796	13868.6
807.126	13766.01
807.457	13746.35
807.787	13796.52
808.117	13749.51
808.447	13638.78
808.777	13601.27
809.107	13615.28
809.436	13534.15
809.766	13540.48
810.096	13537.77
810.426	13493.25
810.755	13424.1
811.085	13354.49
811.414	13407.83
811.744	13302.29
812.073	13257.55
812.403	13195.4
812.732	13217.77
813.061	13123.99
813.39	13067.5
813.719	13047.16
814.049	13111.79
814.378	13060.49
814.707	12999.02
815.036	13011
815.365	12924.22
815.693	12816.43
816.022	12775.3
816.351	12767.62
816.68	12648.98
817.008	12752.93
817.337	12594.74
817.665	12626.38
817.994	12649.43
818.322	12597
818.651	12562.88
818.979	12559.49
819.307	12559.03
819.636	12561.97
819.964	12392.94
820.292	12438.36
820.62	12415.99
820.948	12389.55
821.276	12430.9
821.604	12342.09
821.932	12375.99
822.259	12452.6
822.587	12414.86
822.915	12357.23
823.243	12445.59
823.57	12361.07
823.898	12450.56
824.225	12358.36
824.553	12277.91
824.88	12359.49
825.207	12374.41
825.535	12317.91
825.862	12358.81
826.189	12340.06
826.516	12323.79
826.843	12379.83
827.17	12363.33
827.497	12284.92
827.824	12318.36
828.151	12375.99
828.478	12323.56
828.805	12302.77
829.131	12316.1
829.458	12247.86
829.785	12300.74
830.111	12267.06
830.438	12342.54
830.764	12302.09
831.09	12312.26
831.417	12227.52
831.743	12236.56
832.069	12278.36
832.395	12185.71
832.722	12201.53
833.048	12271.13
833.374	12164.69
833.7	12152.94
834.026	12187.97
834.351	12227.74
834.677	12157.01
835.003	12209.44
835.329	12170.12
835.654	12145.94
835.98	12104.81
836.306	12097.13
836.631	12027.52
836.956	12094.87
837.282	12085.83
837.607	12016.22
837.932	11949.11
838.258	11957.24
838.583	11910.01
838.908	11853.29
839.233	11901.2
839.558	11930.35
839.883	11869.33
840.208	11826.17
840.533	11849
840.858	11826.4
841.182	11810.35
841.507	11789.34
841.832	11681.09
842.156	11704.82
842.481	11738.26
842.805	11670.02
843.13	11639.74
843.454	11623.47
843.778	11565.39
844.103	11513.86
844.427	11490.36
844.751	11557.7
845.075	11506.86
845.399	11471.61
845.723	11435.22
846.047	11407.2
846.371	11320.87
846.695	11319.52
847.019	11214.89
847.343	11140.09
847.666	11114.33
847.99	11052.86
848.313	10975.12
848.637	11033.42
848.96	11045.85
849.284	10885.86
849.607	10837.27
849.931	10917.5
850.254	10737.39
850.577	10764.05
850.9	10680.67
851.223	10649.03
851.546	10572.65
851.869	10458.52
852.192	10550.95
852.515	10462.82
852.838	10433.21
853.161	10461.46
853.483	10398.19
853.806	10258.76
854.129	10273.44
854.451	10290.85
854.774	10247.91
855.096	10231.41
855.419	10098.76
855.741	10151.64
856.063	10060.12
856.385	10050.17
856.708	10011.08
857.03	9997.97
857.352	9995.49
857.674	9930.63
857.996	9919.33
858.318	9900.57
858.64	9902.83
858.961	9839.56
859.283	9769.73
859.605	9723.63
859.926	9790.07
860.248	9729.5
860.57	9684.76
860.891	9762.95
861.212	9649.96
861.534	9594.59
861.855	9643.18
862.176	9635.95
862.498	9634.59
862.819	9595.72
863.14	9592.11
863.461	9564.76
863.782	9545.1
864.103	9497.87
864.424	9449.29
864.745	9396.86
865.065	9366.58
865.386	9374.71
865.707	9405.67
866.027	9368.61
866.348	9398.44
866.668	9305.79
866.989	9377.65
867.309	9301.49
867.63	9268.5
867.95	9260.82
868.27	9253.58
868.59	9273.24
868.91	9174.04
869.23	9207.03
869.55	9125.45
869.87	9188.95
870.19	9143.3
870.51	9146.69
870.83	9149.18
871.15	9107.83
871.469	9087.94
871.789	9111.67
872.109	9099.24
872.428	8994.61
872.748	9079.35
873.067	9094.72
873.386	9014.72
873.706	8958.45
874.025	8958
874.344	8963.2
874.663	8960.03
874.982	8939.24
875.301	8967.94
875.62	8832.13
875.939	8905.57
876.258	8804.78
876.577	8822.86
876.896	8868.96
877.214	8797.1
877.533	8830.09
877.852	8844.1
878.17	8795.97
878.489	8713.49
878.807	8735.18
879.125	8805.23
879.444	8712.36
879.762	8709.64
880.08	8739.7
880.398	8674.39
880.716	8721.85
881.034	8640.04
881.352	8574.73
881.67	8628.29
881.988	8579.93
882.306	8604.34
882.624	8617.22
882.941	8501.29
883.259	8470.78
883.577	8427.62
883.894	8481.63
884.212	8465.81
884.529	8432.81
884.846	8413.38
885.164	8422.19
885.481	8388.97
885.798	8398.47
886.115	8267.17
886.432	8329.99
886.75	8317.34
887.067	8242.99
887.383	8299.94
887.7	8298.13
888.017	8205.7
888.334	8249.09
888.651	8163.44
888.967	8181.97
889.284	8130.68
889.6	8078.25
889.917	8060.4
890.233	8107.17
890.55	8063.33
890.866	8097.68
891.182	8041.41
891.498	8012.71
891.815	7986.73
892.131	7987.85
892.447	7899.95
892.763	7822.21
893.079	7934.75
893.395	7814.3
893.71	7852.72
894.026	7847.75
894.342	7764.58
894.657	7744.25
894.973	7769.1
895.289	7712.16
895.604	7741.76
895.92	7670.58
896.235	7565.95
896.55	7607.3
896.865	7603.01
897.181	7619.28
897.496	7586.28
897.811	7548.09
898.126	7473.97
898.441	7495.44
898.756	7444.59
899.071	7368.66
899.386	7436.46
899.7	7311.49
900.015	7307.65
900.33	7261.55
900.644	7257.48
900.959	7307.65
901.273	7219.29
901.588	7185.84
901.902	7142.91
902.216	7161.44
902.531	7097.48
902.845	7091.83
903.159	6985.85
903.473	7078.05
903.787	6966.41
904.101	6892.97
904.415	6954.66
904.729	6903.14
905.042	6887.32
905.356	6864.95
905.67	6888.45
905.984	6837.38
906.297	6773.88
906.611	6775.23
906.924	6749.24
907.237	6742.01
907.551	6677.61
907.864	6681.9
908.177	6639.19
908.491	6684.84
908.804	6594.45
909.117	6601
909.43	6505.86
909.743	6492.08
910.056	6449.82
910.368	6470.38
910.681	6459.31
910.994	6384.73
911.307	6422.47
911.619	6332.98
911.932	6346.77
912.244	6330.95
912.557	6348.58
912.869	6247.34
913.181	6223.38
913.494	6197.62
913.806	6195.13
914.118	6140.22
914.43	6125.08
914.742	6156.26
915.054	6101.35
915.366	6074.01
915.678	6053.44
915.99	6000.56
916.302	5962.82
916.613	6038.53
916.925	5972.54
917.236	5945.87
917.548	5916.05
917.859	5872.88
918.171	5810.96
918.482	5822.04
918.794	5805.99
919.105	5792.66
919.416	5737.97
919.727	5742.26
920.038	5717.86
920.349	5631.98
920.66	5650.74
920.971	5594.02
921.282	5591.53
921.593	5572.33
921.903	5556.96
922.214	5581.36
922.525	5462.72
922.835	5479.67
923.146	5455.72
923.456	5439.45
923.767	5444.42
924.077	5423.4
924.387	5335.04
924.697	5293.69
925.008	5333.46
925.318	5329.62
925.628	5300.69
925.938	5277.87
926.248	5252.79
926.558	5256.85
926.867	5163.97
927.177	5175.73
927.487	5176.18
927.796	5101.83
928.106	5099.34
928.416	5105.22
928.725	5146.12
929.034	5063.64
929.344	5059.57
929.653	5049.4
929.962	4983.41
930.271	4975.5
930.581	4949.06
930.89	4905.9
931.199	4869.97
931.508	4900.93
931.817	4896.18
932.125	4860.03
932.434	4809.63
932.743	4811.67
933.051	4762.4
933.36	4763.31
933.669	4723.99
933.977	4685.34
934.286	4711.1
934.594	4713.36
934.902	4685.12
935.21	4638.56
935.519	4587.49
935.827	4617.32
936.135	4612.8
936.443	4532.8
936.751	4536.19
937.059	4519.7
937.367	4507.04
937.674	4511.34
937.982	4466.14
938.29	4453.03
938.597	4458.46
938.905	4426.59
939.213	4391.34
939.52	4382.75
939.827	4361.51
940.135	4338.23
940.442	4342.98
940.749	4326.93
941.056	4297.1
941.363	4274.05
941.67	4286.26
941.977	4213.04
942.284	4165.58
942.591	4195.64
942.898	4158.58
943.205	4175.3
943.511	4155.64
943.818	4144.11
944.125	4080.39
944.431	4067.28
944.738	4074.29
945.044	4057.56
945.35	4068.18
945.657	4020.05
945.963	4029.09
946.269	4016.43
946.575	4027.51
946.881	3960.39
947.187	3966.94
947.493	3910.22
947.799	3925.81
948.105	3851.01
948.41	3854.86
948.716	3881.97
949.022	3802.43
949.327	3813.95
949.633	3778.25
949.938	3795.87
950.244	3782.77
950.549	3785.25
950.854	3749.55
951.16	3703.22
951.465	3739.38
951.77	3676.56
952.075	3658.7
952.38	3654.18
952.685	3660.96
952.99	3634.07
953.294	3624.13
953.599	3607.18
953.904	3588.87
954.209	3584.35
954.513	3567.18
954.818	3546.39
955.122	3565.37
955.426	3522.21
955.731	3485.83
956.035	3458.26
956.339	3480.85
956.643	3460.52
956.948	3402.89
957.252	3427.07
957.556	3400.4
957.86	3413.29
958.163	3359.28
958.467	3338.03
958.771	3350.24
959.075	3343.46
959.378	3314.53
959.682	3321.76
959.985	3305.94
960.289	3231.6
960.592	3237.02
960.896	3259.62
961.199	3213.74
961.502	3227.53
961.805	3181.88
962.108	3184.82
962.411	3149.79
962.714	3197.25
963.017	3095.78
963.32	3111.82
963.623	3122.9
963.926	3103.24
964.228	3088.32
964.531	3088.77
964.833	3091.03
965.136	3056.69
965.438	3009
965.741	3042.67
966.043	2994.31
966.345	3010.13
966.648	3005.16
966.95	3013.07
967.252	2988.21
967.554	2981.43
967.856	2989.57
968.158	2890.36
968.46	2922.9
968.761	2884.49
969.063	2866.41
969.365	2881.32
969.666	2849.23
969.968	2834.77
970.269	2830.93
970.571	2811.04
970.872	2800.87
971.174	2775.79
971.475	2782.34
971.776	2751.61
972.077	2770.37
972.378	2769.24
972.679	2768.78
972.98	2758.16
973.281	2696.02
973.582	2708.45
973.883	2688.11
974.183	2700.76
974.484	2695.56
974.785	2659.63
975.085	2657.37
975.386	2627.09
975.686	2623.7
975.986	2620.99
976.287	2619.18
976.587	2605.62
976.887	2592.29
977.187	2582.8
977.487	2571.73
977.787	2561.33
978.087	2544.38
978.387	2523.82
978.687	2532.86
978.987	2484.5
979.286	2470.03
979.586	2500.32
979.885	2455.57
980.185	2453.99
980.484	2473.65
980.784	2466.19
981.083	2466.64
981.382	2432.07
981.682	2404.95
981.981	2398.4
982.28	2399.75
982.579	2435.46
982.878	2390.26
983.177	2380.54
983.475	2344.61
983.774	2319.76
984.073	2339.42
984.372	2303.03
984.67	2310.49
984.969	2301.9
985.267	2299.64
985.566	2302.13
985.864	2299.64
986.162	2293.32
986.461	2212.41
986.759	2244.73
987.057	2206.99
987.355	2228.46
987.653	2221.45
987.951	2213.32
988.249	2217.16
988.547	2155.92
988.844	2196.37
989.142	2171.06
989.44	2153.21
989.737	2124.05
990.035	2112.53
990.332	2102.13
990.63	2138.29
990.927	2116.14
991.224	2105.52
991.521	2058.75
991.819	2092.87
992.116	2084.28
992.413	2029.37
992.71	2016.71
993.006	2076.6
993.303	2033.66
993.6	2023.94
993.897	2010.16
994.193	2025.07
994.49	2007.67
994.787	1976.94
995.083	1949.82
995.379	1948.24
995.676	1988.24
995.972	1916.83
996.268	1941.69
996.565	1925.19
996.861	1877.96
997.157	1919.77
997.453	1912.31
997.749	1873.21
998.044	1875.7
998.34	1861.01
998.636	1857.62
998.932	1866.66
999.227	1822.14
999.523	1837.73
999.818	1820.33
1000.114	1847.68
1000.409	1812.42
1000.704	1802.48
1001	1789.83
1001.295	1745.76
1001.59	1747.12
1001.885	1764.29
1002.18	1733.33
1002.475	1743.27
1002.77	1710.51
1003.065	1738.98
1003.359	1745.53
1003.654	1712.77
1003.949	1687.91
1004.243	1710.51
1004.538	1674.35
1004.832	1659.89
1005.127	1668.47
1005.421	1668.25
1005.715	1642.03
1006.009	1646.55
1006.304	1652.65
1006.598	1644.07
1006.892	1610.85
1007.186	1576.27
1007.48	1591.41
1007.773	1602.94
1008.067	1582.6
1008.361	1562.26
1008.655	1580.34
1008.948	1539.21
1009.242	1562.94
1009.535	1546.44
1009.829	1551.64
1010.122	1528.59
1010.415	1510.06
1010.708	1494.92
1011.001	1494.24
1011.295	1491.08
1011.588	1502.83
1011.881	1463.28
1012.173	1464.64
1012.466	1442.94
1012.759	1433.45
1013.052	1464.18
1013.344	1446.78
1013.637	1430.97
1013.93	1419.89
1014.222	1362.04
1014.514	1416.05
1014.807	1438.42
1015.099	1396.16
1015.391	1402.94
1015.683	1353.91
1015.976	1368.59
1016.268	1394.58
1016.56	1349.16
1016.851	1345.32
1017.143	1296.51
1017.435	1338.31
1017.727	1324.3
1018.018	1295.15
1018.31	1285.21
1018.602	1308.71
1018.893	1290.63
1019.185	1261.03
1019.476	1253.34
1019.767	1250.4
1020.058	1269.84
1020.35	1223.51
1020.641	1231.42
1020.932	1214.93
1021.223	1202.72
1021.514	1188.03
1021.804	1176.96
1022.095	1200.91
1022.386	1184.64
1022.677	1166.34
1022.967	1176.28
1023.258	1161.37
1023.548	1177.41
1023.839	1170.18
1024.129	1145.55
1024.419	1112.78
1024.709	1135.61
1025	1122.05
1025.29	1122.27
1025.58	1101.26
1025.87	1091.77
1026.16	1075.72
1026.449	1086.34
1026.739	1083.4
1027.029	1079.34
1027.319	1073.69
1027.608	1073.46
1027.898	1058.55
1028.187	1061.71
1028.477	1038.66
1028.766	1050.64
1029.055	1020.35
1029.344	1020.81
1029.634	1046.57
1029.923	1012.67
1030.212	1028.94
1030.501	1022.84
1030.79	1013.8
1031.078	986.91
1031.367	974.03
1031.656	972.22
1031.945	974.03
1032.233	979
1032.522	968.15
1032.81	956.85
1033.099	949.4
1033.387	925.67
1033.675	929.28
1033.963	926.12
1034.251	943.75
1034.54	914.14
1034.828	917.08
1035.116	900.13
1035.403	906.91
1035.691	883.86
1035.979	878.21
1036.267	888.61
1036.554	870.98
1036.842	862.17
1037.129	871.21
1037.417	865.1
1037.704	875.05
1037.992	874.6
1038.279	873.01
1038.566	848.38
1038.853	848.38
1039.14	848.38
