Data from hue_300_FLMS001491_00041.txt Node
Date: Tue Feb 07 15:50:46 GMT 2017
User: dcchb
Spectrometer: FLMS00149
Trigger mode: 0
Integration Time (sec): 2.000000E-2
Scans to average: 10
Electric dark correction enabled: true
Nonlinearity correction enabled: false
Boxcar width: 0
XAxis mode: Wavelengths
Number of Pixels in Spectrum: 2048
>>>>>Begin Spectral Data<<<<<
341.393	-9.83
341.776	-9.83
342.16	-9.83
342.543	-61.35
342.927	-60.22
343.31	-67.46
343.693	-70.17
344.077	-52.54
344.46	-53.9
344.843	-45.99
345.226	-34.69
345.61	-24.07
345.993	-12.09
346.376	-11.41
346.759	0.56
347.142	34.69
347.525	41.24
347.908	55.03
348.291	59.09
348.674	74.91
349.057	106.78
349.44	119.21
349.823	153.78
350.206	182.93
350.588	192.2
350.971	192.88
351.354	205.31
351.737	247.56
352.119	246.89
352.502	284.63
352.884	256.15
353.267	292.99
353.65	304.74
354.032	299.99
354.414	291.86
354.797	311.52
355.179	327.79
355.562	317.84
355.944	322.36
356.326	329.6
356.709	339.77
357.091	298.86
357.473	352.19
357.855	342.48
358.238	352.65
358.62	331.4
359.002	321.91
359.384	348.13
359.766	323.27
360.148	347.67
360.53	339.99
360.912	322.82
361.294	337.96
361.676	343.83
362.057	332.76
362.439	324.4
362.821	318.3
363.203	315.36
363.584	333.66
363.966	297.51
364.348	304.96
364.729	316.26
365.111	306.09
365.493	321.69
365.874	325.75
366.256	313.55
366.637	306.77
367.019	323.49
367.4	309.71
367.781	309.94
368.163	318.97
368.544	295.47
368.925	330.73
369.306	309.48
369.688	319.2
370.069	324.62
370.45	327.11
370.831	320.78
371.212	322.82
371.593	336.38
371.974	331.86
372.355	316.71
372.736	317.62
373.117	313.78
373.498	302.25
373.879	331.63
374.26	300.44
374.641	324.62
375.021	320.78
375.402	321.23
375.783	339.09
376.163	339.31
376.544	310.84
376.925	330.95
377.305	345.64
377.686	333.44
378.066	355.81
378.447	332.76
378.827	353.32
379.208	326.88
379.588	330.73
379.968	346.32
380.349	348.13
380.729	321.01
381.109	330.05
381.489	329.37
381.87	362.82
382.25	347
382.63	345.41
383.01	340.89
383.39	359.65
383.77	345.19
384.15	332.99
384.53	330.27
384.91	332.08
385.29	349.71
385.67	360.1
386.049	350.61
386.429	343.38
386.809	354.91
387.189	347.45
387.568	379.09
387.948	356.26
388.328	368.46
388.707	375.47
389.087	385.19
389.466	390.84
389.846	372.08
390.225	378.86
390.605	376.6
390.984	401.46
391.363	402.36
391.743	372.76
392.122	389.26
392.501	378.86
392.881	392.19
393.26	379.99
393.639	388.58
394.018	410.72
394.397	397.62
394.776	393.55
395.155	401.01
395.534	400.33
395.913	403.04
396.292	408.92
396.671	404.62
397.05	396.71
397.429	411.63
397.808	409.59
398.186	409.59
398.565	406.2
398.944	415.02
399.323	399.88
399.701	414.79
400.08	428.58
400.458	440.1
400.837	426.99
401.215	447.78
401.594	447.11
401.972	441.68
402.351	447.33
402.729	418.41
403.107	475.81
403.486	450.27
403.864	470.38
404.242	458.18
404.62	485.52
404.999	457.95
405.377	462.25
405.755	465.86
406.133	483.94
406.511	503.6
406.889	479.42
407.267	474.9
407.645	483.26
408.023	499.31
408.401	507.44
408.779	535.47
409.156	525.52
409.534	502.25
409.912	542.92
410.29	543.38
410.667	549.03
411.045	562.36
411.422	554.22
411.8	572.3
412.178	549.93
412.555	599.19
412.933	587.44
413.31	595.8
413.687	619.53
414.065	618.4
414.442	639.19
414.819	641.9
415.197	648.91
415.574	664.28
415.951	660.21
416.328	668.8
416.705	689.13
417.082	683.48
417.46	718.51
417.837	727.78
418.214	703.82
418.591	730.04
418.967	723.71
419.344	749.25
419.721	765.52
420.098	769.81
420.475	773.88
420.852	783.37
421.228	815.46
421.605	796.93
421.982	821.11
422.358	836.25
422.735	834.67
423.111	844.84
423.488	851.16
423.864	855.23
424.241	855.23
424.617	900.65
424.994	874.89
425.37	873.76
425.746	877.6
426.123	905.85
426.499	922.35
426.875	939.3
427.251	938.17
427.627	930.26
428.003	985.4
428.379	983.36
428.756	992.63
429.132	982.69
429.507	990.14
429.883	1016.81
430.259	1053.64
430.635	1046.19
431.011	1078.95
431.387	1078.05
431.763	1103.13
432.138	1101.55
432.514	1130.7
432.89	1133.19
433.265	1127.31
433.641	1134.77
434.016	1161.44
434.392	1215.9
434.767	1210.48
435.143	1180.65
435.518	1233.07
435.894	1219.97
436.269	1260.87
436.644	1257.26
437.02	1273.53
437.395	1273.53
437.77	1283.92
438.145	1318.95
438.52	1325.95
438.895	1342.68
439.271	1346.52
439.646	1363.02
440.021	1389.23
440.395	1356.24
440.77	1367.76
441.145	1408.89
441.52	1369.79
441.895	1404.14
442.27	1424.71
442.645	1406.4
443.019	1419.74
443.394	1401.21
443.769	1439.4
444.143	1433.07
444.518	1443.24
444.892	1428.78
445.267	1466.74
445.641	1479.17
446.016	1510.36
446.39	1465.84
446.764	1479.62
447.139	1471.49
447.513	1511.71
447.887	1498.15
448.262	1517.14
448.636	1522.78
449.01	1526.4
449.384	1530.02
449.758	1559.62
450.132	1554.87
450.506	1548.77
450.88	1543.8
451.254	1587.42
451.628	1571.37
452.002	1575.44
452.376	1584.25
452.75	1628.77
453.123	1605.04
453.497	1642.1
453.871	1641.2
454.244	1675.1
454.618	1650.92
454.992	1652.27
455.365	1710.58
455.739	1707.64
456.112	1730.46
456.486	1739.05
456.859	1769.11
457.232	1756.9
457.606	1771.82
457.979	1784.92
458.352	1825.83
458.725	1807.98
459.099	1820.4
459.472	1859.73
459.845	1871.93
460.218	1885.49
460.591	1888.65
460.964	1869.22
461.337	1932.27
461.71	1942.89
462.083	1969.33
462.456	1954.19
462.829	2009.55
463.201	1995.09
463.574	1985.6
463.947	2028.08
464.32	2042.77
464.692	2058.59
465.065	2067.18
465.438	2087.29
465.81	2114.41
466.183	2140.85
466.555	2184.01
466.928	2167.06
467.3	2181.3
467.672	2177.91
468.045	2257.23
468.417	2238.47
468.789	2241.64
469.161	2282.31
469.534	2286.15
469.906	2312.14
470.278	2336.77
470.65	2351.24
471.022	2372.48
471.394	2415.64
471.766	2468.3
472.138	2438.69
472.51	2484.57
472.882	2489.54
473.253	2572.7
473.625	2569.08
473.997	2598.91
474.369	2584.23
474.74	2628.07
475.112	2665.35
475.484	2708.29
475.855	2702.41
476.227	2778.8
476.598	2764.79
476.97	2827.84
477.341	2868.29
477.713	2879.13
478.084	2884.78
478.455	2945.12
478.827	2966.59
479.198	3014.27
479.569	3050.88
479.94	3078.22
480.311	3117.32
480.682	3170.65
481.053	3220.59
481.424	3201.38
481.795	3245.45
482.166	3307.37
482.537	3350.99
482.908	3359.57
483.279	3409.97
483.65	3435.95
484.021	3470.3
484.391	3472.79
484.762	3535.16
485.133	3553.47
485.503	3618.32
485.874	3688.83
486.244	3673.01
486.615	3727.25
486.985	3747.81
487.356	3775.38
487.726	3860.58
488.097	3901.71
488.467	3858.77
488.837	3928.37
489.207	3936.05
489.578	4020.12
489.948	4026.67
490.318	4051.76
490.688	4092.43
491.058	4104.86
491.428	4197.74
491.798	4181.47
492.168	4262.37
492.538	4305.76
492.908	4346.67
493.278	4368.13
493.648	4356.83
494.017	4429.6
494.387	4426.21
494.757	4455.36
495.126	4518.86
495.496	4548.69
495.866	4532.2
496.235	4536.04
496.605	4582.14
496.974	4618.52
497.344	4690.84
497.713	4702.14
498.082	4673.89
498.452	4759.08
498.821	4806.09
499.19	4766.32
499.559	4777.16
499.928	4795.69
500.298	4829.82
500.667	4847.22
501.036	4831.62
501.405	4891.96
501.774	4917.27
502.143	4914.79
502.512	4937.38
502.88	4975.12
503.249	4983.48
503.618	5034.33
503.987	5022.58
504.356	5019.42
504.724	5074.1
505.093	5083.14
505.462	5065.29
505.83	5102.8
506.199	5152.97
506.567	5184.38
506.936	5182.12
507.304	5215.34
507.672	5264.83
508.041	5281.56
508.409	5248.79
508.777	5305.51
509.145	5338.73
509.514	5355.45
509.882	5327.2
510.25	5376.47
510.618	5355.9
510.986	5396.81
511.354	5476.35
511.722	5475.68
512.09	5510.7
512.458	5459.4
512.826	5521.1
513.193	5519.29
513.561	5567.42
513.929	5580.98
514.297	5608.1
514.664	5604.94
515.032	5636.57
515.4	5659.4
515.767	5664.37
516.135	5694.2
516.502	5656.69
516.869	5700.08
517.237	5769
517.604	5738.95
517.972	5739.4
518.339	5761.32
518.706	5750.24
519.073	5811.71
519.44	5801.32
519.808	5884.93
520.175	5896.68
520.542	5918.6
520.909	5874.31
521.276	5914.76
521.643	6001.09
522.009	6021.2
522.376	6032.5
522.743	5975.32
523.11	6080.63
523.477	6117.01
523.843	6124.25
524.21	6148.65
524.577	6238.37
524.943	6244.69
525.31	6311.81
525.676	6315.65
526.043	6326.5
526.409	6345.93
526.776	6420.96
527.142	6392.94
527.508	6446.5
527.874	6516.33
528.241	6543.9
528.607	6510.68
528.973	6616.44
529.339	6610.79
529.705	6667.51
530.071	6738.24
530.437	6769.65
530.803	6766.26
531.169	6751.57
531.535	6790.22
531.901	6793.61
532.267	6846.49
532.632	6897.56
532.998	6885.36
533.364	6932.59
533.73	6955.64
534.095	7028.85
534.461	7032.24
534.826	7071.79
535.192	7052.81
535.557	7100.49
535.923	7110.66
536.288	7149.53
536.653	7197.89
537.019	7115.86
537.384	7240.37
537.749	7250.77
538.114	7350.88
538.479	7333.25
538.845	7315.17
539.21	7271.79
539.575	7374.83
539.94	7425.91
540.305	7513.36
540.67	7496.87
541.034	7522.85
541.399	7571.89
541.764	7556.98
542.129	7592.68
542.494	7625.68
542.858	7672.45
543.223	7705.45
543.587	7705
543.952	7747.03
544.316	7787.25
544.681	7839.45
545.045	7768.04
545.41	7864.99
545.774	7852.79
546.138	7875.84
546.503	7975.5
546.867	7937.08
547.231	7979.79
547.595	8053.91
547.959	8009.62
548.324	8084.42
548.688	8107.24
549.052	8116.06
549.416	8178.43
549.779	8175.94
550.143	8165.32
550.507	8213
550.871	8280.57
551.235	8353.79
551.599	8345.66
551.962	8308.37
552.326	8297.97
552.689	8367.35
553.053	8371.87
553.417	8415.94
553.78	8487.57
554.143	8471.75
554.507	8474.92
554.87	8487.12
555.234	8592.2
555.597	8577.97
555.96	8639.89
556.323	8638.98
556.686	8659.55
557.05	8689.15
557.413	8707.45
557.776	8758.53
558.139	8739.54
558.502	8684.63
558.865	8802.59
559.228	8813.21
559.59	8884.85
559.953	8877.17
560.316	8948.13
560.679	8899.99
561.041	8992.42
561.404	8984.06
561.767	9069.48
562.129	9021.12
562.492	9141.57
562.854	9106.99
563.217	9118.97
563.579	9230.38
563.941	9198.29
564.304	9239.64
564.666	9290.26
565.028	9321.22
565.39	9365.29
565.753	9375.01
566.115	9381.56
566.477	9414.55
566.839	9412.75
567.201	9568
567.563	9584.27
567.925	9586.08
568.287	9596.7
568.648	9627.43
569.01	9632.63
569.372	9745.85
569.734	9686.86
570.095	9747.2
570.457	9792.4
570.819	9856.35
571.18	9843.92
571.542	9901.32
571.903	9954.43
572.265	10042.11
572.626	10045.5
572.987	10153.74
573.349	10198.04
573.71	10187.87
574.071	10248.43
574.432	10401.87
574.794	10406.17
575.155	10468.99
575.516	10475.77
575.877	10542.66
576.238	10670.11
576.599	10781.3
576.96	10812.26
577.32	10859.26
577.681	10960.28
578.042	11135.19
578.403	11192.81
578.763	11247.5
579.124	11448.17
579.485	11522.75
579.845	11652.91
580.206	11731.78
580.566	11872.57
580.927	11975.62
581.287	12206.12
581.648	12356.17
582.008	12562.04
582.368	12642.72
582.728	12828.48
583.089	12979.88
583.449	13083.16
583.809	13287.67
584.169	13472.53
584.529	13680.43
584.889	13883.59
585.249	14089.69
585.609	14270.25
585.969	14479.28
586.329	14697.81
586.688	15041.53
587.048	15163.56
587.408	15444.9
587.768	15621.62
588.127	15921.5
588.487	16147.71
588.846	16547.25
589.206	16647.36
589.565	16943.17
589.925	17279.21
590.284	17566.43
590.643	17920.77
591.003	18117.15
591.362	18547.42
591.721	18732.95
592.08	18978.82
592.44	19456.32
592.799	19666.49
593.158	19920.49
593.517	20200.03
593.876	20520.03
594.235	20741.26
594.593	21113.68
594.952	21441.13
595.311	21606.1
595.67	21884.28
596.029	22388
596.387	22730.59
596.746	22981.43
597.104	23263.46
597.463	23502.09
597.822	24011.23
598.18	24102.53
598.538	24320.6
598.897	24942.51
599.255	24893.92
599.613	25577.97
599.972	25634.69
600.33	26052.54
600.688	26187.45
601.046	26628.57
601.404	27018.16
601.762	27183.13
602.12	27455.44
602.478	27820.4
602.836	28221.07
603.194	28296.77
603.552	28520.27
603.91	28676.2
604.268	29079.8
604.625	29234.6
604.983	29590.52
605.341	29702.61
605.698	30129.94
606.056	30488.8
606.413	30599.76
606.771	30896.02
607.128	31170.14
607.485	31282.68
607.843	31470.02
608.2	31926.05
608.557	32068.42
608.914	32135.09
609.272	32499.15
609.629	32757.9
609.986	33072.24
610.343	33264.1
610.7	33410.31
611.057	33608.72
611.414	33708.15
611.771	33942.05
612.127	34331.87
612.484	34395.59
612.841	34657.51
613.198	34730.73
613.554	34986.09
613.911	35383.14
614.267	35457.49
614.624	35434.44
614.98	35779.06
615.337	36096.57
615.693	36130.01
616.05	36140.18
616.406	36653.61
616.762	36543.33
617.118	36755.08
617.475	36869.65
617.831	37126.82
618.187	37188.29
618.543	37275.52
618.899	37699.23
619.255	37635.73
619.611	37712.57
619.967	37887.25
620.323	37988.94
620.678	37973.58
621.034	38145.1
621.39	38100.35
621.746	38216.51
622.101	38748.25
622.457	38540.34
622.812	38732.43
623.168	38911.86
623.523	39053.78
623.879	39304.16
624.234	39003.83
624.589	39199.08
624.945	39250.61
625.3	39400.88
625.655	39416.25
626.01	39481.56
626.365	39574.89
626.72	39595
627.075	39638.62
627.43	39767.43
627.785	39733.08
628.14	39883.81
628.495	39999.06
628.85	39961.1
629.205	39969.68
629.559	40263.01
629.914	40114.31
630.269	40069.12
630.623	40089
630.978	40128.1
631.332	40313.86
631.687	40330.58
632.041	40081.32
632.396	40335.32
632.75	40298.26
633.104	40394.08
633.459	40281.54
633.813	40292.16
634.167	40331.48
634.521	40391.82
634.875	40459.16
635.229	40378.94
635.583	40244.03
635.937	40324.48
636.291	40293.74
636.645	40270.24
636.999	40388.88
637.352	40333.29
637.706	40268.66
638.06	40334.19
638.413	40312.5
638.767	40381.42
639.121	40371.48
639.474	40107.53
639.828	40221.43
640.181	40221.88
640.534	40240.41
640.888	40147.08
641.241	40085.16
641.594	40133.3
641.947	40399.95
642.301	40237.93
642.654	40258.49
643.007	40312.95
643.36	40188.21
643.713	40091.94
644.066	40353.4
644.419	40061.21
644.771	39653.76
645.124	39474.78
645.477	39364.5
645.83	39224.17
646.182	39082.7
646.535	38987.56
646.888	39088.35
647.24	38900.79
647.593	39033.89
647.945	38979.2
648.298	39046.09
648.65	38908.02
649.002	38693.78
649.355	38964.29
649.707	38997.51
650.059	39045.64
650.411	39569.92
650.763	39670.48
651.115	40042.22
651.467	39857.14
651.819	39835
652.171	39725.4
652.523	39715.68
652.875	39800.87
653.227	39535.34
653.578	40025.73
653.93	39767.65
654.282	39581.22
654.633	39586.42
654.985	39610.82
655.337	39768.11
655.688	39771.27
656.039	39831.38
656.391	39603.14
656.742	39451.28
657.094	39645.4
657.445	39726.75
657.796	39597.72
658.147	39435.23
658.498	39512.52
658.849	39557.26
659.2	39552.52
659.551	39477.27
659.902	39595.68
660.253	39442.47
660.604	39532.63
660.955	39435.46
661.306	39507.55
661.656	39477.04
662.007	39445.86
662.358	39483.59
662.708	39508.45
663.059	39522.24
663.409	39235.92
663.76	39566.76
664.11	39470.04
664.461	39494.44
664.811	39523.14
665.161	39529.02
665.511	39303.71
665.862	39356.59
666.212	39544.16
666.562	39443.14
666.912	39314.33
667.262	39418.96
667.612	39415.8
667.962	39487.44
668.312	39391.62
668.662	39555.68
669.011	39402.24
669.361	39400.88
669.711	39376.93
670.06	39327.21
670.41	39260.1
670.76	39090.84
671.109	39325.86
671.459	39249.93
671.808	39210.38
672.157	39292.87
672.507	38887.23
672.856	38944.17
673.205	39030.27
673.554	39066.2
673.904	39027.79
674.253	39229.82
674.602	39005.19
674.951	38514.13
675.3	38368.37
675.649	39180.78
675.998	38854.68
676.346	38955.47
676.695	39092.87
677.044	38845.19
677.393	38897.62
677.741	39046.54
678.09	38863.72
678.438	38712.09
678.787	38864.4
679.135	38694.24
679.484	38583.96
679.832	38757.29
680.181	38536.5
680.529	38607.23
680.877	38529.04
681.225	38519.1
681.573	38802.03
681.922	38343.06
682.27	38210.86
682.618	38370.63
682.966	38242.05
683.314	38221.03
683.661	38114.82
684.009	37962.28
684.357	38015.38
684.705	38001.15
685.053	38096.96
685.4	37928.61
685.748	37655.39
686.095	37704.88
686.443	37588.05
686.79	37732.23
687.138	37595.96
687.485	37594.83
687.832	37466.02
688.18	37518.67
688.527	37317.32
688.874	37288.62
689.221	37152.36
689.568	37104.22
689.915	36992.81
690.262	37075.75
690.609	36784.23
690.956	36714.63
691.303	36763.21
691.65	36644.8
691.997	36679.6
692.344	36399.16
692.69	36367.29
693.037	36450
693.383	36129.56
693.73	36301.08
694.077	36056.11
694.423	36109.22
694.769	35941.99
695.116	35758.49
695.462	35879.17
695.808	35663.58
696.155	35866.06
696.501	35487.54
696.847	35530.93
697.193	35323.48
697.539	35320.77
697.885	35103.37
698.231	34993.77
698.577	34909.93
698.923	34857.95
699.269	34735.47
699.614	34735.92
699.96	34532.09
700.306	34657.05
700.651	34355.14
700.997	34382.03
701.342	34323.73
701.688	34255.48
702.033	34182.49
702.379	34115.83
702.724	33939.11
703.069	34027.92
703.415	33826.79
703.76	33716.51
704.105	33652.11
704.45	33646.69
704.795	33426.13
705.14	33342.29
705.485	33265.9
705.83	33141.39
706.175	33259.58
706.52	33100.94
706.865	33128.73
707.209	33048.96
707.554	32849.19
707.899	32886.93
708.243	32748.63
708.588	32796.76
708.932	32452.59
709.277	32374.4
709.621	32550.22
709.966	32283.33
710.31	32345.7
710.654	32076.78
710.998	32070.68
711.342	32077.46
711.687	31912.49
712.031	31956.33
712.375	31717.25
712.719	31808.99
713.063	31721.76
713.407	31825.04
713.75	31747.75
714.094	31714.76
714.438	31376.24
714.782	31606.29
715.125	31343.24
715.469	31287.65
715.812	31210.14
716.156	31082.46
716.499	31128.56
716.843	31192.29
717.186	31057.38
717.53	31148.67
717.873	31084.04
718.216	31061.9
718.559	30905.52
718.902	30701.68
719.246	30691.74
719.589	30721.79
719.932	30636.37
720.275	30608.8
720.617	30577.16
720.96	30579.65
721.303	30488.35
721.646	30530.38
721.989	30277.96
722.331	30369.71
722.674	30336.26
723.016	30210.62
723.359	30272.31
723.701	30261.69
724.044	29944.41
724.386	29968.14
724.729	30062.15
725.071	29950.96
725.413	29792.32
725.755	29877.97
726.097	29753.23
726.439	29570.18
726.782	29647.02
727.124	29792.78
727.465	29546
727.807	29516.17
728.149	29515.95
728.491	29516.17
728.833	29483.18
729.175	29463.29
729.516	29328.61
729.858	29402.28
730.199	29307.82
730.541	29192.34
730.882	29136.97
731.224	29184.2
731.565	29045.9
731.906	29027.82
732.248	29021.72
732.589	28878.45
732.93	28784.21
733.271	28786.25
733.612	28826.47
733.953	28869.86
734.294	28738.11
734.635	28680.49
734.976	28815.17
735.317	28526.37
735.658	28599.59
735.999	28569.98
736.339	28614.28
736.68	28702.64
737.021	28557.33
737.361	28340.84
737.702	28413.6
738.042	28453.15
738.383	28245.02
738.723	28420.16
739.063	28379.25
739.404	28328.41
739.744	28191.46
740.084	28118.24
740.424	28234.62
740.764	28017.68
741.104	28147.85
741.444	27982.65
741.784	27922.54
742.124	28001.41
742.464	27847.74
742.804	27787.86
743.143	27837.8
743.483	27872.37
743.823	27653.62
744.162	27662.44
744.502	27896.55
744.841	27640.29
745.181	27654.53
745.52	27602.1
745.86	27665.15
746.199	27546.96
746.538	27510.8
746.877	27641.87
747.216	27634.41
747.556	27558.26
747.895	27525.26
748.234	27398.26
748.573	27394.19
748.911	27368.88
749.25	27369.79
749.589	27258.83
749.928	27259.96
750.267	27332.5
750.605	27214.99
750.944	27136.12
751.283	27106.07
751.621	27109.68
751.96	26944.94
752.298	26965.28
752.636	26931.83
752.975	26868.11
753.313	26818.62
753.651	26908.11
753.989	26752.18
754.327	26834.21
754.666	26633.09
755.004	26754.44
755.342	26659.98
755.679	26626.76
756.017	26420.89
756.355	26662.69
756.693	26445.29
757.031	26369.14
757.368	26448.46
757.706	26483.48
758.044	26223.38
758.381	26352.64
758.719	26280.33
759.056	26109.93
759.394	26112.19
759.731	25957.85
760.068	25947
760.405	25867.68
760.743	25859.32
761.08	25932.09
761.417	25784.75
761.754	25759.89
762.091	25768.47
762.428	25590.63
762.765	25464.75
763.102	25586.56
763.438	25396.28
763.775	25288.71
764.112	25172.33
764.449	25288.94
764.785	25291.43
765.122	25154.25
765.458	25002.85
765.795	24910.87
766.131	24934.6
766.467	24846.24
766.804	24677.66
767.14	24531.45
767.476	24577.09
767.812	24449.41
768.148	24484.67
768.485	24319.7
768.821	24158.57
769.157	24124
769.492	24143.43
769.828	24153.6
770.164	23780.5
770.5	23920.84
770.836	23876.32
771.171	23905.93
771.507	23782.54
771.842	23456.22
772.178	23437.91
772.513	23488.53
772.849	23419.38
773.184	23248.09
773.519	23282.44
773.855	23208.99
774.19	23021.2
774.525	22946.63
774.86	23040.41
775.195	22944.37
775.53	22785.95
775.865	22646.3
776.2	22553.19
776.535	22493.31
776.87	22445.4
777.205	22241.56
777.539	22257.38
777.874	22296.02
778.209	21983.72
778.543	22073.66
778.878	21875.92
779.212	21914.57
779.547	21846.32
779.881	21825.08
780.215	21693.55
780.55	21743.5
780.884	21558.19
781.218	21533.11
781.552	21465.09
781.886	21332.66
782.22	21180.35
782.554	21106.68
782.888	20934.7
783.222	20862.16
783.556	20782.39
783.889	20802.28
784.223	20627.37
784.557	20571.78
784.89	20673.69
785.224	20548.73
785.557	20427.6
785.891	20423.53
786.224	20360.26
786.558	20254.27
786.891	20014.28
787.224	20004.11
787.557	19844.79
787.891	19970.21
788.224	19904.22
788.557	19866.94
788.89	19826.26
789.223	19733.15
789.556	19608.64
789.888	19674.4
790.221	19498.81
790.554	19348.53
790.887	19346.5
791.219	19272.15
791.552	19214.07
791.884	19218.36
792.217	19089.33
792.549	19004.13
792.882	18954.87
793.214	18754.42
793.546	18878.94
793.879	18701.09
794.211	18631.94
794.543	18661.54
794.875	18564.37
795.207	18604.82
795.539	18506.07
795.871	18445.96
796.203	18345.85
796.535	18291.61
796.867	18248.67
797.198	18158.51
797.53	18085.06
797.862	18001
798.193	18089.13
798.525	17982.92
798.856	17935.91
799.188	17812.98
799.519	17741.57
799.85	17652.98
800.182	17620.67
800.513	17568.69
800.844	17437.17
801.175	17572.98
801.506	17506.32
801.837	17410.95
802.168	17327.57
802.499	17307.91
802.83	17237.85
803.161	17137.06
803.491	17121.7
803.822	17096.16
804.153	16939.78
804.483	16836.73
804.814	16870.4
805.145	16866.79
805.475	16802.84
805.805	16728.03
806.136	16724.42
806.466	16718.09
806.796	16551.32
807.126	16477.65
807.457	16489.17
807.787	16513.58
808.117	16488.72
808.447	16310.64
808.777	16371.43
809.107	16247.14
809.436	16321.27
809.766	16240.82
810.096	16146.81
810.426	16016.87
810.755	16112.01
811.085	16061.16
811.414	16047.15
811.744	15910.66
812.073	15878.57
812.403	15887.6
812.732	15763.54
813.061	15802.86
813.39	15768.51
813.719	15608.74
814.049	15854.39
814.378	15588.18
814.707	15672.47
815.036	15601.51
815.365	15359.71
815.693	15265.02
816.022	15392.25
816.351	15300.05
816.68	15196.1
817.008	15331.91
817.337	15164.69
817.665	15112.94
817.994	15092.37
818.322	15116.1
818.651	15022.77
818.979	14940.74
819.307	14968.98
819.636	14954.97
819.964	14932.15
820.292	14968.76
820.62	14981.41
820.948	14863
821.276	14894.41
821.604	14841.53
821.932	14833.4
822.259	14872.04
822.587	14790.68
822.915	14698.94
823.243	14841.08
823.57	14785.94
823.898	14825.94
824.225	14772.61
824.553	14739.16
824.88	14708.65
825.207	14673.4
825.535	14688.99
825.862	14769.44
826.189	14739.16
826.516	14755.43
826.843	14798.59
827.17	14804.47
827.497	14853.96
827.824	14783
828.151	14815.77
828.478	14761.76
828.805	14828.2
829.131	14800.18
829.458	14704.81
829.785	14704.81
830.111	14753.17
830.438	14733.28
830.764	14759.95
831.09	14760.63
831.417	14774.87
831.743	14792.49
832.069	14710.23
832.395	14717.01
832.722	14734.87
833.048	14630.24
833.374	14637.47
833.7	14621.42
834.026	14582.33
834.351	14639.28
834.677	14583.46
835.003	14555.21
835.329	14586.17
835.654	14604.7
835.98	14508.43
836.306	14535.78
836.631	14439.28
836.956	14531.48
837.282	14480.86
837.607	14296.46
837.932	14384.14
838.258	14419.62
838.583	14304.14
838.908	14290.58
839.233	14268.66
839.558	14278.83
839.883	14270.47
840.208	14170.81
840.533	14193.86
840.858	14164.49
841.182	14178.95
841.507	14239.06
841.832	14106.63
842.156	14035.22
842.481	14077.48
842.805	13980.08
843.13	13884.49
843.454	13949.12
843.778	13799.75
844.103	13953.87
844.427	13794.55
844.751	13761.33
845.075	13727.89
845.399	13716.81
845.723	13668.68
846.047	13680.88
846.371	13465.3
846.695	13479.76
847.019	13485.86
847.343	13438.4
847.666	13269.59
847.99	13260.33
848.313	13268.69
848.637	13144.85
848.96	13096.49
849.284	13041.35
849.607	12989.15
849.931	12955.93
850.254	12879.32
850.577	12863.73
850.9	12666.22
851.223	12732.89
851.546	12670.29
851.869	12631.87
852.192	12694.69
852.515	12541.93
852.838	12517.52
853.161	12462.38
853.483	12462.61
853.806	12313.24
854.129	12416.51
854.451	12313.46
854.774	12281.15
855.096	12157.76
855.419	12158.89
855.741	12165.89
856.063	12103.75
856.385	12048.38
856.708	12006.58
857.03	12016.75
857.352	12009.29
857.674	11955.5
857.996	11889.74
858.318	11774.94
858.64	11872.57
858.961	11756.41
859.283	11736.3
859.605	11715.29
859.926	11778.56
860.248	11691.33
860.57	11603.88
860.891	11638
861.212	11489.08
861.534	11498.79
861.855	11392.13
862.176	11516.19
862.498	11522.3
862.819	11562.52
863.14	11434.84
863.461	11394.16
863.782	11323.66
864.103	11370.66
864.424	11351.68
864.745	11374.5
865.065	11268.74
865.386	11235.07
865.707	11236.43
866.027	11240.72
866.348	11198.46
866.668	11217.22
866.989	11119.14
867.309	11107.17
867.63	11063.32
867.95	11045.92
868.27	10971.58
868.59	11036.21
868.91	11013.38
869.23	10986.26
869.55	10946.49
869.87	11066.71
870.19	10972.25
870.51	10959.82
870.83	10984.68
871.15	10905.81
871.469	10857
871.789	10962.54
872.109	10933.61
872.428	10805.93
872.748	10846.38
873.067	10759.83
873.386	10802.77
873.706	10808.87
874.025	10762.09
874.344	10748.08
874.663	10766.38
874.982	10727.74
875.301	10715.99
875.62	10622.43
875.939	10698.81
876.258	10653.39
876.577	10614.98
876.896	10678.48
877.214	10596.22
877.533	10578.37
877.852	10580.17
878.17	10517.12
878.489	10540.4
878.807	10601.64
879.125	10423.79
879.444	10469.22
879.762	10432.16
880.08	10412.49
880.398	10382.89
880.716	10382.89
881.034	10358.94
881.352	10349.45
881.67	10335.43
881.988	10305.15
882.306	10262.67
882.624	10223.57
882.941	10173.18
883.259	10109.23
883.577	10072.16
883.894	10135.21
884.212	10130.02
884.529	10123.46
884.846	10057.7
885.164	10012.28
885.481	10027.19
885.798	9932.51
886.115	9950.13
886.432	9970.47
886.75	9872.62
887.067	9915.11
887.383	9873.07
887.7	9844.15
888.017	9823.13
888.334	9818.39
888.651	9775.45
888.967	9749.24
889.284	9655.68
889.6	9671.27
889.917	9616.36
890.233	9730.03
890.55	9628.11
890.866	9634.44
891.182	9545.4
891.498	9505.4
891.815	9446.19
892.131	9422.24
892.447	9448.23
892.763	9457.72
893.079	9371.62
893.395	9365.74
893.71	9316.03
894.026	9331.85
894.342	9275.8
894.657	9236.71
894.973	9200.78
895.289	9172.98
895.604	9178.85
895.92	9117.16
896.235	9104.28
896.55	9095.92
896.865	9055.47
897.181	9028.12
897.496	9015.02
897.811	8975.47
898.126	8932.76
898.441	8906.55
898.756	8835.59
899.071	8837.85
899.386	8781.35
899.7	8735.25
900.015	8740
900.33	8670.62
900.644	8688.7
900.959	8680.34
901.273	8589.49
901.588	8574.8
901.902	8552.88
902.216	8530.06
902.531	8539.32
902.845	8451.64
903.159	8372.1
903.473	8364.19
903.787	8325.77
904.101	8336.62
904.415	8292.55
904.729	8216.17
905.042	8223.85
905.356	8119.45
905.67	8206.9
905.984	8141.14
906.297	8108.15
906.611	8090.07
906.924	8116.96
907.237	8073.8
907.551	7994.71
907.864	7976.17
908.177	8004.42
908.491	7921.49
908.804	7887.14
909.117	7844.43
909.43	7787.03
909.743	7747.93
910.056	7750.87
910.368	7717.42
910.681	7700.7
910.994	7617.09
911.307	7587.26
911.619	7589.07
911.932	7573.25
912.244	7506.13
912.557	7541.61
912.869	7493.48
913.181	7408.51
913.494	7359.92
913.806	7302.97
914.118	7290.54
914.43	7320.37
914.742	7310.66
915.054	7214.39
915.366	7217.32
915.678	7186.14
915.99	7133.71
916.302	7107.27
916.613	7052.36
916.925	7078.12
917.236	7119.7
917.548	7020.49
917.859	6995.86
918.171	6986.37
918.482	6880.16
918.794	6882.42
919.105	6850.55
919.416	6818.24
919.727	6798.58
920.038	6753.16
920.349	6749.54
920.66	6695.98
920.971	6737.34
921.282	6679.26
921.593	6618.47
921.903	6602.43
922.214	6537.12
922.525	6509.77
922.835	6535.99
923.146	6534.18
923.456	6448.53
923.767	6461.64
924.077	6422.54
924.387	6369.21
924.697	6401.07
925.008	6332.38
925.318	6306.39
925.628	6259.61
925.938	6257.12
926.248	6159.73
926.558	6201.98
926.867	6175.77
927.177	6155.21
927.487	6081.54
927.796	6071.14
928.106	6086.28
928.416	6020.75
928.725	6009.9
929.034	5950.24
929.344	5949.79
929.653	5919.28
929.962	5861.65
930.271	5840.86
930.581	5801.99
930.89	5821.65
931.199	5792.05
931.508	5736.23
931.817	5744.14
932.125	5727.65
932.434	5704.6
932.743	5636.57
933.051	5600.87
933.36	5616.69
933.669	5587.54
933.977	5580.31
934.286	5544.37
934.594	5510.48
934.902	5491.04
935.21	5472.51
935.519	5440.87
935.827	5471.83
936.135	5464.15
936.443	5365.4
936.751	5423.47
937.059	5369.69
937.367	5334.66
937.674	5306.64
937.982	5313.19
938.29	5277.26
938.597	5294.44
938.905	5195.46
939.213	5179.86
939.52	5187.1
939.827	5194.55
940.135	5161.11
940.442	5096.02
940.749	5118.62
941.056	5061.45
941.363	5053.54
941.67	5013.31
941.977	4964.73
942.284	4980.1
942.591	4952.3
942.898	4928.34
943.205	4955.24
943.511	4907.78
943.818	4897.84
944.125	4818.74
944.431	4829.82
944.738	4805.64
945.044	4745.98
945.35	4749.14
945.657	4674.34
945.963	4682.02
946.269	4701.46
946.575	4670.05
946.881	4658.97
947.187	4654
947.493	4604.96
947.799	4572.2
948.105	4582.37
948.41	4587.34
948.716	4517.73
949.022	4506.21
949.327	4490.62
949.633	4447.91
949.938	4498.75
950.244	4447.91
950.549	4439.32
950.854	4386.21
951.16	4368.36
951.465	4389.38
951.77	4382.14
952.075	4304.18
952.38	4289.27
952.685	4244.52
952.99	4275.25
953.294	4205.2
953.599	4182.38
953.904	4217.18
954.209	4205.88
954.513	4162.49
954.818	4155.03
955.122	4111.42
955.426	4126.56
955.731	4129.27
956.035	4064.86
956.339	4049.72
956.643	4067.35
956.948	4022.15
957.252	4035.49
957.556	3956.39
957.86	3972.21
958.163	3974.7
958.467	3951.87
958.771	3948.71
959.075	3929.05
959.378	3914.13
959.682	3877.3
959.985	3855.15
960.289	3855.38
960.592	3873.46
960.896	3846.79
961.199	3785.1
961.502	3774.03
961.805	3716.85
962.108	3724.31
962.411	3756.62
962.714	3711.43
963.017	3685.67
963.32	3731.31
963.623	3670.98
963.926	3667.81
964.228	3651.54
964.531	3651.54
964.833	3562.51
965.136	3579.91
965.438	3545.1
965.741	3534.71
966.043	3499.68
966.345	3513.01
966.648	3546.23
966.95	3505.33
967.252	3473.02
967.554	3477.99
967.856	3451.32
968.158	3433.92
968.46	3429.18
968.761	3382.62
969.063	3403.87
969.365	3381.49
969.666	3385.33
969.968	3317.77
970.269	3322.96
970.571	3342.4
970.872	3330.65
971.174	3281.61
971.475	3282.96
971.776	3245.68
972.077	3224.89
972.378	3235.28
972.679	3201.38
972.98	3169.07
973.281	3190.09
973.582	3161.61
973.883	3164.78
974.183	3152.35
974.484	3134.04
974.785	3137.21
975.085	3064.21
975.386	3075.51
975.686	3062.63
975.986	3034.16
976.287	3029.41
976.587	2958.23
976.887	3021.05
977.187	3002.29
977.487	2987.61
977.787	2988.51
978.087	2964.55
978.387	2965.68
978.687	2923.43
978.987	2897.66
979.286	2914.61
979.586	2882.75
979.885	2863.99
980.185	2881.62
980.484	2857.44
980.784	2856.08
981.083	2837.33
981.382	2798.91
981.682	2848.63
981.981	2793.71
982.28	2791.23
982.579	2785.58
982.878	2771.34
983.177	2735.63
983.475	2728.4
983.774	2701.74
984.073	2730.66
984.372	2668.29
984.67	2684.79
984.969	2695.18
985.267	2664.22
985.566	2667.84
985.864	2661.96
986.162	2655.64
986.461	2607.05
986.759	2601.4
987.057	2571.12
987.355	2556.43
987.653	2570.67
987.951	2571.34
988.249	2531.12
988.547	2562.31
988.844	2501.06
989.142	2510.33
989.44	2502.19
989.737	2454.51
990.035	2512.14
990.332	2483.89
990.63	2463.55
990.927	2432.82
991.224	2430.33
991.521	2414.06
991.819	2410.67
992.116	2399.15
992.413	2346.27
992.71	2390.33
993.006	2355.31
993.303	2346.04
993.6	2337
993.897	2304.91
994.193	2315.76
994.49	2291.58
994.787	2257
995.083	2252.71
995.379	2301.07
995.676	2227.63
995.972	2247.06
996.268	2252.48
996.565	2219.94
996.861	2221.52
997.157	2217.23
997.453	2198.02
997.749	2173.16
998.044	2193.5
998.34	2153.95
998.636	2140.85
998.932	2158.93
999.227	2115.99
999.523	2110.11
999.818	2098.59
1000.114	2106.5
1000.409	2075.99
1000.704	2081.19
1001	2069.66
1001.295	2064.47
1001.59	2051.13
1001.885	2055.43
1002.18	2029.21
1002.475	2001.42
1002.77	2010.46
1003.065	2017.46
1003.359	1991.47
1003.654	1974.98
1003.949	1972.04
1004.243	1980.85
1004.538	1926.39
1004.832	1930.46
1005.127	1920.51
1005.421	1901.08
1005.715	1882.32
1006.009	1894.98
1006.304	1846.84
1006.598	1857.92
1006.892	1859.05
1007.186	1835.54
1007.48	1826.05
1007.773	1821.08
1008.067	1802.1
1008.361	1780.41
1008.655	1763
1008.948	1752.61
1009.242	1758.71
1009.535	1768.88
1009.829	1752.16
1010.122	1729.79
1010.415	1751.48
1010.708	1698.15
1011.001	1708.99
1011.295	1700.63
1011.588	1677.36
1011.881	1700.18
1012.173	1673.29
1012.466	1666.06
1012.759	1646.85
1013.052	1645.04
1013.344	1623.12
1013.637	1647.3
1013.93	1609.11
1014.222	1583.57
1014.514	1593.97
1014.807	1564.59
1015.099	1568.43
1015.391	1578.38
1015.683	1573.63
1015.976	1527.53
1016.268	1525.27
1016.56	1500.41
1016.851	1514.2
1017.143	1497.47
1017.435	1498.6
1017.727	1505.16
1018.018	1494.54
1018.31	1483.92
1018.602	1464.03
1018.893	1449.79
1019.185	1451.15
1019.476	1437.82
1019.767	1414.99
1020.058	1395.1
1020.35	1405.27
1020.641	1422.9
1020.932	1350.36
1021.223	1384.94
1021.514	1393.07
1021.804	1374.09
1022.095	1343.58
1022.386	1332.51
1022.677	1319.4
1022.967	1335.45
1023.258	1340.64
1023.548	1290.47
1023.839	1311.94
1024.129	1309.68
1024.419	1287.76
1024.709	1254.77
1025	1276.24
1025.29	1245.5
1025.58	1264.71
1025.87	1270.36
1026.16	1267.2
1026.449	1240.98
1026.739	1240.53
1027.029	1224.49
1027.319	1236.46
1027.608	1205.73
1027.898	1169.57
1028.187	1161.21
1028.477	1182
1028.766	1151.04
1029.055	1150.59
1029.344	1167.31
1029.634	1129.35
1029.923	1135.22
1030.212	1133.42
1030.501	1105.62
1030.79	1122.12
1031.078	1129.12
1031.367	1107.2
1031.656	1112.85
1031.945	1093.64
1032.233	1082.34
1032.522	1088.22
1032.81	1071.72
1033.099	1076.47
1033.387	1034.66
1033.675	1055.23
1033.963	1028.56
1034.251	1041.89
1034.54	1020.65
1034.828	1003.93
1035.116	1025.85
1035.403	1003.02
1035.691	1004.83
1035.979	1010.03
1036.267	965.74
1036.554	981.1
1036.842	965.96
1037.129	955.79
1037.417	948.79
1037.704	975.91
1037.992	946.08
1038.279	937.94
1038.566	941.33
1038.853	941.33
1039.14	941.33
