Data from hue_160_FLMS001491_00005.txt Node
Date: Tue Feb 07 16:50:40 GMT 2017
User: dcchb
Spectrometer: FLMS00149
Trigger mode: 0
Integration Time (sec): 2.000000E-2
Scans to average: 10
Electric dark correction enabled: true
Nonlinearity correction enabled: false
Boxcar width: 0
XAxis mode: Wavelengths
Number of Pixels in Spectrum: 2048
>>>>>Begin Spectral Data<<<<<
341.393	-22.01
341.776	-22.01
342.16	-22.01
342.543	-92.74
342.927	-67.2
343.31	-64.26
343.693	-73.3
344.077	-62.23
344.46	-48.22
344.843	-68.33
345.226	-46.64
345.61	-44.15
345.993	-23.59
346.376	2.85
346.759	3.53
347.142	40.82
347.525	44.66
347.908	57.09
348.291	81.72
348.674	85.79
349.057	114.26
349.44	117.2
349.823	135.05
350.206	145.9
350.588	195.84
350.971	199.46
351.354	218.89
351.737	221.38
352.119	246.69
352.502	274.26
352.884	266.35
353.267	307.25
353.65	288.95
354.032	323.52
354.414	323.97
354.797	312
355.179	301.15
355.562	324.65
355.944	335.5
356.326	330.53
356.709	334.6
357.091	348.38
357.473	325.56
357.855	342.28
358.238	323.97
358.62	331.21
359.002	332.11
359.384	326.01
359.766	342.28
360.148	326.46
360.53	350.87
360.912	330.08
361.294	319.23
361.676	320.36
362.057	344.09
362.439	318.78
362.821	333.47
363.203	323.97
363.584	310.64
363.966	323.3
364.348	310.42
364.729	338.89
365.111	320.36
365.493	307.48
365.874	306.35
366.256	284.65
366.637	323.97
367.019	312.45
367.4	308.38
367.781	301.15
368.163	312
368.544	280.36
368.925	295.5
369.306	314.03
369.688	310.87
370.069	317.42
370.45	295.05
370.831	315.39
371.212	297.31
371.593	307.48
371.974	309.06
372.355	317.87
372.736	304.99
373.117	319.23
373.498	316.97
373.879	319.68
374.26	299.57
374.641	303.18
375.021	307.48
375.402	299.79
375.783	309.29
376.163	310.19
376.544	334.37
376.925	317.2
377.305	310.64
377.686	318.32
378.066	322.39
378.447	329.62
378.827	319.91
379.208	319.91
379.588	335.05
379.968	351.32
380.349	322.62
380.729	327.82
381.109	313.81
381.489	324.65
381.87	339.79
382.25	350.87
382.63	330.08
383.01	337.76
383.39	337.99
383.77	346.35
384.15	344.99
384.53	347.48
384.91	341.38
385.29	338.66
385.67	328.04
386.049	365.78
386.429	322.39
386.809	350.64
387.189	340.47
387.568	352.22
387.948	339.79
388.328	344.54
388.707	361.49
389.087	337.99
389.466	360.58
389.846	329.17
390.225	348.61
390.605	367.36
390.984	347.93
391.363	371.2
391.743	366.69
392.122	357.87
392.501	373.69
392.881	372.79
393.26	372.33
393.639	350.19
394.018	359.68
394.397	388.15
394.776	368.72
395.155	369.17
395.534	361.04
395.913	371.88
396.292	389.96
396.671	403.07
397.05	365.78
397.429	380.02
397.808	395.16
398.186	364.88
398.565	385.22
398.944	366.01
399.323	376.63
399.701	399.45
400.08	393.8
400.458	392.22
400.837	390.64
401.215	372.56
401.594	382.28
401.972	405.78
402.351	417.08
402.729	384.99
403.107	409.85
403.486	401.71
403.864	398.1
404.242	421.6
404.62	410.3
404.999	417.53
405.377	433.58
405.755	426.12
406.133	428.6
406.511	422.5
406.889	429.96
407.267	428.15
407.645	440.13
408.023	444.88
408.401	450.75
408.779	443.07
409.156	443.07
409.534	443.75
409.912	449.17
410.29	443.52
410.667	445.33
411.045	462.28
411.422	467.25
411.8	464.54
412.178	500.69
412.555	465.89
412.933	470.86
413.31	469.96
413.687	481.03
414.065	466.8
414.442	469.28
414.819	491.88
415.197	489.17
415.574	492.56
415.951	476.74
416.328	513.35
416.705	519.68
417.082	518.55
417.46	497.08
417.837	499.11
418.214	502.27
418.591	514.7
418.967	524.87
419.344	530.97
419.721	520.35
420.098	500.47
420.475	536.4
420.852	542.73
421.228	547.25
421.605	539.56
421.982	525.78
422.358	571.2
422.735	532.1
423.111	565.78
423.488	576.85
423.864	585.44
424.241	577.75
424.617	589.96
424.994	590.18
425.37	597.64
425.746	572.1
426.123	597.19
426.499	593.8
426.875	568.04
427.251	594.7
427.627	622.95
428.003	619.79
428.379	624.08
428.756	644.42
429.132	630.63
429.507	638.77
429.883	643.51
430.259	641.03
430.635	646.23
431.011	662.27
431.387	663.17
431.763	684.87
432.138	672.89
432.514	690.74
432.89	687.35
433.265	692.55
433.641	695.49
434.016	736.39
434.392	711.08
434.767	721.03
435.143	731.2
435.518	741.82
435.894	736.39
436.269	741.82
436.644	739.78
437.02	763.06
437.395	765.09
437.77	787.01
438.145	786.79
438.52	804.87
438.895	782.49
439.271	799.22
439.646	809.39
440.021	824.98
440.395	833.57
440.77	832.89
441.145	827.69
441.52	851.19
441.895	838.09
442.27	850.29
442.645	871.76
443.019	858.42
443.394	863.85
443.769	867.24
444.143	886.22
444.518	887.8
444.892	897.29
445.267	895.26
445.641	898.65
446.016	920.34
446.39	933.45
446.764	935.03
447.139	930.96
447.513	931.19
447.887	940.91
448.262	949.49
448.636	922.83
449.01	953.11
449.384	964.86
449.758	969.83
450.132	974.13
450.506	994.69
450.88	1002.6
451.254	985.2
451.628	1016.84
452.002	1029.04
452.376	1016.16
452.75	1035.37
453.123	1023.39
453.497	1054.35
453.871	1056.16
454.244	1092.77
454.618	1091.19
454.992	1097.51
455.365	1139.09
455.739	1145.2
456.112	1150.62
456.486	1152.43
456.859	1148.13
457.232	1167.79
457.606	1191.75
457.979	1189.04
458.352	1251.18
458.725	1236.94
459.099	1251.18
459.472	1254.8
459.845	1306.1
460.218	1295.02
460.591	1300.9
460.964	1325.53
461.337	1340.22
461.71	1366.43
462.083	1388.35
462.456	1415.25
462.829	1389.03
463.201	1420.22
463.574	1440.56
463.947	1444.62
464.32	1462.7
464.692	1487.11
465.065	1538.18
465.438	1549.25
465.81	1580.44
466.183	1573.89
466.555	1648.01
466.928	1636.93
467.3	1634
467.672	1642.36
468.045	1732.3
468.417	1749.02
468.789	1751.28
469.161	1786.08
469.534	1819.08
469.906	1867.44
470.278	1858.4
470.65	1851.17
471.022	1956.93
471.394	1967.1
471.766	2015.23
472.138	2056.36
472.51	2117.37
472.882	2143.59
473.253	2167.54
473.625	2217.03
473.997	2276.69
474.369	2302.23
474.74	2343.13
475.112	2394.43
475.484	2434.2
475.855	2540.19
476.227	2582.9
476.598	2652.27
476.97	2666.96
477.341	2815.21
477.713	2841.42
478.084	2866.73
478.455	2964.81
478.827	3008.2
479.198	3171.36
479.569	3155.31
479.94	3279.38
480.311	3347.17
480.682	3431.46
481.053	3569.09
481.424	3627.39
481.795	3735.18
482.166	3821.51
482.537	3895.41
482.908	4042.75
483.279	4126.13
483.65	4208.62
484.021	4298.56
484.391	4404.32
484.762	4532.45
485.133	4547.82
485.503	4712.56
485.874	4811.77
486.244	4914.59
486.615	5051.08
486.985	5201.59
487.356	5320
487.726	5417.4
488.097	5543.72
488.467	5641.35
488.837	5800.44
489.207	5954.56
489.578	6093.77
489.948	6206.31
490.318	6354.32
490.688	6433.64
491.058	6600.19
491.428	6741.88
491.798	6856.23
492.168	6992.27
492.538	7117.69
492.908	7245.15
493.278	7438.59
493.648	7435.65
494.017	7624.57
494.387	7704.8
494.757	7863.21
495.126	8021.63
495.496	8113.15
495.866	8212.35
496.235	8284.44
496.605	8449.86
496.974	8557.66
497.344	8684.88
497.713	8744.09
498.082	8888.72
498.452	9009.17
498.821	9088.49
499.19	9166.45
499.559	9283.96
499.928	9388.59
500.298	9436.73
500.667	9556.95
501.036	9645.09
501.405	9772.54
501.774	9777.96
502.143	9961.46
502.512	10005.98
502.88	10105.86
503.249	10158.52
503.618	10228.12
503.987	10287.33
504.356	10364.16
504.724	10509.02
505.093	10503.14
505.462	10553.31
505.83	10638.73
506.199	10763.25
506.567	10873.53
506.936	10932.96
507.304	10961.21
507.672	11061.32
508.041	11106.52
508.409	11200.98
508.777	11260.18
509.145	11346.74
509.514	11350.58
509.882	11423.8
510.25	11436.9
510.618	11584.92
510.986	11530.23
511.354	11749.66
511.722	11826.27
512.09	11819.04
512.458	11759.15
512.826	11911.24
513.193	11884.12
513.561	11942.88
513.929	11989.66
514.297	12097
514.664	12125.02
515.032	12100.39
515.4	12299.7
515.767	12297.67
516.135	12271.23
516.502	12189.65
516.869	12335.86
517.237	12326.14
517.604	12394.17
517.972	12435.75
518.339	12511
518.706	12490.21
519.073	12515.07
519.44	12531.11
519.808	12621.05
520.175	12593.48
520.542	12678.9
520.909	12757.09
521.276	12686.14
521.643	12793.93
522.009	12827.83
522.376	12857.88
522.743	12868.73
523.11	13034.15
523.477	13039.8
523.843	13032.34
524.21	13113.69
524.577	13168.61
524.943	13085.9
525.31	13113.92
525.676	13215.16
526.043	13154.37
526.409	13228.95
526.776	13235.95
527.142	13222.84
527.508	13283.86
527.874	13276.18
528.241	13287.02
528.607	13313.46
528.973	13332.9
529.339	13298.1
529.705	13368.83
530.071	13442.5
530.437	13376.29
530.803	13312.79
531.169	13369.28
531.535	13310.07
531.901	13332.9
532.267	13223.07
532.632	13254.71
532.998	13259.91
533.364	13373.35
533.73	13323.41
534.095	13372.44
534.461	13231.43
534.826	13387.59
535.192	13287.02
535.557	13360.69
535.923	13310.75
536.288	13198.66
536.653	13195.73
537.019	13183.98
537.384	13113.47
537.749	13169.96
538.114	13063.75
538.479	13099.23
538.845	13036.41
539.21	12950.08
539.575	12983.75
539.94	12957.99
540.305	12902.85
540.67	12887.94
541.034	12892.91
541.399	12809.75
541.764	12784.66
542.129	12803.19
542.494	12736.76
542.858	12723.65
543.223	12733.14
543.587	12593.48
543.952	12577.21
544.316	12623.99
544.681	12538.79
545.045	12519.13
545.41	12582.86
545.774	12480.94
546.138	12416.31
546.503	12463.09
546.867	12311.23
547.231	12346.48
547.595	12327.05
547.959	12275.52
548.324	12299.48
548.688	12258.58
549.052	12291.57
549.416	12184.45
549.779	12141.74
550.143	12084.8
550.507	12087.51
550.871	12132.93
551.235	11930.45
551.599	12069.2
551.962	11995.98
552.326	11954.18
552.689	12012.71
553.053	11901.3
553.417	11921.86
553.78	11890.68
554.143	11883.67
554.507	11825.59
554.87	11787.85
555.234	11829.43
555.597	11662.89
555.96	11736.56
556.323	11762.77
556.686	11770.23
557.05	11709.66
557.413	11689.33
557.776	11722.77
558.139	11759.38
558.502	11657.24
558.865	11690.23
559.228	11621.53
559.59	11769.32
559.953	11689.1
560.316	11748.98
560.679	11731.58
561.041	11706.5
561.404	11760.28
561.767	11718.03
562.129	11654.75
562.492	11754.18
562.854	11743.11
563.217	11647.52
563.579	11679.16
563.941	11714.18
564.304	11777.91
564.666	11787.85
565.028	11738.59
565.39	11700.17
565.753	11678.25
566.115	11738.36
566.477	11802.99
566.839	11727.06
567.201	11799.83
567.563	11767.29
567.925	11820.4
568.287	11789.44
568.648	11772.94
569.01	11900.39
569.372	11925.48
569.734	11834.63
570.095	11910.34
570.457	11937
570.819	11868.3
571.18	11884.8
571.542	11944.01
571.903	11902.88
572.265	11938.36
572.626	11995.76
572.987	11920.96
573.349	12008.19
573.71	11935.19
574.071	11988.07
574.432	11941.97
574.794	12103.55
575.155	11972.03
575.516	11934.52
575.877	12067.17
576.238	11992.37
576.599	12003.89
576.96	12028.53
577.32	12066.94
577.681	12019.71
578.042	12016.77
578.403	12054.97
578.763	11964.12
579.124	12099.71
579.485	12070.33
579.845	12057.68
580.206	12005.7
580.566	12071.69
580.927	12081.41
581.287	12132.25
581.648	12045.25
582.008	12095.19
582.368	12082.99
582.728	12080.28
583.089	12003.44
583.449	12017
583.809	11938.36
584.169	11965.25
584.529	11983.55
584.889	12011.58
585.249	11950.79
585.609	11928.19
585.969	12019.49
586.329	11888.64
586.688	11990.11
587.048	11914.4
587.408	11931.35
587.768	11944.46
588.127	11912.37
588.487	11957.11
588.846	11920.73
589.206	11873.95
589.565	11901.75
589.925	11872.37
590.284	11840.96
590.643	11791.47
591.003	11910.11
591.362	11923.67
591.721	11815.65
592.08	11871.47
592.44	11906.49
592.799	11830.56
593.158	11902.43
593.517	11836.21
593.876	11725.03
594.235	11792.83
594.593	11811.13
594.952	11860.62
595.311	11737.69
595.67	11791.7
596.029	11854.74
596.387	11866.27
596.746	11847.06
597.104	11730.68
597.463	11774.29
597.822	11835.54
598.18	11712.6
598.538	11724.8
598.897	11783.33
599.255	11688.65
599.613	11795.09
599.972	11730.91
600.33	11757.8
600.688	11758.7
601.046	11732.26
601.404	11841.64
601.762	11748.08
602.12	11794.18
602.478	11797.35
602.836	11838.7
603.194	11715.77
603.552	11739.27
603.91	11683.22
604.268	11698.82
604.625	11694.75
604.983	11818.14
605.341	11725.48
605.698	11766.16
606.056	11695.43
606.413	11781.07
606.771	11759.38
607.128	11774.97
607.485	11793.28
607.843	11786.72
608.2	11774.97
608.557	11832.6
608.914	11743.34
609.272	11842.09
609.629	11791.02
609.986	11774.52
610.343	11848.64
610.7	11873.28
611.057	11786.05
611.414	11864.69
611.771	11814.75
612.127	11930.67
612.484	11824.92
612.841	11895.87
613.198	11973.39
613.554	11907.85
613.911	11985.36
614.267	11916.44
614.624	11825.14
614.98	12000.05
615.337	11965.25
615.693	11968.19
616.05	11909.66
616.406	12058.36
616.762	11935.42
617.118	12023.78
617.475	11972.48
617.831	12060.16
618.187	12013.38
618.543	12059.71
618.899	12142.19
619.255	12075.3
619.611	12001.18
619.967	12092.25
620.323	12071.91
620.678	12102.42
621.034	12012.03
621.39	12053.16
621.746	12024.01
622.101	12183.55
622.457	12018.58
622.812	12057.23
623.168	12085.02
623.523	12205.02
623.879	12140.16
624.234	12109.43
624.589	12097.45
624.945	12032.37
625.3	12076.89
625.655	12079.6
626.01	12045.7
626.365	12071.46
626.72	12083.89
627.075	12065.59
627.43	12047.28
627.785	12032.82
628.14	12129.09
628.495	12043.44
628.85	12133.61
629.205	12008.41
629.559	12093.38
629.914	11970.9
630.269	11991.69
630.623	11968.19
630.978	11951.69
631.332	12008.87
631.687	12031.01
632.041	11932.71
632.396	12022.2
632.75	11944.23
633.104	11927.29
633.459	11925.25
633.813	11947.4
634.167	11934.97
634.521	11871.02
634.875	11920.51
635.229	11870.11
635.583	11840.96
635.937	11782.43
636.291	11820.85
636.645	11774.52
636.999	11683.68
637.352	11777.46
637.706	11661.98
638.06	11705.37
638.413	11723.9
638.767	11679.83
639.121	11727.97
639.474	11608.2
639.828	11595.99
640.181	11631.93
640.534	11653.85
640.888	11611.81
641.241	11560.97
641.594	11593.28
641.947	11606.39
642.301	11592.83
642.654	11543.34
643.007	11637.8
643.36	11551.02
643.713	11536.56
644.066	11622.66
644.419	11550.8
644.771	11418.15
645.124	11377.7
645.477	11276.45
645.83	11235.78
646.182	11236
646.535	11246.85
646.888	11167.08
647.24	11082.11
647.593	11169.57
647.945	11121.66
648.298	11137.25
648.65	11107.42
649.002	11082.56
649.355	11213.63
649.707	11185.16
650.059	11206.17
650.411	11349
650.763	11319.17
651.115	11408.65
651.467	11407.98
651.819	11363.46
652.171	11431.71
652.523	11318.94
652.875	11304.93
653.227	11324.36
653.578	11373.85
653.93	11362.1
654.282	11337.24
654.633	11352.84
654.985	11384.7
655.337	11362.33
655.688	11450.24
656.039	11340.18
656.391	11292.05
656.742	11386.96
657.094	11389.9
657.445	11359.16
657.796	11482.33
658.147	11390.58
658.498	11324.14
658.849	11427.86
659.2	11391.93
659.551	11440.52
659.902	11464.02
660.253	11408.43
660.604	11391.93
660.955	11396.9
661.306	11395.1
661.656	11391.03
662.007	11413.63
662.358	11447.07
662.708	11395.77
663.059	11363.91
663.409	11359.84
663.76	11457.02
664.11	11440.74
664.461	11468.99
664.811	11358.71
665.161	11450.24
665.511	11426.96
665.862	11438.03
666.212	11439.84
666.562	11443
666.912	11457.69
667.262	11400.52
667.612	11408.88
667.962	11470.12
668.312	11380.63
668.662	11531.14
669.011	11439.84
669.361	11417.47
669.711	11440.07
670.06	11419.28
670.41	11397.36
670.76	11360.97
671.109	11385.38
671.459	11376.11
671.808	11373.18
672.157	11400.07
672.507	11270.35
672.856	11385.83
673.205	11411.59
673.554	11396.45
673.904	11311.26
674.253	11358.03
674.602	11328.66
674.951	11165.72
675.3	11116.69
675.649	11340.86
675.998	11248.43
676.346	11292.5
676.695	11244.82
677.044	11188.55
677.393	11256.79
677.741	11256.34
678.09	11221.54
678.438	11122.33
678.787	11214.54
679.135	11130.02
679.484	11138.15
679.832	11147.87
680.181	11130.02
680.529	11074.43
680.877	11089.57
681.225	11089.34
681.573	11088.44
681.922	11033.98
682.27	10997.59
682.618	10949.68
682.966	10984.03
683.314	11001.21
683.661	10996.24
684.009	10911.72
684.357	10918.27
684.705	10800.76
685.053	10869.23
685.4	10806.18
685.748	10763.02
686.095	10800.76
686.443	10700.42
686.79	10685.06
687.138	10692.97
687.485	10716.24
687.832	10620.65
688.18	10656.81
688.527	10589.47
688.874	10596.7
689.221	10599.41
689.568	10511.28
689.915	10547.43
690.262	10470.6
690.609	10450.04
690.956	10431.28
691.303	10414.1
691.65	10355.35
691.997	10314.9
692.344	10324.84
692.69	10195.35
693.037	10260.44
693.383	10133.66
693.73	10160.78
694.077	10082.36
694.423	10092.08
694.769	10072.64
695.116	10125.3
695.462	9994
695.808	10008.69
696.155	9996.26
696.501	9961.24
696.847	9932.31
697.193	9856.83
697.539	9844.18
697.885	9803.95
698.231	9787.45
698.577	9748.81
698.923	9711.75
699.269	9661.81
699.614	9613.9
699.96	9510.4
700.306	9553.11
700.651	9457.52
700.997	9502.94
701.342	9420.91
701.688	9420.68
702.033	9418.88
702.379	9349.73
702.724	9372.78
703.069	9288.26
703.415	9194.02
703.76	9181.82
704.105	9202.61
704.45	9168.04
704.795	9098.21
705.14	9059.56
705.485	9046.46
705.83	9057.08
706.175	9040.58
706.52	8988.61
706.865	8967.36
707.209	8943.18
707.554	8899.79
707.899	8944.99
708.243	8828.61
708.588	8829.29
708.932	8810.31
709.277	8742.06
709.621	8856.18
709.966	8732.12
710.31	8784.32
710.654	8672.68
710.998	8678.78
711.342	8665.22
711.687	8614.15
712.031	8594.72
712.375	8591.33
712.719	8555.4
713.063	8558.33
713.407	8565.57
713.75	8483.76
714.094	8549.29
714.438	8498.9
714.782	8512.46
715.125	8460.94
715.469	8501.16
715.812	8414.38
716.156	8375.74
716.499	8419.58
716.843	8366.02
717.186	8288.74
717.53	8375.29
717.873	8358.34
718.216	8279.02
718.559	8333.71
718.902	8261.17
719.246	8289.64
719.589	8243.77
719.932	8201.51
720.275	8188.63
720.617	8209.19
720.96	8219.81
721.303	8195.18
721.646	8155.18
721.989	8232.69
722.331	8206.48
722.674	8191.11
723.016	8218.46
723.359	8147.5
723.701	8134.16
724.044	8170.77
724.386	8084.22
724.729	8121.96
725.071	8107.72
725.413	8089.65
725.755	8087.61
726.097	8094.17
726.439	8033.6
726.782	8060.04
727.124	8105.46
727.465	8075.64
727.807	8033.83
728.149	8053.71
728.491	8064.11
728.833	8051
729.175	8071.79
729.516	8032.02
729.858	7961.74
730.199	8043.32
730.541	7991.34
730.882	7992.25
731.224	8005.13
731.565	8030.66
731.906	7937.79
732.248	8026.37
732.589	7989.99
732.93	8047.61
733.271	7999.25
733.612	7959.93
733.953	7979.37
734.294	7962.64
734.635	7987.05
734.976	8046.71
735.317	8002.42
735.658	7959.25
735.999	8027.5
736.339	7978.91
736.68	8015.98
737.021	7985.24
737.361	7968.29
737.702	8030.89
738.042	8061.17
738.383	7987.73
738.723	7983.21
739.063	8006.48
739.404	8029.76
739.744	8070.66
740.084	7996.54
740.424	8038.57
740.764	8056.2
741.104	8094.84
741.444	8109.08
741.784	8131.68
742.124	8193.6
742.464	8094.17
742.804	8129.42
743.143	8192.02
743.483	8198.8
743.823	8197.21
744.162	8221.39
744.502	8220.04
744.841	8324.44
745.181	8345.46
745.52	8335.52
745.86	8418.22
746.199	8427.04
746.538	8457.09
746.877	8532.12
747.216	8571.67
747.556	8577.77
747.895	8659.35
748.234	8608.95
748.573	8705.9
748.911	8771.21
749.25	8831.77
749.589	8873.13
749.928	8927.14
750.267	9011.2
750.605	9089.17
750.944	9103.63
751.283	9220.46
751.621	9333.91
751.96	9332.55
752.298	9462.04
752.636	9589.95
752.975	9622.49
753.313	9757.17
753.651	9811.86
753.989	10011.86
754.327	10008.69
754.666	10099.99
755.004	10268.12
755.342	10413.88
755.679	10515.57
756.017	10645.74
756.355	10782.68
756.693	10847.99
757.031	10993.52
757.368	11117.82
757.706	11260.64
758.044	11416.11
758.381	11672.15
758.719	11754.63
759.056	11881.41
759.394	12007.06
759.731	12172.02
760.068	12304
760.405	12481.62
760.743	12651.33
761.08	12820.37
761.417	12828.28
761.754	13052.91
762.091	13281.15
762.428	13346.01
762.765	13553.23
763.102	13731.31
763.438	13900.79
763.775	13966.55
764.112	14265.08
764.449	14385.75
764.785	14489.7
765.122	14535.13
765.458	14776.93
765.795	14915
766.131	15062.12
766.467	15226.86
766.804	15387.08
767.14	15461.88
767.476	15620.3
767.812	15689.45
768.148	15879.95
768.485	16028.19
768.821	16126.95
769.157	16292.14
769.492	16433.16
769.828	16604.45
770.164	16586.15
770.5	16709.08
770.836	16863.88
771.171	16911.79
771.507	17008.28
771.842	17008.73
772.178	17172.57
772.513	17212.8
772.849	17353.36
773.184	17444.88
773.519	17415.05
773.855	17552.67
774.19	17588.38
774.525	17625.89
774.86	17816.17
775.195	17829.05
775.53	17796.06
775.865	17945.43
776.2	17830.41
776.535	17797.87
776.87	17890.07
777.205	18001.48
777.539	18013.68
777.874	18011.42
778.209	17994.02
778.543	18222.94
778.878	17981.36
779.212	18152.88
779.547	18140.91
779.881	18251.86
780.215	18181.81
780.55	18288.47
780.884	18240.11
781.218	18325.76
781.552	18366.21
781.886	18349.04
782.22	18275.14
782.554	18270.4
782.888	18233.79
783.222	18198.76
783.556	18260.68
783.889	18176.61
784.223	18089.61
784.557	18153.79
784.89	18196.27
785.224	18173.22
785.557	18041.25
785.891	18115.6
786.224	18175.93
786.558	18056.16
786.891	17938.65
787.224	18008.71
787.557	18014.36
787.891	17981.14
788.224	18031.53
788.557	18074.24
788.89	17941.59
789.223	18013
789.556	17918.99
789.888	17868.37
790.221	17817.75
790.554	17714.25
790.887	17832.44
791.219	17806.68
791.552	17761.93
791.884	17663.41
792.217	17539.57
792.549	17598.1
792.882	17480.13
793.214	17533.69
793.546	17593.12
793.879	17462.05
794.211	17390.87
794.543	17515.39
794.875	17451.43
795.207	17489.17
795.539	17340.7
795.871	17426.12
796.203	17183.42
796.535	17117.66
796.867	17074.04
797.198	17166.92
797.53	17184.1
797.862	16987.49
798.193	17096.19
798.525	16974.16
798.856	17017.55
799.188	16830.66
799.519	16751.57
799.85	16713.83
800.182	16778.01
800.513	16689.19
800.844	16527.39
801.175	16729.87
801.506	16753.83
801.837	16685.58
802.168	16550.67
802.499	16438.58
802.83	16462.53
803.161	16367.85
803.491	16424.57
803.822	16362.65
804.153	16280.17
804.483	16215.31
804.814	16247.17
805.145	16141.19
805.475	16118.59
805.805	16110.9
806.136	16066.61
806.466	16049.89
806.796	16097.8
807.126	15871.14
807.457	15833.85
807.787	15917.69
808.117	15991.13
808.447	15784.58
808.777	15809.22
809.107	15694.87
809.436	15748.88
809.766	15722.21
810.096	15671.14
810.426	15557.7
810.755	15672.27
811.085	15566.06
811.414	15638.83
811.744	15514.99
812.073	15428.89
812.403	15447.42
812.732	15321.09
813.061	15413.07
813.39	15295.78
813.719	15297.14
814.049	15357.25
814.378	15272.96
814.707	15195
815.036	15141.44
815.365	15192.96
815.693	15052.17
816.022	15074.32
816.351	15084.94
816.68	14900.77
817.008	15033.87
817.337	14863.48
817.665	14843.37
817.994	14882.46
818.322	14912.74
818.651	14837.72
818.979	14742.13
819.307	14825.06
819.636	14808.34
819.964	14691.51
820.292	14805.85
820.62	14868.9
820.948	14672.52
821.276	14675.01
821.604	14721.11
821.932	14663.48
822.259	14712.52
822.587	14647.21
822.915	14700.55
823.243	14684.5
823.57	14645.41
823.898	14688.79
824.225	14599.53
824.553	14651.73
824.88	14545.97
825.207	14685.63
825.535	14632.75
825.862	14698.06
826.189	14684.05
826.516	14709.13
826.843	14737.61
827.17	14705.07
827.497	14795.23
827.824	14691.96
828.151	14790.49
828.478	14695.35
828.805	14779.64
829.131	14715.91
829.458	14678.4
829.785	14633.43
830.111	14755.69
830.438	14752.52
830.764	14700.55
831.09	14715.01
831.417	14629.14
831.743	14709.58
832.069	14630.04
832.395	14573.32
832.722	14682.47
833.048	14598.18
833.374	14697.61
833.7	14562.7
834.026	14609.93
834.351	14641.11
834.677	14510.49
835.003	14543.71
835.329	14516.6
835.654	14487.67
835.98	14423.94
836.306	14594.79
836.631	14453.09
836.956	14488.8
837.282	14498.52
837.607	14343.49
837.932	14331.97
838.258	14472.76
838.583	14315.02
838.908	14231.41
839.233	14379.2
839.558	14289.03
839.883	14252.65
840.208	14148.47
840.533	14198.41
840.858	14217.39
841.182	14221.91
841.507	14141.46
841.832	14138.98
842.156	14012.88
842.481	14041.81
842.805	14000.23
843.13	14077.29
843.454	13947.12
843.778	13908.48
844.103	13903.5
844.427	13891.08
844.751	13864.64
845.075	13800.23
845.399	13749.16
845.723	13713.9
846.047	13643.17
846.371	13624.42
846.695	13655.38
847.019	13584.19
847.343	13398.66
847.666	13326.34
847.99	13267.81
848.313	13311.43
848.637	13265.1
848.96	13274.82
849.284	13191.21
849.607	13088.16
849.931	13084.77
850.254	12915.96
850.577	12888.84
850.9	12827.15
851.223	12773.14
851.546	12695.63
851.869	12708.28
852.192	12791.22
852.515	12618.34
852.838	12506.48
853.161	12551.22
853.483	12529.3
853.806	12482.98
854.129	12436.42
854.451	12472.58
854.774	12357.56
855.096	12319.14
855.419	12258.12
855.741	12193.72
856.063	12191.91
856.385	12167.73
856.708	12097
857.03	11969.54
857.352	12093.61
857.674	12002.31
857.996	11980.17
858.318	11985.14
858.64	11856.55
858.961	11908.3
859.283	11801.64
859.605	11728.87
859.926	11741.3
860.248	11801.19
860.57	11650.68
860.891	11736.1
861.212	11647.07
861.534	11615.66
861.855	11627.86
862.176	11543.79
862.498	11554.19
862.819	11603.9
863.14	11475.09
863.461	11414.76
863.782	11457.69
864.103	11462.66
864.424	11405.72
864.745	11422.21
865.065	11343.57
865.386	11341.54
865.707	11405.94
866.027	11325.72
866.348	11279.62
866.668	11287.98
866.989	11242.33
867.309	11257.02
867.63	11271.94
867.95	11176.8
868.27	11097.02
868.59	11125.27
868.91	11077.36
869.23	11071.94
869.55	11100.64
869.87	11145.38
870.19	11131.37
870.51	11102.67
870.83	11051.15
871.15	10967.08
871.469	10945.62
871.789	10971.6
872.109	10955.33
872.428	10883.7
872.748	10906.3
873.067	10893.41
873.386	10945.62
873.706	10849.8
874.025	10841.89
874.344	10833.98
874.663	10832.85
874.982	10820.42
875.301	10772.51
875.62	10741.55
875.939	10706.53
876.258	10750.59
876.577	10666.98
876.896	10644.83
877.214	10666.53
877.533	10595.57
877.852	10646.19
878.17	10641.22
878.489	10661.56
878.807	10602.12
879.125	10575.46
879.444	10600.77
879.762	10525.97
880.08	10509.02
880.398	10488.23
880.716	10466.98
881.034	10445.74
881.352	10457.04
881.67	10421.56
881.988	10408.46
882.306	10426.76
882.624	10342.69
882.941	10258.63
883.259	10249.82
883.577	10277.61
883.894	10237.16
884.212	10237.84
884.529	10215.69
884.846	10203.94
885.164	10150.16
885.481	10064.74
885.798	10075.36
886.115	10024.74
886.432	10059.54
886.75	10060.89
887.067	10076.03
887.383	10004.17
887.7	10012.99
888.017	9963.95
888.334	9927.79
888.651	9966.88
888.967	9920.33
889.284	9770.51
889.6	9790.62
889.917	9735.03
890.233	9754.91
890.55	9719.89
890.866	9704.29
891.182	9660.45
891.498	9663.39
891.815	9625.2
892.131	9546.33
892.447	9511.53
892.763	9464.3
893.079	9493.22
893.395	9424.53
893.71	9449.16
894.026	9430.85
894.342	9385.66
894.657	9280.12
894.973	9243.51
895.289	9290.52
895.604	9262.95
895.92	9199.45
896.235	9229.96
896.55	9143.18
896.865	9179.33
897.181	9056.17
897.496	9055.27
897.811	9075.83
898.126	9019.34
898.441	8958.78
898.756	8919
899.071	8870.42
899.386	8881.49
899.7	8839.46
900.015	8794.49
900.33	8746.13
900.644	8759.23
900.959	8683.98
901.273	8668.61
901.588	8683.98
901.902	8544.55
902.216	8596.53
902.531	8512.23
902.845	8500.26
903.159	8468.85
903.473	8488.28
903.787	8422.52
904.101	8358.34
904.415	8427.04
904.729	8284.9
905.042	8259.81
905.356	8249.42
905.67	8274.5
905.984	8212.81
906.297	8215.29
906.611	8142.98
906.924	8138.01
907.237	8110.66
907.551	8102.08
907.864	8010.33
908.177	7983.21
908.491	7972.36
908.804	7932.59
909.117	7917.67
909.43	7817.56
909.743	7809.43
910.056	7745.93
910.368	7746.15
910.681	7698.24
910.994	7723.33
911.307	7671.35
911.619	7607.62
911.932	7622.31
912.244	7553.16
912.557	7532.82
912.869	7446.05
913.181	7476.1
913.494	7449.66
913.806	7379.38
914.118	7386.61
914.43	7380.29
914.742	7318.82
915.054	7239.05
915.366	7311.81
915.678	7257.13
915.99	7257.58
916.302	7196.79
916.613	7135.77
916.925	7093.97
917.236	7117.02
917.548	6997.25
917.859	7120.18
918.171	6970.35
918.482	6958.15
918.794	6965.83
919.105	6945.95
919.416	6857.81
919.727	6822.33
920.038	6838.38
920.349	6822.79
920.66	6747.08
920.971	6684.49
921.282	6752.96
921.593	6675.9
921.903	6658.05
922.214	6627.31
922.525	6665.28
922.835	6558.39
923.146	6535.11
923.456	6565.39
923.767	6470.71
924.077	6440.65
924.387	6467.32
924.697	6391.16
925.008	6418.05
925.318	6343.48
925.628	6366.08
925.938	6308.9
926.248	6260.09
926.558	6256.7
926.867	6228.45
927.177	6229.13
927.487	6192.97
927.796	6102.58
928.106	6138.74
928.416	6106.2
928.725	6125.18
929.034	6075.24
929.344	6040.21
929.653	6013.99
929.962	5949.14
930.271	5927.44
930.581	5923.38
930.89	5860.1
931.199	5871.85
931.508	5867.78
931.817	5861.91
932.125	5828.91
932.434	5840.44
932.743	5749.59
933.051	5759.54
933.36	5690.61
933.669	5686.55
933.977	5630.28
934.286	5676.6
934.594	5642.03
934.902	5598.86
935.21	5602.93
935.519	5596.6
935.827	5500.11
936.135	5509.37
936.443	5467.79
936.751	5473.67
937.059	5481.13
937.367	5427.34
937.674	5400.45
937.982	5436.16
938.29	5366.1
938.597	5341.7
938.905	5263.05
939.213	5281.81
939.52	5259.66
939.827	5275.03
940.135	5204.07
940.442	5200
940.749	5169.5
941.056	5188.48
941.363	5133.11
941.67	5096.96
941.977	5047.47
942.284	5061.25
942.591	5048.14
942.898	5032.1
943.205	5002.72
943.511	4964.53
943.818	4969.95
944.125	4950.97
944.431	4940.35
944.738	4873.69
945.044	4890.86
945.35	4802.5
945.657	4830.07
945.963	4774.25
946.269	4754.37
946.575	4789.62
946.881	4736.06
947.187	4731.99
947.493	4697.42
947.799	4696.51
948.105	4617.65
948.41	4617.87
948.716	4650.64
949.022	4614.03
949.327	4575.16
949.633	4533.58
949.938	4511.21
950.244	4481.15
950.549	4491.77
950.854	4466.92
951.16	4423.08
951.465	4458.1
951.77	4410.65
952.075	4438.67
952.38	4421.27
952.685	4393.47
952.99	4351.21
953.294	4359.35
953.599	4323.19
953.904	4292.91
954.209	4254.27
954.513	4331.33
954.818	4242.06
955.122	4222.63
955.426	4187.6
955.731	4182.86
956.035	4165
956.339	4161.61
956.643	4117.1
956.948	4109.64
957.252	4093.14
957.556	4107.38
957.86	4107.15
958.163	4052.46
958.467	4034.84
958.771	4018.57
959.075	3997.32
959.378	3963.65
959.682	3939.92
959.985	3979.92
960.289	3912.81
960.592	3892.24
960.896	3896.54
961.199	3905.35
961.502	3863.99
961.805	3847.5
962.108	3801.85
962.411	3820.83
962.714	3815.18
963.017	3761.4
963.32	3739.25
963.623	3772.7
963.926	3720.72
964.228	3707.16
964.531	3722.08
964.833	3721.85
965.136	3644.34
965.438	3622.87
965.741	3638.69
966.043	3606.83
966.345	3589.88
966.648	3588.75
966.95	3605.92
967.252	3561.18
967.554	3552.14
967.856	3534.51
968.158	3503.78
968.46	3501.97
968.761	3495.42
969.063	3473.04
969.365	3430.56
969.666	3441.41
969.968	3378.13
970.269	3415.42
970.571	3392.82
970.872	3372.93
971.174	3333.61
971.475	3340.17
971.776	3334.52
972.077	3310.79
972.378	3298.36
972.679	3314.18
972.98	3309.21
973.281	3250.68
973.582	3246.38
973.883	3224.92
974.183	3183.11
974.484	3206.61
974.785	3160.96
975.085	3218.81
975.386	3158.93
975.686	3155.09
975.986	3154.18
976.287	3118.7
976.587	3097.23
976.887	3087.97
977.187	3109.21
977.487	3105.14
977.787	3054.75
978.087	3002.55
978.387	3010.01
978.687	3007.52
978.987	2988.99
979.286	2982.44
979.586	2971.36
979.885	2952.83
980.185	2943.57
980.484	2894.53
980.784	2927.52
981.083	2922.78
981.382	2925.26
981.682	2868.99
981.981	2871.48
982.28	2860.86
982.579	2833.74
982.878	2822.44
983.177	2805.27
983.475	2806.85
983.774	2810.69
984.073	2778.83
984.372	2758.49
984.67	2779.96
984.969	2749.9
985.267	2729.56
985.566	2705.83
985.864	2732.95
986.162	2729.79
986.461	2668.77
986.759	2652.05
987.057	2668.32
987.355	2638.49
987.653	2623.58
987.951	2616.34
988.249	2583.12
988.547	2620.19
988.844	2616.12
989.142	2600.98
989.44	2577.25
989.737	2519.17
990.035	2541.09
990.332	2541.77
990.63	2557.81
990.927	2512.39
991.224	2470.81
991.521	2475.78
991.819	2459.96
992.116	2470.81
992.413	2399.63
992.71	2443.47
993.006	2427.87
993.303	2384.94
993.6	2417.03
993.897	2397.59
994.193	2371.38
994.49	2366.86
994.787	2396.91
995.083	2357.14
995.379	2342.23
995.676	2331.38
995.972	2319.85
996.268	2310.59
996.565	2303.36
996.861	2289.35
997.157	2257.71
997.453	2279.4
997.749	2236.69
998.044	2246.41
998.34	2202.34
998.636	2196.92
998.932	2163.25
999.227	2193.08
999.523	2198.28
999.818	2174.55
1000.114	2153.3
1000.409	2156.24
1000.704	2111.05
1001	2154.89
1001.295	2108.11
1001.59	2124.83
1001.885	2084.15
1002.18	2040.54
1002.475	2062.91
1002.77	2050.48
1003.065	2026.98
1003.359	2027.66
1003.654	2017.04
1003.949	2007.09
1004.243	2006.42
1004.538	1974.55
1004.832	1958.51
1005.127	1958.73
1005.421	1969.13
1005.715	1955.8
1006.009	1928.45
1006.304	1928.9
1006.598	1913.99
1006.892	1914.44
1007.186	1888.45
1007.48	1893.42
1007.773	1843.71
1008.067	1850.04
1008.361	1821.56
1008.655	1853.2
1008.948	1824.05
1009.242	1804.39
1009.535	1808.68
1009.829	1769.36
1010.122	1765.29
1010.415	1771.62
1010.708	1760.32
1011.001	1759.87
1011.295	1743.37
1011.588	1730.72
1011.881	1676.71
1012.173	1723.26
1012.466	1647.33
1012.759	1671.74
1013.052	1648.46
1013.344	1667.67
1013.637	1680.1
1013.93	1652.53
1014.222	1654.34
1014.514	1661.79
1014.807	1609.36
1015.099	1616.14
1015.391	1619.53
1015.683	1588.57
1015.976	1578.4
1016.268	1567.33
1016.56	1565.3
1016.851	1546.09
1017.143	1549.71
1017.435	1542.47
1017.727	1516.94
1018.018	1521.46
1018.31	1538.41
1018.602	1508.35
1018.893	1478.97
1019.185	1498.63
1019.476	1431.52
1019.767	1475.58
1020.058	1446.43
1020.35	1431.74
1020.641	1429.71
1020.932	1415.7
1021.223	1418.86
1021.514	1384.51
1021.804	1414.34
1022.095	1379.31
1022.386	1378.18
1022.677	1382.25
1022.967	1362.82
1023.258	1349.26
1023.548	1352.2
1023.839	1322.59
1024.129	1342.93
1024.419	1328.02
1024.709	1302.48
1025	1263.61
1025.29	1273.1
1025.58	1276.72
1025.87	1276.72
1026.16	1234.46
1026.449	1253.44
1026.739	1253.44
1027.029	1220.9
1027.319	1239.2
1027.608	1220.9
1027.898	1187.68
1028.187	1200.79
1028.477	1181.13
1028.766	1192.2
1029.055	1180
1029.344	1185.65
1029.634	1144.29
1029.923	1166.66
1030.212	1146.1
1030.501	1158.75
1030.79	1119.66
1031.078	1149.49
1031.367	1108.81
1031.656	1114.24
1031.945	1104.52
1032.233	1116.27
1032.522	1098.87
1032.81	1076.27
1033.099	1074.92
1033.387	1054.8
1033.675	1069.49
1033.963	1089.15
1034.251	1082.6
1034.54	1052.09
1034.828	1051.64
1035.116	1045.76
1035.403	1033.11
1035.691	1025.43
1035.979	1026.33
1036.267	1006.22
1036.554	1002.15
1036.842	980.23
1037.129	981.13
1037.417	963.73
1037.704	980
1037.992	987.46
1038.279	975.93
1038.566	964.64
1038.853	964.64
1039.14	964.64
