Data from hue_240_FLMS001491_00069.txt Node
Date: Tue Feb 07 16:35:49 GMT 2017
User: dcchb
Spectrometer: FLMS00149
Trigger mode: 0
Integration Time (sec): 2.000000E-2
Scans to average: 10
Electric dark correction enabled: true
Nonlinearity correction enabled: false
Boxcar width: 0
XAxis mode: Wavelengths
Number of Pixels in Spectrum: 2048
>>>>>Begin Spectral Data<<<<<
341.393	-17.29
341.776	-17.29
342.16	-17.29
342.543	-67.68
342.927	-55.48
343.31	-65.65
343.693	-77.63
344.077	-78.3
344.46	-73.56
344.843	-43.73
345.226	-53.9
345.61	-41.69
345.993	-13.45
346.376	-12.99
346.759	-3.5
347.142	62.48
347.525	43.73
347.908	51.19
348.291	88.25
348.674	98.19
349.057	120.56
349.44	130.96
349.823	150.62
350.206	174.8
350.588	191.97
350.971	194.91
351.354	225.87
351.737	230.39
352.119	240.78
352.502	244.17
352.884	285.3
353.267	292.31
353.65	287.79
354.032	294.34
354.414	327.11
354.797	283.5
355.179	315.58
355.562	304.06
355.944	316.94
356.326	314.46
356.709	341.12
357.091	312.87
357.473	332.31
357.855	338.64
358.238	353.78
358.62	356.04
359.002	330.73
359.384	337.05
359.766	348.35
360.148	320.33
360.53	343.15
360.912	338.18
361.294	319.2
361.676	342.93
362.057	332.76
362.439	346.09
362.821	329.37
363.203	311.97
363.584	322.59
363.966	329.82
364.348	337.51
364.729	291.63
365.111	308.13
365.493	307.22
365.874	337.73
366.256	323.27
366.637	314.23
367.019	321.01
367.4	285.3
367.781	318.07
368.163	311.74
368.544	297.28
368.925	305.64
369.306	308.81
369.688	324.17
370.069	295.25
370.45	304.51
370.831	316.04
371.212	312.2
371.593	305.87
371.974	308.58
372.355	313.55
372.736	313.78
373.117	292.99
373.498	312.2
373.879	307.22
374.26	305.42
374.641	307
375.021	312.87
375.402	322.14
375.783	320.33
376.163	323.27
376.544	325.08
376.925	329.6
377.305	319.2
377.686	338.18
378.066	316.94
378.447	329.82
378.827	315.58
379.208	319.43
379.588	337.28
379.968	332.53
380.349	337.28
380.729	358.3
381.109	343.61
381.489	325.08
381.87	329.37
382.25	340.89
382.63	328.69
383.01	345.87
383.39	328.69
383.77	346.09
384.15	330.5
384.53	331.63
384.91	335.02
385.29	354.91
385.67	351.97
386.049	339.31
386.429	344.74
386.809	358.97
387.189	337.05
387.568	336.83
387.948	355.81
388.328	369.37
388.707	364.85
389.087	354.91
389.466	360.33
389.846	367.79
390.225	352.87
390.605	370.05
390.984	350.61
391.363	384.74
391.743	357.39
392.122	373.44
392.501	373.66
392.881	373.44
393.26	379.76
393.639	372.76
394.018	390.39
394.397	385.19
394.776	382.02
395.155	396.94
395.534	395.81
395.913	363.95
396.292	389.03
396.671	391.97
397.05	394.9
397.429	379.09
397.808	406.66
398.186	384.28
398.565	399.65
398.944	396.94
399.323	406.66
399.701	410.5
400.08	406.66
400.458	419.09
400.837	412.31
401.215	407.79
401.594	420.21
401.972	413.89
402.351	421.8
402.729	422.47
403.107	423.15
403.486	403.27
403.864	424.06
404.242	451.85
404.62	454.34
404.999	442.59
405.377	444.4
405.755	432.87
406.133	467.45
406.511	447.11
406.889	443.94
407.267	451.17
407.645	441.23
408.023	452.3
408.401	476.03
408.779	484.62
409.156	496.6
409.534	479.65
409.912	503.15
410.29	491.85
410.667	506.99
411.045	505.18
411.422	501.34
411.8	543.15
412.178	524.84
412.555	511.74
412.933	547.22
413.31	539.99
413.687	537.05
414.065	549.25
414.442	554.9
414.819	557.61
415.197	566.88
415.574	578.4
415.951	606.88
416.328	594
416.705	588.8
417.082	604.62
417.46	599.65
417.837	601.91
418.214	621.79
418.591	613.88
418.967	633.77
419.344	645.07
419.721	635.35
420.098	646.2
420.475	655.91
420.852	650.72
421.228	672.41
421.605	665.86
421.982	662.92
422.358	671.73
422.735	710.38
423.111	709.7
423.488	714.44
423.864	726.65
424.241	727.1
424.617	736.14
424.994	736.59
425.37	768.68
425.746	777.95
426.123	766.87
426.499	776.36
426.875	797.83
427.251	801
427.627	814.1
428.003	845.74
428.379	845.74
428.756	858.62
429.132	832.41
429.507	893.42
429.883	889.36
430.259	880.32
430.635	907.21
431.011	905.4
431.387	920.77
431.763	928.45
432.138	933.65
432.514	939.3
432.89	951.27
433.265	966.64
433.641	979.75
434.016	987.21
434.392	1005.06
434.767	1036.24
435.143	1037.6
435.518	1065.4
435.894	1059.07
436.269	1068.33
436.644	1081.44
437.02	1138.61
437.395	1113.3
437.77	1107.43
438.145	1156.92
438.52	1154.21
438.895	1200.08
439.271	1193.75
439.646	1211.38
440.021	1203.02
440.395	1251.15
440.77	1231.49
441.145	1252.06
441.52	1274.43
441.895	1284.6
442.27	1299.97
442.645	1314.2
443.019	1297.48
443.394	1312.62
443.769	1333.86
444.143	1331.6
444.518	1349
444.892	1348.78
445.267	1372.05
445.641	1390.81
446.016	1358.72
446.39	1416.57
446.764	1405.73
447.139	1412.73
447.513	1416.57
447.887	1413.41
448.262	1411.15
448.636	1457.02
449.01	1469.9
449.384	1454.09
449.758	1473.52
450.132	1525.5
450.506	1504.93
450.88	1490.02
451.254	1515.55
451.628	1520.75
452.002	1544.03
452.376	1599.62
452.75	1589.22
453.123	1615.66
453.497	1622.67
453.871	1660.63
454.244	1670.8
454.618	1647.08
454.992	1680.75
455.365	1694.53
455.739	1707.86
456.112	1707.41
456.486	1714.87
456.859	1762.33
457.232	1785.6
457.606	1768.43
457.979	1787.18
458.352	1847.07
458.725	1872.15
459.099	1865.83
459.472	1904.92
459.845	1883.23
460.218	1939.05
460.591	1952.83
460.964	1951.25
461.337	2016.33
461.71	2004.35
462.083	2045.48
462.456	2056.33
462.829	2049.55
463.201	2079.15
463.574	2099.04
463.947	2122.09
464.32	2163.9
464.692	2178.36
465.065	2170.45
465.438	2206.83
465.81	2222.88
466.183	2269.21
466.555	2315.31
466.928	2287.06
467.3	2313.95
467.672	2351.92
468.045	2428.52
468.417	2420.16
468.789	2402.99
469.161	2472.36
469.534	2469.88
469.906	2527.73
470.278	2538.8
470.65	2559.59
471.022	2603.21
471.394	2638.24
471.766	2696.54
472.138	2707.84
472.51	2764.33
472.882	2790.55
473.253	2816.99
473.625	2838.23
473.997	2900.83
474.369	2920.26
474.74	2929.53
475.112	2992.8
475.484	3041.61
475.855	3025.34
476.227	3099.47
476.598	3189.86
476.97	3208.39
477.341	3248.16
477.713	3330.87
478.084	3290.65
478.455	3401.38
478.827	3421.94
479.198	3433.02
479.569	3476.41
479.94	3619.23
480.311	3631.66
480.682	3655.38
481.053	3742.61
481.424	3781.71
481.795	3870.29
482.166	3897.19
482.537	3915.94
482.908	3957.75
483.279	4024.41
483.65	4083.62
484.021	4185.54
484.391	4191.42
484.762	4240.23
485.133	4221.7
485.503	4294.01
485.874	4383.5
486.244	4460.79
486.615	4531.29
486.985	4536.94
487.356	4563.83
487.726	4638.86
488.097	4682.93
488.467	4707.79
488.837	4853.54
489.207	4882.02
489.578	4908.23
489.948	4960.43
490.318	5006.76
490.688	5071.84
491.058	5094.67
491.428	5190.94
491.798	5193.87
492.168	5276.13
492.538	5303.02
492.908	5371.72
493.278	5435.68
493.648	5423.93
494.017	5502.57
494.387	5498.5
494.757	5525.17
495.126	5660.08
495.496	5634.54
495.866	5659.85
496.235	5697.82
496.605	5744.59
496.974	5782.79
497.344	5786.63
497.713	5828.21
498.082	5843.58
498.452	5939.17
498.821	5890.81
499.19	5981.2
499.559	5955.21
499.928	6001.09
500.298	5989.56
500.667	6112.27
501.036	6086.28
501.405	6146.62
501.774	6089.9
502.143	6141.42
502.512	6241.08
502.88	6232.49
503.249	6240.85
503.618	6335.54
503.987	6313.85
504.356	6317.24
504.724	6329.44
505.093	6346.39
505.462	6418.48
505.83	6410.57
506.199	6412.15
506.567	6509.32
506.936	6521.07
507.304	6521.52
507.672	6536.44
508.041	6596.78
508.409	6659.37
508.777	6655.76
509.145	6677.9
509.514	6619.15
509.882	6699.15
510.25	6726.04
510.618	6729.2
510.986	6773.72
511.354	6804.23
511.722	6878.8
512.09	6833.15
512.458	6878.35
512.826	6892.59
513.193	6931.68
513.561	6959.25
513.929	6940.5
514.297	7024.56
514.664	7058.23
515.032	6964
515.4	7080.38
515.767	7069.98
516.135	7089.64
516.502	6978.69
516.869	7151.79
517.237	7149.76
517.604	7123.77
517.972	7204.22
518.339	7194.95
518.706	7236.08
519.073	7200.6
519.44	7215.52
519.808	7337.55
520.175	7322.86
520.542	7331.67
520.909	7342.74
521.276	7298.68
521.643	7370.99
522.009	7359.69
522.376	7400.6
522.743	7431.1
523.11	7417.09
523.477	7443.53
523.843	7523.31
524.21	7526.02
524.577	7521.95
524.943	7593.36
525.31	7593.81
525.676	7620.03
526.043	7666.13
526.409	7668.39
526.776	7730.53
527.142	7794.48
527.508	7718.78
527.874	7794.71
528.241	7798.33
528.607	7827.48
528.973	7823.18
529.339	7794.71
529.705	7854.14
530.071	7907.7
530.437	7917.64
530.803	7911.54
531.169	7949.06
531.535	7854.14
531.901	7926.46
532.267	7849.17
532.632	7927.14
532.998	7972.56
533.364	7973.46
533.73	7973.91
534.095	7959.45
534.461	7921.03
534.826	7986.34
535.192	7965.33
535.557	8007.59
535.923	8028.15
536.288	7966.91
536.653	7946.12
537.019	7966.23
537.384	7937.31
537.749	7982.95
538.114	7988.38
538.479	7938.66
538.845	7954.48
539.21	7908.61
539.575	7929.4
539.94	7981.15
540.305	7956.74
540.67	7979.11
541.034	7914.71
541.399	7963.97
541.764	7941.6
542.129	7987.47
542.494	7970.75
542.858	8030.18
543.223	7879.91
543.587	7985.44
543.952	7963.29
544.316	7885.56
544.681	7888.49
545.045	7953.58
545.41	7980.02
545.774	7915.84
546.138	7920.13
546.503	7883.52
546.867	7896.18
547.231	7921.71
547.595	7891.43
547.959	7884.43
548.324	7814.14
548.688	7851.43
549.052	7894.37
549.416	7889.4
549.779	7855.05
550.143	7860.92
550.507	7854.6
550.871	7836.07
551.235	7880.81
551.599	7883.75
551.962	7868.15
552.326	7875.16
552.689	7868.83
553.053	7882.39
553.417	7850.08
553.78	7908.61
554.143	7887.14
554.507	7827.25
554.87	7836.29
555.234	7871.54
555.597	7871.54
555.96	7894.37
556.323	7822.96
556.686	7918.55
557.05	7900.7
557.413	7902.73
557.776	7949.06
558.139	7995.61
558.502	7913.8
558.865	7963.07
559.228	8010.07
559.59	7963.29
559.953	7920.58
560.316	8011.2
560.679	7942.28
561.041	8058.66
561.404	8070.86
561.767	8097.3
562.129	8052.33
562.492	8110.63
562.854	8098.21
563.217	8044.2
563.579	8076.06
563.941	8148.6
564.304	8135.49
564.666	8240.12
565.028	8236.51
565.39	8230.86
565.753	8295.94
566.115	8299.33
566.477	8322.15
566.839	8270.86
567.201	8393.34
567.563	8328.03
567.925	8286.67
568.287	8308.14
568.648	8440.57
569.01	8405.32
569.372	8430.85
569.734	8448.93
570.095	8458.87
570.457	8489.16
570.819	8499.1
571.18	8485.99
571.542	8604.63
571.903	8541.36
572.265	8585.88
572.626	8645.99
572.987	8667.91
573.349	8641.92
573.71	8619.1
574.071	8694.35
574.432	8721.01
574.794	8772.31
575.155	8713.33
575.516	8689.38
575.877	8780.67
576.238	8798.98
576.599	8781.13
576.96	8859.54
577.32	8790.39
577.681	8827
578.042	8861.8
578.403	8888.69
578.763	8927.11
579.124	8922.14
579.485	8934.57
579.845	8920.56
580.206	8963.27
580.566	8942.7
580.927	8958.75
581.287	8961.46
581.648	9029.93
582.008	8988.35
582.368	8992.64
582.728	9051.85
583.089	9114.68
583.449	9078.07
583.809	9054.79
584.169	9126.2
584.529	9109.25
584.889	9182.24
585.249	9112.87
585.609	9073.77
585.969	9194.67
586.329	9153.77
586.688	9102.25
587.048	9194.45
587.408	9134.34
587.768	9116.26
588.127	9182.92
588.487	9157.16
588.846	9215.24
589.206	9166.2
589.565	9159.42
589.925	9234.67
590.284	9162.58
590.643	9187.22
591.003	9184.96
591.362	9260.66
591.721	9301.11
592.08	9247.33
592.44	9228.57
592.799	9262.92
593.158	9274.9
593.517	9218.4
593.876	9212.53
594.235	9269.47
594.593	9285.97
594.952	9272.19
595.311	9210.94
595.67	9330.72
596.029	9350.83
596.387	9291.17
596.746	9395.8
597.104	9283.71
597.463	9325.29
597.822	9356.03
598.18	9269.25
598.538	9340.43
598.897	9349.7
599.255	9319.42
599.613	9469.92
599.972	9392.63
600.33	9393.54
600.688	9347.66
601.046	9363.26
601.404	9455.68
601.762	9391.96
602.12	9463.59
602.478	9494.1
602.836	9480.77
603.194	9413.2
603.552	9414.33
603.91	9428.79
604.268	9442.58
604.625	9420.66
604.983	9454.33
605.341	9403.71
605.698	9478.96
606.056	9532.74
606.413	9461.56
606.771	9459.98
607.128	9509.69
607.485	9447.1
607.843	9535
608.2	9561.22
608.557	9607.09
608.914	9512.41
609.272	9513.54
609.629	9592.86
609.986	9613.65
610.343	9573.42
610.7	9664.04
611.057	9632.85
611.414	9579.52
611.771	9559.86
612.127	9630.37
612.484	9643.48
612.841	9674.89
613.198	9584.27
613.554	9681.89
613.911	9668.56
614.267	9602.8
614.624	9729.8
614.98	9672.4
615.337	9744.26
615.693	9658.39
616.05	9706.3
616.406	9845.96
616.762	9722.12
617.118	9695.68
617.475	9734.09
617.831	9774.55
618.187	9784.26
618.543	9796.47
618.899	9808.22
619.255	9792.4
619.611	9826.3
619.967	9816.8
620.323	9866.52
620.678	9806.41
621.034	9836.01
621.39	9809.8
621.746	9688.22
622.101	9906.97
622.457	9788.1
622.812	9833.98
623.168	9763.7
623.523	9795.79
623.879	9909.68
624.234	9733.87
624.589	9798.95
624.945	9835.33
625.3	9834.43
625.655	9824.71
626.01	9757.82
626.365	9765.96
626.72	9736.35
627.075	9745.17
627.43	9785.84
627.785	9695.9
628.14	9812.96
628.495	9805.28
628.85	9752.62
629.205	9747.65
629.559	9757.14
629.914	9781.78
630.269	9772.74
630.623	9766.18
630.978	9727.09
631.332	9751.04
631.687	9738.61
632.041	9683.25
632.396	9675.56
632.75	9705.17
633.104	9716.47
633.459	9610.03
633.813	9631.05
634.167	9641.44
634.521	9659.97
634.875	9619.52
635.229	9637.6
635.583	9560.09
635.937	9560.77
636.291	9556.7
636.645	9615.23
636.999	9589.01
637.352	9603.48
637.706	9558.73
638.06	9509.47
638.413	9516.92
638.767	9547.21
639.121	9488.45
639.474	9476.7
639.828	9408.45
640.181	9467.66
640.534	9473.08
640.888	9440.32
641.241	9338.4
641.594	9442.8
641.947	9384.05
642.301	9410.94
642.654	9357.16
643.007	9412.75
643.36	9397.61
643.713	9391.28
644.066	9366.87
644.419	9347.44
644.771	9326.87
645.124	9200.78
645.477	9129.59
645.83	9092.08
646.182	9107.22
646.535	9039.42
646.888	9052.08
647.24	9057.28
647.593	9078.07
647.945	9121
648.298	9021.57
648.65	8966.66
649.002	8934.34
649.355	9013.89
649.707	8951.29
650.059	9033.1
650.411	9171.85
650.763	9149.7
651.115	9271.73
651.467	9164.17
651.819	9211.17
652.171	9229.93
652.523	9187.67
652.875	9175.92
653.227	9155.8
653.578	9166.88
653.93	9174.79
654.282	9138.86
654.633	9179.98
654.985	9175.01
655.337	9136.14
655.688	9067.45
656.039	9255.24
656.391	9073.77
656.742	9132.3
657.094	9201
657.445	9178.4
657.796	9178.63
658.147	9150.61
658.498	9182.92
658.849	9238.97
659.2	9165.3
659.551	9145.86
659.902	9157.39
660.253	9207.33
660.604	9175.69
660.955	9148.57
661.306	9210.04
661.656	9160.1
662.007	9145.64
662.358	9170.27
662.708	9124.39
663.059	9123.26
663.409	9178.4
663.76	9171.85
664.11	9182.47
664.461	9239.64
664.811	9152.64
665.161	9199.42
665.511	9147.9
665.862	9206.2
666.212	9157.61
666.562	9167.78
666.912	9179.08
667.262	9217.27
667.612	9128.46
667.962	9167.1
668.312	9158.52
668.662	9152.41
669.011	9107.44
669.361	9117.16
669.711	9156.48
670.06	9080.78
670.41	9068.58
670.76	9161.45
671.109	9119.65
671.459	9057.73
671.808	9068.12
672.157	9144.28
672.507	9064.73
672.856	9060.67
673.205	9127.33
673.554	9092.76
673.904	9054.34
674.253	9136.37
674.602	9076.71
674.951	8939.31
675.3	8909.94
675.649	9062.02
675.998	9068.12
676.346	9023.38
676.695	9076.71
677.044	8989.26
677.393	8977.28
677.741	8966.88
678.09	9010.05
678.438	9032.87
678.787	8989.03
679.135	8913.1
679.484	8919.65
679.832	8959.43
680.181	8930.5
680.529	8916.04
680.877	8841.01
681.225	8860.67
681.573	8869.71
681.922	8743.16
682.27	8825.64
682.618	8803.05
682.966	8825.42
683.314	8833.33
683.661	8753.56
684.009	8724.63
684.357	8768.24
684.705	8637.63
685.053	8724.63
685.4	8676.72
685.748	8631.98
686.095	8624.74
686.443	8570.51
686.79	8549.04
687.138	8610.51
687.485	8615.93
687.832	8583.84
688.18	8512.21
688.527	8453.45
688.874	8493
689.221	8460.91
689.568	8446.44
689.915	8436.95
690.262	8347.46
690.609	8411.87
690.956	8395.15
691.303	8296.84
691.65	8276.73
691.997	8281.7
692.344	8182.5
692.69	8205.77
693.037	8205.55
693.383	8191.54
693.73	8209.84
694.077	8133.91
694.423	8152.22
694.769	8098.88
695.116	8065.89
695.462	8062.05
695.808	8008.49
696.155	8056.85
696.501	7928.27
696.847	7919
697.193	7888.27
697.539	7935.05
697.885	7893.01
698.231	7861.6
698.577	7826.35
698.923	7821.15
699.269	7770.53
699.614	7699.12
699.96	7726.24
700.306	7663.87
700.651	7676.75
700.997	7677.43
701.342	7618.22
701.688	7574.15
702.033	7577.09
702.379	7510.42
702.724	7487.37
703.069	7482.85
703.415	7494.38
703.76	7443.31
704.105	7416.19
704.45	7389.07
704.795	7363.76
705.14	7323.99
705.485	7334.61
705.83	7311.33
706.175	7262.29
706.52	7251.22
706.865	7202.18
707.209	7286.7
707.554	7193.37
707.899	7221.39
708.243	7171
708.588	7215.52
708.932	7142.75
709.277	7178.91
709.621	7108.4
709.966	7067.5
710.31	7120.15
710.654	7038.12
710.998	6996.09
711.342	7032.7
711.687	6925.58
712.031	6983.66
712.375	6995.86
712.719	6912.25
713.063	6951.79
713.407	6982.3
713.75	6944.56
714.094	6907.95
714.438	6863.66
714.782	6866.6
715.125	6857.11
715.469	6851.01
715.812	6837.22
716.156	6797.45
716.499	6788.41
716.843	6804
717.186	6705.25
717.53	6803.1
717.873	6820.05
718.216	6717.22
718.559	6737.79
718.902	6700.5
719.246	6739.14
719.589	6707.73
719.932	6705.93
720.275	6709.54
720.617	6722.2
720.96	6632.03
721.303	6646.27
721.646	6656.89
721.989	6634.51
722.331	6666.15
722.674	6655.76
723.016	6632.93
723.359	6644.68
723.701	6548.87
724.044	6545.03
724.386	6519.72
724.729	6569.21
725.071	6511.58
725.413	6570.34
725.755	6572.6
726.097	6558.58
726.439	6499.38
726.782	6524.24
727.124	6536.89
727.465	6463.45
727.807	6533.73
728.149	6486.04
728.491	6460.06
728.833	6561.07
729.175	6501.18
729.516	6470.9
729.858	6505.03
730.199	6502.99
730.541	6446.95
730.882	6467.74
731.224	6433.84
731.565	6389.1
731.906	6408.08
732.248	6469.77
732.589	6428.64
732.93	6435.88
733.271	6450.11
733.612	6465.71
733.953	6474.75
734.294	6439.04
734.635	6410.57
734.976	6468.19
735.317	6389.32
735.658	6417.57
735.999	6412.6
736.339	6361.53
736.68	6484.46
737.021	6444.92
737.361	6414.18
737.702	6477.46
738.042	6387.52
738.383	6411.24
738.723	6502.77
739.063	6458.02
739.404	6404.24
739.744	6418.93
740.084	6461.86
740.424	6431.13
740.764	6439.72
741.104	6490.56
741.444	6418.7
741.784	6401.3
742.124	6500.06
742.464	6474.07
742.804	6497.8
743.143	6482.65
743.483	6461.64
743.823	6508.42
744.162	6535.31
744.502	6506.61
744.841	6531.92
745.181	6623.22
745.52	6607.17
745.86	6619.15
746.199	6676.77
746.538	6640.16
746.877	6681.97
747.216	6652.59
747.556	6761.07
747.895	6722.65
748.234	6748.64
748.573	6767.84
748.911	6785.47
749.25	6857.11
749.589	6884.23
749.928	6903.43
750.267	6975.75
750.605	6938.69
750.944	7008.74
751.283	7073.37
751.621	7106.82
751.96	7044.9
752.298	7241.73
752.636	7276.76
752.975	7302.07
753.313	7316.3
753.651	7479.24
753.989	7466.36
754.327	7546.36
754.666	7572.34
755.004	7676.3
755.342	7757.42
755.679	7774.37
756.017	7856.86
756.355	8012.78
756.693	8024.53
757.031	8104.76
757.368	8190.41
757.706	8216.85
758.044	8314.02
758.381	8399.67
758.719	8448.03
759.056	8584.97
759.394	8609.38
759.731	8745.19
760.068	8862.03
760.405	8963.27
760.743	9015.7
761.08	9090.27
761.417	9165.97
761.754	9274.22
762.091	9383.14
762.428	9447.55
762.765	9479.41
763.102	9601.89
763.438	9732.29
763.775	9782.23
764.112	9864.71
764.449	9974.54
764.785	10005.5
765.122	10091.15
765.458	10099.06
765.795	10202.1
766.131	10323.91
766.467	10421.99
766.804	10480.06
767.14	10456.34
767.476	10656.33
767.812	10567.29
768.148	10750.11
768.485	10729.55
768.821	10785.82
769.157	10796.89
769.492	10937.45
769.828	10957.34
770.164	10979.94
770.5	11084.79
770.836	11128.18
771.171	11148.97
771.507	11172.25
771.842	11198.24
772.178	11247.5
772.513	11356.88
772.849	11279.82
773.184	11294.05
773.519	11457.66
773.855	11402.3
774.19	11416.99
774.525	11364.11
774.86	11459.25
775.195	11515.52
775.53	11534.95
775.865	11572.46
776.2	11470.55
776.535	11437.55
776.87	11495.18
777.205	11496.31
777.539	11497.89
777.874	11605.46
778.209	11507.38
778.543	11590.09
778.878	11480.49
779.212	11533.14
779.547	11496.99
779.881	11580.37
780.215	11504.9
780.55	11642.52
780.884	11461.73
781.218	11508.28
781.552	11565.23
781.886	11495.18
782.22	11420.15
782.554	11501.51
782.888	11403.88
783.222	11376.99
783.556	11359.81
783.889	11421.73
784.223	11330.66
784.557	11328.85
784.89	11396.42
785.224	11349.65
785.557	11325.92
785.891	11336.99
786.224	11273.49
786.558	11291.79
786.891	11264.22
787.224	11137.22
787.557	11149.65
787.891	11220.83
788.224	11201.63
788.557	11137.45
788.89	11183.77
789.223	11154.4
789.556	11101.97
789.888	11042.76
790.221	11103.78
790.554	10942.65
790.887	10991.01
791.219	10873.95
791.552	10970.22
791.884	10912.82
792.217	10874.63
792.549	10892.26
792.882	10837.34
793.214	10793.95
793.546	10864.46
793.879	10720.28
794.211	10706.95
794.543	10759.15
794.875	10714.86
795.207	10743.56
795.539	10672.83
795.871	10675.31
796.203	10610.23
796.535	10571.59
796.867	10536.33
797.198	10502.21
797.53	10496.33
797.862	10430.12
798.193	10510.57
798.525	10419.27
798.856	10346.73
799.188	10391.03
799.519	10319.39
799.85	10264.7
800.182	10344.47
800.513	10324.36
800.844	10200.52
801.175	10344.93
801.506	10217.7
801.837	10204.82
802.168	10122.56
802.499	10162.78
802.83	10032.62
803.161	10021.54
803.491	10075.1
803.822	10079.62
804.153	10040.53
804.483	9942.22
804.814	9914.88
805.145	9937.7
805.475	9904.03
805.805	9890.93
806.136	9886.86
806.466	9935.67
806.796	9881.21
807.126	9782.45
807.457	9744.26
807.787	9766.86
808.117	9719.41
808.447	9715.79
808.777	9750.14
809.107	9673.08
809.436	9620.88
809.766	9704.72
810.096	9633.08
810.426	9577.26
810.755	9605.06
811.085	9542.23
811.414	9545.4
811.744	9525.06
812.073	9472.86
812.403	9482.8
812.732	9433.09
813.061	9394.44
813.39	9399.19
813.719	9366.87
814.049	9366.65
814.378	9323.94
814.707	9336.36
815.036	9412.07
815.365	9283.94
815.693	9185.63
816.022	9233.99
816.351	9230.15
816.68	9221.79
817.008	9187.67
817.337	9125.75
817.665	9099.53
817.994	9143.38
818.322	9041.91
818.651	9007.33
818.979	9108.35
819.307	9127.1
819.636	9063.38
819.964	8967.56
820.292	9052.53
820.62	9005.3
820.948	9016.83
821.276	9057.05
821.604	8990.61
821.932	9034
822.259	9036.71
822.587	8986.09
822.915	9000.55
823.243	8974.11
823.57	9014.34
823.898	8968.24
824.225	8960.33
824.553	8958.3
824.88	8940.89
825.207	8923.04
825.535	8936.38
825.862	8985.41
826.189	8998.29
826.516	9045.3
826.843	8992.19
827.17	9020.89
827.497	8976.37
827.824	8990.16
828.151	9014.34
828.478	9065.86
828.805	9029.48
829.131	8888.24
829.458	8956.94
829.785	8909.03
830.111	8991.29
830.438	8995.58
830.764	9011.4
831.09	9027.22
831.417	8903.83
831.743	8988.58
832.069	8997.39
832.395	8965.75
832.722	9012.31
833.048	8934.12
833.374	8907.9
833.7	8929.37
834.026	8965.53
834.351	8944.28
834.677	8903.83
835.003	8884.85
835.329	8895.25
835.654	8964.62
835.98	8860.22
836.306	8963.27
836.631	8908.13
836.956	8899.31
837.282	8923.04
837.607	8888.01
837.932	8878.52
838.258	8807.57
838.583	8794.68
838.908	8836.04
839.233	8785.19
839.558	8744.52
839.883	8782.71
840.208	8764.4
840.533	8792.42
840.858	8721.24
841.182	8688.25
841.507	8769.6
841.832	8645.76
842.156	8683.27
842.481	8658.42
842.805	8652.99
843.13	8595.14
843.454	8598.3
843.778	8575.03
844.103	8505.2
844.427	8466.56
844.751	8520.11
845.075	8496.39
845.399	8521.47
845.723	8401.7
846.047	8427.69
846.371	8375.94
846.695	8409.61
847.019	8296.17
847.343	8275.38
847.666	8200.35
847.99	8237.86
848.313	8162.61
848.637	8133.23
848.96	8178.66
849.284	8133.01
849.607	8065.66
849.931	8060.69
850.254	7985.67
850.577	7946.34
850.9	7910.41
851.223	7931.88
851.546	7887.82
851.869	7825.44
852.192	7828.61
852.515	7788.38
852.838	7789.06
853.161	7772.34
853.483	7714.03
853.806	7702.96
854.129	7658.44
854.451	7606.24
854.774	7628.16
855.096	7582.96
855.419	7557.43
855.741	7547.94
856.063	7493.48
856.385	7524.89
856.708	7441.27
857.03	7430.65
857.352	7439.24
857.674	7369.18
857.996	7421.39
858.318	7302.29
858.64	7335.97
858.961	7299.58
859.283	7307.94
859.605	7239.02
859.926	7285.35
860.248	7260.04
860.57	7203.09
860.891	7218
861.212	7200.6
861.534	7180.94
861.855	7173.26
862.176	7157.66
862.498	7173.48
862.819	7160.6
863.14	7145.01
863.461	7115.18
863.782	7124.22
864.103	7114.73
864.424	7087.38
864.745	7046.26
865.065	7035.86
865.386	7002.64
865.707	7030.89
866.027	6992.92
866.348	6968.07
866.668	6968.07
866.989	6943.66
867.309	6922.64
867.63	6932.36
867.95	6900.5
868.27	6901.63
868.59	6922.19
868.91	6881.97
869.23	6846.71
869.55	6781.4
869.87	6869.76
870.19	6868.86
870.51	6848.52
870.83	6833.38
871.15	6837.67
871.469	6779.14
871.789	6808.97
872.109	6831.57
872.428	6773.27
872.748	6740.95
873.067	6758.13
873.386	6772.36
873.706	6809.65
874.025	6744.57
874.344	6649.88
874.663	6754.51
874.982	6712.25
875.301	6665.7
875.62	6642.65
875.939	6654.18
876.258	6655.31
876.577	6631.8
876.896	6628.87
877.214	6587.74
877.533	6573.95
877.852	6582.09
878.17	6585.02
878.489	6587.96
878.807	6582.76
879.125	6591.58
879.444	6581.86
879.762	6564.91
880.08	6606.49
880.398	6501.86
880.716	6533.95
881.034	6452.6
881.352	6498.7
881.67	6442.66
881.988	6472.71
882.306	6448.08
882.624	6411.7
882.941	6440.17
883.259	6392.49
883.577	6366.73
883.894	6345.93
884.212	6335.31
884.529	6426.84
884.846	6315.88
885.164	6292.15
885.481	6353.62
885.798	6317.69
886.115	6256.67
886.432	6245.37
886.75	6175.32
887.067	6239.27
887.383	6226.62
887.7	6225.94
888.017	6248.08
888.334	6204.47
888.651	6216.67
888.967	6129.67
889.284	6112.72
889.6	6094.87
889.917	6103.68
890.233	6126.28
890.55	6054.64
890.866	6051.48
891.182	6082.66
891.498	6039.05
891.815	6003.12
892.131	6024.36
892.447	5908.43
892.763	5933.29
893.079	5957.02
893.395	5972.84
893.71	5912.5
894.026	5933.06
894.342	5896.46
894.657	5829.79
894.973	5896.91
895.289	5805.84
895.604	5782.56
895.92	5797.7
896.235	5761.09
896.55	5783.46
896.865	5726.06
897.181	5759.28
897.496	5711.38
897.811	5682.22
898.126	5687.65
898.441	5631.6
898.756	5602.9
899.071	5568.55
899.386	5602.9
899.7	5580.53
900.015	5514.32
900.33	5506.41
900.644	5522.45
900.959	5489.46
901.273	5469.57
901.588	5469.12
901.902	5423.47
902.216	5381.21
902.531	5411.95
902.845	5350.93
903.159	5343.48
903.473	5310.93
903.787	5307.54
904.101	5248.11
904.415	5279.97
904.729	5250.82
905.042	5223.03
905.356	5194.1
905.67	5220.31
905.984	5180.99
906.297	5156.14
906.611	5131.73
906.924	5098.96
907.237	5124.5
907.551	5081.56
907.864	5067.78
908.177	5051.73
908.491	4988.68
908.804	4995.01
909.117	4950.04
909.43	4962.69
909.743	4940.55
910.056	4933.77
910.368	4916.59
910.681	4929.93
910.994	4871.17
911.307	4866.43
911.619	4819.87
911.932	4861.91
912.244	4812.87
912.557	4774.22
912.869	4810.61
913.181	4750.04
913.494	4673.66
913.806	4678.86
914.118	4687.67
914.43	4673.21
914.742	4664.17
915.054	4655.58
915.366	4636.38
915.678	4596.83
915.99	4591.86
916.302	4567.22
916.613	4549.15
916.925	4558.41
917.236	4541.24
917.548	4482.26
917.859	4531.97
918.171	4483.38
918.482	4430.28
918.794	4420.34
919.105	4442.93
919.416	4395.7
919.727	4381.47
920.038	4402.48
920.349	4337.63
920.66	4315.48
920.971	4287.23
921.282	4289.94
921.593	4289.27
921.903	4208.14
922.214	4194.8
922.525	4239.78
922.835	4216.27
923.146	4202.26
923.456	4197.52
923.767	4150.29
924.077	4126.56
924.387	4124.52
924.697	4083.62
925.008	4076.16
925.318	4079.33
925.628	4066.22
925.938	4063.73
926.248	4023.96
926.558	4003.85
926.867	3992.78
927.177	3965.21
927.487	3981.7
927.796	3967.24
928.106	3884.3
928.416	3866
928.725	3922.5
929.034	3869.39
929.344	3882.95
929.653	3877.3
929.962	3819.67
930.271	3832.33
930.581	3800.92
930.89	3827.81
931.199	3798.43
931.508	3757.75
931.817	3763.63
932.125	3754.36
932.434	3749.17
932.743	3643.86
933.051	3699
933.36	3674.37
933.669	3664.88
933.977	3629.62
934.286	3633.69
934.594	3638.44
934.902	3612
935.21	3594.82
935.519	3621.94
935.827	3550.53
936.135	3514.14
936.443	3583.97
936.751	3494.03
937.059	3529.29
937.367	3491.32
937.674	3501.26
937.982	3490.42
938.29	3427.82
938.597	3413.13
938.905	3421.04
939.213	3396.41
939.52	3377.88
939.827	3425.11
940.135	3365.45
940.442	3323.87
940.749	3330.65
941.056	3330.87
941.363	3322.51
941.67	3311.89
941.977	3284.32
942.284	3282.29
942.591	3271.21
942.898	3247.94
943.205	3273.93
943.511	3214.72
943.818	3208.62
944.125	3174.04
944.431	3192.57
944.738	3214.27
945.044	3141.73
945.35	3184.44
945.657	3150.76
945.963	3087.94
946.269	3145.57
946.575	3136.53
946.881	3089.3
947.187	3083.87
947.493	3080.94
947.799	3040.94
948.105	3055.63
948.41	3012.92
948.716	3026.7
949.022	3012.69
949.327	3000.94
949.633	2979.47
949.938	2974.95
950.244	2965.23
950.549	2934.95
950.854	2901.51
951.16	2935.86
951.465	2905.35
951.77	2876.87
952.075	2876.65
952.38	2874.61
952.685	2879.36
952.99	2824.67
953.294	2823.09
953.599	2792.13
953.904	2809.08
954.209	2765.46
954.513	2817.44
954.818	2800.04
955.122	2787.38
955.426	2751.68
955.731	2773.15
956.035	2730.89
956.339	2743.54
956.643	2701.96
956.948	2694.05
957.252	2698.35
957.556	2669.42
957.86	2646.15
958.163	2650.44
958.467	2636.43
958.771	2648.4
959.075	2636.65
959.378	2607.05
959.682	2613.15
959.985	2591.46
960.289	2553.94
960.592	2562.31
960.896	2540.16
961.199	2553.04
961.502	2534.96
961.805	2525.24
962.108	2522.53
962.411	2513.95
962.714	2496.09
963.017	2465.81
963.32	2503.1
963.623	2481.4
963.926	2473.04
964.228	2452.7
964.531	2433.72
964.833	2448.18
965.136	2423.33
965.438	2393.95
965.741	2398.69
966.043	2375.87
966.345	2374.51
966.648	2350.56
966.95	2306.94
967.252	2332.71
967.554	2355.31
967.856	2323.89
968.158	2277.12
968.46	2313.05
968.761	2262.65
969.063	2306.49
969.365	2287.51
969.666	2304.23
969.968	2259.71
970.269	2248.64
970.571	2279.6
970.872	2235.08
971.174	2219.72
971.475	2224.46
971.776	2238.02
972.077	2186.95
972.378	2193.05
972.679	2221.75
972.98	2187.85
973.281	2167.29
973.582	2160.51
973.883	2152.37
974.183	2153.28
974.484	2137.01
974.785	2144.46
975.085	2121.64
975.386	2154.63
975.686	2134.97
975.986	2080.06
976.287	2101.53
976.587	2084.13
976.887	2071.24
977.187	2081.87
977.487	2066.05
977.787	2029.66
978.087	2035.09
978.387	2015.88
978.687	2013.17
978.987	2011.81
979.286	2026.95
979.586	1970.91
979.885	1998.93
980.185	1949.89
980.484	1982.89
980.784	1957.35
981.083	1957.35
981.382	1921.87
981.682	1899.05
981.981	1935.66
982.28	1925.71
982.579	1907.63
982.878	1907.41
983.177	1904.7
983.475	1884.81
983.774	1893.85
984.073	1888.2
984.372	1867.86
984.67	1872.61
984.969	1847.52
985.267	1815.21
985.566	1821.53
985.864	1815.66
986.162	1835.54
986.461	1821.08
986.759	1787.64
987.057	1803.46
987.355	1785.6
987.653	1759.16
987.951	1763.91
988.249	1745.83
988.547	1747.64
988.844	1728.43
989.142	1742.67
989.44	1738.82
989.737	1727.98
990.035	1711.71
990.332	1737.69
990.63	1699.96
990.927	1699.05
991.224	1673.06
991.521	1697.92
991.819	1677.81
992.116	1686.62
992.413	1656.57
992.71	1666.28
993.006	1670.8
993.303	1668.54
993.6	1648.21
993.897	1645.27
994.193	1647.75
994.49	1636.23
994.787	1595.78
995.083	1590.13
995.379	1585.61
995.676	1581.31
995.972	1599.62
996.268	1590.35
996.565	1560.75
996.861	1566.17
997.157	1555.1
997.453	1538.83
997.749	1547.87
998.044	1551.26
998.34	1521.2
998.636	1510.36
998.932	1525.5
999.227	1505.16
999.523	1486.85
999.818	1507.87
1000.114	1476.46
1000.409	1481.2
1000.704	1469.68
1001	1450.47
1001.295	1478.49
1001.59	1453.63
1001.885	1433.97
1002.18	1405.5
1002.475	1404.6
1002.77	1417.02
1003.065	1396.69
1003.359	1386.97
1003.654	1406.86
1003.949	1395.33
1004.243	1385.84
1004.538	1368.21
1004.832	1383.81
1005.127	1371.15
1005.421	1376.12
1005.715	1332.06
1006.009	1359.4
1006.304	1336.35
1006.598	1312.62
1006.892	1322.56
1007.186	1323.47
1007.48	1316.24
1007.773	1315.56
1008.067	1285.95
1008.361	1288.67
1008.655	1309.91
1008.948	1266.07
1009.242	1261.1
1009.535	1268.33
1009.829	1253.19
1010.122	1236.69
1010.415	1239.18
1010.708	1216.35
1011.001	1238.05
1011.295	1201.44
1011.588	1232.62
1011.881	1205.51
1012.173	1197.82
1012.466	1181.78
1012.759	1195.34
1013.052	1199.4
1013.344	1195.56
1013.637	1164.38
1013.93	1172.74
1014.222	1152.63
1014.514	1154.66
1014.807	1145.62
1015.099	1144.49
1015.391	1129.35
1015.683	1152.85
1015.976	1134.77
1016.268	1136.35
1016.56	1119.41
1016.851	1107.88
1017.143	1074.44
1017.435	1112.17
1017.727	1069.01
1018.018	1094.1
1018.31	1059.75
1018.602	1089.12
1018.893	1071.72
1019.185	1053.64
1019.476	1070.82
1019.767	1045.06
1020.058	1036.47
1020.35	1047.09
1020.641	996.92
1020.932	1018.39
1021.223	1007.32
1021.514	1014.1
1021.804	1000.54
1022.095	1014.55
1022.386	996.24
1022.677	992.18
1022.967	992.86
1023.258	981.33
1023.548	959.41
1023.839	997.83
1024.129	970.26
1024.419	974.55
1024.709	936.81
1025	956.47
1025.29	930.26
1025.58	932.97
1025.87	924.38
1026.16	936.81
1026.449	940.88
1026.739	915.8
1027.029	885.06
1027.319	906.08
1027.608	932.74
1027.898	920.09
1028.187	888.68
1028.477	894.33
1028.766	899.98
1029.055	890.94
1029.344	863.14
1029.634	848.68
1029.923	866.08
1030.212	867.66
1030.501	875.12
1030.79	836.7
1031.078	835.12
1031.367	840.77
1031.656	819.75
1031.945	833.99
1032.233	819.75
1032.522	836.7
1032.81	805.06
1033.099	783.6
1033.387	803.71
1033.675	836.02
1033.963	800.54
1034.251	766.65
1034.54	795.12
1034.828	801.67
1035.116	798.74
1035.403	797.15
1035.691	784.05
1035.979	776.59
1036.267	758.74
1036.554	773.65
1036.842	768.91
1037.129	781.34
1037.417	749.7
1037.704	757.38
1037.992	729.13
1038.279	733.65
1038.566	742.24
1038.853	742.24
1039.14	742.24
