Data from hue_90_FLMS001491_40.txt Node
Date: Mon Feb 06 15:25:03 GMT 2017
User: dcchb
Spectrometer: FLMS00149
Trigger mode: 0
Integration Time (sec): 2.000000E-2
Scans to average: 10
Electric dark correction enabled: true
Nonlinearity correction enabled: false
Boxcar width: 0
XAxis mode: Wavelengths
Number of Pixels in Spectrum: 2048
>>>>>Begin Spectral Data<<<<<
341.393	-24.01
341.776	-24.01
342.16	-24.01
342.543	-59.04
342.927	-50.68
343.31	-68.53
343.693	-69.21
344.077	-81.18
344.46	-47.74
344.843	-22.65
345.226	-61.3
345.61	-35.54
345.993	-11.13
346.376	7.85
346.759	21.41
347.142	31.36
347.525	44.01
347.908	41.98
348.291	63.9
348.674	81.98
349.057	104.8
349.44	123.78
349.823	142.54
350.206	181.63
350.588	200.39
350.971	218.24
351.354	223.67
351.737	238.36
352.119	267.06
352.502	263.89
352.884	290.78
353.267	288.52
353.65	300.27
354.032	308.41
354.414	305.47
354.797	326.49
355.179	307.51
355.562	324.68
355.944	328.3
356.326	308.64
356.709	360.84
357.091	337.79
357.473	337.79
357.855	350.67
358.238	354.06
358.62	340.05
359.002	361.52
359.384	358.8
359.766	337.34
360.148	349.54
360.53	367.17
360.912	335.53
361.294	361.29
361.676	345.7
362.057	351.57
362.439	359.93
362.821	342.53
363.203	340.95
363.584	326.94
363.966	343.44
364.348	330.1
364.729	345.7
365.111	329.65
365.493	321.97
365.874	324.45
366.256	323.55
366.637	317.45
367.019	317
367.4	348.63
367.781	328.97
368.163	304.79
368.544	317.22
368.925	309.99
369.306	328.3
369.688	322.87
370.069	322.19
370.45	315.42
370.831	331.91
371.212	312.93
371.593	308.64
371.974	323.78
372.355	313.83
372.736	323.78
373.117	328.07
373.498	319.48
373.879	330.56
374.26	301.18
374.641	301.86
375.021	326.04
375.402	333.49
375.783	342.99
376.163	347.96
376.544	325.58
376.925	335.3
377.305	340.05
377.686	341.86
378.066	352.93
378.447	333.27
378.827	350.67
379.208	329.65
379.588	344.34
379.968	336.88
380.349	340.05
380.729	334.62
381.109	324.91
381.489	370.1
381.87	367.39
382.25	346.83
382.63	349.31
383.01	363.55
383.39	355.41
383.77	345.25
384.15	355.41
384.53	358.8
384.91	340.27
385.29	350.89
385.67	348.41
386.049	374.4
386.429	368.97
386.809	383.89
387.189	370.56
387.568	353.83
387.948	360.61
388.328	345.7
388.707	354.51
389.087	383.21
389.466	375.07
389.846	357
390.225	355.19
390.605	392.25
390.984	362.19
391.363	380.95
391.743	381.63
392.122	387.05
392.501	373.49
392.881	384.11
393.26	394.28
393.639	401.51
394.018	397
394.397	383.21
394.776	405.13
395.155	412.14
395.534	419.82
395.913	378.69
396.292	409.42
396.671	371.69
397.05	395.41
397.429	409.65
397.808	405.58
398.186	401.29
398.565	420.95
398.944	408.29
399.323	403.1
399.701	405.58
400.08	415.75
400.458	436.32
400.837	432.47
401.215	408.52
401.594	419.14
401.972	411.46
402.351	422.98
402.729	442.87
403.107	425.92
403.486	439.25
403.864	425.47
404.242	429.31
404.62	461.17
404.999	436.99
405.377	429.08
405.755	432.93
406.133	442.64
406.511	435.41
406.889	459.37
407.267	457.11
407.645	457.56
408.023	461.17
408.401	473.6
408.779	471.34
409.156	453.72
409.534	474.28
409.912	476.54
410.29	493.49
410.667	479.7
411.045	491.23
411.422	484.22
411.8	487.39
412.178	480.83
412.555	493.04
412.933	514.28
413.31	531
413.687	511.12
414.065	518.8
414.442	515.18
414.819	517.22
415.197	509.76
415.574	530.78
415.951	533.49
416.328	512.7
416.705	548.18
417.082	558.12
417.46	540.95
417.837	549.99
418.214	557.67
418.591	543.88
418.967	538.91
419.344	543.66
419.721	549.99
420.098	542.53
420.475	571.45
420.852	557.67
421.228	578.46
421.605	592.7
421.982	575.07
422.358	590.89
422.735	579.14
423.111	568.97
423.488	601.28
423.864	597.44
424.241	613.49
424.617	617.78
424.994	600.15
425.37	612.81
425.746	594.28
426.123	604
426.499	641.51
426.875	638.57
427.251	655.29
427.627	634.73
428.003	636.76
428.379	678.12
428.756	662.52
429.132	668.63
429.507	674.28
429.883	670.89
430.259	690.55
430.635	695.97
431.011	674.95
431.387	697.33
431.763	688.06
432.138	689.19
432.514	721.28
432.89	700.04
433.265	724.22
433.641	717.21
434.016	735.97
434.392	731.22
434.767	733.48
435.143	743.2
435.518	774.61
435.894	769.41
436.269	776.19
436.644	782.75
437.02	782.3
437.395	797.21
437.77	788.17
438.145	819.36
438.52	798.57
438.895	834.05
439.271	806.48
439.646	849.41
440.021	857.32
440.395	869.98
440.77	852.58
441.145	868.62
441.52	877.21
441.895	862.07
442.27	910.2
442.645	860.03
443.019	917.66
443.394	884.67
443.769	901.84
444.143	893.93
444.518	923.54
444.892	900.03
445.267	902.07
445.641	928.73
446.016	932.57
446.39	943.87
446.764	952.46
447.139	937.77
447.513	973.93
447.887	952.23
448.262	959.01
448.636	945.46
449.01	971.9
449.384	988.62
449.758	986.81
450.132	1008.5
450.506	975.51
450.88	1005.79
451.254	1033.36
451.628	1042.63
452.002	1049.86
452.376	1039.46
452.75	1063.19
453.123	1043.31
453.497	1083.08
453.871	1063.87
454.244	1089.41
454.618	1115.39
454.992	1131.67
455.365	1139.35
455.739	1159.24
456.112	1169.18
456.486	1193.81
456.859	1182.06
457.232	1181.38
457.606	1194.94
457.979	1212.57
458.352	1212.34
458.725	1248.95
459.099	1292.79
459.472	1286.46
459.845	1291.21
460.218	1282.62
460.591	1317.42
460.964	1314.26
461.337	1344.09
461.71	1377.08
462.083	1397.87
462.456	1424.76
462.829	1420.02
463.201	1469.51
463.574	1458.44
463.947	1450.07
464.32	1524.65
464.692	1508.15
465.065	1530.75
465.438	1549.51
465.81	1566
466.183	1601.26
466.555	1630.64
466.928	1651.88
467.3	1657.3
467.672	1700.46
468.045	1719.67
468.417	1739.11
468.789	1732.78
469.161	1781.37
469.534	1798.99
469.906	1822.04
470.278	1882.61
470.65	1922.6
471.022	1972.55
471.394	2001.25
471.766	1970.06
472.138	2038.76
472.51	2147.01
472.882	2141.13
473.253	2162.15
473.625	2180.45
473.997	2270.84
474.369	2310.17
474.74	2354.68
475.112	2416.38
475.484	2436.26
475.855	2511.97
476.227	2559.65
476.598	2639.65
476.97	2694.11
477.341	2785.86
477.713	2845.97
478.084	2913.77
478.455	2975.01
478.827	3023.14
479.198	3123.7
479.569	3197.15
479.94	3263.36
480.311	3342.23
480.682	3497.25
481.053	3594.88
481.424	3665.16
481.795	3736.57
482.166	3840.52
482.537	3938.37
482.908	4056.79
483.279	4124.35
483.65	4271.24
484.021	4415.87
484.391	4428.53
484.762	4584
485.133	4678.92
485.503	4834.17
485.874	4978.8
486.244	5058.12
486.615	5207.94
486.985	5335.17
487.356	5425.34
487.726	5568.61
488.097	5787.81
488.467	5815.38
488.837	6032.1
489.207	6147.13
489.578	6261.47
489.948	6401.58
490.318	6577.4
490.688	6678.64
491.058	6869.37
491.428	7016.93
491.798	7131.06
492.168	7329.02
492.538	7427.77
492.908	7599.97
493.278	7731.49
493.648	7873.63
494.017	8058.49
494.387	8115.66
494.757	8260.74
495.126	8420.06
495.496	8585.48
495.866	8658.47
496.235	8888.3
496.605	8952.7
496.974	9087.16
497.344	9187.72
497.713	9341.39
498.082	9460.49
498.452	9579.13
498.821	9775.73
499.19	9782.96
499.559	9974.82
499.928	10018.89
500.298	10187.02
500.667	10260.69
501.036	10337.75
501.405	10433.12
501.774	10543.85
502.143	10714.24
502.512	10706.33
502.88	10851.64
503.249	10936.83
503.618	11006.21
503.987	11118.97
504.356	11188.58
504.724	11310.83
505.093	11390.38
505.462	11436.48
505.83	11528.91
506.199	11673.53
506.567	11883.25
506.936	11779.29
507.304	12019.06
507.672	12101.32
508.041	12140.87
508.409	12166.63
508.777	12366.17
509.145	12367.98
509.514	12344.03
509.882	12441.65
510.25	12497.02
510.618	12642.77
510.986	12661.08
511.354	12809.55
511.722	12883.67
512.09	12943.78
512.458	12961.18
512.826	13138.36
513.193	13087.51
513.561	13054.97
513.929	13189.2
514.297	13345.58
514.664	13334.73
515.032	13372.93
515.4	13494.28
515.767	13500.61
516.135	13600.72
516.502	13403.88
516.869	13715.06
517.237	13682.75
517.604	13527.72
517.972	13756.64
518.339	13826.02
518.706	13796.87
519.073	13773.59
519.44	13884.78
519.808	13965.45
520.175	13887.49
520.542	14109.4
520.909	14095.39
521.276	14059.01
521.643	14209.29
522.009	14314.14
522.376	14280.92
522.743	14369.96
523.11	14337.65
523.477	14540.35
523.843	14430.07
524.21	14563.85
524.577	14586.45
524.943	14677.07
525.31	14653.57
525.676	14768.14
526.043	14802.49
526.409	14719.33
526.776	14860.12
527.142	14819.89
527.508	14882.94
527.874	14931.75
528.241	14903.28
528.607	14942.6
528.973	15069.83
529.339	14974.01
529.705	15098.98
530.071	15086.78
530.437	15048.81
530.803	15075.25
531.169	15251.29
531.535	15042.94
531.901	15147.79
532.267	15079.32
532.632	15180.34
532.998	15013.33
533.364	15080.68
533.73	15081.35
534.095	15137.17
534.461	15061.69
534.826	15063.95
535.192	15080.68
535.557	15204.29
535.923	15055.82
536.288	15050.4
536.653	15153.67
537.019	14970.4
537.384	14971.75
537.749	15037.97
538.114	14907.57
538.479	14914.35
538.845	14985.76
539.21	14840.01
539.575	14825.09
539.94	14913
540.305	14884.07
540.67	14836.84
541.034	14792.32
541.399	14896.05
541.764	14754.58
542.129	14707.13
542.494	14698.54
542.858	14748.48
543.223	14684.08
543.587	14682.04
543.952	14590.52
544.316	14587.81
544.681	14490.18
545.045	14463.97
545.41	14520.92
545.774	14505.1
546.138	14447.25
546.503	14494.25
546.867	14442.95
547.231	14348.94
547.595	14443.86
547.959	14394.82
548.324	14316.86
548.688	14373.12
549.052	14286.35
549.416	14287.03
549.779	14176.52
550.143	14226.01
550.507	14212.68
550.871	14171.32
551.235	14084.32
551.599	14140.14
551.962	14079.12
552.326	14132.23
552.689	14174.94
553.053	13992.12
553.417	14010.2
553.78	14118.67
554.143	13897.66
554.507	13993.47
554.87	14052.46
555.234	13930.88
555.597	13869.86
555.96	13851.33
556.323	13976.3
556.686	13900.14
557.05	13876.87
557.413	13964.55
557.776	13930.2
558.139	13904.21
558.502	13886.13
558.865	13829.64
559.228	13995.06
559.59	13976.07
559.953	13922.06
560.316	13995.28
560.679	13945.57
561.041	13972.01
561.404	14029.63
561.767	13983.76
562.129	13936.98
562.492	13999.8
562.854	13986.92
563.217	14004.55
563.579	14008.61
563.941	14137.2
564.304	13953.93
564.666	14137.2
565.028	14064.21
565.39	14107.37
565.753	14175.39
566.115	14103.08
566.477	14158.22
566.839	14197.99
567.201	14227.59
567.563	14198.67
567.925	14216.97
568.287	14398.21
568.648	14229.63
569.01	14286.57
569.372	14323.86
569.734	14280.7
570.095	14396.4
570.457	14363.18
570.819	14436.4
571.18	14385.55
571.542	14372.45
571.903	14443.86
572.265	14476.63
572.626	14370.19
572.987	14446.12
573.349	14437.53
573.71	14559.56
574.071	14536.28
574.432	14547.36
574.794	14713.45
575.155	14552.33
575.516	14443.86
575.877	14528.15
576.238	14600.69
576.599	14639.56
576.96	14586.9
577.32	14649.5
577.681	14734.25
578.042	14618.99
578.403	14653.8
578.763	14574.48
579.124	14561.14
579.485	14640.91
579.845	14761.59
580.206	14673.46
580.566	14664.64
580.927	14705.77
581.287	14679.33
581.648	14579.67
582.008	14704.64
582.368	14623.97
582.728	14726.79
583.089	14684.3
583.449	14589.62
583.809	14621.25
584.169	14661.03
584.529	14605.44
584.889	14740.12
585.249	14615.38
585.609	14567.24
585.969	14693.57
586.329	14538.77
586.688	14606.11
587.048	14562.05
587.408	14508.04
587.768	14513.69
588.127	14548.71
588.487	14565.44
588.846	14579
589.206	14508.26
589.565	14416.06
589.925	14636.39
590.284	14511.65
590.643	14495.83
591.003	14579.67
591.362	14563.85
591.721	14504.42
592.08	14471.88
592.44	14576.96
592.799	14470.75
593.158	14576.51
593.517	14560.01
593.876	14509.17
594.235	14483.63
594.593	14447.7
594.952	14463.07
595.311	14376.74
595.67	14395.05
596.029	14583.97
596.387	14562.05
596.746	14534.25
597.104	14470.07
597.463	14480.92
597.822	14428.26
598.18	14349.85
598.538	14381.03
598.897	14503.06
599.255	14367.93
599.613	14591.42
599.972	14469.17
600.33	14388.94
600.688	14415.38
601.046	14437.08
601.404	14493.57
601.762	14457.19
602.12	14532.44
602.478	14440.24
602.836	14405.67
603.194	14337.65
603.552	14381.49
603.91	14442.05
604.268	14487.92
604.625	14454.03
604.983	14498.32
605.341	14431.65
605.698	14503.97
606.056	14555.27
606.413	14488.38
606.771	14551.43
607.128	14626.23
607.485	14456.06
607.843	14492.44
608.2	14491.31
608.557	14566.34
608.914	14490.18
609.272	14582.16
609.629	14622.84
609.986	14616.28
610.343	14524.08
610.7	14666.9
611.057	14654.7
611.414	14651.08
611.771	14666.68
612.127	14734.02
612.484	14634.13
612.841	14701.03
613.198	14671.2
613.554	14668.48
613.911	14758.65
614.267	14729.05
614.624	14685.89
614.98	14647.02
615.337	14760.69
615.693	14742.61
616.05	14768.82
616.406	14777.63
616.762	14780.35
617.118	14811.08
617.475	14682.72
617.831	14831.42
618.187	14834.81
618.543	14875.94
618.899	14859.44
619.255	14997.74
619.611	14884.52
619.967	14873.68
620.323	15025.54
620.678	14877.97
621.034	14817.41
621.39	14840.01
621.746	14881.36
622.101	15087.23
622.457	14804.07
622.812	14926.33
623.168	14957.06
623.523	14876.39
623.879	14915.71
624.234	14878.65
624.589	14964.52
624.945	14950.06
625.3	14949.38
625.655	14910.06
626.01	14876.39
626.365	14849.27
626.72	14880.68
627.075	14922.04
627.43	14824.19
627.785	14848.82
628.14	14897.63
628.495	14921.13
628.85	14871.42
629.205	14895.37
629.559	14945.54
629.914	14814.7
630.269	14872.77
630.623	14845.2
630.978	14737.86
631.332	14865.77
631.687	14789.16
632.041	14786.9
632.396	14710.74
632.75	14744.64
633.104	14659.45
633.459	14735.38
633.813	14633.01
634.167	14658.99
634.521	14720.23
634.875	14593.68
635.229	14632.33
635.583	14566.79
635.937	14614.93
636.291	14596.17
636.645	14575.61
636.999	14534.93
637.352	14584.19
637.706	14504.42
638.06	14519.56
638.413	14560.69
638.767	14431.43
639.121	14541.03
639.474	14418.32
639.828	14377.87
640.181	14435.5
640.534	14484.08
640.888	14382.16
641.241	14270.75
641.594	14373.12
641.947	14367.25
642.301	14325.89
642.654	14248.83
643.007	14252.45
643.36	14263.52
643.713	14256.52
644.066	14313.01
644.419	14262.62
644.771	14120.02
645.124	13998.67
645.477	14041.16
645.83	13947.83
646.182	13882.29
646.535	13788.96
646.888	13874.38
647.24	13761.62
647.593	13881.61
647.945	13816.08
648.298	13850.43
648.65	13755.51
649.002	13772.69
649.355	13843.2
649.707	13790.99
650.059	13849.3
650.411	13952.35
650.763	13979.01
651.115	14184.2
651.467	14030.54
651.819	14162.51
652.171	14101.95
652.523	14015.17
652.875	14028.95
653.227	14014.26
653.578	14035.51
653.93	14056.52
654.282	13982.17
654.633	13952.57
654.985	13986.24
655.337	14024.66
655.688	14024.21
656.039	14058.78
656.391	13961.38
656.742	14095.62
657.094	13995.28
657.445	14061.95
657.796	14040.25
658.147	13969.29
658.498	14025.56
658.849	14017.88
659.2	14068.05
659.551	14021.04
659.902	14023.76
660.253	14087.48
660.604	14070.08
660.955	13925.23
661.306	14045.45
661.656	14027.37
662.007	14019.24
662.358	14018.56
662.708	14089.52
663.059	14043.64
663.409	13888.84
663.76	14023.98
664.11	13994.38
664.461	14096.07
664.811	14067.37
665.161	14096.75
665.511	14056.98
665.862	14088.61
666.212	14102.62
666.562	14109.85
666.912	14073.7
667.262	14040.48
667.612	14089.29
667.962	14037.77
668.312	14084.54
668.662	14153.92
669.011	14040.03
669.361	14037.54
669.711	14073.47
670.06	14041.16
670.41	13989.63
670.76	14008.84
671.109	14005.22
671.459	14118.67
671.808	13982.63
672.157	14101.27
672.507	14017.43
672.856	13928.62
673.205	13949.86
673.554	14016.52
673.904	14002.06
674.253	14032.34
674.602	14056.3
674.951	13735.63
675.3	13689.53
675.649	13868.05
675.998	13851.78
676.346	13867.83
676.695	13877.32
677.044	13627.38
677.393	13840.26
677.741	13767.72
678.09	13720.03
678.438	13709.19
678.787	13786.25
679.135	13747.83
679.484	13637.78
679.832	13786.7
680.181	13654.5
680.529	13657.44
680.877	13623.77
681.225	13594.84
681.573	13676.87
681.922	13543.99
682.27	13507.16
682.618	13578.34
682.966	13473.04
683.314	13562.07
683.661	13499.48
684.009	13345.13
684.357	13439.59
684.705	13349.65
685.053	13350.33
685.4	13307.62
685.748	13263.55
686.095	13246.83
686.443	13168.18
686.79	13239.37
687.138	13174.51
687.485	13079.15
687.832	13168.41
688.18	13184.68
688.527	13085.7
688.874	13101.29
689.221	12994.63
689.568	12973.16
689.915	12940.39
690.262	12908.76
690.609	12924.12
690.956	12809.55
691.303	12799.15
691.65	12651.59
691.997	12759.16
692.344	12628.76
692.69	12628.76
693.037	12608.2
693.383	12480.97
693.73	12557.58
694.077	12514.42
694.423	12494.08
694.769	12389
695.116	12315.78
695.462	12335.66
695.808	12245.5
696.155	12193.97
696.501	12179.06
696.847	12094.54
697.193	12116.01
697.539	12156.69
697.885	12024.26
698.231	11977.48
698.577	11953.98
698.923	11948.1
699.269	11907.2
699.614	11806.64
699.96	11753.98
700.306	11805.28
700.651	11772.52
700.997	11696.13
701.342	11689.58
701.688	11631.73
702.033	11557.83
702.379	11567.77
702.724	11508.79
703.069	11558.51
703.415	11392.64
703.76	11425.18
704.105	11309.02
704.45	11248.69
704.795	11257.05
705.14	11201
705.485	11173.44
705.83	11202.36
706.175	11234
706.52	11091.18
706.865	11080.78
707.209	10964.85
707.554	11013.44
707.899	11058.64
708.243	10905.87
708.588	10864.97
708.932	10877.62
709.277	10764.41
709.621	10849.6
709.966	10761.69
710.31	10814.8
710.654	10738.64
710.998	10777.06
711.342	10781.35
711.687	10713.11
712.031	10637.86
712.375	10592.43
712.719	10638.99
713.063	10617.97
713.407	10645.31
713.75	10553.11
714.094	10503.85
714.438	10490.29
714.782	10505.88
715.125	10508.37
715.469	10426.11
715.812	10357.19
716.156	10400.57
716.499	10381.14
716.843	10396.73
717.186	10302.27
717.53	10337.3
717.873	10342.27
718.216	10268.15
718.559	10365.09
718.902	10228.6
719.246	10209.84
719.589	10295.49
719.932	10127.36
720.275	10168.04
720.617	10177.53
720.96	10097.53
721.303	10178.43
721.646	10130.75
721.989	10091.2
722.331	10104.54
722.674	10134.14
723.016	10106.57
723.359	10058.66
723.701	10051.66
724.044	10068.38
724.386	9997.42
724.729	10064.76
725.071	9989.51
725.413	10051.2
725.755	9996.06
726.097	9978.44
726.439	9870.87
726.782	9921.72
727.124	10029.28
727.465	9979.12
727.807	9936.41
728.149	9955.61
728.491	9923.52
728.833	9895.95
729.175	9908.38
729.516	9926.69
729.858	9841.04
730.199	9914.26
730.541	9818.22
730.882	9922.39
731.224	9969.4
731.565	9801.72
731.906	9828.39
732.248	9886.92
732.589	9822.96
732.93	9812.79
733.271	9853.92
733.612	9821.61
733.953	9868.38
734.294	9871.77
734.635	9827.93
734.976	9871.32
735.317	9767.82
735.658	9805.11
735.999	9806.92
736.339	9816.63
736.68	9823.41
737.021	9872.9
737.361	9730.76
737.702	9903.64
738.042	9817.76
738.383	9787.93
738.723	9937.08
739.063	9836.52
739.404	9852.57
739.744	9835.17
740.084	9820.02
740.424	9935.05
740.764	9876.52
741.104	9953.81
741.444	9876.97
741.784	9916.07
742.124	9896.86
742.464	9904.77
742.804	9889.18
743.143	9931.43
743.483	9963.07
743.823	9945.67
744.162	10002.39
744.502	9998.1
744.841	10067.7
745.181	10064.76
745.52	10151.77
745.86	10118.1
746.199	10160.81
746.538	10189.51
746.877	10253.46
747.216	10341.37
747.556	10304.76
747.895	10386.56
748.234	10466.11
748.573	10452.78
748.911	10527.12
749.25	10580
749.589	10587.46
749.928	10655.93
750.267	10829.49
750.605	10784.29
750.944	10878.08
751.283	10987
751.621	11104.06
751.96	11082.59
752.298	11246.43
752.636	11344.96
752.975	11375.69
753.313	11461.34
753.651	11635.34
753.989	11707.21
754.327	11804.38
754.666	11870.37
755.004	12048.67
755.342	12160.53
755.679	12231.26
756.017	12371.6
756.355	12604.58
756.693	12624.92
757.031	12806.61
757.368	12952.15
757.706	13013.16
758.044	13158.02
758.381	13372.7
758.719	13441.4
759.056	13674.16
759.394	13855.4
759.731	13883.19
760.068	14095.17
760.405	14216.52
760.743	14307.36
761.08	14532.89
761.417	14665.32
761.754	14804.3
762.091	14999.1
762.428	15087.46
762.765	15267.11
763.102	15464.85
763.438	15566.09
763.775	15657.38
764.112	15932.86
764.449	16094.89
764.785	16160.65
765.122	16321.55
765.458	16478.61
765.795	16607.42
766.131	16722.67
766.467	16817.81
766.804	16920.85
767.14	17054.86
767.476	17281.75
767.812	17412.14
768.148	17519.93
768.485	17517.67
768.821	17648.07
769.157	17808.29
769.492	17930.77
769.828	18076.98
770.164	18020.03
770.5	18196.08
770.836	18299.8
771.171	18369.18
771.507	18503.41
771.842	18504.09
772.178	18642.17
772.513	18637.42
772.849	18709.28
773.184	18822.05
773.519	18849.62
773.855	18895.27
774.19	19045.32
774.525	18944.3
774.86	19165.99
775.195	19182.49
775.53	19198.31
775.865	19171.64
776.2	19132.77
776.535	19236.73
776.87	19208.25
777.205	19268.82
777.539	19283.96
777.874	19382.71
778.209	19265.2
778.543	19340.9
778.878	19394.01
779.212	19454.57
779.547	19389.94
779.881	19408.25
780.215	19309.94
780.55	19491.63
780.884	19404.63
781.218	19387.91
781.552	19462.71
781.886	19344.97
782.22	19339.77
782.554	19351.75
782.888	19290.06
783.222	19216.61
783.556	19220.46
783.889	19239.89
784.223	19201.47
784.557	19245.31
784.89	19242.83
785.224	19138.65
785.557	19086.67
785.891	19111.98
786.224	19217.29
786.558	19152.21
786.891	18906.11
787.224	19015.49
787.557	19046.9
787.891	19005.32
788.224	19046
788.557	19019.1
788.89	18857.07
789.223	18903.18
789.556	18853.69
789.888	18794.03
790.221	18857.3
790.554	18736.17
790.887	18629.06
791.219	18781.6
791.552	18634.93
791.884	18597.65
792.217	18550.87
792.549	18552.9
792.882	18365.79
793.214	18411.21
793.546	18438.1
793.879	18388.84
794.211	18200.59
794.543	18395.84
794.875	18276.3
795.207	18281.5
795.539	18171.67
795.871	18182.52
796.203	18021.39
796.535	17988.85
796.867	17959.02
797.198	17947.04
797.53	17946.14
797.862	17810.77
798.193	17855.07
798.525	17818.23
798.856	17813.03
799.188	17646.49
799.519	17626.6
799.85	17548.41
800.182	17606.49
800.513	17540.5
800.844	17455.08
801.175	17467.73
801.506	17479.48
801.837	17435.87
802.168	17284.23
802.499	17387.28
802.83	17201.53
803.161	17132.15
803.491	17175.54
803.822	17193.16
804.153	17035.88
804.483	16907.07
804.814	16942.77
805.145	16967.86
805.475	16954.07
805.805	16870.69
806.136	16842.21
806.466	16794.98
806.796	16689.9
807.126	16607.42
807.457	16625.95
807.787	16601.99
808.117	16509.34
808.447	16484.26
808.777	16496.91
809.107	16396.35
809.436	16392.96
809.766	16416.01
810.096	16403.13
810.426	16244.04
810.755	16265.73
811.085	16258.5
811.414	16239.74
811.744	16035
812.073	16092.85
812.403	16086.3
812.732	16026.87
813.061	16061.44
813.39	15956.81
813.719	15958.17
814.049	16045.85
814.378	15882.92
814.707	15819.87
815.036	15836.82
815.365	15792.75
815.693	15722.47
816.022	15739.64
816.351	15674.33
816.68	15601.12
817.008	15644.5
817.337	15437.5
817.665	15480.21
817.994	15487.45
818.322	15522.02
818.651	15371.74
818.979	15405.64
819.307	15463.49
819.636	15461.68
819.964	15265.76
820.292	15308.02
820.62	15310.73
820.948	15274.8
821.276	15305.3
821.604	15224.4
821.932	15319.99
822.259	15359.99
822.587	15246.1
822.915	15247
823.243	15268.47
823.57	15322.7
823.898	15230.28
824.225	15170.62
824.553	15180.79
824.88	15276.83
825.207	15248.81
825.535	15268.47
825.862	15292.87
826.189	15218.3
826.516	15261.46
826.843	15349.82
827.17	15312.99
827.497	15330.84
827.824	15257.17
828.151	15328.13
828.478	15214.23
828.805	15308.69
829.131	15184.85
829.458	15216.04
829.785	15128.81
830.111	15149.83
830.438	15314.34
830.764	15302.59
831.09	15239.54
831.417	15212.2
831.743	15238.64
832.069	15265.76
832.395	15164.97
832.722	15236.38
833.048	15247
833.374	15197.74
833.7	15098.76
834.026	15099.43
834.351	15161.13
834.677	15119.09
835.003	15180.79
835.329	15110.05
835.654	15074.58
835.98	15026.67
836.306	15119.77
836.631	14965.2
836.956	15014.46
837.282	15021.02
837.607	14911.19
837.932	14969.49
838.258	15006.1
838.583	14917.74
838.908	14788.26
839.233	14861.7
839.558	14887.69
839.883	14801.14
840.208	14755.26
840.533	14771.53
840.858	14760.23
841.182	14799.1
841.507	14713.45
841.832	14559.79
842.156	14629.84
842.481	14598.2
842.805	14530.18
843.13	14440.47
843.454	14470.52
843.778	14386.23
844.103	14466.68
844.427	14408.15
844.751	14464.65
845.075	14422.16
845.399	14348.72
845.723	14256.74
846.047	14352.79
846.371	14115.73
846.695	14145.56
847.019	13970.65
847.343	13981.04
847.666	13890.43
847.99	13802.97
848.313	13805
848.637	13736.53
848.96	13776.76
849.284	13713.03
849.607	13544.67
849.931	13639.81
850.254	13462.87
850.577	13430.1
850.9	13336.99
851.223	13318.24
851.546	13256.77
851.869	13073.5
852.192	13243.89
852.515	13097
852.838	13036.66
853.161	13005.25
853.483	12963.22
853.806	12923.22
854.129	12875.99
854.451	12900.17
854.774	12828.98
855.096	12752.83
855.419	12697.46
855.741	12668.99
856.063	12659.72
856.385	12632.83
856.708	12566.84
857.03	12437.81
857.352	12475.1
857.674	12484.14
857.996	12470.35
858.318	12323.01
858.64	12355.78
858.961	12346.96
859.283	12215.67
859.605	12178.15
859.926	12255.89
860.248	12146.74
860.57	12191.49
860.891	12148.1
861.212	12096.12
861.534	12017.71
861.855	12052.96
862.176	12092.28
862.498	11953.98
862.819	12018.84
863.14	11931.61
863.461	11904.94
863.782	11812.29
864.103	11862
864.424	11730.48
864.745	11839.86
865.065	11679.41
865.386	11746.53
865.707	11741.33
866.027	11765.74
866.348	11631.28
866.668	11691.61
866.989	11650.71
867.309	11573.88
867.63	11617.27
867.95	11590.6
868.27	11512.18
868.59	11481.22
868.91	11546.76
869.23	11511.51
869.55	11437.16
869.87	11484.39
870.19	11454.56
870.51	11555.35
870.83	11487.33
871.15	11460.66
871.469	11340.89
871.789	11462.92
872.109	11357.16
872.428	11311.28
872.748	11371.62
873.067	11310.15
873.386	11312.41
873.706	11321.45
874.025	11221.8
874.344	11265.86
874.663	11275.58
874.982	11268.12
875.301	11248.01
875.62	11135.24
875.939	11160.1
876.258	11136.37
876.577	11023.38
876.896	11103.61
877.214	11071.06
877.533	11048.69
877.852	11031.52
878.17	11072.65
878.489	11011.18
878.807	10994.68
879.125	10963.95
879.444	11061.35
879.762	10933.22
880.08	10918.3
880.398	10835.36
880.716	10879.43
881.034	10814.57
881.352	10868.58
881.67	10761.24
881.988	10840.79
882.306	10823.61
882.624	10776.61
882.941	10703.62
883.259	10703.62
883.577	10603.96
883.894	10534.58
884.212	10520.8
884.529	10570.29
884.846	10539.78
885.164	10493.68
885.481	10476.28
885.798	10486.45
886.115	10422.27
886.432	10464.98
886.75	10386.34
887.067	10390.86
887.383	10293.23
887.7	10292.78
888.017	10229.73
888.334	10261.37
888.651	10297.98
888.967	10220.47
889.284	10129.39
889.6	10086.68
889.917	10121.71
890.233	10106.34
890.55	10009.85
890.866	10042.39
891.182	10017.31
891.498	10059.34
891.815	9931.89
892.131	9917.65
892.447	9896.41
892.763	9868.38
893.079	9771.66
893.395	9777.09
893.71	9737.54
894.026	9722.63
894.342	9712
894.657	9645.57
894.973	9630.88
895.289	9682.4
895.604	9645.79
895.92	9585.68
896.235	9481.05
896.55	9549.97
896.865	9516.98
897.181	9390.21
897.496	9469.75
897.811	9373.71
898.126	9351.34
898.441	9317.21
898.756	9300.49
899.071	9211.9
899.386	9297.33
899.7	9137.33
900.015	9108.63
900.33	9131.23
900.644	9062.3
900.959	9073.15
901.273	9007.84
901.588	8948.86
901.902	8980.27
902.216	8919.03
902.531	8885.13
902.845	8829.32
903.159	8886.94
903.473	8773.27
903.787	8738.92
904.101	8640.85
904.415	8733.73
904.729	8662.09
905.042	8526.05
905.356	8636.1
905.67	8524.24
905.984	8518.59
906.297	8529.21
906.611	8406.28
906.924	8453.51
907.237	8423.68
907.551	8357.92
907.864	8336.9
908.177	8297.35
908.491	8281.53
908.804	8218.48
909.117	8177.81
909.43	8171.71
909.743	8108.88
910.056	8071.37
910.368	8034.08
910.681	7975.55
910.994	7964.48
911.307	7906.63
911.619	7827.76
911.932	7910.47
912.244	7828.66
912.557	7756.35
912.869	7766.07
913.181	7685.62
913.494	7713.41
913.806	7671.83
914.118	7677.48
914.43	7595
914.742	7588.22
915.054	7489.01
915.366	7553.42
915.678	7497.37
915.99	7511.16
916.302	7466.64
916.613	7374.66
916.925	7371.05
917.236	7339.41
917.548	7263.71
917.859	7280.66
918.171	7282.24
918.482	7223.93
918.794	7193.88
919.105	7155.46
919.416	7149.36
919.727	7141.45
920.038	7062.36
920.349	7031.4
920.66	6984.62
920.971	6982.13
921.282	6942.36
921.593	6956.37
921.903	6905.75
922.214	6820.33
922.525	6877.73
922.835	6827.56
923.146	6805.41
923.456	6785.75
923.767	6750.27
924.077	6710.28
924.387	6749.6
924.697	6649.49
925.008	6652.88
925.318	6545.53
925.628	6592.09
925.938	6573.78
926.248	6520.22
926.558	6508.47
926.867	6505.31
927.177	6452.43
927.487	6475.03
927.796	6392.09
928.106	6389.15
928.416	6341.47
928.725	6339.89
929.034	6282.04
929.344	6268.48
929.653	6278.87
929.962	6171.76
930.271	6140.35
930.581	6169.95
930.89	6165.66
931.199	6082.27
931.508	6104.42
931.817	6071.42
932.125	6060.8
932.434	6037.98
932.743	5956.17
933.051	5964.76
933.36	5906
933.669	5875.5
933.977	5896.96
934.286	5872.56
934.594	5797.76
934.902	5796.18
935.21	5740.81
935.519	5751.66
935.827	5726.57
936.135	5720.47
936.443	5653.35
936.751	5628.04
937.059	5631.89
937.367	5584.2
937.674	5616.52
937.982	5604.77
938.29	5534.49
938.597	5531.55
938.905	5477.77
939.213	5498.78
939.52	5454.94
939.827	5463.3
940.135	5387.15
940.442	5350.31
940.749	5338.33
941.056	5361.84
941.363	5272.35
941.67	5304.44
941.977	5273.48
942.284	5213.14
942.591	5204.1
942.898	5200.03
943.205	5183.54
943.511	5114.16
943.818	5139.47
944.125	5088.4
944.431	5088.62
944.738	5065.35
945.044	5031
945.35	5026.03
945.657	4982.19
945.963	4965.46
946.269	4954.39
946.575	4906.71
946.881	4920.27
947.187	4898.8
947.493	4863.09
947.799	4849.31
948.105	4825.13
948.41	4796.88
948.716	4778.57
949.022	4814.05
949.327	4789.2
949.633	4680.5
949.938	4704.45
950.244	4733.6
950.549	4672.59
950.854	4640.73
951.16	4647.96
951.465	4627.84
951.77	4593.5
952.075	4583.33
952.38	4550.11
952.685	4558.69
952.99	4511.01
953.294	4487.28
953.599	4521.63
953.904	4449.32
954.209	4443.67
954.513	4411.35
954.818	4392.82
955.122	4343.78
955.426	4346.95
955.731	4370.45
956.035	4333.61
956.339	4301.53
956.643	4312.15
956.948	4308.3
957.252	4246.16
957.556	4248.65
957.86	4212.26
958.163	4210.23
958.467	4137.24
958.771	4135.65
959.075	4159.16
959.378	4090.91
959.682	4094.07
959.985	4089.1
960.289	4080.51
960.592	4030.12
960.896	4020.63
961.199	4010.46
961.502	3998.26
961.805	3992.83
962.108	3960.97
962.411	3942.89
962.714	3923.46
963.017	3864.7
963.32	3913.74
963.623	3863.12
963.926	3876
964.228	3837.58
964.531	3834.87
964.833	3810.92
965.136	3753.97
965.438	3767.08
965.741	3751.03
966.043	3701.54
966.345	3746.06
966.648	3719.85
966.95	3676.46
967.252	3696.12
967.554	3667.19
967.856	3643.01
968.158	3626.06
968.46	3644.59
968.761	3600.3
969.063	3603.46
969.365	3580.87
969.666	3543.58
969.968	3527.99
970.269	3503.58
970.571	3497.03
970.872	3478.27
971.174	3430.36
971.475	3453.19
971.776	3452.73
972.077	3412.96
972.378	3428.1
972.679	3384.04
972.98	3416.8
973.281	3374.54
973.582	3359.86
973.883	3373.41
974.183	3274.89
974.484	3348.78
974.785	3267.88
975.085	3281.89
975.386	3311.04
975.686	3253.42
975.986	3244.38
976.287	3261.78
976.587	3214.1
976.887	3220.42
977.187	3172.06
977.487	3163.02
977.787	3146.3
978.087	3106.53
978.387	3088.22
978.687	3134.32
978.987	3088.68
979.286	3087.09
979.586	3063.37
979.885	3065.63
980.185	3017.72
980.484	3020.2
980.784	2987.89
981.083	2980.66
981.382	2948.11
981.682	2986.98
981.981	2949.92
982.28	2941.11
982.579	2951.05
982.878	2939.3
983.177	2884.16
983.475	2896.82
983.774	2904.73
984.073	2862.92
984.372	2845.29
984.67	2843.94
984.969	2825.18
985.267	2836.03
985.566	2817.95
985.864	2798.51
986.162	2754
986.461	2755.35
986.759	2759.64
987.057	2738.85
987.355	2714.22
987.653	2726.88
987.951	2711.74
988.249	2685.3
988.547	2677.61
988.844	2695.01
989.142	2668.8
989.44	2630.83
989.737	2640.55
990.035	2645.52
990.332	2607.78
990.63	2568.69
990.927	2555.58
991.224	2554.9
991.521	2545.87
991.819	2515.13
992.116	2570.72
992.413	2546.54
992.71	2476.71
993.006	2506.54
993.303	2477.84
993.6	2474
993.897	2446.21
994.193	2451.4
994.49	2475.13
994.787	2439.43
995.083	2410.5
995.379	2392.42
995.676	2424.74
995.972	2394.91
996.268	2347
996.565	2308.58
996.861	2393.33
997.157	2321.01
997.453	2328.7
997.749	2326.44
998.044	2300.9
998.34	2328.02
998.636	2274.01
998.932	2305.42
999.227	2251.86
999.523	2260.45
999.818	2259.09
1000.114	2241.47
1000.409	2193.78
1000.704	2218.19
1001	2211.41
1001.295	2165.54
1001.59	2163.95
1001.885	2134.35
1002.18	2138.64
1002.475	2127.8
1002.77	2136.84
1003.065	2114.01
1003.359	2104.29
1003.654	2099.78
1003.949	2056.39
1004.243	2069.72
1004.538	2064.52
1004.832	2049.16
1005.127	2029.04
1005.421	1990.17
1005.715	2014.35
1006.009	2002.83
1006.304	1994.02
1006.598	1983.85
1006.892	1951.98
1007.186	1930.29
1007.48	1927.58
1007.773	1913.11
1008.067	1896.16
1008.361	1866.11
1008.655	1896.84
1008.948	1888.48
1009.242	1881.48
1009.535	1818.65
1009.829	1877.63
1010.122	1822.95
1010.415	1793.34
1010.708	1817.75
1011.001	1828.82
1011.295	1791.76
1011.588	1822.49
1011.881	1772.1
1012.173	1774.59
1012.466	1766.9
1012.759	1712.44
1013.052	1747.24
1013.344	1738.2
1013.637	1709.05
1013.93	1750.41
1014.222	1704.53
1014.514	1690.75
1014.807	1690.07
1015.099	1664.76
1015.391	1669.73
1015.683	1666.57
1015.976	1642.61
1016.268	1629.05
1016.56	1612.1
1016.851	1612.78
1017.143	1595.83
1017.435	1603.29
1017.727	1597.64
1018.018	1586.79
1018.31	1563.29
1018.602	1568.49
1018.893	1530.07
1019.185	1529.62
1019.476	1528.04
1019.767	1518.1
1020.058	1472.9
1020.35	1485.33
1020.641	1455.72
1020.932	1470.19
1021.223	1461.15
1021.514	1456.85
1021.804	1440.81
1022.095	1418.89
1022.386	1424.31
1022.677	1421.15
1022.967	1407.36
1023.258	1413.92
1023.548	1390.19
1023.839	1369.4
1024.129	1375.27
1024.419	1361.04
1024.709	1350.87
1025	1350.87
1025.29	1335.05
1025.58	1330.08
1025.87	1323.75
1026.16	1323.75
1026.449	1276.75
1026.739	1312.45
1027.029	1264.77
1027.319	1243.53
1027.608	1288.95
1027.898	1256.41
1028.187	1246.24
1028.477	1224.77
1028.766	1227.71
1029.055	1208.5
1029.344	1241.49
1029.634	1180.25
1029.923	1177.31
1030.212	1194.26
1030.501	1176.86
1030.79	1157.43
1031.078	1168.5
1031.367	1148.16
1031.656	1156.07
1031.945	1156.75
1032.233	1135.96
1032.522	1130.08
1032.81	1116.07
1033.099	1119.69
1033.387	1105.45
1033.675	1121.72
1033.963	1078.56
1034.251	1097.77
1034.54	1107.03
1034.828	1076.3
1035.116	1048.05
1035.403	1059.35
1035.691	1042.4
1035.979	1042.85
1036.267	1034.27
1036.554	1048.05
1036.842	1043.98
1037.129	1018.45
1037.417	1004.44
1037.704	995.17
1037.992	1021.61
1038.279	1010.76
1038.566	988.17
1038.853	988.17
1039.14	988.17
