Data from hue_220_FLMS001491_00015.txt Node
Date: Tue Feb 07 16:38:36 GMT 2017
User: dcchb
Spectrometer: FLMS00149
Trigger mode: 0
Integration Time (sec): 2.000000E-2
Scans to average: 10
Electric dark correction enabled: true
Nonlinearity correction enabled: false
Boxcar width: 0
XAxis mode: Wavelengths
Number of Pixels in Spectrum: 2048
>>>>>Begin Spectral Data<<<<<
341.393	-12.95
341.776	-12.95
342.16	-12.95
342.543	-68.09
342.927	-75.55
343.31	-68.77
343.693	-76.9
344.077	-78.03
344.46	-53.4
344.843	-51.82
345.226	-30.58
345.61	-38.04
345.993	-22.22
346.376	-11.14
346.759	25.69
347.142	38.8
347.525	29.53
347.908	68.85
348.291	62.75
348.674	107.72
349.057	97.55
349.44	145.91
349.823	136.2
350.206	169.42
350.588	198.34
350.971	221.39
351.354	215.74
351.737	208.74
352.119	236.08
352.502	256.42
352.884	277.44
353.267	271.79
353.65	283.31
354.032	274.27
354.414	290.32
354.797	304.1
355.179	313.59
355.562	327.15
355.944	309.53
356.326	330.09
356.709	313.14
357.091	336.64
357.473	323.31
357.855	335.29
358.238	354.27
358.62	333.93
359.002	341.62
359.384	323.76
359.766	321.5
360.148	347.94
360.53	372.12
360.912	339.81
361.294	327.15
361.676	333.93
362.057	362.18
362.439	314.5
362.821	318.11
363.203	315.4
363.584	337.1
363.966	307.04
364.348	337.55
364.729	316.08
365.111	314.05
365.493	322.18
365.874	324.89
366.256	314.5
366.637	319.92
367.019	296.64
367.4	309.98
367.781	309.3
368.163	306.14
368.544	311.79
368.925	305.46
369.306	316.53
369.688	308.62
370.069	324.67
370.45	291.67
370.831	320.37
371.212	306.81
371.593	340.49
371.974	310.43
372.355	311.56
372.736	310.88
373.117	322.86
373.498	320.15
373.879	315.85
374.26	320.6
374.641	317.66
375.021	318.57
375.402	310.2
375.783	306.81
376.163	307.94
376.544	323.08
376.925	310.88
377.305	311.11
377.686	348.85
378.066	308.62
378.447	343.65
378.827	323.99
379.208	324.44
379.588	342.75
379.968	339.36
380.349	322.63
380.729	349.07
381.109	308.85
381.489	339.58
381.87	343.88
382.25	343.42
382.63	322.18
383.01	345.01
383.39	337.55
383.77	347.49
384.15	348.85
384.53	325.57
384.91	333.71
385.29	343.42
385.67	349.75
386.049	352.91
386.429	333.93
386.809	340.26
387.189	344.33
387.568	362.86
387.948	357.89
388.328	351.56
388.707	374.16
389.087	359.69
389.466	362.63
389.846	352.69
390.225	354.5
390.605	358.56
390.984	358.56
391.363	379.81
391.743	368.28
392.122	370.09
392.501	348.17
392.881	377.55
393.26	367.15
393.639	383.2
394.018	362.18
394.397	394.27
394.776	413.03
395.155	400.82
395.534	376.87
395.913	377.32
396.292	392.69
396.671	400.82
397.05	394.04
397.429	397.21
397.808	409.64
398.186	406.92
398.565	390.2
398.944	403.53
399.323	414.38
399.701	411.22
400.08	400.6
400.458	418.68
400.837	435.62
401.215	433.14
401.594	408.73
401.972	434.49
402.351	432.91
402.729	420.26
403.107	427.94
403.486	444.89
403.864	444.89
404.242	442.86
404.62	450.09
404.999	426.13
405.377	432.01
405.755	421.61
406.133	453.02
406.511	456.64
406.889	453.02
407.267	467.49
407.645	501.39
408.023	481.05
408.401	497.77
408.779	498.22
409.156	505.68
409.534	513.36
409.912	498.45
410.29	514.94
410.667	508.62
411.045	541.16
411.422	541.16
411.8	522.63
412.178	546.58
412.555	541.38
412.933	558.78
413.31	597.2
413.687	609.18
414.065	597.88
414.442	590.87
414.819	624.77
415.197	613.02
415.574	628.16
415.951	626.81
416.328	620.93
416.705	625.45
417.082	626.81
417.46	664.09
417.837	641.95
418.214	660.93
418.591	685.34
418.967	678.56
419.344	665
419.721	688.27
420.098	708.61
420.475	706.35
420.852	740.93
421.228	736.63
421.605	747.03
421.982	771.89
422.358	759.46
422.735	763.3
423.111	804.2
423.488	795.61
423.864	831.77
424.241	839
424.617	860.7
424.994	850.08
425.37	865.9
425.746	876.97
426.123	905.44
426.499	900.92
426.875	930.53
427.251	895.73
427.627	947.7
428.003	955.61
428.379	971.88
428.756	967.81
429.132	994.48
429.507	993.8
429.883	997.87
430.259	1045.1
430.635	1054.59
431.011	1032.22
431.387	1040.58
431.763	1081.03
432.138	1108.83
432.514	1097.3
432.89	1104.08
433.265	1157.19
433.641	1182.95
434.016	1184.98
434.392	1203.29
434.767	1220.01
435.143	1223.17
435.518	1243.51
435.894	1248.94
436.269	1294.58
436.644	1325.32
437.02	1355.6
437.395	1371.64
437.77	1384.53
438.145	1410.74
438.52	1425.88
438.895	1455.03
439.271	1453.45
439.646	1492.32
440.021	1508.82
440.395	1521.02
440.77	1541.36
441.145	1565.54
441.52	1607.12
441.895	1599.66
442.27	1611.19
442.645	1627.46
443.019	1638.76
443.394	1678.76
443.769	1698.42
444.143	1673.11
444.518	1707.91
444.892	1719.21
445.267	1721.01
445.641	1725.76
446.016	1735.03
446.39	1755.36
446.764	1770.73
447.139	1768.92
447.513	1799.88
447.887	1810.05
448.262	1822.25
448.636	1817.51
449.01	1888.47
449.384	1901.57
449.758	1886.66
450.132	1906.32
450.506	1916.72
450.88	1932.99
451.254	1929.6
451.628	1962.14
452.002	1977.28
452.376	2048.69
452.75	2023.15
453.123	2021.12
453.497	2051.4
453.871	2053.89
454.244	2103.38
454.618	2101.57
454.992	2122.13
455.365	2143.15
455.739	2209.81
456.112	2196.03
456.486	2204.62
456.859	2207.33
457.232	2276.25
457.606	2304.73
457.979	2314.9
458.352	2351.73
458.725	2420.43
459.099	2410.49
459.472	2414.1
459.845	2437.15
460.218	2455.46
460.591	2511.73
460.964	2497.04
461.337	2517.83
461.71	2577.94
462.083	2610.48
462.456	2619.07
462.829	2619.07
463.201	2660.2
463.574	2676.92
463.947	2704.27
464.32	2771.16
464.692	2787.65
465.065	2777.03
465.438	2815
465.81	2897.25
466.183	2890.7
466.555	2960.3
466.928	2968.89
467.3	2931.6
467.672	3000.98
468.045	3082.33
468.417	3121.43
468.789	3075.1
469.161	3109.23
469.534	3181.31
469.906	3253.86
470.278	3333.63
470.65	3289.79
471.022	3385.6
471.394	3415.43
471.766	3417.69
472.138	3491.59
472.51	3571.13
472.882	3550.57
473.253	3627.86
473.625	3665.37
473.997	3728.87
474.369	3719.83
474.74	3788.53
475.112	3876.21
475.484	3872.14
475.855	3960.96
476.227	3957.79
476.598	4084.79
476.97	4119.14
477.341	4144.68
477.713	4203.89
478.084	4240.04
478.455	4328.18
478.827	4389.42
479.198	4500.83
479.569	4485.24
479.94	4578.79
480.311	4598.9
480.682	4728.17
481.053	4762.74
481.424	4859.69
481.795	4902.63
482.166	4947.82
482.537	5003.41
482.908	5138.55
483.279	5139.68
483.65	5219.68
484.021	5274.59
484.391	5373.12
484.762	5375.38
485.133	5420.8
485.503	5474.36
485.874	5535.38
486.244	5618.54
486.615	5700.12
486.985	5741.02
487.356	5855.59
487.726	5894.69
488.097	5941.92
488.467	5981.69
488.837	6079.54
489.207	6160.67
489.578	6238.41
489.948	6268.69
490.318	6316.37
490.688	6389.37
491.058	6394.79
491.428	6491.74
491.798	6529.25
492.168	6673.65
492.538	6725.85
492.908	6707.78
493.278	6848.34
493.648	6841.78
494.017	6897.38
494.387	6964.04
494.757	6970.82
495.126	7016.69
495.496	7030.03
495.866	7027.77
496.235	7137.59
496.605	7135.56
496.974	7156.8
497.344	7255.78
497.713	7245.84
498.082	7362.67
498.452	7359.06
498.821	7343.47
499.19	7369.68
499.559	7479.96
499.928	7500.07
500.298	7490.81
500.667	7593.4
501.036	7526.96
501.405	7603.12
501.774	7580.07
502.143	7651.03
502.512	7701.42
502.88	7742.32
503.249	7723.12
503.618	7750.23
503.987	7742.55
504.356	7810.57
504.724	7775.77
505.093	7839.05
505.462	7855.77
505.83	7906.61
506.199	7940.29
506.567	8001.75
506.936	7969.89
507.304	7992.26
507.672	8062.32
508.041	8060.96
508.409	8075.2
508.777	8158.36
509.145	8137.79
509.514	8129.21
509.882	8152.71
510.25	8127.85
510.618	8184.8
510.986	8195.87
511.354	8214.63
511.722	8293.5
512.09	8357
512.458	8304.57
512.826	8266.15
513.193	8338.02
513.561	8313.38
513.929	8348.86
514.297	8400.16
514.664	8389.31
515.032	8407.39
515.4	8449.42
515.767	8487.84
516.135	8457.79
516.502	8382.31
516.869	8477.67
517.237	8513.6
517.604	8410.78
517.972	8459.59
518.339	8521.29
518.706	8482.87
519.073	8536.88
519.44	8463.44
519.808	8532.81
520.175	8514.28
520.542	8523.1
520.909	8548.63
521.276	8531.23
521.643	8612.81
522.009	8586.37
522.376	8662.98
522.743	8628.4
523.11	8627.73
523.477	8720.6
523.843	8730.1
524.21	8704.56
524.577	8735.74
524.943	8667.95
525.31	8664.79
525.676	8756.76
526.043	8820.94
526.409	8821.84
526.776	8857.32
527.142	8769.42
527.508	8805.57
527.874	8900.71
528.241	8785.24
528.607	8781.62
528.973	8832.69
529.339	8804.44
529.705	8871.33
530.071	8879.47
530.437	8859.58
530.803	8916.98
531.169	8857.78
531.535	8857.78
531.901	8782.98
532.267	8800.6
532.632	8856.87
532.998	8771.45
533.364	8824.56
533.73	8759.7
534.095	8800.83
534.461	8761.51
534.826	8766.48
535.192	8832.24
535.557	8799.7
535.923	8702.53
536.288	8713.37
536.653	8788.4
537.019	8657.55
537.384	8667.05
537.749	8658.91
538.114	8694.62
538.479	8603.54
538.845	8651.91
539.21	8655.07
539.575	8569.2
539.94	8558.57
540.305	8559.48
540.67	8610.78
541.034	8541.4
541.399	8528.07
541.764	8552.92
542.129	8498.69
542.494	8459.14
542.858	8470.67
543.223	8492.14
543.587	8443.32
543.952	8454.17
544.316	8368.07
544.681	8353.16
545.045	8376.88
545.41	8388.64
545.774	8347.51
546.138	8372.59
546.503	8349.31
546.867	8265.25
547.231	8268.86
547.595	8299.37
547.959	8311.8
548.324	8181.64
548.688	8168.3
549.052	8174.18
549.416	8198.81
549.779	8172.37
550.143	8106.16
550.507	8145.93
550.871	8095.08
551.235	8065.93
551.599	8064.35
551.962	8079.04
552.326	8086.27
552.689	8067.29
553.053	8028.64
553.417	8081.3
553.78	8093.5
554.143	8000.4
554.507	7968.08
554.87	8008.31
555.234	8035.2
555.597	8039.27
555.96	7947.29
556.323	7978.02
556.686	7938.7
557.05	7954.75
557.413	7927.86
557.776	7923.79
558.139	7900.96
558.502	7887.63
558.865	7908.87
559.228	7997.01
559.59	7945.71
559.953	7889.67
560.316	7965.37
560.679	7905.48
561.041	7896.44
561.404	8022.77
561.767	7968.08
562.129	7952.94
562.492	8013.05
562.854	7966.5
563.217	7925.14
563.579	7966.95
563.941	7952.71
564.304	7988.19
564.666	8000.85
565.028	7982.77
565.39	8029.55
565.753	8068.42
566.115	8008.76
566.477	8070.68
566.839	8083.78
567.201	8120.62
567.563	8051.92
567.925	8119.26
568.287	8106.83
568.648	8102.77
569.01	8131.69
569.372	8147.06
569.734	8084.46
570.095	8202.2
570.457	8181.64
570.819	8162.65
571.18	8201.52
571.542	8329.2
571.903	8229.54
572.265	8242.2
572.626	8265.02
572.987	8295.53
573.349	8336.66
573.71	8292.37
574.071	8378.24
574.432	8324.68
574.794	8337.34
575.155	8377.34
575.516	8382.31
575.877	8369.65
576.238	8419.82
576.599	8460.95
576.96	8436.54
577.32	8415.98
577.681	8521.06
578.042	8510.44
578.403	8574.39
578.763	8539.37
579.124	8539.14
579.485	8643.54
579.845	8615.3
580.206	8607.61
580.566	8612.13
580.927	8623.88
581.287	8627.95
581.648	8658.01
582.008	8641.51
582.368	8676.09
582.728	8704.56
583.089	8705.24
583.449	8639.48
583.809	8752.92
584.169	8735.07
584.529	8747.72
584.889	8764.9
585.249	8717.21
585.609	8774.84
585.969	8799.02
586.329	8762.41
586.688	8894.38
587.048	8820.71
587.408	8847.15
587.768	8838.57
588.127	8860.49
588.487	8814.39
588.846	8989.07
589.206	8870.66
589.565	8871.33
589.925	8924.44
590.284	8972.57
590.643	8998.11
591.003	8935.74
591.362	9091.67
591.721	8955.17
592.08	8949.75
592.44	8994.27
592.799	9031.33
593.158	9019.58
593.517	8994.04
593.876	9051.22
594.235	8992.24
594.593	9101.84
594.952	9130.08
595.311	9036.3
595.67	9024.55
596.029	9154.04
596.387	9117.66
596.746	9157.2
597.104	9096.41
597.463	9079.01
597.822	9150.42
598.18	9038.56
598.538	9118.56
598.897	9168.5
599.255	9166.02
599.613	9232.68
599.972	9140.48
600.33	9217.99
600.688	9157.43
601.046	9206.69
601.404	9235.62
601.762	9189.74
602.12	9264.54
602.478	9320.14
602.836	9301.15
603.194	9246.92
603.552	9246.69
603.91	9195.17
604.268	9244.43
604.625	9281.72
604.983	9273.58
605.341	9204.43
605.698	9221.38
606.056	9273.81
606.413	9285.79
606.771	9345.22
607.128	9310.87
607.485	9265.9
607.843	9304.54
608.2	9329.4
608.557	9366.69
608.914	9321.49
609.272	9366.01
609.629	9324.2
609.986	9442.39
610.343	9310.42
610.7	9455.27
611.057	9342.96
611.414	9457.08
611.771	9458.44
612.127	9424.99
612.484	9440.36
612.841	9509.51
613.198	9448.49
613.554	9489.62
613.911	9566.46
614.267	9473.13
614.624	9476.74
614.98	9559.45
615.337	9559.45
615.693	9553.58
616.05	9525.55
616.406	9638.55
616.762	9617.53
617.118	9512.45
617.475	9567.14
617.831	9527.59
618.187	9592.45
618.543	9559.45
618.899	9641.71
619.255	9604.87
619.611	9624.54
619.967	9664.99
620.323	9674.25
620.678	9567.59
621.034	9595.16
621.39	9596.06
621.746	9658.43
622.101	9721.48
622.457	9618.89
622.812	9588.15
623.168	9708.15
623.523	9612.33
623.879	9660.69
624.234	9628.15
624.589	9668.15
624.945	9626.79
625.3	9637.64
625.655	9605.1
626.01	9654.82
626.365	9685.55
626.72	9655.49
627.075	9592.22
627.43	9593.35
627.785	9557.87
628.14	9596.74
628.495	9630.41
628.85	9603.07
629.205	9560.36
629.559	9538.66
629.914	9617.08
630.269	9583.18
630.623	9567.36
630.978	9551.54
631.332	9598.55
631.687	9636.06
632.041	9550.41
632.396	9548.38
632.75	9530.53
633.104	9529.17
633.459	9455.27
633.813	9563.07
634.167	9489.85
634.521	9433.13
634.875	9435.84
635.229	9473.58
635.583	9402.62
635.937	9442.39
636.291	9409.85
636.645	9423.86
636.999	9414.15
637.352	9468.61
637.706	9335.28
638.06	9437.2
638.413	9327.82
638.767	9306.8
639.121	9424.77
639.474	9364.2
639.828	9336.41
640.181	9326.69
640.534	9269.52
640.888	9267.48
641.241	9243.53
641.594	9202.85
641.947	9305.45
642.301	9294.6
642.654	9231.1
643.007	9243.08
643.36	9296.18
643.713	9237.88
644.066	9285.11
644.419	9255.28
644.771	9172.34
645.124	9034.27
645.477	9025.23
645.83	8982.29
646.182	8995.63
646.535	8898.68
646.888	8940.94
647.24	8885.35
647.593	8856.42
647.945	8909.98
648.298	8837.44
648.65	8813.93
649.002	8822.75
649.355	8871.33
649.707	8872.92
650.059	8944.78
650.411	8996.98
650.763	9070.88
651.115	9093.7
651.467	9121.95
651.819	9072.23
652.171	9065.68
652.523	9055.96
652.875	9122.85
653.227	9121.05
653.578	9085.11
653.93	9090.09
654.282	9046.47
654.633	9066.13
654.985	9046.92
655.337	9057.54
655.688	9122.18
656.039	9113.36
656.391	9023.87
656.742	9101.16
657.094	9107.94
657.445	9118.56
657.796	9115.17
658.147	9054.15
658.498	9084.44
658.849	9097.32
659.2	9137.99
659.551	9056.41
659.902	9096.19
660.253	9181.16
660.604	9159.46
660.955	9103.64
661.306	9131.67
661.656	9078.79
662.007	9167.6
662.358	9106.58
662.708	9095.51
663.059	9071.1
663.409	9065.91
663.76	9121.5
664.11	9166.02
664.461	9158.78
664.811	9131.89
665.161	9101.84
665.511	9127.82
665.862	9174.83
666.212	9128.05
666.562	9170.08
666.912	9145.68
667.262	9096.64
667.612	9130.31
667.962	9193.59
668.312	9131.44
668.662	9168.28
669.011	9186.35
669.361	9095.96
669.711	9165.11
670.06	9157.88
670.41	9095.74
670.76	9095.51
671.109	9109.75
671.459	9111.33
671.808	9079.46
672.157	9119.92
672.507	9013.48
672.856	9061.39
673.205	9068.39
673.554	9079.01
673.904	9001.27
674.253	9063.42
674.602	9082.85
674.951	8938.68
675.3	8876.53
675.649	9018.45
675.998	8999.47
676.346	8982.29
676.695	9048.28
677.044	8940.03
677.393	8920.37
677.741	8994.5
678.09	8932.35
678.438	8966.02
678.787	8946.36
679.135	8963.54
679.484	8906.14
679.832	8924.67
680.181	8930.99
680.529	8879.7
680.877	8833.14
681.225	8825.91
681.573	8883.31
681.922	8807.38
682.27	8791.34
682.618	8758.34
682.966	8752.02
683.314	8759.25
683.661	8778.23
684.009	8717.89
684.357	8680.38
684.705	8639.02
685.053	8648.74
685.4	8718.8
685.748	8633.83
686.095	8628.4
686.443	8570.33
686.79	8517.22
687.138	8569.87
687.485	8524.9
687.832	8530.78
688.18	8525.58
688.527	8483.1
688.874	8427.5
689.221	8426.37
689.568	8463.89
689.915	8381.4
690.262	8410.33
690.609	8292.82
690.956	8251.46
691.303	8321.97
691.65	8278.81
691.997	8296.43
692.344	8194.97
692.69	8188.19
693.037	8174.63
693.383	8135.53
693.73	8108.64
694.077	8090.34
694.423	8018.7
694.769	8023
695.116	8000.85
695.462	8001.07
695.808	7908.42
696.155	7967.4
696.501	7850.34
696.847	7874.3
697.193	7776.22
697.539	7803.57
697.885	7779.84
698.231	7743.23
698.577	7773.06
698.923	7754.53
699.269	7663.46
699.614	7627.07
699.96	7596.11
700.306	7607.64
700.651	7598.15
700.997	7566.06
701.342	7487.19
701.688	7499.62
702.033	7443.58
702.379	7459.39
702.724	7399.51
703.069	7435.67
703.415	7299.85
703.76	7344.82
704.105	7309.34
704.45	7249.23
704.795	7307.76
705.14	7229.8
705.485	7242.22
705.83	7124.71
706.175	7177.37
706.52	7134.66
706.865	7159.29
707.209	7091.72
707.554	7051.72
707.899	7110.02
708.243	7056.02
708.588	6988.45
708.932	7012.4
709.277	6955.68
709.621	6981.44
709.966	6969.01
710.31	6976.24
710.654	6864.16
710.998	6919.52
711.342	6879.75
711.687	6860.09
712.031	6797.49
712.375	6831.39
712.719	6809.24
713.063	6785.51
713.407	6836.81
713.75	6773.08
714.094	6778.06
714.438	6731.28
714.782	6803.14
715.125	6728.57
715.469	6714.33
715.812	6665.97
716.156	6627.1
716.499	6657.38
716.843	6668.23
717.186	6651.73
717.53	6655.12
717.873	6686.08
718.216	6649.47
718.559	6652.18
718.902	6591.62
719.246	6622.13
719.589	6553.88
719.932	6583.26
720.275	6552.3
720.617	6557.27
720.96	6523.6
721.303	6574.67
721.646	6601.56
721.989	6536.03
722.331	6497.16
722.674	6505.3
723.016	6499.87
723.359	6480.44
723.701	6520.21
724.044	6430.95
724.386	6407.44
724.729	6458.29
725.071	6451.29
725.413	6399.99
725.755	6402.92
726.097	6401.79
726.439	6425.07
726.782	6358.86
727.124	6378.74
727.465	6374.23
727.807	6386.43
728.149	6351.63
728.491	6392.98
728.833	6408.57
729.175	6401.12
729.516	6318.63
729.858	6368.35
730.199	6441.34
730.541	6359.08
730.882	6359.54
731.224	6394.79
731.565	6374.23
731.906	6360.21
732.248	6421.46
732.589	6404.28
732.93	6386.88
733.271	6372.87
733.612	6365.64
733.953	6382.81
734.294	6376.48
734.635	6353.21
734.976	6348.01
735.317	6331.97
735.658	6383.04
735.999	6377.84
736.339	6405.18
736.68	6356.15
737.021	6410.83
737.361	6351.85
737.702	6404.73
738.042	6387.33
738.383	6442.47
738.723	6456.26
739.063	6409.93
739.404	6441.12
739.744	6464.84
740.084	6425.75
740.424	6451.74
740.764	6467.33
741.104	6515.24
741.444	6507.33
741.784	6469.36
742.124	6502.13
742.464	6511.4
742.804	6531.96
743.143	6555.69
743.483	6614.9
743.823	6525.41
744.162	6593.43
744.502	6594.11
744.841	6706.65
745.181	6779.19
745.52	6687.21
745.86	6743.48
746.199	6789.81
746.538	6833.65
746.877	6924.95
747.216	6910.93
747.556	6963.36
747.895	6902.57
748.234	6998.39
748.573	7064.6
748.911	7059.18
749.25	7127.65
749.589	7192.06
749.928	7222.79
750.267	7278.16
750.605	7359.96
750.944	7470.47
751.283	7448.1
751.621	7527.19
751.96	7654.42
752.298	7752.04
752.636	7801.76
752.975	7843.79
753.313	7973.28
753.651	8091.24
753.989	8164.69
754.327	8254.4
754.666	8297.11
755.004	8431.35
755.342	8621.85
755.679	8719.47
756.017	8797.89
756.355	8928.28
756.693	9055.96
757.031	9269.74
757.368	9320.36
757.706	9406.24
758.044	9594.93
758.381	9773.68
758.719	9892.1
759.056	10018.65
759.394	10152.43
759.731	10284.18
760.068	10450.95
760.405	10620.22
760.743	10702.7
761.08	10922.35
761.417	11099.3
761.754	11276.02
762.091	11393.75
762.428	11551.26
762.765	11677.36
763.102	11935.21
763.438	12139.27
763.775	12155.99
764.112	12362.32
764.449	12570.9
764.785	12688.64
765.122	12885.47
765.458	12971.11
765.795	13162.97
766.131	13357.32
766.467	13484.09
766.804	13604.54
767.14	13780.13
767.476	13925.21
767.812	13996.85
768.148	14272.55
768.485	14394.13
768.821	14429.83
769.157	14597.29
769.492	14750.73
769.828	14798.18
770.164	14931.51
770.5	15039.99
770.836	15112.75
771.171	15328.34
771.507	15393.42
771.842	15428.68
772.178	15583.47
772.513	15675.68
772.849	15688.78
773.184	15867.31
773.519	15960.64
773.855	15991.37
774.19	16100.75
774.525	16204.93
774.86	16272.95
775.195	16424.36
775.53	16392.04
775.865	16422.77
776.2	16489.89
776.535	16470.23
776.87	16618.7
777.205	16599.27
777.539	16615.31
777.874	16734.86
778.209	16680.17
778.543	16757.45
778.878	16799.49
779.212	16888.07
779.547	16847.62
779.881	16944.34
780.215	17046.49
780.55	17104.11
780.884	16990.44
781.218	17043.78
781.552	17102.98
781.886	17112.47
782.22	17063.44
782.554	16960.84
782.888	17096.43
783.222	17093.49
783.556	17023.66
783.889	17111.8
784.223	16988.64
784.557	17002.87
784.89	17123.09
785.224	17039.03
785.557	17048.07
785.891	17001.29
786.224	17090.55
786.558	17153.38
786.891	17010.78
787.224	16994.96
787.557	16846.72
787.891	16962.42
788.224	16956.77
788.557	16968.52
788.89	16957.45
789.223	17061.18
789.556	16851.24
789.888	16856.21
790.221	16890.11
790.554	16821.41
790.887	16854.63
791.219	16747.96
791.552	16726.72
791.884	16791.35
792.217	16725.37
792.549	16679.04
792.882	16685.14
793.214	16586.84
793.546	16567.63
793.879	16507.52
794.211	16508.87
794.543	16555.65
794.875	16572.83
795.207	16591.58
795.539	16482.43
795.871	16422.77
796.203	16355.21
796.535	16263
796.867	16315.66
797.198	16287.41
797.53	16167.87
797.862	16106.17
798.193	16275.43
798.525	16155.66
798.856	16197.7
799.188	15978.27
799.519	15882.9
799.85	15823.92
800.182	15983.24
800.513	15991.6
800.844	15855.56
801.175	15877.48
801.506	15884.48
801.837	15738.05
802.168	15734.43
802.499	15781.66
802.83	15606.3
803.161	15692.62
803.491	15705.28
803.822	15667.09
804.153	15504.61
804.483	15503.25
804.814	15419.86
805.145	15459.64
805.475	15438.39
805.805	15333.76
806.136	15348.9
806.466	15410.82
806.796	15325.4
807.126	15254.67
807.457	15148.91
807.787	15120.21
808.117	15167.44
808.447	15136.71
808.777	15254.67
809.107	15062.13
809.436	15044.73
809.766	15068.69
810.096	14971.51
810.426	14912.31
810.755	14933.32
811.085	14985.52
811.414	14874.57
811.744	14803.61
812.073	14845.64
812.403	14811.97
812.732	14704.85
813.061	14691.75
813.39	14643.16
813.719	14568.59
814.049	14727.45
814.378	14598.64
814.707	14527.68
815.036	14569.04
815.365	14517.97
815.693	14388.7
816.022	14416.05
816.351	14425.76
816.68	14308.48
817.008	14421.92
817.337	14257.86
817.665	14206.11
817.994	14193.68
818.322	14220.12
818.651	14211.31
818.979	14144.19
819.307	14224.41
819.636	14115.49
819.964	14058.09
820.292	14140.35
820.62	14152.1
820.948	14126.34
821.276	14150.52
821.604	14140.35
821.932	14095.6
822.259	14160.24
822.587	14094.7
822.915	13950.07
823.243	14222.61
823.57	14109.84
823.898	14121.82
824.225	14000.01
824.553	14039.11
824.88	14016.06
825.207	14148.71
825.535	14029.17
825.862	14110.52
826.189	14050.86
826.516	14181.48
826.843	14169.95
827.17	14145.77
827.497	14168.14
827.824	14195.71
828.151	14195.26
828.478	14219.44
828.805	14264.87
829.131	14056.96
829.458	14141.7
829.785	14009.05
830.111	14089.05
830.438	14133.34
830.764	14178.77
831.09	14163.17
831.417	14114.13
831.743	14159.78
832.069	14051.54
832.395	14046.11
832.722	14097.64
833.048	14110.29
833.374	14026.91
833.7	14010.41
834.026	14027.81
834.351	14108.03
834.677	13985.78
835.003	14008.6
835.329	14006.11
835.654	13988.49
835.98	13997.3
836.306	13993.23
836.631	13948.94
836.956	13957.98
837.282	13982.84
837.607	13847.02
837.932	13932.9
838.258	13848.6
838.583	13818.1
838.908	13728.83
839.233	13806.57
839.558	13752.11
839.883	13714.15
840.208	13573.36
840.533	13574.94
840.858	13721.15
841.182	13668.5
841.507	13593.02
841.832	13526.13
842.156	13556.86
842.481	13584.88
842.805	13520.03
843.13	13528.16
843.454	13438.9
843.778	13464.21
844.103	13306.7
844.427	13358.67
844.751	13335.4
845.075	13317.32
845.399	13234.84
845.723	13198.68
846.047	13233.71
846.371	13097.44
846.695	13159.81
847.019	12956.2
847.343	12982.19
847.666	12913.04
847.99	12907.39
848.313	12916.43
848.637	12772.93
848.96	12704.91
849.284	12667.17
849.607	12686.6
849.931	12628.07
850.254	12541.75
850.577	12447.96
850.9	12361.41
851.223	12363.9
851.546	12278.25
851.869	12231.02
852.192	12282.32
852.515	12166.39
852.838	12163
853.161	12252.71
853.483	12062.89
853.806	12000.52
854.129	11989.67
854.451	11957.58
854.774	11880.75
855.096	11803.46
855.419	11834.87
855.741	11784.03
856.063	11705.38
856.385	11749.45
856.708	11671.49
857.03	11621.32
857.352	11605.27
857.674	11586.07
857.996	11547.2
858.318	11471.04
858.64	11495.9
858.961	11400.99
859.283	11330.03
859.605	11316.92
859.926	11365.28
860.248	11331.83
860.57	11255.23
860.891	11331.83
861.212	11200.09
861.534	11241.67
861.855	11169.81
862.176	11136.81
862.498	11133.87
862.819	11135
863.14	11153.53
863.461	11075.8
863.782	10961
864.103	11153.08
864.424	10984.5
864.745	10969.13
865.065	10907.67
865.386	10899.98
865.707	10895.24
866.027	10866.76
866.348	10777.95
866.668	10948.34
866.989	10805.97
867.309	10787.44
867.63	10762.36
867.95	10843.49
868.27	10668.8
868.59	10730.04
868.91	10709.48
869.23	10717.39
869.55	10692.3
869.87	10713.77
870.19	10676.26
870.51	10695.47
870.83	10698.41
871.15	10569.14
871.469	10562.36
871.789	10632.87
872.109	10553.32
872.428	10526.66
872.748	10494.79
873.067	10534.57
873.386	10459.32
873.706	10505.64
874.025	10422.48
874.344	10401.01
874.663	10445.98
874.982	10410.05
875.301	10417.06
875.62	10375.02
875.939	10343.84
876.258	10355.14
876.577	10289.6
876.896	10287.34
877.214	10243.73
877.533	10241.02
877.852	10275.37
878.17	10195.82
878.489	10182.03
878.807	10241.92
879.125	10217.06
879.444	10167.8
879.762	10200.11
880.08	10234.91
880.398	10126.22
880.716	10071.98
881.034	10058.42
881.352	10036.28
881.67	10062.04
881.988	10031.08
882.306	10015.26
882.624	9962.15
882.941	10001.7
883.259	9912.89
883.577	9919.67
883.894	9887.13
884.212	9871.53
884.529	9845.77
884.846	9822.27
885.164	9798.09
885.481	9775.72
885.798	9802.16
886.115	9638.55
886.432	9731.42
886.75	9666.34
887.067	9695.72
887.383	9640.81
887.7	9600.35
888.017	9602.61
888.334	9620.02
888.651	9553.12
888.967	9598.1
889.284	9439.46
889.6	9492.56
889.917	9410.76
890.233	9460.7
890.55	9350.19
890.866	9390.64
891.182	9360.36
891.498	9313.81
891.815	9257.77
892.131	9255.96
892.447	9298.67
892.763	9261.38
893.079	9209.18
893.395	9082.63
893.71	9142.97
894.026	9076.98
894.342	9046.7
894.657	8998.11
894.973	9079.92
895.289	9010.31
895.604	8990.65
895.92	8916.31
896.235	8832.01
896.55	8914.05
896.865	8817.55
897.181	8799.25
897.496	8793.37
897.811	8674.73
898.126	8756.76
898.441	8666.59
898.756	8635.18
899.071	8575.52
899.386	8611
899.7	8569.65
900.015	8515.64
900.33	8384.79
900.644	8473.83
900.959	8409.88
901.273	8394.06
901.588	8434.74
901.902	8305.93
902.216	8297.79
902.531	8284.23
902.845	8246.94
903.159	8203.78
903.473	8114.29
903.787	8155.87
904.101	8037.46
904.415	8072.03
904.729	8062.09
905.042	8000.17
905.356	7988.19
905.67	7940.74
905.984	7896.22
906.297	7893.06
906.611	7856.45
906.924	7844.92
907.237	7815.09
907.551	7755.66
907.864	7818.03
908.177	7710.69
908.491	7702.1
908.804	7670.69
909.117	7590.69
909.43	7546.4
909.743	7507.3
910.056	7500.3
910.368	7491.71
910.681	7444.48
910.994	7371.49
911.307	7424.14
911.619	7330.13
911.932	7390.24
912.244	7250.13
912.557	7320.64
912.869	7160.87
913.181	7205.39
913.494	7181.44
913.806	7169.68
914.118	7162.9
914.43	7034.77
914.742	7096.92
915.054	7011.72
915.366	7039.52
915.678	7005.39
915.99	6939.63
916.302	6913.87
916.613	6871.39
916.925	6858.96
917.236	6831.84
917.548	6799.75
917.859	6832.29
918.171	6746.64
918.482	6689.92
918.794	6707.32
919.105	6682.24
919.416	6642.47
919.727	6631.39
920.038	6600.89
920.349	6562.02
920.66	6588.46
920.971	6599.53
921.282	6478.18
921.593	6465.3
921.903	6381.46
922.214	6460.1
922.525	6396.82
922.835	6366.54
923.146	6312.53
923.456	6315.47
923.767	6250.39
924.077	6219.65
924.387	6226.43
924.697	6196.38
925.008	6201.12
925.318	6188.69
925.628	6147.79
925.938	6134.23
926.248	6011.07
926.558	6080.22
926.867	6052.65
927.177	6015.14
927.487	5986.66
927.796	5947.34
928.106	5902.37
928.416	5894.69
928.725	5882.94
929.034	5842.49
929.344	5835.48
929.653	5831.19
929.962	5758.65
930.271	5737.63
930.581	5718.2
930.89	5678.2
931.199	5652.21
931.508	5665.54
931.817	5668.03
932.125	5680.91
932.434	5651.08
932.743	5545.55
933.051	5540.12
933.36	5532.67
933.669	5480.69
933.977	5442.95
934.286	5470.97
934.594	5437.07
934.902	5390.3
935.21	5359.56
935.519	5353.69
935.827	5384.87
936.135	5335.83
936.443	5296.29
936.751	5298.1
937.059	5245.67
937.367	5240.02
937.674	5267.59
937.982	5230.98
938.29	5228.94
938.597	5185.56
938.905	5087.03
939.213	5150.53
939.52	5089.06
939.827	5087.93
940.135	5053.81
940.442	5050.42
940.749	5074.15
941.056	5007.48
941.363	4970.42
941.67	4965
941.977	4938.33
942.284	4945.11
942.591	4881.61
942.898	4875.06
943.205	4872.12
943.511	4844.55
943.818	4841.16
944.125	4778.33
944.431	4797.77
944.738	4772.01
945.044	4761.16
945.35	4682.52
945.657	4618.34
945.963	4645.91
946.269	4649.52
946.575	4679.58
946.881	4582.86
947.187	4580.37
947.493	4532.01
947.799	4527.49
948.105	4524.56
948.41	4491.79
948.716	4461.73
949.022	4460.38
949.327	4488.17
949.633	4433.26
949.938	4404.11
950.244	4436.87
950.549	4372.24
950.854	4348.06
951.16	4351.68
951.465	4317.1
951.77	4280.49
952.075	4279.14
952.38	4252.02
952.685	4265.58
952.99	4235.75
953.294	4169.99
953.599	4222.87
953.904	4148.07
954.209	4161.85
954.513	4079.6
954.818	4141.52
955.122	4109.2
955.426	4102.19
955.731	4093.38
956.035	4028.75
956.339	4028.75
956.643	4031.69
956.948	3969.32
957.252	3993.04
957.556	3987.62
957.86	3974.74
958.163	3922.09
958.467	3910.56
958.771	3938.13
959.075	3873.27
959.378	3834.4
959.682	3875.99
959.985	3827.4
960.289	3801.64
960.592	3814.52
960.896	3795.99
961.199	3749.44
961.502	3745.59
961.805	3742.43
962.108	3692.49
962.411	3674.18
962.714	3676.67
963.017	3655.2
963.32	3701.75
963.623	3627.18
963.926	3645.94
964.228	3586.95
964.531	3596.22
964.833	3620.17
965.136	3595.99
965.438	3545.15
965.741	3560.06
966.043	3523.23
966.345	3498.82
966.648	3487.07
966.95	3472.61
967.252	3461.08
967.554	3436.45
967.856	3452.27
968.158	3438.26
968.46	3400.29
968.761	3377.47
969.063	3416.79
969.365	3383.57
969.666	3366.39
969.968	3296.11
970.269	3334.3
970.571	3305.38
970.872	3305.15
971.174	3219.05
971.475	3255.89
971.776	3273.06
972.077	3218.38
972.378	3223.8
972.679	3209.79
972.98	3178.83
973.281	3146.74
973.582	3156
973.883	3167.08
974.183	3146.06
974.484	3141.99
974.785	3089.79
975.085	3123.01
975.386	3113.75
975.686	3058.15
975.986	3042.11
976.287	3043.69
976.587	3009.57
976.887	2990.13
977.187	2979.74
977.487	2985.16
977.787	2967.99
978.087	2964.6
978.387	2968.89
978.687	2941.09
978.987	2933.19
979.286	2902.9
979.586	2882.34
979.885	2888.22
980.185	2885.28
980.484	2826.07
980.784	2816.35
981.083	2825.17
981.382	2831.49
981.682	2804.38
981.981	2770.25
982.28	2757.37
982.579	2779.97
982.878	2728.9
983.177	2743.59
983.475	2721.67
983.774	2730.93
984.073	2728.9
984.372	2686.86
984.67	2668.11
984.969	2664.27
985.267	2668.56
985.566	2647.77
985.864	2647.54
986.162	2577.94
986.461	2581.33
986.759	2618.62
987.057	2573.2
987.355	2557.15
987.653	2540.88
987.951	2535.91
988.249	2528
988.547	2513.99
988.844	2539.07
989.142	2529.58
989.44	2458.85
989.737	2465.18
990.035	2438.28
990.332	2450.71
990.63	2433.09
990.927	2450.49
991.224	2415.23
991.521	2426.53
991.819	2380.21
992.116	2388.12
992.413	2379.53
992.71	2367.55
993.006	2359.64
993.303	2334.78
993.6	2339.98
993.897	2349.92
994.193	2304.05
994.49	2278.97
994.787	2288
995.083	2294.33
995.379	2263.37
995.676	2235.12
995.972	2236.25
996.268	2209.81
996.565	2211.85
996.861	2196.93
997.157	2213.2
997.453	2179.31
997.749	2158.29
998.044	2179.08
998.34	2146.99
998.636	2164.84
998.932	2149.48
999.227	2157.61
999.523	2128.24
999.818	2077.61
1000.114	2097.05
1000.409	2071.97
1000.704	2065.41
1001	2056.82
1001.295	2062.7
1001.59	2038.07
1001.885	2021.35
1002.18	1994.45
1002.475	2021.8
1002.77	1958.52
1003.065	1968.01
1003.359	1956.94
1003.654	1985.19
1003.949	1993.1
1004.243	1933.66
1004.538	1925.53
1004.832	1935.47
1005.127	1910.61
1005.421	1881.69
1005.715	1907.9
1006.009	1886.89
1006.304	1861.58
1006.598	1867
1006.892	1841.91
1007.186	1805.53
1007.48	1821.8
1007.773	1826.55
1008.067	1799.43
1008.361	1794.91
1008.655	1764.85
1008.948	1770.28
1009.242	1754.01
1009.535	1743.84
1009.829	1770.96
1010.122	1747.23
1010.415	1736.61
1010.708	1715.36
1011.001	1713.33
1011.295	1706.33
1011.588	1698.87
1011.881	1694.35
1012.173	1656.38
1012.466	1666.55
1012.759	1631.3
1013.052	1645.76
1013.344	1613.22
1013.637	1621.58
1013.93	1598.08
1014.222	1572.77
1014.514	1585.2
1014.807	1593.79
1015.099	1545.43
1015.391	1574.8
1015.683	1551.75
1015.976	1516.5
1016.268	1550.4
1016.56	1538.87
1016.851	1511.75
1017.143	1507.69
1017.435	1503.62
1017.727	1493.22
1018.018	1482.6
1018.31	1499.55
1018.602	1446.9
1018.893	1436.5
1019.185	1446.45
1019.476	1410.74
1019.767	1440.8
1020.058	1424.75
1020.35	1422.49
1020.641	1399.44
1020.932	1379.55
1021.223	1391.31
1021.514	1383.62
1021.804	1358.09
1022.095	1349.05
1022.386	1336.39
1022.677	1325.54
1022.967	1317.63
1023.258	1320.35
1023.548	1326.22
1023.839	1307.01
1024.129	1298.88
1024.419	1293.68
1024.709	1267.69
1025	1258.43
1025.29	1255.94
1025.58	1266.56
1025.87	1269.5
1026.16	1234.93
1026.449	1236.96
1026.739	1228.82
1027.029	1217.75
1027.319	1200.8
1027.608	1214.36
1027.898	1188.15
1028.187	1189.28
1028.477	1177.53
1028.766	1191.54
1029.055	1150.63
1029.344	1158.99
1029.634	1135.04
1029.923	1126.91
1030.212	1102.5
1030.501	1133.23
1030.79	1126.68
1031.078	1100.47
1031.367	1103.4
1031.656	1096.62
1031.945	1078.09
1032.233	1101.6
1032.522	1087.13
1032.81	1069.96
1033.099	1071.54
1033.387	1052.11
1033.675	1067.47
1033.963	1024.08
1034.251	1052.33
1034.54	1039.68
1034.828	1043.29
1035.116	1023.41
1035.403	1006.68
1035.691	1002.84
1035.979	1003.29
1036.267	980.47
1036.554	978.89
1036.842	967.59
1037.129	976.4
1037.417	966.46
1037.704	968.94
1037.992	961.94
1038.279	939.34
1038.566	921.04
1038.853	921.04
1039.14	921.04
