Data from hue_100_FLMS001491_00001.txt Node
Date: Tue Feb 07 17:02:33 GMT 2017
User: dcchb
Spectrometer: FLMS00149
Trigger mode: 0
Integration Time (sec): 2.000000E-2
Scans to average: 10
Electric dark correction enabled: true
Nonlinearity correction enabled: false
Boxcar width: 0
XAxis mode: Wavelengths
Number of Pixels in Spectrum: 2048
>>>>>Begin Spectral Data<<<<<
341.393	-41
341.776	-41
342.16	-41
342.543	-70.83
342.927	-66.76
343.31	-81.23
343.693	-69.25
344.077	-71.28
344.46	-78.29
344.843	-67.44
345.226	-24.28
345.61	-11.62
345.993	4.42
346.376	1.03
346.759	0.13
347.142	39
347.525	21.82
347.908	55.94
348.291	67.92
348.674	100.24
349.057	112.89
349.44	96.17
349.823	125.77
350.206	169.61
350.588	183.63
350.971	216.84
351.354	240.8
351.737	211.87
352.119	243.28
352.502	239.44
352.884	255.94
353.267	284.64
353.65	287.8
354.032	293.45
354.414	300.01
354.797	322.15
355.179	325.32
355.562	316.5
355.944	343.39
356.326	335.03
356.709	333.9
357.091	335.94
357.473	343.39
357.855	330.06
358.238	335.94
358.62	356.73
359.002	339.55
359.384	358.99
359.766	348.59
360.148	339.55
360.53	328.71
360.912	337.07
361.294	337.75
361.676	335.49
362.057	319.44
362.439	333
362.821	348.37
363.203	318.54
363.584	328.25
363.966	309.27
364.348	306.79
364.729	330.97
365.111	290.29
365.493	316.95
365.874	321.02
366.256	328.71
366.637	320.8
367.019	314.24
367.4	312.66
367.781	305.88
368.163	323.06
368.544	301.36
368.925	336.62
369.306	325.54
369.688	324.86
370.069	310.4
370.45	294.13
370.831	318.31
371.212	322.83
371.593	304.07
371.974	331.87
372.355	325.99
372.736	314.47
373.117	311.31
373.498	330.74
373.879	305.2
374.26	320.8
374.641	319.44
375.021	316.5
375.402	317.18
375.783	315.6
376.163	340.68
376.544	337.75
376.925	333.45
377.305	343.85
377.686	329.61
378.066	347.46
378.447	322.6
378.827	329.61
379.208	356.73
379.588	350.85
379.968	356.5
380.349	337.97
380.729	367.35
381.109	377.74
381.489	344.07
381.87	350.85
382.25	339.55
382.63	333
383.01	351.08
383.39	349.27
383.77	357.86
384.15	315.15
384.53	353.56
384.91	364.41
385.29	349.5
385.67	355.6
386.049	360.12
386.429	351.98
386.809	351.98
387.189	359.67
387.568	357.18
387.948	368.48
388.328	365.77
388.707	356.73
389.087	358.99
389.466	381.36
389.846	377.07
390.225	387.01
390.605	396.95
390.984	362.6
391.363	385.65
391.743	374.81
392.122	368.25
392.501	373
392.881	408.7
393.26	401.47
393.639	362.83
394.018	390.63
394.397	384.75
394.776	396.05
395.155	399.89
395.534	384.52
395.913	378.87
396.292	401.92
396.671	423.62
397.05	379.1
397.429	394.92
397.808	397.86
398.186	398.99
398.565	412.09
398.944	392.89
399.323	409.38
399.701	411.64
400.08	422.04
400.458	408.7
400.837	435.14
401.215	408.48
401.594	417.29
401.972	419.1
402.351	419.33
402.729	423.84
403.107	437.63
403.486	435.82
403.864	430.4
404.242	447.8
404.62	453.45
404.999	457.06
405.377	435.82
405.755	453
406.133	468.59
406.511	445.09
406.889	449.15
407.267	452.32
407.645	466.33
408.023	461.36
408.401	478.31
408.779	465.2
409.156	459.1
409.534	476.72
409.912	470.85
410.29	496.84
410.667	507.91
411.045	495.93
411.422	501.13
411.8	508.59
412.178	501.81
412.555	523.5
412.933	531.86
413.31	506.55
413.687	532.54
414.065	518.31
414.442	530.28
414.819	543.39
415.197	532.09
415.574	545.42
415.951	554.91
416.328	558.08
416.705	560.11
417.082	551.53
417.46	551.75
417.837	569.6
418.214	567.34
418.591	564.63
418.967	575.71
419.344	579.09
419.721	593.56
420.098	564.18
420.475	574.35
420.852	600.34
421.228	612.54
421.605	605.31
421.982	617.74
422.358	609.6
422.735	602.6
423.111	609.6
423.488	590.39
423.864	631.07
424.241	642.37
424.617	629.26
424.994	650.05
425.37	645.99
425.746	635.82
426.123	639.88
426.499	653.44
426.875	656.83
427.251	640.56
427.627	660.67
428.003	672.88
428.379	682.14
428.756	678.98
429.132	691.41
429.507	710.84
429.883	722.82
430.259	726.44
430.635	733.67
431.011	759.2
431.387	732.54
431.763	734.12
432.138	742.48
432.514	749.94
432.89	746.55
433.265	751.97
433.641	794.91
434.016	776.15
434.392	782.93
434.767	794.23
435.143	789.26
435.518	819.09
435.894	802.14
436.269	836.72
436.644	823.38
437.02	852.53
437.395	857.73
437.77	864.74
438.145	871.74
438.52	864.29
438.895	888.24
439.271	879.2
439.646	910.39
440.021	892.53
440.395	921.01
440.77	922.59
441.145	905.87
441.52	921.01
441.895	923.49
442.27	942.48
442.645	932.98
443.019	956.49
443.394	939.09
443.769	954.45
444.143	962.36
444.518	969.37
444.892	961.01
445.267	991.74
445.641	1002.13
446.016	995.36
446.39	986.32
446.764	986.32
447.139	1042.59
447.513	1032.87
447.887	1007.78
448.262	1028.35
448.636	1036.48
449.01	1071.06
449.384	1051.85
449.758	1057.05
450.132	1089.14
450.506	1083.71
450.88	1108.35
451.254	1108.12
451.628	1090.72
452.002	1110.61
452.376	1148.35
452.75	1101.34
453.123	1153.54
453.497	1192.64
453.871	1143.15
454.244	1183.6
454.618	1198.06
454.992	1208.46
455.365	1216.82
455.739	1260.43
456.112	1259.76
456.486	1259.76
456.859	1278.06
457.232	1305.18
457.606	1297.04
457.979	1322.13
458.352	1345.85
458.725	1372.29
459.099	1380.43
459.472	1390.6
459.845	1411.62
460.218	1421.33
460.591	1425.85
460.964	1436.02
461.337	1452.52
461.71	1494.55
462.083	1516.92
462.456	1512.86
462.829	1542.46
463.201	1559.41
463.574	1583.36
463.947	1593.08
464.32	1664.26
464.692	1642.8
465.065	1641.89
465.438	1684.6
465.81	1716.24
466.183	1744.71
466.555	1756.24
466.928	1779.52
467.3	1779.74
467.672	1844.82
468.045	1905.39
468.417	1877.59
468.789	1894.54
469.161	1959.17
469.534	1975.89
469.906	2040.07
470.278	2049.11
470.65	2089.56
471.022	2151.71
471.394	2204.59
471.766	2182.44
472.138	2237.58
472.51	2291.37
472.882	2334.98
473.253	2385.38
473.625	2408.88
473.997	2496.78
474.369	2527.52
474.74	2541.98
475.112	2589.66
475.484	2685.25
475.855	2727.96
476.227	2814.06
476.598	2903.55
476.97	2967.05
477.341	3052.93
477.713	3083.89
478.084	3157.78
478.455	3266.71
478.827	3321.17
479.198	3404.11
479.569	3466.93
479.94	3576.98
480.311	3627.83
480.682	3790.54
481.053	3878.9
481.424	3975.39
481.795	4063.98
482.166	4205.44
482.537	4258.55
482.908	4382.84
483.279	4474.13
483.65	4608.14
484.021	4743.51
484.391	4811.75
484.762	4955.7
485.133	5057.85
485.503	5129.03
485.874	5326.77
486.244	5422.13
486.615	5524.73
486.985	5710.49
487.356	5840.2
487.726	5958.61
488.097	6066.63
488.467	6215.78
488.837	6399.73
489.207	6512.72
489.578	6737.35
489.948	6798.37
490.318	7020.06
490.688	7054.86
491.058	7275.42
491.428	7377.11
491.798	7591.79
492.168	7761.5
492.538	7932.35
492.908	8032.68
493.278	8253.02
493.648	8305.22
494.017	8491.43
494.387	8649.62
494.757	8812.55
495.126	8939.33
495.496	9010.74
495.866	9190.17
496.235	9322.14
496.605	9390.39
496.974	9614.11
497.344	9684.17
497.713	9798.06
498.082	9983.82
498.452	10109.69
498.821	10186.07
499.19	10311.72
499.559	10470.13
499.928	10499.06
500.298	10680.98
500.667	10911.93
501.036	10870.8
501.405	11047.52
501.774	11081.19
502.143	11187.86
502.512	11325.48
502.88	11473.72
503.249	11534.06
503.618	11654.74
503.987	11763.89
504.356	11766.37
504.724	11864.9
505.093	11862.19
505.462	12078.23
505.83	12204.78
506.199	12317.77
506.567	12488.84
506.936	12472.12
507.304	12648.38
507.672	12684.99
508.041	12805.21
508.409	12922.5
508.777	13038.43
509.145	13080.46
509.514	13068.48
509.882	13229.16
510.25	13244.52
510.618	13365.43
510.986	13356.16
511.354	13486.55
511.722	13592.09
512.09	13672.31
512.458	13722.03
512.826	13766.77
513.193	13921.57
513.561	13855.81
513.929	13964.28
514.297	14150.94
514.664	14200.43
515.032	14252.41
515.4	14327.89
515.767	14395
516.135	14401.78
516.502	14279.53
516.869	14533.3
517.237	14566.75
517.604	14541.89
517.972	14643.13
518.339	14699.18
518.706	14614.66
519.073	14679.29
519.44	14806.97
519.808	14977.81
520.175	14906.4
520.542	15081.54
520.909	15219.16
521.276	15026.17
521.643	15174.19
522.009	15220.29
522.376	15284.7
522.743	15355.2
523.11	15409.44
523.477	15497.12
523.843	15477.23
524.21	15597.46
524.577	15697.57
524.943	15764.46
525.31	15667.74
525.676	15843.33
526.043	15836.32
526.409	15896.43
526.776	15880.16
527.142	15939.37
527.508	16014.17
527.874	16005.13
528.241	16048.97
528.607	16058.01
528.973	16128.29
529.339	16166.26
529.705	16214.16
530.071	16294.84
530.437	16311.79
530.803	16347.27
531.169	16369.87
531.535	16253.49
531.901	16243.09
532.267	16263.43
532.632	16340.94
532.998	16385.23
533.364	16354.5
533.73	16287.61
534.095	16387.72
534.461	16414.38
534.826	16371.67
535.192	16359.24
535.557	16392.92
535.923	16340.49
536.288	16288.96
536.653	16276.54
537.019	16241.51
537.384	16301.17
537.749	16321.96
538.114	16341.39
538.479	16178.01
538.845	16272.24
539.21	16153.15
539.575	16215.97
539.94	16278.12
540.305	16181.85
540.67	16166.93
541.034	16117.67
541.399	16173.71
541.764	16110.21
542.129	16103.66
542.494	16104.11
542.858	16056.43
543.223	16032.47
543.587	16091.46
543.952	16032.47
544.316	15958.58
544.681	15919.71
545.045	15882.87
545.41	15965.13
545.774	15956.32
546.138	15822.76
546.503	15757.45
546.867	15737.34
547.231	15855.53
547.595	15852.14
547.959	15805.14
548.324	15695.99
548.688	15711.8
549.052	15653.27
549.416	15664.57
549.779	15620.06
550.143	15548.42
550.507	15604.91
550.871	15598.14
551.235	15518.36
551.599	15528.08
551.962	15522.2
552.326	15484.01
552.689	15525.37
553.053	15404.69
553.417	15351.14
553.78	15478.36
554.143	15419.16
554.507	15349.78
554.87	15341.19
555.234	15554.52
555.597	15408.99
555.96	15390.68
556.323	15404.24
556.686	15338.48
557.05	15513.62
557.413	15373.73
557.776	15396.11
558.139	15585.03
558.502	15405.15
558.865	15406.28
559.228	15460.51
559.59	15478.36
559.953	15423.22
560.316	15522.2
560.679	15527.18
561.041	15480.17
561.404	15505.48
561.767	15559.27
562.129	15500.51
562.492	15654.63
562.854	15599.72
563.217	15606.95
563.579	15606.27
563.941	15640.85
564.304	15695.08
564.666	15702.99
565.028	15707.06
565.39	15683.78
565.753	15738.02
566.115	15674.52
566.477	15782.76
566.839	15775.08
567.201	15825.25
567.563	15834.96
567.925	15866.83
568.287	15868.18
568.648	15846.72
569.01	15905.02
569.372	15977.79
569.734	15918.58
570.095	15957
570.457	15962.87
570.819	15995.19
571.18	16061.17
571.542	16092.59
571.903	16043.77
572.265	16166.71
572.626	16152.7
572.987	16125.8
573.349	16121.96
573.71	16135.3
574.071	16170.32
574.432	16229.08
574.794	16294.16
575.155	16308.4
575.516	16164.67
575.877	16234.95
576.238	16171.68
576.599	16291.45
576.96	16353.14
577.32	16237.89
577.681	16344.33
578.042	16334.84
578.403	16328.96
578.763	16333.71
579.124	16406.93
579.485	16305.01
579.845	16385.68
580.206	16411
580.566	16460.03
580.927	16394.72
581.287	16412.58
581.648	16241.06
582.008	16429.07
582.368	16458.23
582.728	16340.04
583.089	16330.55
583.449	16305.24
583.809	16389.53
584.169	16429.07
584.529	16321.05
584.889	16393.37
585.249	16324.67
585.609	16259.81
585.969	16269.53
586.329	16271.34
586.688	16312.47
587.048	16203.99
587.408	16265.24
587.768	16243.09
588.127	16265.69
588.487	16258.91
588.846	16250.77
589.206	16217.1
589.565	16198.12
589.925	16318.57
590.284	16177.55
590.643	16182.53
591.003	16256.2
591.362	16343.65
591.721	16161.06
592.08	16204.22
592.44	16278.8
592.799	16210.77
593.158	16233.15
593.517	16094.62
593.876	16163.54
594.235	16054.17
594.593	16076.09
594.952	16146.37
595.311	16095.07
595.67	16094.17
596.029	16150.66
596.387	16235.86
596.746	16224.56
597.104	16100.04
597.463	16188.63
597.822	16152.24
598.18	16190.44
598.538	16066.15
598.897	16151.79
599.255	16033.15
599.613	16129.42
599.972	16132.36
600.33	16196.31
600.688	16114.73
601.046	16022.98
601.404	16270.89
601.762	16143.88
602.12	16214.16
602.478	16172.13
602.836	16128.29
603.194	16168.74
603.552	16099.36
603.91	16107.27
604.268	16096.88
604.625	16006.94
604.983	16142.3
605.341	16140.72
605.698	16068.18
606.056	16245.8
606.413	16135.52
606.771	16194.28
607.128	16234.05
607.485	16008.97
607.843	16178.01
608.2	16234.5
608.557	16255.97
608.914	16196.09
609.272	16148.63
609.629	16324.67
609.986	16281.96
610.343	16234.73
610.7	16382.07
611.057	16273.6
611.414	16277.44
611.771	16333.26
612.127	16323.54
612.484	16325.57
612.841	16492.35
613.198	16313.6
613.554	16373.03
613.911	16465.46
614.267	16392.01
614.624	16456.87
614.98	16450.09
615.337	16599.69
615.693	16532.35
616.05	16522.86
616.406	16497.77
616.762	16533.7
617.118	16556.3
617.475	16511.56
617.831	16566.7
618.187	16576.41
618.543	16533.7
618.899	16716.07
619.255	16604.44
619.611	16552.23
619.967	16703.87
620.323	16721.04
620.678	16650.31
621.034	16630.42
621.39	16749.29
621.746	16602.18
622.101	16813.24
622.457	16623.42
622.812	16752.91
623.168	16715.62
623.523	16679.69
623.879	16723.98
624.234	16595.4
624.589	16693.25
624.945	16641.27
625.3	16653.25
625.655	16619.58
626.01	16683.98
626.365	16616.41
626.72	16601.72
627.075	16638.56
627.43	16608.73
627.785	16579.35
628.14	16587.94
628.495	16547.71
628.85	16599.01
629.205	16538.45
629.559	16570.99
629.914	16434.5
630.269	16621.61
630.623	16517.21
630.978	16454.16
631.332	16516.75
631.687	16610.54
632.041	16450.99
632.396	16528.73
632.75	16461.39
633.104	16485.8
633.459	16287.83
633.813	16518.56
634.167	16501.84
634.521	16379.36
634.875	16371.22
635.229	16372.8
635.583	16334.61
635.937	16306.37
636.291	16259.81
636.645	16325.12
636.999	16233.82
637.352	16301.62
637.706	16196.09
638.06	16287.83
638.413	16141.85
638.767	16180.04
639.121	16107.05
639.474	15981.18
639.828	16043.32
640.181	16086.94
640.534	16005.36
640.888	16059.14
641.241	15950.22
641.594	15997.9
641.947	15966.71
642.301	15926.94
642.654	16054.17
643.007	16017.33
643.36	15896.88
643.713	15868.64
644.066	16018.46
644.419	15853.04
644.771	15799.49
645.124	15689.21
645.477	15596.55
645.83	15546.84
646.182	15446.95
646.535	15445.6
646.888	15510.45
647.24	15363.34
647.593	15374.64
647.945	15385.94
648.298	15234.53
648.65	15308.43
649.002	15310.91
649.355	15343.45
649.707	15406.28
650.059	15482.21
650.411	15566.72
650.763	15709.77
651.115	15818.02
651.467	15656.66
651.819	15673.39
652.171	15693.95
652.523	15632.48
652.875	15722.2
653.227	15583.45
653.578	15796.55
653.93	15658.7
654.282	15615.31
654.633	15559.49
654.985	15640.62
655.337	15704.35
655.688	15701.86
656.039	15713.84
656.391	15574.86
656.742	15639.26
657.094	15718.81
657.445	15726.27
657.796	15692.6
658.147	15679.49
658.498	15660.28
658.849	15704.8
659.2	15747.28
659.551	15649.89
659.902	15722.2
660.253	15702.77
660.604	15716.1
660.955	15619.15
661.306	15674.97
661.656	15645.37
662.007	15661.64
662.358	15632.26
662.708	15694.4
663.059	15656.89
663.409	15545.71
663.76	15651.92
664.11	15742.09
664.461	15753.84
664.811	15737.34
665.161	15733.27
665.511	15733.27
665.862	15663.22
666.212	15800.16
666.562	15740.96
666.912	15714.74
667.262	15707.96
667.612	15697.79
667.962	15697.79
668.312	15785.47
668.662	15759.94
669.011	15678.36
669.361	15649.43
669.711	15746.83
670.06	15637.68
670.41	15618.25
670.76	15657.57
671.109	15652.14
671.459	15672.71
671.808	15604.24
672.157	15613.73
672.507	15561.98
672.856	15495.76
673.205	15488.53
673.554	15648.3
673.904	15504.58
674.253	15610.34
674.602	15578.7
674.951	15310.68
675.3	15253.51
675.649	15518.36
675.998	15386.84
676.346	15376.9
676.695	15530.79
677.044	15348.2
677.393	15400.17
677.741	15437.69
678.09	15397.91
678.438	15324.02
678.787	15450.34
679.135	15460.51
679.484	15280.86
679.832	15245.6
680.181	15178.71
680.529	15236.56
680.877	15131.71
681.225	15164.25
681.573	15209.67
681.922	15093.52
682.27	15171.48
682.618	15063.91
682.966	15009.9
683.314	14975.55
683.661	14924.93
684.009	14931.49
684.357	14823.69
684.705	14942.56
685.053	14930.36
685.4	14835.67
685.748	14744.82
686.095	14807.42
686.443	14727.2
686.79	14643.81
687.138	14699.4
687.485	14650.36
687.832	14687.2
688.18	14673.41
688.527	14538.73
688.874	14540.54
689.221	14545.28
689.568	14527.2
689.915	14450.14
690.262	14360.88
690.609	14352.97
690.956	14291.28
691.303	14264.16
691.65	14243.82
691.997	14197.04
692.344	14120.66
692.69	14096.93
693.037	14069.36
693.383	13898.97
693.73	13961.57
694.077	13871.17
694.423	13917.95
694.769	13823.72
695.116	13750.95
695.462	13680.9
695.808	13705.53
696.155	13719.77
696.501	13595.7
696.847	13537.85
697.193	13504.86
697.539	13482.94
697.885	13387.12
698.231	13395.93
698.577	13392.77
698.923	13309.38
699.269	13213.79
699.614	13219.21
699.96	13140.12
700.306	13125.88
700.651	13040.69
700.997	12986
701.342	13049.73
701.688	12971.54
702.033	12958.66
702.379	12922.95
702.724	12872.33
703.069	12858.55
703.415	12717.08
703.76	12781.03
704.105	12779.9
704.45	12747.59
704.795	12611.32
705.14	12503.3
705.485	12531.32
705.83	12423.08
706.175	12507.82
706.52	12411.33
706.865	12407.71
707.209	12310.99
707.554	12266.02
707.899	12253.82
708.243	12127.49
708.588	12136.98
708.932	12141.73
709.277	12042.52
709.621	12115.51
709.966	12014.73
710.31	12019.25
710.654	11892.24
710.998	11960.04
711.342	11943.09
711.687	11907.84
712.031	11853.37
712.375	11783.77
712.719	11859.02
713.063	11838.01
713.407	11814.05
713.75	11746.03
714.094	11754.39
714.438	11727.5
714.782	11700.61
715.125	11636.88
715.469	11661.29
715.812	11619.48
716.156	11522.99
716.499	11624
716.843	11510.56
717.186	11465.59
717.53	11525.47
717.873	11475.53
718.216	11470.33
718.559	11411.58
718.902	11393.27
719.246	11415.42
719.589	11277.34
719.932	11327.74
720.275	11354.63
720.617	11286.38
720.96	11323.9
721.303	11252.03
721.646	11318.02
721.989	11221.53
722.331	11272.6
722.674	11239.38
723.016	11238.7
723.359	11196.67
723.701	11213.17
724.044	11148.31
724.386	11088.88
724.729	11181.53
725.071	11195.54
725.413	11075.54
725.755	11112.15
726.097	11029.22
726.439	10968.2
726.782	11038.93
727.124	11102.89
727.465	11006.62
727.807	11019.5
728.149	10978.14
728.491	10944.47
728.833	11013.4
729.175	10962.78
729.516	11015.88
729.858	11004.13
730.199	10948.31
730.541	10940.18
730.882	10963.23
731.224	11010.69
731.565	10929.78
731.906	10917.35
732.248	10994.41
732.589	10850.92
732.93	10896.11
733.271	10909.22
733.612	10917.13
733.953	10921.87
734.294	10934.3
734.635	10845.27
734.976	10875.55
735.317	10868.77
735.658	10842.55
735.999	10848.66
736.339	10854.08
736.68	10893.63
737.021	10814.08
737.361	10862.21
737.702	10857.47
738.042	10900.63
738.383	10902.89
738.723	10866.06
739.063	10876.9
739.404	10977.01
739.744	10885.04
740.084	10856.79
740.424	11014.3
740.764	10894.3
741.104	10952.61
741.444	10979.05
741.784	10967.97
742.124	11056.79
742.464	10952.61
742.804	10997.58
743.143	10993.96
743.483	11029.89
743.823	11057.92
744.162	11114.64
744.502	11145.14
744.841	11089.78
745.181	11172.94
745.52	11214.75
745.86	11270.57
746.199	11303.11
746.538	11301.98
746.877	11372.71
747.216	11447.28
747.556	11412.26
747.895	11402.31
748.234	11457.45
748.573	11506.94
748.911	11592.36
749.25	11692.7
749.589	11750.78
749.928	11835.75
750.267	11947.38
750.605	11948.51
750.944	11969.3
751.283	12040.49
751.621	12166.81
751.96	12190.32
752.298	12265.12
752.636	12421.72
752.975	12493.13
753.313	12577.65
753.651	12700.58
753.989	12804.08
754.327	12898.09
754.666	12954.59
755.004	13141.25
755.342	13300.12
755.679	13414.46
756.017	13467.34
756.355	13716.38
756.693	13833.44
757.031	13945.07
757.368	14013.32
757.706	14148.91
758.044	14250.6
758.381	14434.55
758.719	14625.05
759.056	14729.01
759.394	14876.35
759.731	15107.75
760.068	15208.54
760.405	15322.89
760.743	15498.93
761.08	15757.68
761.417	15838.58
761.754	15986.83
762.091	16116.99
762.428	16263.88
762.765	16467.04
763.102	16622.06
763.438	16683.53
763.775	16874.03
764.112	17131.65
764.449	17271.31
764.785	17382.04
765.122	17446.22
765.458	17580.46
765.795	17804.18
766.131	17940.9
766.467	18086.43
766.804	18196.26
767.14	18277.39
767.476	18305.86
767.812	18441
768.148	18743.14
768.485	18783.59
768.821	18764.15
769.157	19024.26
769.492	19179.96
769.828	19202.11
770.164	19208.66
770.5	19247.08
770.836	19524.13
771.171	19363.69
771.507	19616.33
771.842	19539.95
772.178	19685.71
772.513	19723.68
772.849	19902.2
773.184	19969.55
773.519	20050.67
773.855	20014.06
774.19	20081.86
774.525	20155.98
774.86	20265.81
775.195	20302.42
775.53	20269.42
775.865	20361.4
776.2	20264.23
776.535	20214.06
776.87	20312.14
777.205	20357.78
777.539	20419.25
777.874	20442.08
778.209	20388.29
778.543	20453.6
778.878	20360.95
779.212	20527.72
779.547	20429.42
779.881	20641.84
780.215	20463.77
780.55	20583.77
780.884	20506.71
781.218	20490.44
781.552	20587.61
781.886	20498.8
782.22	20470.32
782.554	20523.66
782.888	20415.18
783.222	20320.95
783.556	20306.94
783.889	20296.09
784.223	20238.01
784.557	20190.56
784.89	20289.99
785.224	20205.25
785.557	20086.83
785.891	20165.7
786.224	20055.64
786.558	20191.69
786.891	19987.4
787.224	20070.11
787.557	19912.82
787.891	19936.33
788.224	20005.25
788.557	19993.05
788.89	19981.07
789.223	19893.84
789.556	19864.46
789.888	19788.99
790.221	19713.28
790.554	19690
790.887	19631.25
791.219	19675.54
791.552	19605.04
791.884	19453.63
792.217	19445.04
792.549	19420.18
792.882	19423.35
793.214	19401.88
793.546	19450.24
793.879	19304.25
794.211	19153.97
794.543	19212.05
794.875	19231.94
795.207	19247.3
795.539	19071.72
795.871	19198.72
796.203	19020.42
796.535	18921.66
796.867	18857.48
797.198	18815.23
797.53	18885.96
797.862	18703.59
798.193	18809.8
798.525	18723.7
798.856	18741.1
799.188	18553.09
799.519	18434.67
799.85	18310.38
800.182	18499.75
800.513	18460.66
800.844	18279.87
801.175	18355.35
801.506	18289.82
801.837	18143.15
802.168	18205.98
802.499	18089.14
802.83	18150.16
803.161	17974.8
803.491	18034.68
803.822	18001.24
804.153	17904.52
804.483	17782.03
804.814	17800.56
805.145	17730.28
805.475	17783.84
805.805	17747.68
806.136	17591.75
806.466	17613.9
806.796	17615.48
807.126	17487.8
807.457	17505.43
807.787	17440.12
808.117	17441.93
808.447	17340.24
808.777	17352.21
809.107	17328.49
809.436	17306.34
809.766	17210.75
810.096	17161.26
810.426	17187.92
810.755	17091.2
811.085	17079
811.414	17085.33
811.744	16939.57
812.073	16927.82
812.403	16947.93
812.732	16909.74
813.061	16814.83
813.39	16771.21
813.719	16733.92
814.049	16890.08
814.378	16744.32
814.707	16658.9
815.036	16681.04
815.365	16541.16
815.693	16471.11
816.022	16528.05
816.351	16380.94
816.68	16297.33
817.008	16430.2
817.337	16273.82
817.665	16179.36
817.994	16279.02
818.322	16235.41
818.651	16205.58
818.979	16108.63
819.307	16251.45
819.636	16129.65
819.964	16096.2
820.292	16152.24
820.62	16103.88
820.948	15992.7
821.276	16088.74
821.604	16040.84
821.932	16164
822.259	15992.02
822.587	16079.7
822.915	16009.2
823.243	16021.4
823.57	15962.65
823.898	15944.11
824.225	15978.92
824.553	16046.48
824.88	15891.91
825.207	16047.61
825.535	16007.16
825.862	15951.57
826.189	15945.7
826.516	16011.01
826.843	16011.23
827.17	16024.11
827.497	16082.42
827.824	16028.86
828.151	16013.04
828.478	16033.15
828.805	16125.35
829.131	15974.17
829.458	16142.3
829.785	15869.77
830.111	15955.41
830.438	16105.69
830.764	16014.85
831.09	16021.63
831.417	15925.36
831.743	16030.89
832.069	16024.56
832.395	15907.28
832.722	15986.83
833.048	15928.07
833.374	15943.21
833.7	15833.84
834.026	15877.45
834.351	15843.78
834.677	15874.74
835.003	15917.22
835.329	15921.97
835.654	15801.97
835.98	15806.27
836.306	15812.82
836.631	15738.47
836.956	15728.53
837.282	15765.14
837.607	15624.8
837.932	15640.62
838.258	15663.44
838.583	15638.81
838.908	15482.66
839.233	15637.68
839.558	15510
839.883	15480.4
840.208	15427.97
840.533	15511.13
840.858	15509.78
841.182	15518.14
841.507	15400.63
841.832	15405.82
842.156	15311.14
842.481	15299.39
842.805	15195.89
843.13	15238.14
843.454	15248.54
843.778	15158.15
844.103	15087.41
844.427	15101.2
844.751	15084.93
845.075	15069.56
845.399	14981.65
845.723	14861.88
846.047	14929.45
846.371	14778.27
846.695	14793.64
847.019	14672.96
847.343	14686.07
847.666	14627.09
847.99	14515.23
848.313	14509.12
848.637	14432.29
848.96	14404.95
849.284	14314.1
849.607	14195.69
849.931	14230.71
850.254	14086.99
850.577	14112.3
850.9	14001.57
851.223	13931.96
851.546	13989.14
851.869	13821.01
852.192	13897.16
852.515	13696.94
852.838	13668.92
853.161	13648.36
853.483	13583.27
853.806	13526.78
854.129	13534.69
854.451	13411.98
854.774	13368.36
855.096	13394.35
855.419	13324.52
855.741	13285.88
856.063	13204.53
856.385	13227.8
856.708	13220.57
857.03	13057.41
857.352	13173.11
857.674	13015.38
857.996	12941.93
858.318	12919.34
858.64	12840.02
858.961	12872.56
859.283	12818.55
859.605	12784.88
859.926	12861.71
860.248	12802.95
860.57	12722.5
860.891	12728.83
861.212	12604.99
861.534	12634.6
861.855	12600.93
862.176	12552.11
862.498	12548.05
862.819	12517.76
863.14	12473.7
863.461	12494.94
863.782	12392.12
864.103	12443.64
864.424	12448.84
864.745	12453.36
865.065	12379.01
865.386	12296.3
865.707	12406.35
866.027	12320.26
866.348	12157.77
866.668	12315.96
866.989	12207.94
867.309	12135.85
867.63	12156.87
867.95	12179.92
868.27	12043.88
868.59	12132.69
868.91	12074.61
869.23	12076.87
869.55	12048.17
869.87	12063.31
870.19	12071.67
870.51	11989.42
870.83	12051.56
871.15	11952.36
871.469	11959.81
871.789	12004.33
872.109	11942.64
872.428	11871.91
872.748	11874.84
873.067	11812.92
873.386	11959.13
873.706	11811.12
874.025	11754.85
874.344	11720.5
874.663	11769.54
874.982	11696.32
875.301	11775.64
875.62	11732.25
875.939	11639.82
876.258	11628.07
876.577	11580.16
876.896	11587.39
877.214	11565.02
877.533	11554.85
877.852	11508.75
878.17	11495.19
878.489	11561.86
878.807	11547.39
879.125	11436.21
879.444	11475.98
879.762	11397.79
880.08	11498.36
880.398	11349.21
880.716	11409.77
881.034	11351.24
881.352	11222.2
881.67	11314.86
881.988	11279.83
882.306	11261.53
882.624	11246.84
882.941	11150.34
883.259	11054.75
883.577	11074.19
883.894	11118.7
884.212	11061.98
884.529	11130.46
884.846	11004.81
885.164	10972.04
885.481	10994.19
885.798	10934.98
886.115	10853.63
886.432	10900.86
886.75	10824.93
887.067	10919.61
887.383	10789.45
887.7	10852.27
888.017	10821.99
888.334	10796.91
888.651	10719.17
888.967	10695.21
889.284	10669
889.6	10625.84
889.917	10471.72
890.233	10573.41
890.55	10490.47
890.866	10505.39
891.182	10441.66
891.498	10470.81
891.815	10426.29
892.131	10390.14
892.447	10364.6
892.763	10268.33
893.079	10320.08
893.395	10323.02
893.71	10304.49
894.026	10230.14
894.342	10225.85
894.657	10107.43
894.973	10057.94
895.289	10050.48
895.604	10044.16
895.92	9979.53
896.235	9996.93
896.55	9897.72
896.865	9964.16
897.181	9875.57
897.496	9868.34
897.811	9810.94
898.126	9814.11
898.441	9741.79
898.756	9753.32
899.071	9681.45
899.386	9690.04
899.7	9570.95
900.015	9502.48
900.33	9566.66
900.644	9536.37
900.959	9495.7
901.273	9454.57
901.588	9442.82
901.902	9316.72
902.216	9304.52
902.531	9295.93
902.845	9319.66
903.159	9207.57
903.473	9143.62
903.787	9144.52
904.101	9148.81
904.415	9057.29
904.729	9099.77
905.042	9027.91
905.356	9011.19
905.67	8944.52
905.984	8920.12
906.297	8968.48
906.611	8874.92
906.924	8728.71
907.237	8829.5
907.551	8742.95
907.864	8703.85
908.177	8664.08
908.491	8634.7
908.804	8632.44
909.117	8549.28
909.43	8509.96
909.743	8442.84
910.056	8443.75
910.368	8409.62
910.681	8374.14
910.994	8380.25
911.307	8339.12
911.619	8277.2
911.932	8283.3
912.244	8247.82
912.557	8206.47
912.869	8125.11
913.181	8112
913.494	8118.56
913.806	8018.9
914.118	7979.13
914.43	7992.46
914.742	7935.51
915.054	7873.59
915.366	7952.01
915.678	7805.35
915.99	7871.33
916.302	7721.73
916.613	7775.29
916.925	7773.93
917.236	7750.66
917.548	7593.83
917.859	7658.68
918.171	7584.79
918.482	7597.67
918.794	7549.76
919.105	7502.98
919.416	7396.09
919.727	7417.11
920.038	7362.65
920.349	7340.05
920.66	7380.5
920.971	7347.5
921.282	7360.61
921.593	7265.47
921.903	7227.06
922.214	7117.23
922.525	7178.47
922.835	7127.4
923.146	7053.05
923.456	7074.74
923.767	7052.6
924.077	7057.79
924.387	6990.23
924.697	6942.54
925.008	6946.16
925.318	6896.67
925.628	6827.74
925.938	6820.51
926.248	6823.22
926.558	6802.21
926.867	6732.15
927.177	6735.09
927.487	6706.17
927.796	6622.33
928.106	6650.35
928.416	6642.66
928.725	6648.09
929.034	6587.98
929.344	6531.48
929.653	6536
929.962	6479.28
930.271	6456
930.581	6459.17
930.89	6386.4
931.199	6321.99
931.508	6357.02
931.817	6378.04
932.125	6318.38
932.434	6303.46
932.743	6248.78
933.051	6226.4
933.36	6154.54
933.669	6149.57
933.977	6133.07
934.286	6145.05
934.594	6103.24
934.902	6052.85
935.21	5977.82
935.519	6076.58
935.827	5973.53
936.135	5960.87
936.443	5899.86
936.751	5917.71
937.059	5908.9
937.367	5877.71
937.674	5886.98
937.982	5821.89
938.29	5772.4
938.597	5797.04
938.905	5716.81
939.213	5644.72
939.52	5701.9
939.827	5695.8
940.135	5633.88
940.442	5599.98
940.749	5605.86
941.056	5582.13
941.363	5541.22
941.67	5481.11
941.977	5494.9
942.284	5443.83
942.591	5452.64
942.898	5400.66
943.205	5415.35
943.511	5378.52
943.818	5399.08
944.125	5319.99
944.431	5313.66
944.738	5270.95
945.044	5259.42
945.35	5220.1
945.657	5233.89
945.963	5158.86
946.269	5182.36
946.575	5114.57
946.881	5098.98
947.187	5115.47
947.493	5070.95
947.799	5054.46
948.105	5026.21
948.41	4999.09
948.716	5015.81
949.022	4995.25
949.327	4952.09
949.633	4914.8
949.938	4941.24
950.244	4901.47
950.549	4800
950.854	4849.04
951.16	4818.98
951.465	4784.63
951.77	4770.4
952.075	4745.54
952.38	4728.36
952.685	4724.52
952.99	4694.69
953.294	4679.55
953.599	4680.68
953.904	4667.8
954.209	4618.76
954.513	4624.64
954.818	4576.28
955.122	4535.83
955.426	4539.67
955.731	4547.8
956.035	4506.9
956.339	4455.15
956.643	4478.2
956.948	4439.56
957.252	4406.11
957.556	4409.28
957.86	4386.9
958.163	4405.21
958.467	4343.29
958.771	4318.21
959.075	4284.76
959.378	4296.96
959.682	4281.14
959.985	4261.94
960.289	4211.77
960.592	4214.25
960.896	4174.03
961.199	4174.71
961.502	4197.08
961.805	4107.59
962.108	4101.04
962.411	4127.7
962.714	4125.44
963.017	4089.29
963.32	4057.65
963.623	4067.59
963.926	4065.56
964.228	3979.23
964.531	4010.87
964.833	3982.17
965.136	3967.25
965.438	3908.95
965.741	3916.86
966.043	3898.33
966.345	3899.46
966.648	3880.7
966.95	3854.04
967.252	3870.53
967.554	3797.99
967.856	3782.4
968.158	3757.99
968.46	3761.16
968.761	3721.84
969.063	3774.49
969.365	3702.18
969.666	3708.28
969.968	3636.87
970.269	3640.03
970.571	3636.64
970.872	3618.56
971.174	3612.69
971.475	3622.18
971.776	3558.9
972.077	3590.54
972.378	3522.29
972.679	3515.97
972.98	3501.73
973.281	3532.92
973.582	3502.18
973.883	3479.13
974.183	3483.65
974.484	3435.97
974.785	3446.14
975.085	3406.59
975.386	3402.3
975.686	3396.65
975.986	3370.89
976.287	3363.43
976.587	3360.04
976.887	3369.53
977.187	3329.76
977.487	3299.02
977.787	3304
978.087	3256.76
978.387	3256.76
978.687	3245.47
978.987	3266.71
979.286	3186.26
979.586	3163.43
979.885	3187.39
980.185	3148.07
980.484	3166.37
980.784	3130.67
981.083	3105.13
981.382	3109.42
981.682	3098.35
981.981	3077.11
982.28	3044.11
982.579	3035.75
982.878	3046.15
983.177	3047.96
983.475	2991.91
983.774	3007.96
984.073	2958.47
984.372	2984.23
984.67	2977.68
984.969	2974.06
985.267	2908.53
985.566	2942.65
985.864	2906.04
986.162	2908.98
986.461	2900.84
986.759	2879.15
987.057	2880.05
987.355	2855.65
987.653	2845.48
987.951	2810.22
988.249	2800.05
988.547	2784.46
988.844	2739.94
989.142	2765.7
989.44	2726.84
989.737	2746.72
990.035	2707.63
990.332	2697.01
990.63	2694.52
990.927	2643.45
991.224	2625.37
991.521	2671.24
991.819	2626.95
992.116	2656.78
992.413	2612.94
992.71	2608.19
993.006	2603.45
993.303	2606.16
993.6	2618.59
993.897	2555.77
994.193	2561.87
994.49	2560.06
994.787	2533.17
995.083	2519.61
995.379	2478.71
995.676	2469.89
995.972	2482.77
996.268	2437.35
996.565	2474.64
996.861	2426.05
997.157	2451.14
997.453	2418.37
997.749	2401.87
998.044	2390.57
998.34	2377.92
998.636	2377.47
998.932	2354.64
999.227	2354.42
999.523	2323.46
999.818	2336.11
1000.114	2306.73
1000.409	2286.62
1000.704	2263.34
1001	2260.86
1001.295	2266.51
1001.59	2270.35
1001.885	2234.42
1002.18	2244.81
1002.475	2226.06
1002.77	2199.39
1003.065	2175.44
1003.359	2129.34
1003.654	2136.57
1003.949	2155.55
1004.243	2106.74
1004.538	2148.09
1004.832	2095.89
1005.127	2100.64
1005.421	2116.23
1005.715	2073.97
1006.009	2088.66
1006.304	2065.38
1006.598	2020.86
1006.892	2051.6
1007.186	2026.97
1007.48	1985.61
1007.773	2000.98
1008.067	2008.66
1008.361	1940.42
1008.655	1949.23
1008.948	1945.61
1009.242	1917.36
1009.535	1903.35
1009.829	1899.06
1010.122	1918.95
1010.415	1896.8
1010.708	1870.59
1011.001	1874.43
1011.295	1857.48
1011.588	1869
1011.881	1839.17
1012.173	1824.71
1012.466	1788.55
1012.759	1811.6
1013.052	1795.79
1013.344	1786.07
1013.637	1768.44
1013.93	1770.25
1014.222	1741.32
1014.514	1744.26
1014.807	1706.52
1015.099	1689.57
1015.391	1714.43
1015.683	1704.72
1015.976	1695.45
1016.268	1655.9
1016.56	1680.99
1016.851	1660.2
1017.143	1650.93
1017.435	1674.21
1017.727	1656.81
1018.018	1609.12
1018.31	1610.71
1018.602	1611.38
1018.893	1556.92
1019.185	1583.14
1019.476	1572.29
1019.767	1568.9
1020.058	1547.21
1020.35	1579.29
1020.641	1505.85
1020.932	1508.79
1021.223	1487.32
1021.514	1489.81
1021.804	1470.14
1022.095	1484.16
1022.386	1467.89
1022.677	1464.95
1022.967	1448.22
1023.258	1453.42
1023.548	1421.33
1023.839	1449.35
1024.129	1373.2
1024.419	1391.28
1024.709	1419.75
1025	1407.55
1025.29	1369.13
1025.58	1359.87
1025.87	1361.9
1026.16	1350.15
1026.449	1348.34
1026.739	1346.53
1027.029	1328.45
1027.319	1307.89
1027.608	1284.16
1027.898	1313.09
1028.187	1287.32
1028.477	1262.69
1028.766	1281
1029.055	1260.66
1029.344	1250.72
1029.634	1271.73
1029.923	1240.77
1030.212	1225.86
1030.501	1224.95
1030.79	1225.86
1031.078	1194.22
1031.367	1192.19
1031.656	1168.68
1031.945	1169.36
1032.233	1195.35
1032.522	1175.01
1032.81	1162.58
1033.099	1164.62
1033.387	1141.57
1033.675	1129.59
1033.963	1132.07
1034.251	1128.01
1034.54	1100.66
1034.828	1108.8
1035.116	1065.18
1035.403	1085.97
1035.691	1091.17
1035.979	1078.97
1036.267	1052.98
1036.554	1068.35
1036.842	1046.88
1037.129	1078.74
1037.417	1044.85
1037.704	1033.32
1037.992	1019.31
1038.279	1008.69
1038.566	1042.13
1038.853	1042.13
1039.14	1042.13
