Data from hue_280_FLMS001491_00090.txt Node
Date: Tue Feb 07 15:55:55 GMT 2017
User: dcchb
Spectrometer: FLMS00149
Trigger mode: 0
Integration Time (sec): 2.000000E-2
Scans to average: 10
Electric dark correction enabled: true
Nonlinearity correction enabled: false
Boxcar width: 0
XAxis mode: Wavelengths
Number of Pixels in Spectrum: 2048
>>>>>Begin Spectral Data<<<<<
341.393	-30.8
341.776	-30.8
342.16	-30.8
342.543	-59.28
342.927	-63.35
343.31	-71.26
343.693	-61.76
344.077	-77.81
344.46	-61.99
344.843	-34.19
345.226	-36.23
345.61	-44.59
345.993	-19.05
346.376	-14.31
346.759	2.87
347.142	30.66
347.525	46.26
347.908	69.98
348.291	85.12
348.674	76.31
349.057	109.98
349.44	114.28
349.823	141.85
350.206	161.51
350.588	182.52
350.971	186.14
351.354	216.42
351.737	225.91
352.119	237.44
352.502	261.62
352.884	262.75
353.267	269.75
353.65	293.26
354.032	277.66
354.414	290.32
354.797	299.81
355.179	314.05
355.562	319.47
355.944	299.13
356.326	321.95
356.709	310.2
357.091	332.35
357.473	311.11
357.855	322.86
358.238	338.45
358.62	340.71
359.002	325.8
359.384	319.92
359.766	330.54
360.148	336.64
360.53	341.84
360.912	323.54
361.294	335.51
361.676	323.76
362.057	323.54
362.439	342.97
362.821	321.05
363.203	329.64
363.584	304.78
363.966	319.69
364.348	324.21
364.729	307.49
365.111	323.76
365.493	317.44
365.874	319.47
366.256	316.76
366.637	297.1
367.019	304.78
367.4	290.32
367.781	277.44
368.163	320.15
368.544	312.24
368.925	321.05
369.306	312.46
369.688	288.51
370.069	305.91
370.45	276.53
370.831	292.58
371.212	310.43
371.593	300.71
371.974	307.04
372.355	310.88
372.736	317.21
373.117	306.36
373.498	311.33
373.879	309.07
374.26	300.71
374.641	288.51
375.021	292.8
375.402	314.27
375.783	316.08
376.163	317.44
376.544	320.37
376.925	312.01
377.305	326.02
377.686	296.87
378.066	316.53
378.447	295.74
378.827	320.6
379.208	345.23
379.588	319.02
379.968	306.14
380.349	312.69
380.729	345.68
381.109	306.14
381.489	322.86
381.87	332.12
382.25	315.4
382.63	326.93
383.01	337.32
383.39	303.2
383.77	333.48
384.15	333.03
384.53	338.68
384.91	346.36
385.29	341.62
385.67	333.48
386.049	328.06
386.429	356.08
386.809	341.16
387.189	340.94
387.568	349.98
387.948	354.04
388.328	337.55
388.707	347.04
389.087	338
389.466	368.73
389.846	336.87
390.225	358.34
390.605	355.85
390.984	349.3
391.363	370.77
391.743	374.16
392.122	355.85
392.501	359.92
392.881	366.25
393.26	369.41
393.639	364.67
394.018	365.8
394.397	363.54
394.776	380.94
395.155	377.32
395.534	389.75
395.913	378.9
396.292	367.6
396.671	388.39
397.05	373.48
397.429	368.96
397.808	360.15
398.186	401.95
398.565	383.2
398.944	399.24
399.323	398.34
399.701	396.08
400.08	393.37
400.458	397.89
400.837	407.15
401.215	406.92
401.594	407.15
401.972	413.7
402.351	418
402.729	411.67
403.107	406.7
403.486	423.2
403.864	428.39
404.242	446.7
404.62	422.29
404.999	436.53
405.377	446.47
405.755	433.82
406.133	453.48
406.511	422.07
406.889	450.31
407.267	458.45
407.645	472.23
408.023	485.57
408.401	453.7
408.779	470.88
409.156	490.99
409.534	467.26
409.912	491.44
410.29	497.77
410.667	502.29
411.045	501.16
411.422	517.2
411.8	517.2
412.178	507.94
412.555	509.07
412.933	522.4
413.31	549.52
413.687	569.18
414.065	540.25
414.442	560.59
414.819	563.08
415.197	575.51
415.574	586.58
415.951	587.48
416.328	609.63
416.705	594.49
417.082	619.57
417.46	624.09
417.837	648.95
418.214	631.55
418.591	633.59
418.967	629.29
419.344	623.42
419.721	655.73
420.098	648.5
420.475	633.13
420.852	657.99
421.228	669.52
421.605	681.49
421.982	694.15
422.358	716.52
422.735	693.92
423.111	711.1
423.488	741.15
423.864	736.41
424.241	737.99
424.617	758.55
424.994	741.83
425.37	775.95
425.746	791.77
426.123	783.86
426.499	798.33
426.875	809.85
427.251	788.38
427.627	827.48
428.003	824.31
428.379	839.91
428.756	882.84
429.132	854.6
429.507	855.27
429.883	875.39
430.259	893.92
430.635	897.98
431.011	911.77
431.387	912.67
431.763	931.2
432.138	948.61
432.514	937.53
432.89	954.71
433.265	1001.94
433.641	1011.43
434.016	992.22
434.392	1034.03
434.767	1024.76
435.143	1074.25
435.518	1025.89
435.894	1080.8
436.269	1100.92
436.644	1081.03
437.02	1095.27
437.395	1111.31
437.77	1171.42
438.145	1172.55
438.52	1164.19
438.895	1185.21
439.271	1182.05
439.646	1184.31
440.021	1210.07
440.395	1220.46
440.77	1220.69
441.145	1220.24
441.52	1253.68
441.895	1238.99
442.27	1247.35
442.645	1281.25
443.019	1315.38
443.394	1300.01
443.769	1315.15
444.143	1269.05
444.518	1321.48
444.892	1295.26
445.267	1307.47
445.641	1344.98
446.016	1326
446.39	1355.83
446.764	1353.57
447.139	1333
447.513	1377.07
447.887	1377.29
448.262	1362.15
448.636	1414.58
449.01	1393.57
449.384	1405.77
449.758	1446.9
450.132	1425.65
450.506	1438.54
450.88	1462.49
451.254	1446.67
451.628	1460
452.002	1503.62
452.376	1477.63
452.75	1495.71
453.123	1491.42
453.497	1505.88
453.871	1543.39
454.244	1566.89
454.618	1579.1
454.992	1579.1
455.365	1571.19
455.739	1604.41
456.112	1613.67
456.486	1618.64
456.859	1620.23
457.232	1659.09
457.606	1685.99
457.979	1695.93
458.352	1678.08
458.725	1715.36
459.099	1703.16
459.472	1736.15
459.845	1751.07
460.218	1742.71
460.591	1771.86
460.964	1774.35
461.337	1802.82
461.71	1821.58
462.083	1830.16
462.456	1853.44
462.829	1847.56
463.201	1848.02
463.574	1853.67
463.947	1898.18
464.32	1939.09
464.692	1954.68
465.065	1973.66
465.438	1963.95
465.81	1998.52
466.183	1984.74
466.555	2080.78
466.928	2032.87
467.3	2048.69
467.672	2085.07
468.045	2118.29
468.417	2113.55
468.789	2124.62
469.161	2153.32
469.534	2179.76
469.906	2217.72
470.278	2221.57
470.65	2226.76
471.022	2305.18
471.394	2308.8
471.766	2304.28
472.138	2323.03
472.51	2358.51
472.882	2384.73
473.253	2436.48
473.625	2437.38
473.997	2456.81
474.369	2477.83
474.74	2507.66
475.112	2543.14
475.484	2572.74
475.855	2596.7
476.227	2614.55
476.598	2700.2
476.97	2685.28
477.341	2719.18
477.713	2734.09
478.084	2779.52
478.455	2817.48
478.827	2836.01
479.198	2899.51
479.569	2889.8
479.94	2935.22
480.311	3004.82
480.682	3010.02
481.053	3076.46
481.424	3154.65
481.795	3180.64
482.166	3182.44
482.537	3171.15
482.908	3262.89
483.279	3225.16
483.65	3311.93
484.021	3343.57
484.391	3398.71
484.762	3419.5
485.133	3419.95
485.503	3469.44
485.874	3515.32
486.244	3553.96
486.615	3590.12
486.985	3607.74
487.356	3708.08
487.726	3657.23
488.097	3734.29
488.467	3743.56
488.837	3819.94
489.207	3854.07
489.578	3870.79
489.948	3899.71
490.318	3963.89
490.688	3951.24
491.058	3990.78
491.428	4063.33
491.798	4080.95
492.168	4090.9
492.538	4104.68
492.908	4152.59
493.278	4218.12
493.648	4216.99
494.017	4194.17
494.387	4271.23
494.757	4290.89
495.126	4350.32
495.496	4340.15
495.866	4374.73
496.235	4413.82
496.605	4438.91
496.974	4468.51
497.344	4465.35
497.713	4514.39
498.082	4501.28
498.452	4574.27
498.821	4560.26
499.19	4548.28
499.559	4550.32
499.928	4610.43
500.298	4678
500.667	4692.46
501.036	4673.03
501.405	4682.52
501.774	4673.03
502.143	4699.92
502.512	4752.57
502.88	4801.84
503.249	4763.87
503.618	4758.45
503.987	4798.22
504.356	4800.03
504.724	4859.24
505.093	4836.19
505.462	4844.55
505.83	4915.96
506.199	4913.47
506.567	4975.17
506.936	4881.38
507.304	5012.23
507.672	4949.86
508.041	5034.37
508.409	5005.9
508.777	5045.9
509.145	5052.23
509.514	5051.1
509.882	5100.36
510.25	5066.69
510.618	5139.68
510.986	5112.56
511.354	5163.41
511.722	5166.35
512.09	5128.38
512.458	5184.88
512.826	5239.57
513.193	5225.55
513.561	5216.74
513.929	5242.5
514.297	5255.38
514.664	5316.4
515.032	5319.34
515.4	5284.08
515.767	5296.97
516.135	5373.12
516.502	5302.84
516.869	5369.51
517.237	5420.13
517.604	5365.66
517.972	5431.42
518.339	5474.59
518.706	5411.31
519.073	5369.73
519.44	5441.14
519.808	5468.26
520.175	5496.28
520.542	5501.48
520.909	5507.13
521.276	5512.55
521.643	5586.9
522.009	5567.92
522.376	5603.4
522.743	5604.53
523.11	5676.62
523.477	5718.88
523.843	5633.68
524.21	5710.06
524.577	5751.42
524.943	5772.66
525.31	5733.56
525.676	5825.76
526.043	5801.36
526.409	5884.29
526.776	5865.09
527.142	5867.12
527.508	5847.01
527.874	5936.95
528.241	5956.83
528.607	5918.19
528.973	5972.65
529.339	5992.99
529.705	6100.56
530.071	6108.02
530.437	6016.49
530.803	6030.05
531.169	6137.85
531.535	6100.33
531.901	6096.27
532.267	6167
532.632	6217.17
532.998	6138.3
533.364	6204.96
533.73	6195.25
534.095	6296.49
534.461	6270.27
534.826	6293.1
535.192	6231.86
535.557	6312.31
535.923	6328.35
536.288	6320.44
536.653	6363.38
537.019	6289.93
537.384	6386.2
537.749	6390.5
538.114	6380.1
538.479	6365.41
538.845	6345.98
539.21	6383.04
539.575	6405.86
539.94	6451.06
540.305	6518.85
540.67	6433.43
541.034	6523.6
541.399	6504.62
541.764	6455.13
542.129	6544.84
542.494	6507.55
542.858	6554.11
543.223	6579.19
543.587	6603.15
543.952	6582.81
544.316	6583.26
544.681	6573.77
545.045	6635.24
545.41	6645.86
545.774	6628.91
546.138	6618.29
546.503	6663.71
546.867	6702.8
547.231	6682.92
547.595	6709.13
547.959	6738.51
548.324	6728.57
548.688	6707.1
549.052	6730.83
549.416	6771.05
549.779	6766.31
550.143	6776.7
550.507	6764.27
550.871	6819.19
551.235	6734.22
551.599	6876.36
551.962	6922.01
552.326	6837.72
552.689	6879.3
553.053	6838.17
553.417	6847.88
553.78	6926.75
554.143	6915.68
554.507	6951.84
554.87	6932.4
555.234	7046.52
555.597	6958.16
555.96	6971.95
556.323	7023.93
556.686	7049.46
557.05	6990.48
557.413	7063.7
557.776	7050.59
558.139	7053.98
558.502	7112.06
558.865	7100.76
559.228	7129.69
559.59	7139.18
559.953	7196.8
560.316	7204.71
560.679	7207.2
561.041	7259.17
561.404	7304.82
561.767	7292.39
562.129	7267.76
562.492	7363.8
562.854	7368.55
563.217	7370.36
563.579	7435.21
563.941	7453.52
564.304	7446.51
564.666	7491.71
565.028	7472.73
565.39	7506.17
565.753	7603.57
566.115	7583.68
566.477	7572.16
566.839	7640.86
567.201	7730.57
567.563	7703.23
567.925	7681.76
568.287	7776
568.648	7795.2
569.01	7818.48
569.372	7848.08
569.734	7795.66
570.095	7921.98
570.457	7897.35
570.819	7961.53
571.18	7970.79
571.542	8002.43
571.903	7932.83
572.265	8038.36
572.626	8052.15
572.987	8178.02
573.349	8085.14
573.71	8105.25
574.071	8184.35
574.432	8196.78
574.794	8309.54
575.155	8271.35
575.516	8266.38
575.877	8287.85
576.238	8401.29
576.599	8445.13
576.96	8393.16
577.32	8416.21
577.681	8488.29
578.042	8524.9
578.403	8547.5
578.763	8566.48
579.124	8643.77
579.485	8664.79
579.845	8752.92
580.206	8752.02
580.566	8795.18
580.927	8811.22
581.287	8923.31
581.648	8910.66
582.008	8924.89
582.368	8986.81
582.728	9081.72
583.089	9034.95
583.449	9182.51
583.809	9193.81
584.169	9253.25
584.529	9302.51
584.889	9394.03
585.249	9358.78
585.609	9444.43
585.969	9499.57
586.329	9571.43
586.688	9607.36
587.048	9587.47
587.408	9706.57
587.768	9830.86
588.127	9862.95
588.487	9886.45
588.846	9971.19
589.206	9996.95
589.565	10053.22
589.925	10153.56
590.284	10168.48
590.643	10266.1
591.003	10337.51
591.362	10429.49
591.721	10430.84
592.08	10499.54
592.44	10685.98
592.799	10679.42
593.158	10639.88
593.517	10777.05
593.876	10896.59
594.235	10859.98
594.593	10918.29
594.952	11043.48
595.311	11075.8
595.67	11123.93
596.029	11265.4
596.387	11279.63
596.746	11373.87
597.104	11334.09
597.463	11431.95
597.822	11547.87
598.18	11518.5
598.538	11533.64
598.897	11659.28
599.255	11608.89
599.613	11856.11
599.972	11836.23
600.33	11908.54
600.688	11952.16
601.046	11952.84
601.404	12017.47
601.762	12042.78
602.12	12164.13
602.478	12186.95
602.836	12222.88
603.194	12250.68
603.552	12285.26
603.91	12311.47
604.268	12374.29
604.625	12305.14
604.983	12471.92
605.341	12406.38
605.698	12551.92
606.056	12577.23
606.413	12632.82
606.771	12742.87
607.128	12682.53
607.485	12728.86
607.843	12692.7
608.2	12797.78
608.557	12895.18
608.914	12867.39
609.272	12861.96
609.629	12981.06
609.986	12933.6
610.343	12960.94
610.7	13129.3
611.057	13123.43
611.414	13087.27
611.771	13178.79
612.127	13264.89
612.484	13253.82
612.841	13247.49
613.198	13259.24
613.554	13359.13
613.911	13522.74
614.267	13350.99
614.624	13421.27
614.98	13406.58
615.337	13399.13
615.693	13453.59
616.05	13522.74
616.406	13594.6
616.762	13514.38
617.118	13638.44
617.475	13543.98
617.831	13576.3
618.187	13694.03
618.543	13792.56
618.899	13799.79
619.255	13723.18
619.611	13742.62
619.967	13866.68
620.323	13781.49
620.678	13836.4
621.034	13782.84
621.39	13877.98
621.746	13834.59
622.101	13910.52
622.457	13847.93
622.812	13966.57
623.168	13912.11
623.523	13837.08
623.879	13956.62
624.234	13923.41
624.589	13969.51
624.945	14021.26
625.3	14010.86
625.655	13994.59
626.01	14033.91
626.365	13951.65
626.72	13923.41
627.075	13944.2
627.43	13970.86
627.785	13993.23
628.14	14018.54
628.495	14043.18
628.85	13915.72
629.205	13980.8
629.559	14003.18
629.914	13939.22
630.269	14021.03
630.623	13972.9
630.978	13950.07
631.332	14016.28
631.687	14085.43
632.041	13907.81
632.396	13945.78
632.75	13914.14
633.104	13921.6
633.459	13917.98
633.813	13840.02
634.167	13910.07
634.521	13886.8
634.875	13906.68
635.229	13929.73
635.583	13786.01
635.937	13801.37
636.291	13741.49
636.645	13788.72
636.999	13744.88
637.352	13812.67
637.706	13718.44
638.06	13808.38
638.413	13684.09
638.767	13687.25
639.121	13701.49
639.474	13729.74
639.828	13614.71
640.181	13679.57
640.534	13649.29
640.888	13621.49
641.241	13524.32
641.594	13633.47
641.947	13715.95
642.301	13647.93
642.654	13669.85
643.007	13646.8
643.36	13600.48
643.713	13608.16
644.066	13669.4
644.419	13567.93
644.771	13416.98
645.124	13448.39
645.477	13312.8
645.83	13306.92
646.182	13124.78
646.535	13188.74
646.888	13229.19
647.24	13143.09
647.593	13198.45
647.945	13173.14
648.298	13140.37
648.65	13106.48
649.002	13013.6
649.355	13193.25
649.707	13127.27
650.059	13204.33
650.411	13380.14
650.763	13370.88
651.115	13543.08
651.467	13450.65
651.819	13497.88
652.171	13506.92
652.523	13477.54
652.875	13534.94
653.227	13407.71
653.578	13506.69
653.93	13448.16
654.282	13462.85
654.633	13467.6
654.985	13494.49
655.337	13467.37
655.688	13482.51
656.039	13506.47
656.391	13433.47
656.742	13397.09
657.094	13478.45
657.445	13496.98
657.796	13499.24
658.147	13444.32
658.498	13450.42
658.849	13525.68
659.2	13442.29
659.551	13440.93
659.902	13490.2
660.253	13463.3
660.604	13445
660.955	13479.12
661.306	13555.96
661.656	13512.34
662.007	13508.27
662.358	13560.02
662.708	13499.46
663.059	13581.04
663.409	13454.49
663.76	13555.51
664.11	13499.24
664.461	13500.14
664.811	13468.5
665.161	13586.69
665.511	13503.3
665.862	13563.19
666.212	13591.44
666.562	13531.55
666.912	13621.94
667.262	13552.57
667.612	13499.01
667.962	13644.09
668.312	13576.52
668.662	13575.39
669.011	13544.88
669.361	13581.49
669.711	13564.54
670.06	13562.96
670.41	13503.08
670.76	13469.41
671.109	13612.45
671.459	13534.04
671.808	13471.21
672.157	13637.54
672.507	13408.62
672.856	13499.01
673.205	13557.54
673.554	13478.22
673.904	13486.81
674.253	13528.39
674.602	13494.72
674.951	13303.08
675.3	13193.71
675.649	13426.92
675.998	13472.12
676.346	13384.44
676.695	13447.94
677.044	13368.17
677.393	13386.7
677.741	13453.13
678.09	13355.28
678.438	13240.94
678.787	13399.58
679.135	13302.4
679.484	13195.51
679.832	13275.29
680.181	13163.2
680.529	13187.61
680.877	13275.51
681.225	13169.75
681.573	13292.24
681.922	13229.64
682.27	13133.82
682.618	13110.32
682.966	13051.56
683.314	13119.58
683.661	13025.58
684.009	13002.07
684.357	12866.26
684.705	13003.88
685.053	12965.46
685.4	12883.43
685.748	12853.6
686.095	12854.51
686.443	12791.23
686.79	12814.06
687.138	12751.91
687.485	12838.91
687.832	12799.14
688.18	12727.96
688.527	12632.59
688.874	12648.86
689.221	12607.73
689.568	12562.99
689.915	12545.36
690.262	12507.85
690.609	12455.65
690.956	12391.69
691.303	12428.3
691.65	12308.98
691.997	12293.62
692.344	12212.94
692.69	12259.04
693.037	12220.17
693.383	12132.27
693.73	12156.22
694.077	12053.4
694.423	12040.06
694.769	11977.47
695.116	12016.11
695.462	11892.5
695.808	11852.27
696.155	11930.69
696.501	11856.11
696.847	11816.12
697.193	11660.19
697.539	11770.47
697.885	11581.09
698.231	11560.53
698.577	11644.37
698.923	11525.95
699.269	11469.68
699.614	11477.59
699.96	11400.99
700.306	11431.27
700.651	11245.06
700.997	11281.21
701.342	11333.19
701.688	11233.98
702.033	11213.19
702.379	11128.45
702.724	11103.14
703.069	11154.21
703.415	10963.71
703.76	10985.4
704.105	11001.9
704.45	10982.24
704.795	10895.24
705.14	10822.02
705.485	10823.6
705.83	10831.96
706.175	10797.39
706.52	10814.11
706.865	10719.65
707.209	10716.94
707.554	10673.77
707.899	10682.13
708.243	10577.96
708.588	10556.49
708.932	10455.7
709.277	10564.85
709.621	10423.84
709.966	10456.6
710.31	10492.08
710.654	10380
710.998	10401.24
711.342	10373.67
711.687	10391.07
712.031	10363.5
712.375	10312.65
712.719	10236.95
713.063	10257.29
713.407	10302.03
713.75	10195.14
714.094	10201.24
714.438	10175.26
714.782	10167.35
715.125	10162.15
715.469	10177.29
715.812	10100.68
716.156	10012.55
716.499	10037.63
716.843	10022.72
717.186	9942.94
717.53	10015.94
717.873	9966.67
718.216	9896.17
718.559	9945.66
718.902	9798.09
719.246	9907.24
719.589	9783.85
719.932	9878.54
720.275	9813.46
720.617	9821.59
720.96	9824.98
721.303	9835.83
721.646	9817.52
721.989	9706.57
722.331	9749.5
722.674	9783.85
723.016	9777.98
723.359	9745.44
723.701	9829.73
724.044	9675.61
724.386	9701.6
724.729	9676.51
725.071	9684.19
725.413	9739.79
725.755	9635.61
726.097	9669.05
726.439	9580.69
726.782	9647.81
727.124	9640.35
727.465	9670.18
727.807	9659.56
728.149	9547.93
728.491	9566.46
728.833	9549.73
729.175	9551.77
729.516	9584.31
729.858	9568.04
730.199	9592.22
730.541	9521.94
730.882	9538.66
731.224	9559.68
731.565	9545.67
731.906	9522.39
732.248	9540.47
732.589	9497.53
732.93	9503.18
733.271	9508.15
733.612	9490.98
733.953	9548.6
734.294	9488.95
734.635	9507.25
734.976	9512
735.317	9563.07
735.658	9533.01
735.999	9555.61
736.339	9564.42
736.68	9546.12
737.021	9540.7
737.361	9463.86
737.702	9561.03
738.042	9531.88
738.383	9535.5
738.723	9605.55
739.063	9616.17
739.404	9582.05
739.744	9661.37
740.084	9631.54
740.424	9698.43
740.764	9660.92
741.104	9645.1
741.444	9639.22
741.784	9640.13
742.124	9691.88
742.464	9623.18
742.804	9705.89
743.143	9774.14
743.483	9733.68
743.823	9721.71
744.162	9718.09
744.502	9856.39
744.841	9867.01
745.181	9882.61
745.52	9946.11
745.86	9963.74
746.199	10039.67
746.538	10014.81
746.877	10051.64
747.216	10080.79
747.556	10095.03
747.895	10156.72
748.234	10209.83
748.573	10194.01
748.911	10302.48
749.25	10416.83
749.589	10503.83
749.928	10488.47
750.267	10638.52
750.605	10688.91
750.944	10675.13
751.283	10744.51
751.621	10901.79
751.96	10975.69
752.298	10990.6
752.636	11103.82
752.975	11193.08
753.313	11317.6
753.651	11452.51
753.989	11532.28
754.327	11559.63
754.666	11667.42
755.004	11857.92
755.342	11886.4
755.679	12127.29
756.017	12128.88
756.355	12386.72
756.693	12453.39
757.031	12557.57
757.368	12597.34
757.706	12761.85
758.044	12988.74
758.381	13082.98
758.719	13220.6
759.056	13292.24
759.394	13446.36
759.731	13555.05
760.068	13684.99
760.405	13750.98
760.743	13943.74
761.08	14204.53
761.417	14290.85
761.754	14379.44
762.091	14517.74
762.428	14676.38
762.765	14748.47
763.102	14964.28
763.438	15048.35
763.775	15149.36
764.112	15372.86
764.449	15522.46
764.785	15578.73
765.122	15653.08
765.458	15741.44
765.795	15984.82
766.131	16094.87
766.467	16217.13
766.804	16258.48
767.14	16345.71
767.476	16561.75
767.812	16584.8
768.148	16798.58
768.485	16755.87
768.821	16928.98
769.157	17045.81
769.492	17058.01
769.828	17171
770.164	17111.12
770.5	17189.53
770.836	17363.54
771.171	17469.3
771.507	17504.55
771.842	17570.09
772.178	17653.7
772.513	17629.3
772.849	17689.18
773.184	17797.65
773.519	17802.63
773.855	17803.53
774.19	17839.69
774.525	17836.3
774.86	17914.71
775.195	18002.17
775.53	18029.74
775.865	18006.46
776.2	17982.51
776.535	17985.9
776.87	18070.19
777.205	18037.65
777.539	18003.3
777.874	17997.65
778.209	17958.33
778.543	18107.25
778.878	18032.9
779.212	18048.27
779.547	18072.67
779.881	18124.2
780.215	18055.27
780.55	18168.27
780.884	17994.26
781.218	18117.87
781.552	18092.11
781.886	18105.89
782.22	17950.64
782.554	17998.78
782.888	17839.46
783.222	17908.61
783.556	17868.16
783.889	17808.27
784.223	17782.51
784.557	17756.75
784.89	17850.53
785.224	17771.44
785.557	17656.19
785.891	17677.2
786.224	17650.09
786.558	17706.58
786.891	17594.72
787.224	17486.48
787.557	17416.19
787.891	17639.92
788.224	17556.76
788.557	17555.85
788.89	17418.91
789.223	17495.06
789.556	17439.47
789.888	17391.34
790.221	17345.24
790.554	17315.18
790.887	17298.46
791.219	17215.75
791.552	17213.04
791.884	17140.5
792.217	17109.31
792.549	17045.13
792.882	16966.94
793.214	16945.7
793.546	17003.1
793.879	16945.25
794.211	16760.39
794.543	16884.46
794.875	16742.31
795.207	16884.01
795.539	16735.53
795.871	16777.79
796.203	16612.37
796.535	16543.9
796.867	16474.3
797.198	16550.45
797.53	16481.53
797.862	16397.69
798.193	16404.24
798.525	16304.36
798.856	16381.42
799.188	16144.36
799.519	16160.63
799.85	16089.68
800.182	16165.83
800.513	16071.82
800.844	15919.06
801.175	16127.87
801.506	16062.33
801.837	16036.34
802.168	15904.6
802.499	15966.74
802.83	15751.61
803.161	15838.83
803.491	15830.47
803.822	15708.89
804.153	15655.34
804.483	15619.41
804.814	15501.44
805.145	15603.36
805.475	15532.85
805.805	15467.55
806.136	15389.81
806.466	15429.13
806.796	15425.96
807.126	15248.12
807.457	15325.4
807.787	15310.04
808.117	15183.48
808.447	15279.98
808.777	15149.36
809.107	15208.34
809.436	15081.57
809.766	15140.1
810.096	14980.33
810.426	14969.25
810.755	14976.03
811.085	14881.12
811.414	14917.5
811.744	14766.09
812.073	14757.51
812.403	14787.79
812.732	14735.14
813.061	14794.12
813.39	14571.98
813.719	14721.12
814.049	14661.24
814.378	14565.65
814.707	14518.19
815.036	14493.33
815.365	14449.72
815.693	14309.84
816.022	14371.75
816.351	14388.25
816.68	14329.04
817.008	14427.35
817.337	14186.9
817.665	14186
817.994	14191.65
818.322	14182.38
818.651	14219.44
818.979	14114.59
819.307	14185.55
819.636	14127.92
819.964	14071.2
820.292	14117.98
820.62	14083.4
820.948	14017.64
821.276	14044.76
821.604	14037.07
821.932	14064.19
822.259	14060.8
822.587	14024.65
822.915	14006.34
823.243	13991.43
823.57	13934.03
823.898	13985.32
824.225	13969.28
824.553	14034.59
824.88	13975.38
825.207	13976.74
825.535	13977.87
825.862	14056.51
826.189	13977.19
826.516	14055.15
826.843	14018.32
827.17	14075.04
827.497	14071.65
827.824	14110.07
828.151	14011.99
828.478	14063.74
828.805	14103.74
829.131	13966.57
829.458	14001.14
829.785	13947.81
830.111	13980.13
830.438	13937.42
830.764	14004.76
831.09	14036.4
831.417	13898.32
831.743	14049.05
832.069	14003.18
832.395	13955.49
832.722	13925.21
833.048	13893.12
833.374	13958.88
833.7	13797.08
834.026	13863.29
834.351	13954.59
834.677	13823.07
835.003	13843.18
835.329	13866.01
835.654	13815.84
835.98	13830.07
836.306	13815.39
836.631	13685.22
836.956	13793.47
837.282	13741.04
837.607	13710.3
837.932	13783.97
838.258	13677.08
838.583	13651.77
838.908	13650.64
839.233	13707.37
839.558	13636.86
839.883	13573.81
840.208	13599.35
840.533	13512.57
840.858	13520.7
841.182	13493.81
841.507	13455.62
841.832	13415.4
842.156	13428.5
842.481	13431.44
842.805	13400.26
843.13	13268.73
843.454	13286.81
843.778	13226.25
844.103	13222.18
844.427	13220.6
844.751	13209.3
845.075	13125.91
845.399	13062.86
845.723	13061.51
846.047	13044.56
846.371	12995.29
846.695	12872.36
847.019	12840.72
847.343	12732.25
847.666	12728.63
847.99	12687.28
848.313	12614.51
848.637	12602.99
848.96	12544.68
849.284	12549.43
849.607	12367.74
849.931	12320.28
850.254	12285.03
850.577	12215.2
850.9	12188.99
851.223	12166.84
851.546	12120.51
851.869	12059.05
852.192	12137.92
852.515	11981.08
852.838	12008.65
853.161	11902.44
853.483	11860.63
853.806	11918.94
854.129	11774.08
854.451	11653.86
854.774	11771.37
855.096	11728.21
855.419	11636.91
855.741	11631.71
856.063	11584.03
856.385	11521.89
856.708	11518.04
857.03	11423.13
857.352	11429.69
857.674	11417.26
857.996	11354.89
858.318	11340.42
858.64	11329.12
858.961	11283.02
859.283	11285.96
859.605	11160.99
859.926	11231.95
860.248	11214.1
860.57	11099.07
860.891	11120.31
861.212	10977.27
861.534	10991.96
861.855	10939.53
862.176	11061.56
862.498	10979.3
862.819	11031.5
863.14	10902.24
863.461	10910.15
863.782	10894.33
864.103	10937.49
864.424	10833.09
864.745	10840.77
865.065	10784.28
865.386	10782.24
865.707	10787.44
866.027	10757.61
866.348	10734.34
866.668	10768.91
866.989	10646.88
867.309	10639.65
867.63	10650.5
867.95	10650.95
868.27	10569.14
868.59	10541.12
868.91	10605.3
869.23	10577.05
869.55	10480.11
869.87	10576.15
870.19	10511.07
870.51	10448.02
870.83	10464.51
871.15	10469.26
871.469	10397.62
871.789	10522.36
872.109	10379.77
872.428	10320.34
872.748	10448.02
873.067	10383.84
873.386	10372.09
873.706	10371.63
874.025	10350.84
874.344	10276.5
874.663	10309.71
874.982	10204.86
875.301	10276.72
875.62	10198.53
875.939	10191.75
876.258	10177.51
876.577	10204.41
876.896	10230.85
877.214	10111.3
877.533	10180.45
877.852	10180
878.17	10153.11
878.489	10146.33
878.807	10135.26
879.125	10048.03
879.444	10062.49
879.762	9974.58
880.08	10015.94
880.398	9918.54
880.716	10072.88
881.034	9967.58
881.352	9953.79
881.67	9917.41
881.988	9859.56
882.306	9844.87
882.624	9824.76
882.941	9808.94
883.259	9769.84
883.577	9703.18
883.894	9731.42
884.212	9708.37
884.529	9714.93
884.846	9719.22
885.164	9689.84
885.481	9641.94
885.798	9616.85
886.115	9555.61
886.432	9534.37
886.75	9577.76
887.067	9535.05
887.383	9440.81
887.7	9476.97
888.017	9433.35
888.334	9405.33
888.651	9466.8
888.967	9399.91
889.284	9338.89
889.6	9306.35
889.917	9236.75
890.233	9285.56
890.55	9212.79
890.866	9202.17
891.182	9264.77
891.498	9166.69
891.815	9134.15
892.131	9076.3
892.447	9051.22
892.763	9062.06
893.079	9013.93
893.395	8987.72
893.71	8924.67
894.026	8938.23
894.342	8919.47
894.657	8851.67
894.973	8810.55
895.289	8820.71
895.604	8801.28
895.92	8766.7
896.235	8778.91
896.55	8755.41
896.865	8736.87
897.181	8651
897.496	8589.08
897.811	8578.91
898.126	8623.88
898.441	8557.44
898.756	8482.19
899.071	8413.72
899.386	8402.19
899.7	8460.05
900.015	8358.13
900.33	8284.23
900.644	8301.18
900.959	8275.64
901.273	8266.38
901.588	8253.05
901.902	8264.34
902.216	8149.55
902.531	8184.8
902.845	8086.5
903.159	8100.73
903.473	7997.23
903.787	8041.3
904.101	7935.99
904.415	7946.84
904.729	7886.95
905.042	7853.73
905.356	7898.93
905.67	7801.76
905.984	7846.95
906.297	7801.98
906.611	7733.96
906.924	7677.02
907.237	7716.79
907.551	7666.39
907.864	7652.84
908.177	7628.43
908.491	7592.27
908.804	7550.01
909.117	7497.81
909.43	7386.4
909.743	7392.05
910.056	7432.5
910.368	7382.33
910.681	7341.21
910.994	7359.96
911.307	7309.79
911.619	7241.09
911.932	7234.09
912.244	7178.95
912.557	7184.6
912.869	7075.9
913.181	7114.09
913.494	7075.9
913.806	6985.06
914.118	7040.42
914.43	7026.41
914.742	6973.98
915.054	6880.88
915.366	6938.5
915.678	6886.3
915.99	6811.5
916.302	6793.2
916.613	6801.78
916.925	6829.35
917.236	6778.06
917.548	6697.38
917.859	6710.49
918.171	6670.26
918.482	6675.69
918.794	6579.42
919.105	6609.25
919.416	6573.32
919.727	6527.67
920.038	6500.32
920.349	6450.61
920.66	6475.69
920.971	6447.22
921.282	6371.06
921.593	6386.43
921.903	6270.05
922.214	6327.22
922.525	6314.34
922.835	6225.53
923.146	6210.61
923.456	6169.71
923.767	6212.87
924.077	6213.33
924.387	6192.31
924.697	6141.24
925.008	6108.92
925.318	6063.95
925.628	6069.37
925.938	6007
926.248	5973.33
926.558	5934.01
926.867	5942.37
927.177	5919.55
927.487	5922.94
927.796	5874.35
928.106	5876.39
928.416	5790.74
928.725	5751.19
929.034	5721.81
929.344	5774.01
929.653	5704.41
929.962	5679.78
930.271	5671.19
930.581	5646.79
930.89	5617.41
931.199	5606.11
931.508	5566.56
931.817	5579.9
932.125	5552.78
932.434	5518.88
932.743	5410.18
933.051	5379.45
933.36	5367.7
933.669	5398.66
933.977	5373.8
934.286	5332.44
934.594	5403.86
934.902	5307.13
935.21	5276.85
935.519	5297.19
935.827	5291.99
936.135	5210.64
936.443	5197.76
936.751	5154.6
937.059	5146.23
937.367	5158.44
937.674	5151.88
937.982	5123.41
938.29	5047.25
938.597	5070.98
938.905	5025.33
939.213	5014.71
939.52	4960.02
939.827	5021.94
940.135	4969.06
940.442	4959.12
940.749	4940.14
941.056	4966.13
941.363	4883.19
941.67	4857.88
941.977	4809.29
942.284	4809.29
942.591	4815.4
942.898	4779.69
943.205	4775.85
943.511	4688.62
943.818	4725.45
944.125	4694.5
944.431	4651.56
944.738	4646.81
945.044	4647.49
945.35	4614.05
945.657	4601.39
945.963	4566.14
946.269	4553.71
946.575	4574.5
946.881	4533.6
947.187	4474.84
947.493	4427.84
947.799	4463.77
948.105	4459.02
948.41	4440.94
948.716	4389.42
949.022	4366.14
949.327	4370.89
949.633	4329.53
949.938	4340.15
950.244	4357.55
950.549	4255.18
950.854	4219.48
951.16	4240.72
951.465	4226.71
951.77	4153.49
952.075	4195.53
952.38	4169.54
952.685	4168.41
952.99	4135.64
953.294	4093.16
953.599	4112.36
953.904	4109.43
954.209	4073.27
954.513	4031.69
954.818	4033.27
955.122	4001.63
955.426	3976.1
955.731	3998.24
956.035	3923.44
956.339	3962.99
956.643	3902.88
956.948	3892.93
957.252	3902.88
957.556	3912.14
957.86	3846.83
958.163	3844.8
958.467	3805.48
958.771	3784.69
959.075	3827.4
959.378	3762.54
959.682	3748.31
959.985	3772.49
960.289	3723.22
960.592	3725.48
960.896	3700.17
961.199	3659.27
961.502	3652.04
961.805	3631.7
962.108	3604.35
962.411	3625.37
962.714	3626.95
963.017	3578.14
963.32	3603
963.623	3546.28
963.926	3515.32
964.228	3516.9
964.531	3518.48
964.833	3514.64
965.136	3487.3
965.438	3448.2
965.741	3473.96
966.043	3363.46
966.345	3436.9
966.648	3420.18
966.95	3385.15
967.252	3371.37
967.554	3386.51
967.856	3390.35
968.158	3327.98
968.46	3299.5
968.761	3283.23
969.063	3270.35
969.365	3268.32
969.666	3295.21
969.968	3247.08
970.269	3243.46
970.571	3211.6
970.872	3236.23
971.174	3182.44
971.475	3147.64
971.776	3139.96
972.077	3137.25
972.378	3101.32
972.679	3140.64
972.98	3105.38
973.281	3084.59
973.582	3091.83
973.883	3067.42
974.183	3081.66
974.484	3044.6
974.785	3033.97
975.085	3001.66
975.386	3024.48
975.686	2956.91
975.986	2998.27
976.287	2971.38
976.587	2942
976.887	2970.25
977.187	2930.93
977.487	2964.82
977.787	2921.89
978.087	2895.9
978.387	2851.83
978.687	2864.49
978.987	2867.88
979.286	2822.68
979.586	2783.81
979.885	2757.82
980.185	2805.73
980.484	2786.3
980.784	2753.53
981.083	2755.34
981.382	2759.63
981.682	2708.11
981.981	2664.49
982.28	2717.82
982.579	2691.61
982.878	2696.13
983.177	2682.8
983.475	2675.11
983.774	2661.78
984.073	2639.18
984.372	2618.62
984.67	2639.18
984.969	2593.31
985.267	2619.52
985.566	2602.8
985.864	2532.07
986.162	2532.97
986.461	2555.57
986.759	2480.09
987.057	2502.24
987.355	2519.86
987.653	2504.95
987.951	2478.96
988.249	2472.86
988.547	2492.97
988.844	2478.28
989.142	2416.36
989.44	2405.74
989.737	2423.59
990.035	2409.13
990.332	2375.46
990.63	2391.96
990.927	2375.46
991.224	2383.14
991.521	2387.89
991.819	2343.82
992.116	2343.6
992.413	2345.86
992.71	2300.21
993.006	2311.96
993.303	2298.63
993.6	2299.53
993.897	2278.29
994.193	2237.16
994.49	2235.58
994.787	2229.93
995.083	2213.43
995.379	2223.83
995.676	2231.28
995.972	2182.47
996.268	2163.49
996.565	2131.4
996.861	2164.39
997.157	2146.31
997.453	2140.66
997.749	2097.95
998.044	2089.37
998.34	2106.54
998.636	2100.89
998.932	2082.59
999.227	2070.61
999.523	2049.59
999.818	2047.11
1000.114	2019.54
1000.409	2026.77
1000.704	2019.31
1001	2027.67
1001.295	1988.58
1001.59	2006.43
1001.885	1980.89
1002.18	1942.93
1002.475	1941.8
1002.77	1934.57
1003.065	1920.33
1003.359	1903.61
1003.654	1908.13
1003.949	1895.7
1004.243	1896.83
1004.538	1887.34
1004.832	1861.35
1005.127	1842.37
1005.421	1834.46
1005.715	1836.04
1006.009	1819.77
1006.304	1818.41
1006.598	1829.94
1006.892	1799.43
1007.186	1758.75
1007.48	1767.11
1007.773	1763.27
1008.067	1736.15
1008.361	1747.91
1008.655	1749.49
1008.948	1733.67
1009.242	1723.05
1009.535	1712.88
1009.829	1708.13
1010.122	1695.93
1010.415	1693.22
1010.708	1689.83
1011.001	1654.58
1011.295	1646.44
1011.588	1645.76
1011.881	1641.92
1012.173	1591.75
1012.466	1618.42
1012.759	1598.76
1013.052	1582.49
1013.344	1590.85
1013.637	1574.58
1013.93	1563.28
1014.222	1552.88
1014.514	1540.68
1014.807	1520.57
1015.099	1545.43
1015.391	1519.66
1015.683	1531.64
1015.976	1501.81
1016.268	1507.01
1016.56	1492.77
1016.851	1489.38
1017.143	1500.23
1017.435	1481.25
1017.727	1431.53
1018.018	1431.53
1018.31	1424.07
1018.602	1451.64
1018.893	1423.85
1019.185	1436.05
1019.476	1407.58
1019.767	1375.26
1020.058	1379.1
1020.35	1375.49
1020.641	1353.11
1020.932	1359.44
1021.223	1368.71
1021.514	1327.13
1021.804	1318.09
1022.095	1305.88
1022.386	1309.05
1022.677	1295.26
1022.967	1297.97
1023.258	1293.68
1023.548	1286.22
1023.839	1276.05
1024.129	1260.01
1024.419	1239.67
1024.709	1236.73
1025	1216.85
1025.29	1231.54
1025.58	1214.59
1025.87	1212.78
1026.16	1205.1
1026.449	1190.41
1026.739	1182.27
1027.029	1204.87
1027.319	1149.05
1027.608	1133.01
1027.898	1131.43
1028.187	1133.23
1028.477	1132.1
1028.766	1153.8
1029.055	1137.3
1029.344	1119.67
1029.634	1099.56
1029.923	1076.96
1030.212	1104.31
1030.501	1080.8
1030.79	1078.77
1031.078	1066.12
1031.367	1056.4
1031.656	1076.96
1031.945	1068.83
1032.233	1053.01
1032.522	1017.98
1032.81	1025.21
1033.099	1045.1
1033.387	1048.26
1033.675	1018.43
1033.963	1006.46
1034.251	1020.69
1034.54	1001.94
1034.828	1037.64
1035.116	995.84
1035.403	981.6
1035.691	980.92
1035.979	978.43
1036.267	966.46
1036.554	950.41
1036.842	949.28
1037.129	934.14
1037.417	925.33
1037.704	924.2
1037.992	917.42
1038.279	927.36
1038.566	931.2
1038.853	931.2
1039.14	931.2
