Data from hue_290_FLMS001491_00088.txt Node
Date: Tue Feb 07 15:53:24 GMT 2017
User: dcchb
Spectrometer: FLMS00149
Trigger mode: 0
Integration Time (sec): 2.000000E-2
Scans to average: 10
Electric dark correction enabled: true
Nonlinearity correction enabled: false
Boxcar width: 0
XAxis mode: Wavelengths
Number of Pixels in Spectrum: 2048
>>>>>Begin Spectral Data<<<<<
341.393	-14.52
341.776	-14.52
342.16	-14.52
342.543	-52.03
342.927	-62.88
343.31	-61.52
343.693	-74.4
344.077	-83.22
344.46	-45.71
344.843	-44.35
345.226	-49.32
345.61	-26.5
345.993	-12.71
346.376	2.43
346.759	0.62
347.142	16.44
347.525	39.26
347.908	49.21
348.291	82.2
348.674	99.83
349.057	107.74
349.44	113.61
349.823	146.61
350.206	138.24
350.588	186.83
350.971	193.84
351.354	201.97
351.737	226.6
352.119	235.19
352.502	256.66
352.884	241.29
353.267	251.91
353.65	276.09
354.032	284.91
354.414	285.13
354.797	321.52
355.179	314.96
355.562	321.97
355.944	315.64
356.326	312.48
356.709	340.95
357.091	318.58
357.473	331.46
357.855	327.39
358.238	332.82
358.62	331.91
359.002	333.49
359.384	315.19
359.766	320.39
360.148	308.18
360.53	323.78
360.912	309.09
361.294	317
361.676	296.88
362.057	332.14
362.439	308.41
362.821	321.52
363.203	336.43
363.584	308.41
363.966	320.16
364.348	307.73
364.729	331.91
365.111	302.76
365.493	309.77
365.874	303.21
366.256	306.38
366.637	317
367.019	285.13
367.4	298.01
367.781	301.86
368.163	310.22
368.544	295.98
368.925	319.03
369.306	307.28
369.688	297.56
370.069	304.79
370.45	293.27
370.831	315.42
371.212	276.32
371.593	307.96
371.974	303.21
372.355	300.5
372.736	315.64
373.117	302.76
373.498	307.51
373.879	302.99
374.26	310.22
374.641	300.5
375.021	286.49
375.402	312.7
375.783	295.3
376.163	334.17
376.544	336.88
376.925	306.6
377.305	310.44
377.686	297.56
378.066	306.6
378.447	328.3
378.827	331.69
379.208	329.65
379.588	317.68
379.968	327.84
380.349	330.78
380.729	337.34
381.109	312.25
381.489	330.33
381.87	338.69
382.25	330.33
382.63	310.67
383.01	334.62
383.39	327.84
383.77	358.13
384.15	351.35
384.53	360.39
384.91	334.17
385.29	341.63
385.67	362.19
386.049	373.72
386.429	336.21
386.809	346.83
387.189	366.26
387.568	360.16
387.948	336.43
388.328	344.57
388.707	375.75
389.087	352.25
389.466	368.07
389.846	354.74
390.225	344.34
390.605	376.88
390.984	365.36
391.363	347.05
391.743	357.22
392.122	366.49
392.501	350.22
392.881	371.46
393.26	381.4
393.639	395.64
394.018	394.06
394.397	377.11
394.776	382.76
395.155	375.07
395.534	376.2
395.913	378.69
396.292	401.74
396.671	389.99
397.05	380.27
397.429	391.8
397.808	398.58
398.186	401.51
398.565	400.61
398.944	407.39
399.323	397.45
399.701	417.11
400.08	387.5
400.458	397.45
400.837	410.33
401.215	404.68
401.594	401.74
401.972	402.87
402.351	418.01
402.729	424.11
403.107	425.02
403.486	403.1
403.864	420.27
404.242	435.64
404.62	449.2
404.999	453.94
405.377	443.55
405.755	453.26
406.133	449.2
406.511	478.57
406.889	453.94
407.267	470.67
407.645	449.2
408.023	476.54
408.401	472.25
408.779	494.85
409.156	502.08
409.534	492.59
409.912	489.2
410.29	500.5
410.667	527.16
411.045	522.64
411.422	534.62
411.8	536.88
412.178	539.82
412.555	552.47
412.933	558.12
413.31	558.35
413.687	584.56
414.065	584.33
414.442	593.15
414.819	572.81
415.197	610.32
415.574	616.65
415.951	592.47
416.328	634.5
416.705	655.52
417.082	646.25
417.46	652.36
417.837	650.32
418.214	676.76
418.591	671.79
418.967	701.17
419.344	681.51
419.721	696.65
420.098	694.84
420.475	688.29
420.852	703.88
421.228	702.3
421.605	721.28
421.982	733.03
422.358	753.37
422.735	724.44
423.111	770.54
423.488	795.18
423.864	774.61
424.241	793.37
424.617	806.48
424.994	808.51
425.37	816.65
425.746	809.19
426.123	832.69
426.499	815.97
426.875	840.15
427.251	859.36
427.627	863.88
428.003	879.92
428.379	894.84
428.756	897.55
429.132	902.97
429.507	937.55
429.883	951.33
430.259	937.55
430.635	957.66
431.011	960.82
431.387	984.78
431.763	1014.83
432.138	1006.92
432.514	1023.87
432.89	1032.68
433.265	1069.75
433.641	1057.32
434.016	1040.82
434.392	1077.66
434.767	1105.23
435.143	1118.78
435.518	1140.7
435.894	1107.26
436.269	1165.11
436.644	1177.99
437.02	1167.14
437.395	1177.77
437.77	1214.15
438.145	1208.95
438.52	1208.27
438.895	1221.38
439.271	1237.88
439.646	1272
440.021	1253.47
440.395	1283.07
440.77	1284.66
441.145	1285.56
441.52	1301.6
441.895	1284.43
442.27	1319.23
442.645	1316.75
443.019	1354.03
443.394	1340.7
443.769	1335.73
444.143	1356.97
444.518	1358.78
444.892	1377.76
445.267	1374.14
445.641	1391.09
446.016	1399.23
446.39	1384.99
446.764	1403.07
447.139	1396.52
447.513	1409.62
447.887	1461.6
448.262	1415.5
448.636	1440.36
449.01	1443.07
449.384	1453.92
449.758	1459.34
450.132	1465.89
450.506	1497.98
450.88	1488.49
451.254	1481.03
451.628	1510.19
452.002	1486.91
452.376	1542.73
452.75	1547.47
453.123	1524.42
453.497	1535.72
453.871	1548.15
454.244	1559.9
454.618	1589.51
454.992	1587.02
455.365	1613.01
455.739	1651.65
456.112	1668.37
456.486	1673.12
456.859	1656.85
457.232	1668.6
457.606	1711.08
457.979	1683.06
458.352	1745.66
458.725	1756.06
459.099	1747.92
459.472	1776.39
459.845	1782.04
460.218	1839.67
460.591	1811.2
460.964	1812.55
461.337	1828.6
461.71	1848.26
462.083	1873.11
462.456	1833.34
462.829	1867.01
463.201	1895.49
463.574	1900.23
463.947	1907.92
464.32	1912.21
464.692	1972.32
465.065	1968.48
465.438	2030.4
465.81	2014.35
466.183	2036.95
466.555	2096.39
466.928	2081.47
467.3	2082.83
467.672	2111.53
468.045	2185.42
468.417	2136.38
468.789	2189.72
469.161	2187.23
469.534	2196.27
469.906	2274.23
470.278	2269.71
470.65	2228.81
471.022	2307
471.394	2326.44
471.766	2365.08
472.138	2386.1
472.51	2417.96
472.882	2428.13
473.253	2438.3
473.625	2465.19
473.997	2536.37
474.369	2504.51
474.74	2514.68
475.112	2578.63
475.484	2617.05
475.855	2594.45
476.227	2586.99
476.598	2718.74
476.97	2709.93
477.341	2726.2
477.713	2747.22
478.084	2823.37
478.455	2848.46
478.827	2870.83
479.198	2927.55
479.569	2951.96
479.94	2998.06
480.311	3012.29
480.682	3060.88
481.053	3102.01
481.424	3116.92
481.795	3157.6
482.166	3180.2
482.537	3204.61
482.908	3287.77
483.279	3292.74
483.65	3370.7
484.021	3400.31
484.391	3419.29
484.762	3443.47
485.133	3451.83
485.503	3487.76
485.874	3535.67
486.244	3574.54
486.615	3632.62
486.985	3638.04
487.356	3725.72
487.726	3714.65
488.097	3773.63
488.467	3775.44
488.837	3883.68
489.207	3851.14
489.578	3879.39
489.948	3991.25
490.318	4021.53
490.688	3999.39
491.058	4053.62
491.428	4126.84
491.798	4080.51
492.168	4181.98
492.538	4217.23
492.908	4257.46
493.278	4256.1
493.648	4269.89
494.017	4271.02
494.387	4355.31
494.757	4327.29
495.126	4424.91
495.496	4361.18
495.866	4404.57
496.235	4447.74
496.605	4468.53
496.974	4515.08
497.344	4526.15
497.713	4552.14
498.082	4553.04
498.452	4567.51
498.821	4636.43
499.19	4686.37
499.559	4650.67
499.928	4682.53
500.298	4732.02
500.667	4747.39
501.036	4712.36
501.405	4783.55
501.774	4723.21
502.143	4756.88
502.512	4813.6
502.88	4853.6
503.249	4852.92
503.618	4917.33
503.987	4849.08
504.356	4884.11
504.724	4947.84
505.093	4880.49
505.462	4928.4
505.83	4939.02
506.199	4967.5
506.567	5034.16
506.936	4987.61
507.304	5131.11
507.672	5116.65
508.041	5126.59
508.409	5137.89
508.777	5153.25
509.145	5235.06
509.514	5187.15
509.882	5167.94
510.25	5204.55
510.618	5214.95
510.986	5198.68
511.354	5277.77
511.722	5284.55
512.09	5332.68
512.458	5301.95
512.826	5313.93
513.193	5306.7
513.561	5355.73
513.929	5360.03
514.297	5398.9
514.664	5465.56
515.032	5451.78
515.4	5441.16
515.767	5483.87
516.135	5552.11
516.502	5448.84
516.869	5555.05
517.237	5515.73
517.604	5524.32
517.972	5614.94
518.339	5542.62
518.706	5642.96
519.073	5603.86
519.44	5623.75
519.808	5647.7
520.175	5710.75
520.542	5706.69
520.909	5748.49
521.276	5708.49
521.643	5785.55
522.009	5781.49
522.376	5799.11
522.743	5808.15
523.11	5908.94
523.477	5915.04
523.843	5954.36
524.21	5903.52
524.577	5988.49
524.943	5969.73
525.31	6056.51
525.676	6022.84
526.043	6026.68
526.409	6115.26
526.776	6164.53
527.142	6206.56
527.508	6148.71
527.874	6225.99
528.241	6228.25
528.607	6220.57
528.973	6292.66
529.339	6280.46
529.705	6331.3
530.071	6402.04
530.437	6391.41
530.803	6430.06
531.169	6450.4
531.535	6419.44
531.901	6467.8
532.267	6472.99
532.632	6524.29
532.998	6485.2
533.364	6620.11
533.73	6602.26
534.095	6655.14
534.461	6671.41
534.826	6679.77
535.192	6661.92
535.557	6712.54
535.923	6679.54
536.288	6689.03
536.653	6734.68
537.019	6813.1
537.384	6802.7
537.749	6763.16
538.114	6760.44
538.479	6828.92
538.845	6831.18
539.21	6822.36
539.575	6907.78
539.94	6912.08
540.305	6915.92
540.67	6949.37
541.034	6941
541.399	6894.45
541.764	7046.31
542.129	6997.27
542.494	7021
542.858	7055.8
543.223	7045.18
543.587	7136.93
543.952	7150.26
544.316	7149.13
544.681	7153.2
545.045	7190.49
545.41	7238.4
545.774	7211.96
546.138	7257.83
546.503	7285.18
546.867	7187.78
547.231	7333.08
547.595	7325.63
547.959	7300.09
548.324	7337.15
548.688	7344.38
549.052	7366.53
549.416	7381.67
549.779	7394.33
550.143	7449.01
550.507	7450.14
550.871	7407.21
551.235	7470.48
551.599	7536.24
551.962	7478.16
552.326	7498.05
552.689	7548.22
553.053	7518.39
553.417	7507.77
553.78	7575.34
554.143	7602
554.507	7634.77
554.87	7645.17
555.234	7675.45
555.597	7660.08
555.96	7718.84
556.323	7691.49
556.686	7700.31
557.05	7784.6
557.413	7750.93
557.776	7807.87
558.139	7854.43
558.502	7784.82
558.865	7878.38
559.228	7919.06
559.59	7886.97
559.953	7969.45
560.316	7995.67
560.679	7951.6
561.041	7999.73
561.404	8011.26
561.767	8048.09
562.129	8016.46
562.492	8098.26
562.854	8106.62
563.217	8080.86
563.579	8137.58
563.941	8146.17
564.304	8130.13
564.666	8208.54
565.028	8281.08
565.39	8270.23
565.753	8271.36
566.115	8335.32
566.477	8360.85
566.839	8368.54
567.201	8418.25
567.563	8439.5
567.925	8460.06
568.287	8522.88
568.648	8499.61
569.01	8532.6
569.372	8586.16
569.734	8584.8
570.095	8667.29
570.457	8628.64
570.819	8676.1
571.18	8690.56
571.542	8684.46
571.903	8750.67
572.265	8829.09
572.626	8886.94
572.987	8870.9
573.349	8893.72
573.71	8922.19
574.071	8987.73
574.432	9004.68
574.794	9095.75
575.155	9133.49
575.516	9198.8
575.877	9147.05
576.238	9214.39
576.599	9294.61
576.96	9369.41
577.32	9402.63
577.681	9441.73
578.042	9512.01
578.403	9596.53
578.763	9630.88
579.124	9688.95
579.485	9705.68
579.845	9777.77
580.206	9885.11
580.566	9921.94
580.927	9967.14
581.287	10100.92
581.648	10098.21
582.008	10223.63
582.368	10328.94
582.728	10395.6
583.089	10400.8
583.449	10517.86
583.809	10705.42
584.169	10726.44
584.529	10815.93
584.889	10984.06
585.249	11076.94
585.609	11120.78
585.969	11309.7
586.329	11346.99
586.688	11391.51
587.048	11599.86
587.408	11617.49
587.768	11807.54
588.127	11893.42
588.487	12036.01
588.846	12186.74
589.206	12233.97
589.565	12391.03
589.925	12567.52
590.284	12635.77
590.643	12869.21
591.003	12905.82
591.362	13123.67
591.721	13166.83
592.08	13296.09
592.44	13530.21
592.799	13640.04
593.158	13775.17
593.517	13875.51
593.876	14072.57
594.235	14096.97
594.593	14276.18
594.952	14403.63
595.311	14454.48
595.67	14655.6
596.029	14875.71
596.387	14919.78
596.746	15102.37
597.104	15171.75
597.463	15366.09
597.822	15502.13
598.18	15530.38
598.538	15691.28
598.897	15835.23
599.255	15736.25
599.613	16144.83
599.972	16193.19
600.33	16361.77
600.688	16466.4
601.046	16559.06
601.404	16771.48
601.762	16688.32
602.12	17049.89
602.478	17080.85
602.836	17109.32
603.194	17194.07
603.552	17280.62
603.91	17285.14
604.268	17483.1
604.625	17504.34
604.983	17784.79
605.341	17657.56
605.698	17834.73
606.056	18002.86
606.413	17977.55
606.771	18126.47
607.128	18216.19
607.485	18301.16
607.843	18374.6
608.2	18479.46
608.557	18650.07
608.914	18580.47
609.272	18836.28
609.629	18899.33
609.986	18903.4
610.343	18988.6
610.7	19066.33
611.057	19150.63
611.414	19202.6
611.771	19208.93
612.127	19418.42
612.484	19386.1
612.841	19415.7
613.198	19478.3
613.554	19594
613.911	19759.2
614.267	19667.22
614.624	19836.94
614.98	19847.56
615.337	19938.4
615.693	19881.91
616.05	20020.43
616.406	20063.14
616.762	20154.22
617.118	20086.87
617.475	20263.14
617.831	20331.39
618.187	20384.04
618.543	20426.3
618.899	20605.5
619.255	20530.25
619.611	20444.38
619.967	20617.93
620.323	20788.1
620.678	20647.76
621.034	20634.66
621.39	20617.25
621.746	20815.22
622.101	20982.44
622.457	20806.85
622.812	20807.76
623.168	21020.41
623.523	20959.62
623.879	21041.42
624.234	20876.68
624.589	21081.65
624.945	20998.26
625.3	21084.81
625.655	20987.87
626.01	21075.32
626.365	21211.59
626.72	21108.77
627.075	21174.3
627.43	21116.22
627.785	21131.82
628.14	21174.75
628.495	21216.56
628.85	21187.63
629.205	21130.69
629.559	21269.21
629.914	21235.77
630.269	21253.4
630.623	21174.75
630.978	21100.86
631.332	21240.06
631.687	21301.08
632.041	21068.32
632.396	21212.49
632.75	21189.67
633.104	21130.46
633.459	21072.16
633.813	21129.11
634.167	21056.34
634.521	21132.72
634.875	21073.29
635.229	21053.4
635.583	21097.69
635.937	21132.5
636.291	21030.35
636.645	21017.92
636.999	21037.36
637.352	20979.5
637.706	20882.33
638.06	21032.38
638.413	20964.36
638.767	20886.4
639.121	21059.05
639.474	20861.54
639.828	20887.08
640.181	20897.47
640.534	20965.49
640.888	20838.94
641.241	20763.92
641.594	20796.68
641.947	20915.1
642.301	20908.32
642.654	20865.16
643.007	20972.73
643.36	20954.19
643.713	20712.17
644.066	20862.67
644.419	20703.81
644.771	20546.07
645.124	20495.9
645.477	20457.71
645.83	20267.43
646.182	20225.17
646.535	20142.69
646.888	20174.33
647.24	20083.71
647.593	20273.53
647.945	20185.4
648.298	20119.19
648.65	20059.3
649.002	20091.39
649.355	20209.81
649.707	20227.89
650.059	20210.71
650.411	20563.24
650.763	20527.09
651.115	20717.82
651.467	20759.4
651.819	20681.21
652.171	20588.78
652.523	20656.35
652.875	20624.26
653.227	20626.07
653.578	20725.95
653.93	20715.33
654.282	20619.51
654.633	20467.65
654.985	20664.26
655.337	20674.43
655.688	20689.79
656.039	20715.11
656.391	20643.47
656.742	20725.73
657.094	20665.39
657.445	20672.85
657.796	20646.18
658.147	20635.33
658.498	20652.51
658.849	20612.28
659.2	20667.42
659.551	20506.97
659.902	20674.43
660.253	20612.73
660.604	20655.67
660.955	20540.65
661.306	20642.56
661.656	20620.19
662.007	20684.37
662.358	20604.83
662.708	20653.41
663.059	20545.17
663.409	20569.12
663.76	20771.6
664.11	20671.26
664.461	20736.35
664.811	20706.74
665.161	20718.49
665.511	20654.32
665.862	20745.84
666.212	20743.8
666.562	20731.15
666.912	20699.06
667.262	20734.31
667.612	20634.66
667.962	20829.68
668.312	20676.01
668.662	20804.82
669.011	20765.95
669.361	20687.99
669.711	20668.33
670.06	20651.83
670.41	20583.13
670.76	20528.22
671.109	20690.47
671.459	20623.36
671.808	20621.32
672.157	20598.27
672.507	20487.77
672.856	20515.79
673.205	20571.83
673.554	20668.55
673.904	20530.48
674.253	20562.57
674.602	20673.52
674.951	20188.79
675.3	20199.41
675.649	20454.09
675.998	20445.96
676.346	20449.35
676.695	20553.53
677.044	20364.38
677.393	20388.11
677.741	20455.68
678.09	20358.28
678.438	20368.67
678.787	20295.23
679.135	20382.68
679.484	20207.77
679.832	20313.53
680.181	20118.74
680.529	20171.84
680.877	20140.2
681.225	20103.37
681.573	20243.25
681.922	20096.82
682.27	19930.72
682.618	20025.18
682.966	19949.93
683.314	20015.01
683.661	19966.42
684.009	19915.8
684.357	19875.13
684.705	19780.44
685.053	19704.51
685.4	19699.09
685.748	19641.23
686.095	19675.36
686.443	19555.14
686.79	19463.39
687.138	19646.88
687.485	19499.32
687.832	19481.47
688.18	19483.95
688.527	19319.44
688.874	19372.54
689.221	19287.12
689.568	19239.21
689.915	19136.16
690.262	19238.99
690.609	19114.47
690.956	19050.52
691.303	19017.75
691.65	18942.95
691.997	18924.87
692.344	18755.83
692.69	18762.16
693.037	18721.94
693.383	18484.88
693.73	18622.96
694.077	18514.94
694.423	18449.85
694.769	18439.23
695.116	18398.78
695.462	18288.28
695.808	18220.26
696.155	18299.12
696.501	18098
696.847	18199.01
697.193	18070.65
697.539	18115.63
697.885	17942.3
698.231	17886.93
698.577	17799.02
698.923	17766.03
699.269	17764.67
699.614	17555.64
699.96	17538.24
700.306	17514.06
700.651	17514.51
700.997	17388.64
701.342	17392.03
701.688	17392.48
702.033	17217.8
702.379	17254.41
702.724	17116.78
703.069	17229.1
703.415	17082.66
703.76	16990.01
704.105	16985.71
704.45	16889.89
704.795	16876.56
705.14	16799.95
705.485	16808.99
705.83	16665.04
706.175	16701.2
706.52	16618.26
706.865	16523.58
707.209	16569.68
707.554	16423.47
707.899	16444.48
708.243	16346.63
708.588	16420.75
708.932	16212.4
709.277	16244.94
709.621	16121.1
709.966	16114.55
710.31	16117.49
710.654	15938.96
710.998	15991.84
711.342	16011.95
711.687	15853.76
712.031	15889.47
712.375	15794.33
712.719	15884.27
713.063	15802.92
713.407	15851.28
713.75	15772.86
714.094	15688.57
714.438	15521.34
714.782	15677.27
715.125	15592.75
715.469	15612.19
715.812	15517.5
716.156	15417.84
716.499	15429.82
716.843	15568.8
717.186	15401.12
717.53	15395.47
717.873	15425.53
718.216	15420.1
718.559	15244.97
718.902	15219.2
719.246	15340.33
719.589	15243.61
719.932	15183.95
720.275	15217.85
720.617	15165.42
720.96	15121.35
721.303	15266.21
721.646	15197.74
721.989	15038.19
722.331	15157.74
722.674	15038.19
723.016	15093.78
723.359	15008.59
723.701	15025.09
724.044	14992.77
724.386	14933.56
724.729	14938.76
725.071	14922.49
725.413	14968.14
725.755	14868.25
726.097	14811.76
726.439	14821.47
726.782	14815.15
727.124	14815.83
727.465	14750.74
727.807	14834.81
728.149	14789.61
728.491	14752.78
728.833	14802.27
729.175	14665.09
729.516	14780.12
729.858	14721.36
730.199	14775.6
730.541	14725.88
730.882	14678.88
731.224	14738.99
731.565	14597.75
731.906	14666.22
732.248	14700.12
732.589	14600.01
732.93	14548.04
733.271	14619.67
733.612	14667.13
733.953	14624.87
734.294	14616.28
734.635	14535.15
734.976	14663.74
735.317	14584.64
735.658	14535.61
735.999	14538.54
736.339	14530.63
736.68	14525.44
737.021	14564.76
737.361	14518.43
737.702	14580.58
738.042	14577.19
738.383	14611.99
738.723	14624.19
739.063	14585.1
739.404	14628.26
739.744	14664.42
740.084	14509.39
740.424	14594.14
740.764	14568.6
741.104	14689.5
741.444	14552.33
741.784	14695.38
742.124	14636.39
742.464	14773.79
742.804	14714.13
743.143	14661.7
743.483	14752.55
743.823	14762.72
744.162	14753.68
744.502	14737.64
744.841	14763.85
745.181	14824.86
745.52	14864.41
745.86	14873.68
746.199	14883.85
746.538	14881.13
746.877	15072.99
747.216	15025.09
747.556	15016.27
747.895	15134.23
748.234	15137.17
748.573	15192.99
748.911	15265.3
749.25	15285.19
749.589	15276.15
749.928	15522.25
750.267	15536.48
750.605	15524.51
750.944	15551.62
751.283	15576.26
751.621	15800.88
751.96	15740.55
752.298	15816.25
752.636	15919.3
752.975	15963.59
753.313	16008.56
753.651	16129.46
753.989	16231.83
754.327	16333.53
754.666	16371.72
755.004	16426.63
755.342	16603.12
755.679	16679.28
756.017	16697.36
756.355	16932.83
756.693	17005.82
757.031	17133.96
757.368	17149.1
757.706	17271.35
758.044	17362.42
758.381	17424.12
758.719	17593.61
759.056	17695.98
759.394	17794.73
759.731	17728.29
760.068	17909.08
760.405	17964.89
760.743	18022.29
761.08	18277.43
761.417	18208.05
761.754	18372.79
762.091	18530.98
762.428	18545.9
762.765	18500.47
763.102	18709.73
763.438	18785.44
763.775	18765.33
764.112	18980.91
764.449	19051.19
764.785	19038.31
765.122	19187.01
765.458	19124.64
765.795	19203.28
766.131	19379.77
766.467	19342.26
766.804	19397.85
767.14	19403.28
767.476	19497.96
767.812	19477.62
768.148	19636.26
768.485	19601.69
768.821	19582.25
769.157	19638.52
769.492	19810.95
769.828	19825.18
770.164	19652.08
770.5	19639.43
770.836	19803.26
771.171	19725.07
771.507	19770.72
771.842	19672.65
772.178	19709.26
772.513	19796.03
772.849	19808.46
773.184	19739.54
773.519	19812.08
773.855	19777.73
774.19	19806.2
774.525	19707
774.86	19726.2
775.195	19886.65
775.53	19791.74
775.865	19665.64
776.2	19619.09
776.535	19531.18
776.87	19531.63
777.205	19414.35
777.539	19490.05
777.874	19563.95
778.209	19385.42
778.543	19388.59
778.878	19374.58
779.212	19316.95
779.547	19330.96
779.881	19293.9
780.215	19236.73
780.55	19372.99
780.884	19207.35
781.218	19159.67
781.552	19150.4
781.886	19005.32
782.22	19073.34
782.554	18908.82
782.888	18823.18
783.222	18804.87
783.556	18755.61
783.889	18792.44
784.223	18613.47
784.557	18652.56
784.89	18676.06
785.224	18535.73
785.557	18507.48
785.891	18527.14
786.224	18446.01
786.558	18477.88
786.891	18293.02
787.224	18244.66
787.557	18208.96
787.891	18238.11
788.224	18184.1
788.557	18269.52
788.89	18098.22
789.223	18122.4
789.556	18001.73
789.888	17960.38
790.221	17877.89
790.554	17771.23
790.887	17781.17
791.219	17670.44
791.552	17709.53
791.884	17632.93
792.217	17620.95
792.549	17617.11
792.882	17399.26
793.214	17455.08
793.546	17527.39
793.879	17280.62
794.211	17171.92
794.543	17290.11
794.875	17191.81
795.207	17207.85
795.539	17151.13
795.871	17155.65
796.203	17008.54
796.535	16892.38
796.867	16886.51
797.198	16799.95
797.53	16868.65
797.862	16706.4
798.193	16767.64
798.525	16664.82
798.856	16678.6
799.188	16523.35
799.519	16480.64
799.85	16374.43
800.182	16406.74
800.513	16315.45
800.844	16320.19
801.175	16383.92
801.506	16311.15
801.837	16156.81
802.168	16163.81
802.499	16069.8
802.83	16010.14
803.161	15983.25
803.491	16035.23
803.822	15980.31
804.153	15858.74
804.483	15753.88
804.814	15684.73
805.145	15618.74
805.475	15715.46
805.805	15643.83
806.136	15663.49
806.466	15463.27
806.796	15504.85
807.126	15449.48
807.457	15461.68
807.787	15424.85
808.117	15380.78
808.447	15344.85
808.777	15341.69
809.107	15249.94
809.436	15187.34
809.766	15231.63
810.096	15113.9
810.426	15100.79
810.755	15150.05
811.085	15042.71
811.414	14995.48
811.744	14937.63
812.073	14870.96
812.403	14903.05
812.732	14875.94
813.061	14855.37
813.39	14705.09
813.719	14762.95
814.049	14727.92
814.378	14666.45
814.707	14647.92
815.036	14590.29
815.365	14622.38
815.693	14450.86
816.022	14458.77
816.351	14464.42
816.68	14363.18
817.008	14351.88
817.337	14232.79
817.665	14324.31
817.994	14237.54
818.322	14324.76
818.651	14149.18
818.979	14075.05
819.307	14132
819.636	14183.3
819.964	14034.6
820.292	14111.89
820.62	14135.62
820.948	14082.29
821.276	14003.19
821.604	14054.94
821.932	14053.59
822.259	14060.36
822.587	13990.76
822.915	13974.27
823.243	14020.82
823.57	13871.9
823.898	13962.51
824.225	13929.75
824.553	14046.35
824.88	13949.86
825.207	14059.69
825.535	14004.77
825.862	13970.88
826.189	13902.18
826.516	14024.21
826.843	14019.69
827.17	13926.58
827.497	14064.43
827.824	13972.68
828.151	14026.92
828.478	14023.3
828.805	14023.3
829.131	13951.44
829.458	13913.02
829.785	13917.77
830.111	13891.78
830.438	13976.75
830.764	14024.43
831.09	13968.39
831.417	13900.37
831.743	13967.94
832.069	13906.47
832.395	13806.36
832.722	13963.42
833.048	13753.03
833.374	13834.83
833.7	13826.47
834.026	13796.64
834.351	13854.95
834.677	13867.15
835.003	13806.59
835.329	13883.87
835.654	13820.6
835.98	13805.23
836.306	13763.2
836.631	13665.57
836.956	13733.59
837.282	13696.31
837.607	13724.33
837.932	13593.26
838.258	13751.67
838.583	13621.73
838.908	13576.54
839.233	13494.28
839.558	13506.93
839.883	13464
840.208	13400.5
840.533	13433.71
840.858	13414.28
841.182	13383.77
841.507	13385.58
841.832	13329.76
842.156	13300.38
842.481	13236.66
842.805	13268.3
843.13	13255.64
843.454	13269.65
843.778	13111.46
844.103	13085.02
844.427	13070.79
844.751	13155.76
845.075	13069.2
845.399	13065.59
845.723	12998.92
846.047	12962.77
846.371	12784.47
846.695	12897.23
847.019	12791.47
847.343	12753.28
847.666	12660.4
847.99	12645.94
848.313	12626.5
848.637	12484.81
848.96	12441.2
849.284	12500.63
849.607	12388.54
849.931	12379.28
850.254	12241.43
850.577	12194.43
850.9	12141.55
851.223	12135.44
851.546	12034.43
851.869	11964.83
852.192	12084.6
852.515	11846.64
852.838	11830.59
853.161	11891.38
853.483	11881.66
853.806	11773.19
854.129	11757.83
854.451	11730.71
854.774	11690.03
855.096	11584.27
855.419	11565.97
855.741	11622.46
856.063	11535.46
856.385	11465.63
856.708	11446.87
857.03	11396.25
857.352	11365.75
857.674	11346.31
857.996	11263.83
858.318	11222.93
858.64	11260.66
858.961	11163.94
859.283	11157.84
859.605	11103.15
859.926	11183.38
860.248	11126.66
860.57	11038.98
860.891	11075.81
861.212	10975.7
861.534	10951.52
861.855	10904.06
862.176	10947.45
862.498	10873.1
862.819	10912.88
863.14	10839.43
863.461	10892.76
863.782	10793.11
864.103	10823.61
864.424	10766.21
864.745	10824.29
865.065	10808.25
865.386	10694.8
865.707	10726.67
866.027	10622.04
866.348	10641.92
866.668	10662.49
866.989	10643.28
867.309	10556.05
867.63	10643.73
867.95	10593.11
868.27	10428.6
868.59	10545.88
868.91	10453.45
869.23	10467.24
869.55	10449.61
869.87	10487.58
870.19	10429.05
870.51	10440.57
870.83	10391.08
871.15	10370.74
871.469	10295.27
871.789	10335.49
872.109	10305.66
872.428	10231.54
872.748	10351.76
873.067	10326.9
873.386	10289.84
873.706	10255.95
874.025	10189.05
874.344	10141.6
874.663	10252.56
874.982	10170.07
875.301	10137.08
875.62	10143.18
875.939	10065.22
876.258	10097.08
876.577	10056.18
876.896	10083.07
877.214	9975.95
877.533	10120.81
877.852	10049.17
878.17	10089.62
878.489	10015.27
878.807	9982.05
879.125	9986.12
879.444	9952.68
879.762	9924.65
880.08	9930.53
880.398	9883.07
880.716	9920.59
881.034	9862.74
881.352	9850.98
881.67	9824.09
881.988	9772.79
882.306	9768.73
882.624	9668.39
882.941	9620.48
883.259	9722.85
883.577	9703.87
883.894	9633.36
884.212	9634.49
884.529	9596.08
884.846	9576.64
885.164	9523.99
885.481	9551.56
885.798	9547.94
886.115	9451.9
886.432	9507.72
886.75	9396.76
887.067	9434.27
887.383	9338.91
887.7	9421.16
888.017	9341.17
888.334	9373.71
888.651	9358.57
888.967	9338.46
889.284	9232.7
889.6	9244.22
889.917	9183.43
890.233	9234.73
890.55	9178.69
890.866	9166.03
891.182	9158.35
891.498	9067.95
891.815	8997.45
892.131	9048.07
892.447	9002.87
892.763	8986.15
893.079	8944.57
893.395	8890.11
893.71	8906.15
894.026	8883.33
894.342	8857.34
894.657	8823.21
894.973	8782.54
895.289	8741.86
895.604	8728.53
895.92	8676.33
896.235	8679.94
896.55	8655.08
896.865	8667.29
897.181	8644.01
897.496	8641.52
897.811	8528.31
898.126	8498.25
898.441	8467.07
898.756	8459.38
899.071	8387.52
899.386	8392.49
899.7	8286.73
900.015	8337.35
900.33	8237.24
900.644	8293.06
900.959	8287.86
901.273	8209.22
901.588	8146.85
901.902	8116.34
902.216	8066.85
902.531	8059.62
902.845	8050.35
903.159	8049.9
903.473	7990.92
903.787	7943.24
904.101	7876.57
904.415	7914.31
904.729	7867.08
905.042	7844.48
905.356	7731.72
905.67	7782.11
905.984	7775.56
906.297	7758.38
906.611	7647.2
906.924	7677.93
907.237	7700.76
907.551	7589.35
907.864	7612.62
908.177	7524.72
908.491	7580.99
908.804	7496.47
909.117	7460.54
909.43	7428.9
909.743	7404.04
910.056	7391.16
910.368	7308.23
910.681	7316.36
910.994	7284.95
911.307	7209.02
911.619	7091.96
911.932	7206.99
912.244	7105.75
912.557	7089.47
912.869	7042.24
913.181	7044.28
913.494	7047.22
913.806	6999.53
914.118	6943.26
914.43	6939.42
914.742	6904.39
915.054	6894
915.366	6861.01
915.678	6792.99
915.99	6837.73
916.302	6734.46
916.613	6743.5
916.925	6676.6
917.236	6641.58
917.548	6664.18
917.859	6679.99
918.171	6576.27
918.482	6606.55
918.794	6518.42
919.105	6513.9
919.416	6483.16
919.727	6455.59
920.038	6470.73
920.349	6409.04
920.66	6367.46
920.971	6376.5
921.282	6338.53
921.593	6323.62
921.903	6297.18
922.214	6264.86
922.525	6208.37
922.835	6230.51
923.146	6192.78
923.456	6171.31
923.767	6141.48
924.077	6140.12
924.387	6107.13
924.697	6032.55
925.008	6067.35
925.318	6072.78
925.628	5989.62
925.938	6003.4
926.248	5882.27
926.558	5928.38
926.867	5859.45
927.177	5916.17
927.487	5787.81
927.796	5800.24
928.106	5779.68
928.416	5744.88
928.725	5735.61
929.034	5677.53
929.344	5679.34
929.653	5694.03
929.962	5644.31
930.271	5639.12
930.581	5584.43
930.89	5573.81
931.199	5582.17
931.508	5511.66
931.817	5493.58
932.125	5484.09
932.434	5442.96
932.743	5429.18
933.051	5371.78
933.36	5365.45
933.669	5325.23
933.977	5331.78
934.286	5294.27
934.594	5288.84
934.902	5255.4
935.21	5169.53
935.519	5228.28
935.827	5202.52
936.135	5193.93
936.443	5140.15
936.751	5139.02
937.059	5123.42
937.367	5072.13
937.674	5000.04
937.982	5058.79
938.29	5032.58
938.597	5029.19
938.905	4954.39
939.213	4943.99
939.52	4921.62
939.827	4904.45
940.135	4877.33
940.442	4859.02
940.749	4861.06
941.056	4838.01
941.363	4855.18
941.67	4778.57
941.977	4734.73
942.284	4722.98
942.591	4721.18
942.898	4723.44
943.205	4714.85
943.511	4718.24
943.818	4665.13
944.125	4605.7
944.431	4610.67
944.738	4593.27
945.044	4555.98
945.35	4563.67
945.657	4557.11
945.963	4559.37
946.269	4508.75
946.575	4473.72
946.881	4419.49
947.187	4470.56
947.493	4421.97
947.799	4382.2
948.105	4374.29
948.41	4339.94
948.716	4365.25
949.022	4320.96
949.327	4365.48
949.633	4240.74
949.938	4257.46
950.244	4272.15
950.549	4252.04
950.854	4244.58
951.16	4220.85
951.465	4114.64
951.77	4191.02
952.075	4128.2
952.38	4160.29
952.685	4139.72
952.99	4065.6
953.294	4072.38
953.599	4066.5
953.904	4012.27
954.209	4000.06
954.513	3953.06
954.818	3975.43
955.122	3986.51
955.426	3959.39
955.731	3925.72
956.035	3892.5
956.339	3913.74
956.643	3872.16
956.948	3843.68
957.252	3860.18
957.556	3809.33
957.86	3803.91
958.163	3765.27
958.467	3779.51
958.771	3765.27
959.075	3727.76
959.378	3754.65
959.682	3756
959.985	3710.35
960.289	3700.64
960.592	3628.32
960.896	3639.62
961.199	3685.72
961.502	3607.76
961.805	3605.27
962.108	3582.22
962.411	3562.79
962.714	3545.61
963.017	3540.19
963.32	3523.69
963.623	3526.18
963.926	3529.57
964.228	3487.31
964.531	3465.62
964.833	3448.44
965.136	3466.97
965.438	3415.22
965.741	3376.58
966.043	3361.66
966.345	3343.81
966.648	3345.62
966.95	3361.44
967.252	3330.7
967.554	3322.57
967.856	3286.18
968.158	3281.89
968.46	3264.49
968.761	3241.44
969.063	3241.67
969.365	3235.11
969.666	3230.59
969.968	3179.75
970.269	3161.44
970.571	3149.92
970.872	3190.14
971.174	3125.74
971.475	3130.48
971.776	3121.22
972.077	3106.08
972.378	3089.13
972.679	3094.55
972.98	3102.23
973.281	3042.8
973.582	3070.82
973.883	3054.78
974.183	3023.14
974.484	3011.16
974.785	3030.37
975.085	2984.95
975.386	2964.39
975.686	2958.51
975.986	2925.06
976.287	2940.43
976.587	2904.27
976.887	2889.36
977.187	2899.53
977.487	2873.09
977.787	2829.25
978.087	2834.22
978.387	2787.44
978.687	2835.8
978.987	2780.21
979.286	2788.12
979.586	2788.8
979.885	2768.91
980.185	2772.98
980.484	2713.54
980.784	2730.95
981.083	2748.35
981.382	2718.97
981.682	2719.65
981.981	2669.03
982.28	2727.56
982.579	2656.82
982.878	2663.83
983.177	2651.63
983.475	2607.33
983.774	2571.4
984.073	2581.12
984.372	2606.88
984.67	2591.29
984.969	2590.84
985.267	2565.53
985.566	2525.3
985.864	2512.19
986.162	2535.92
986.461	2486.21
986.759	2478.75
987.057	2448.92
987.355	2508.35
987.653	2467.9
987.951	2443.72
988.249	2452.31
988.547	2445.75
988.844	2438.75
989.142	2441.46
989.44	2394.23
989.737	2378.64
990.035	2365.31
990.332	2349.94
990.63	2357.4
990.927	2336.61
991.224	2305.42
991.521	2346.77
991.819	2328.7
992.116	2294.12
992.413	2304.52
992.71	2264.52
993.006	2272.65
993.303	2238.53
993.6	2235.59
993.897	2213.22
994.193	2223.61
994.49	2230.17
994.787	2187.91
995.083	2183.39
995.379	2158.53
995.676	2170.28
995.972	2148.14
996.268	2147.68
996.565	2135.71
996.861	2111.07
997.157	2107.91
997.453	2147.46
997.749	2112.2
998.044	2065.2
998.34	2063.39
998.636	2073.11
998.932	2053
999.227	2064.97
999.523	2054.8
999.818	2069.95
1000.114	1981.36
1000.409	2017.74
1000.704	1955.6
1001	1961.93
1001.295	1942.49
1001.59	1956.5
1001.885	1968.48
1002.18	1937.97
1002.475	1918.99
1002.77	1920.34
1003.065	1911.08
1003.359	1916.73
1003.654	1919.44
1003.949	1900.91
1004.243	1854.58
1004.538	1865.43
1004.832	1829.95
1005.127	1844.64
1005.421	1854.81
1005.715	1826.56
1006.009	1825.21
1006.304	1835.15
1006.598	1801.48
1006.892	1757.64
1007.186	1772.55
1007.48	1762.61
1007.773	1721.71
1008.067	1726
1008.361	1730.29
1008.655	1753.12
1008.948	1723.74
1009.242	1698.66
1009.535	1690.52
1009.829	1686.68
1010.122	1688.49
1010.415	1626.34
1010.708	1669.28
1011.001	1640.8
1011.295	1652.33
1011.588	1626.12
1011.881	1625.89
1012.173	1610.07
1012.466	1587.25
1012.759	1560.35
1013.052	1562.16
1013.344	1552.67
1013.637	1566.23
1013.93	1536.17
1014.222	1557.19
1014.514	1533.91
1014.807	1510.64
1015.099	1531.43
1015.391	1524.42
1015.683	1484.65
1015.976	1499.79
1016.268	1498.66
1016.56	1474.48
1016.851	1450.3
1017.143	1454.59
1017.435	1422.05
1017.727	1433.8
1018.018	1430.19
1018.31	1406.01
1018.602	1412.11
1018.893	1376.18
1019.185	1388.83
1019.476	1393.81
1019.767	1389.06
1020.058	1347.25
1020.35	1350.64
1020.641	1317.87
1020.932	1308.61
1021.223	1352
1021.514	1325.56
1021.804	1303.41
1022.095	1328.5
1022.386	1289.85
1022.677	1279.91
1022.967	1275.16
1023.258	1267.93
1023.548	1284.2
1023.839	1268.61
1024.129	1250.76
1024.419	1255.5
1024.709	1248.05
1025	1219.35
1025.29	1210.53
1025.58	1220.25
1025.87	1178.9
1026.16	1178.44
1026.449	1181.38
1026.739	1156.3
1027.029	1144.55
1027.319	1168.05
1027.608	1149.74
1027.898	1144.32
1028.187	1138.22
1028.477	1126.69
1028.766	1105.9
1029.055	1125.79
1029.344	1126.69
1029.634	1112.46
1029.923	1087.15
1030.212	1095.73
1030.501	1071.1
1030.79	1051.89
1031.078	1086.69
1031.367	1057.32
1031.656	1055.51
1031.945	1034.72
1032.233	1018.45
1032.522	1041.27
1032.81	1016.87
1033.099	997.88
1033.387	1007.37
1033.675	999.92
1033.963	1003.53
1034.251	1002.18
1034.54	985.68
1034.828	993.82
1035.116	970.31
1035.403	957.43
1035.691	974.38
1035.979	989.52
1036.267	955.62
1036.554	961.05
1036.842	932.12
1037.129	911.11
1037.417	918.34
1037.704	925.34
1037.992	876.3
1038.279	931.9
1038.566	902.07
1038.853	902.07
1039.14	902.07
