Data from hue_120_FLMS001491_00079.txt Node
Date: Tue Feb 07 16:59:58 GMT 2017
User: dcchb
Spectrometer: FLMS00149
Trigger mode: 0
Integration Time (sec): 2.000000E-2
Scans to average: 10
Electric dark correction enabled: true
Nonlinearity correction enabled: false
Boxcar width: 0
XAxis mode: Wavelengths
Number of Pixels in Spectrum: 2048
>>>>>Begin Spectral Data<<<<<
341.393	-13.25
341.776	-13.25
342.16	-13.25
342.543	-61.83
342.927	-47.82
343.31	-63.64
343.693	-59.12
344.077	-71.55
344.46	-65
344.843	-64.09
345.226	-27.71
345.61	-37.43
345.993	-16.64
346.376	0.99
346.759	14.1
347.142	16.36
347.525	36.24
347.908	66.98
348.291	57.48
348.674	109.69
349.057	103.36
349.44	128.89
349.823	135.22
350.206	165.96
350.588	182.68
350.971	226.29
351.354	214.77
351.737	234.88
352.119	242.34
352.502	246.63
352.884	266.29
353.267	287.99
353.65	292.05
354.032	297.03
354.414	294.77
354.797	325.73
355.179	319.17
355.562	320.53
355.944	330.92
356.326	320.53
356.709	334.09
357.091	333.41
357.473	336.12
357.855	328.21
358.238	348.78
358.62	344.26
359.002	347.65
359.384	344.26
359.766	339.06
360.148	326.63
360.53	340.19
360.912	338.83
361.294	337.03
361.676	345.39
362.057	337.03
362.439	337.25
362.821	336.8
363.203	336.57
363.584	334.99
363.966	313.75
364.348	327.08
364.729	330.02
365.111	348.55
365.493	325.27
365.874	320.75
366.256	310.13
366.637	316.91
367.019	308.33
367.4	306.07
367.781	330.47
368.163	327.99
368.544	315.33
368.925	301.09
369.306	335.67
369.688	303.81
370.069	319.85
370.45	296.12
370.831	322.11
371.212	313.75
371.593	306.07
371.974	306.07
372.355	309.23
372.736	325.95
373.117	330.47
373.498	323.69
373.879	311.49
374.26	303.58
374.641	323.24
375.021	317.59
375.402	310.36
375.783	311.49
376.163	344.48
376.544	323.92
376.925	328.89
377.305	331.83
377.686	336.35
378.066	321.66
378.447	311.71
378.827	321.66
379.208	334.31
379.588	332.96
379.968	330.47
380.349	335.67
380.729	341.32
381.109	326.86
381.489	339.51
381.87	349
382.25	358.49
382.63	344.71
383.01	350.81
383.39	352.39
383.77	361.21
384.15	337.25
384.53	361.88
384.91	359.4
385.29	367.76
385.67	358.49
386.049	357.36
386.429	356.69
386.809	363.69
387.189	353.3
387.568	358.49
387.948	370.24
388.328	375.44
388.707	358.95
389.087	367.31
389.466	367.98
389.846	367.31
390.225	381.09
390.605	361.66
390.984	382.67
391.363	389.23
391.743	389.45
392.122	384.03
392.501	361.66
392.881	397.36
393.26	370.7
393.639	392.16
394.018	402.11
394.397	395.33
394.776	390.81
395.155	378.15
395.534	397.81
395.913	385.61
396.292	409.34
396.671	413.18
397.05	404.59
397.429	405.72
397.808	399.85
398.186	407.08
398.565	407.08
398.944	416.34
399.323	413.63
399.701	416.8
400.08	403.92
400.458	405.5
400.837	447.08
401.215	421.54
401.594	401.66
401.972	426.97
402.351	414.76
402.729	435.1
403.107	429.9
403.486	443.01
403.864	407.08
404.242	450.47
404.62	421.77
404.999	449.34
405.377	438.04
405.755	442.11
406.133	444.59
406.511	445.95
406.889	448.89
407.267	456.8
407.645	480.75
408.023	460.41
408.401	464.93
408.779	464.71
409.156	463.8
409.534	468.77
409.912	481.65
410.29	469.9
410.667	500.86
411.045	490.47
411.422	474.87
411.8	473.07
412.178	499.51
412.555	500.18
412.933	512.16
413.31	508.32
413.687	513.74
414.065	523.46
414.442	512.39
414.819	525.49
415.197	526.62
415.574	541.99
415.951	538.38
416.328	512.84
416.705	532.95
417.082	528.21
417.46	540.86
417.837	542.22
418.214	568.88
418.591	558.49
418.967	544.7
419.344	553.06
419.721	579.05
420.098	560.75
420.475	569.11
420.852	561.43
421.228	577.92
421.605	595.55
421.982	570.01
422.358	589.9
422.735	581.31
423.111	604.81
423.488	614.31
423.864	613.18
424.241	607.75
424.617	593.74
424.994	622.44
425.37	621.31
425.746	643.68
426.123	640.75
426.499	621.09
426.875	635.1
427.251	639.84
427.627	676.68
428.003	676
428.379	690.01
428.756	660.18
429.132	650.46
429.507	673.06
429.883	676.45
430.259	711.48
430.635	693.17
431.011	683.23
431.387	723.68
431.763	706.05
432.138	746.51
432.514	725.26
432.89	726.17
433.265	744.7
433.641	743.12
434.016	756.45
434.392	754.19
434.767	806.62
435.143	776.56
435.518	764.36
435.894	773.4
436.269	796.22
436.644	805.04
437.02	787.18
437.395	815.2
437.77	804.36
438.145	861.53
438.52	858.37
438.895	844.13
439.271	882.32
439.646	875.99
440.021	868.54
440.395	884.58
440.77	880.74
441.145	880.29
441.52	903.56
441.895	888.87
442.27	905.82
442.645	917.12
443.019	922.77
443.394	906.5
443.769	933.17
444.143	915.99
444.518	926.84
444.892	936.56
445.267	941.75
445.641	956.9
446.016	942.21
446.39	967.52
446.764	959.83
447.139	963.22
447.513	977.23
447.887	1006.61
448.262	981.75
448.636	985.82
449.01	1012.71
449.384	1014.3
449.758	1015.65
450.132	1050.9
450.506	1036.22
450.88	1024.69
451.254	1040.06
451.628	1079.15
452.002	1094.52
452.376	1108.76
452.75	1085.71
453.123	1090.9
453.497	1088.87
453.871	1116.67
454.244	1147.85
454.618	1144.01
454.992	1134.29
455.365	1154.63
455.739	1175.42
456.112	1217
456.486	1207.74
456.859	1234.85
457.232	1264.91
457.606	1255.19
457.979	1236.21
458.352	1310.11
458.725	1312.82
459.099	1322.54
459.472	1343.78
459.845	1368.18
460.218	1355.76
460.591	1359.6
460.964	1392.36
461.337	1411.12
461.71	1443.66
462.083	1470.55
462.456	1473.04
462.829	1453.15
463.201	1498.8
463.574	1518.69
463.947	1521.17
464.32	1563.43
464.692	1542.42
465.065	1598.01
465.438	1611.34
465.81	1646.6
466.183	1675.97
466.555	1671
466.928	1685.69
467.3	1711.23
467.672	1741.73
468.045	1789.64
468.417	1808.17
468.789	1841.39
469.161	1850.21
469.534	1905.35
469.906	1945.8
470.278	1963.87
470.65	1999.13
471.022	2054.72
471.394	2064.89
471.766	2094.94
472.138	2156.19
472.51	2193.02
472.882	2240.7
473.253	2273.47
473.625	2331.32
473.997	2373.58
474.369	2422.85
474.74	2483.18
475.112	2518.66
475.484	2600.69
475.855	2681.82
476.227	2677.08
476.598	2779.9
476.97	2837.75
477.341	2896.28
477.713	2978.99
478.084	3016.95
478.455	3180.79
478.827	3177.63
479.198	3291.3
479.569	3335.82
479.94	3475.25
480.311	3512.99
480.682	3637.28
481.053	3752.98
481.424	3828.46
481.795	3915.91
482.166	4030.71
482.537	4129.02
482.908	4263.48
483.279	4342.57
483.65	4472.06
484.021	4586.86
484.391	4693.52
484.762	4793.86
485.133	4877.7
485.503	4982.1
485.874	5116.56
486.244	5283.34
486.615	5439.72
486.985	5581.18
487.356	5719.26
487.726	5848.52
488.097	5955.41
488.467	6076.54
488.837	6239.47
489.207	6411.89
489.578	6553.13
489.948	6647.82
490.318	6816.85
490.688	6953.12
491.058	7160.12
491.428	7279.44
491.798	7434.47
492.168	7627.68
492.538	7685.98
492.908	7894.57
493.278	8092.3
493.648	8113.09
494.017	8306.76
494.387	8438.51
494.757	8560.99
495.126	8696.35
495.496	8834.88
495.866	8904.48
496.235	9104.03
496.605	9251.14
496.974	9377.47
497.344	9476.9
497.713	9586.95
498.082	9714.86
498.452	9929.32
498.821	9995.75
499.19	10092.25
499.559	10249.53
499.928	10327.04
500.298	10460.6
500.667	10543.31
501.036	10603.65
501.405	10770.87
501.774	10835.51
502.143	10922.28
502.512	11074.14
502.88	11223.74
503.249	11269.84
503.618	11425.32
503.987	11423.51
504.356	11503.96
504.724	11652.21
505.093	11731.08
505.462	11748.48
505.83	11890.85
506.199	12004.97
506.567	12219.42
506.936	12220.1
507.304	12331.96
507.672	12385.07
508.041	12404.28
508.409	12594.56
508.777	12660.09
509.145	12725.63
509.514	12707.32
509.882	12810.37
510.25	12854.44
510.618	12912.74
510.986	13021.66
511.354	13142.34
511.722	13286.97
512.09	13327.64
512.458	13321.32
512.826	13365.61
513.193	13414.2
513.561	13490.8
513.929	13551.82
514.297	13672.04
514.664	13682.44
515.032	13742.77
515.4	13847.63
515.767	13825.48
516.135	13933.05
516.502	13822.09
516.869	14123.78
517.237	14055.31
517.604	14040.17
517.972	14163.1
518.339	14304.34
518.706	14237.22
519.073	14273.83
519.44	14240.61
519.808	14452.59
520.175	14293.04
520.542	14570.55
520.909	14594.05
521.276	14469.08
521.643	14689.42
522.009	14683.09
522.376	14775.52
522.743	14797.44
523.11	14847.38
523.477	14959.47
523.843	14952.23
524.21	15100.25
524.577	15139.8
524.943	15197.88
525.31	15185.45
525.676	15275.84
526.043	15257.54
526.409	15289.17
526.776	15285.11
527.142	15345.67
527.508	15390.41
527.874	15423.18
528.241	15391.09
528.607	15507.93
528.973	15602.39
529.339	15500.47
529.705	15649.84
530.071	15632.22
530.437	15661.14
530.803	15655.27
531.169	15714.25
531.535	15595.61
531.901	15641.48
532.267	15676.73
532.632	15679.22
532.998	15683.97
533.364	15716.96
533.73	15791.31
534.095	15762.83
534.461	15755.38
534.826	15776.17
535.192	15752.44
535.557	15758.77
535.923	15673.12
536.288	15705.21
536.653	15668.83
537.019	15608.49
537.384	15667.47
537.749	15610.52
538.114	15553.57
538.479	15547.47
538.845	15601.03
539.21	15469.73
539.575	15526
539.94	15533.91
540.305	15561.71
540.67	15486.23
541.034	15481.26
541.399	15440.13
541.764	15413.01
542.129	15375.27
542.494	15342.51
542.858	15382.51
543.223	15293.69
543.587	15325.56
543.952	15279.23
544.316	15229.29
544.681	15146.35
545.045	15244.88
545.41	15232.9
545.774	15159.46
546.138	15137.09
546.503	15045.79
546.867	15013.93
547.231	15026.36
547.595	15048.05
547.959	15060.71
548.324	15003.31
548.688	14960.14
549.052	14955.85
549.416	14973.25
549.779	14887.38
550.143	14930.09
550.507	14930.31
550.871	14874.5
551.235	14805.8
551.599	14809.86
551.962	14768.74
552.326	14802.63
552.689	14747.49
553.053	14668.17
553.417	14580.49
553.78	14688.06
554.143	14720.83
554.507	14650.55
554.87	14790.66
555.234	14790.66
555.597	14607.16
555.96	14588.4
556.323	14685.35
556.686	14633.15
557.05	14576.42
557.413	14607.38
557.776	14636.99
558.139	14683.99
558.502	14595.41
558.865	14644.45
559.228	14693.48
559.59	14694.16
559.953	14603.09
560.316	14735.97
560.679	14614.84
561.041	14629.08
561.404	14752.01
561.767	14771.45
562.129	14653.48
562.492	14717.44
562.854	14731.45
563.217	14691
563.579	14759.92
563.941	14839.24
564.304	14833.59
564.666	14917.88
565.028	14823.42
565.39	14835.17
565.753	14879.47
566.115	14871.11
566.477	14940.48
566.839	14893.93
567.201	14953.82
567.563	14962.18
567.925	15046.24
568.287	15033.81
568.648	15006.92
569.01	15064.32
569.372	15072.46
569.734	15087.37
570.095	15102.51
570.457	15133.92
570.819	15122.17
571.18	15149.52
571.542	15175.73
571.903	15285.78
572.265	15245.56
572.626	15298.44
572.987	15252.57
573.349	15287.14
573.71	15284.2
574.071	15308.83
574.432	15329.85
574.794	15391.77
575.155	15286.91
575.516	15285.56
575.877	15460.92
576.238	15373.24
576.599	15441.49
576.96	15432.9
577.32	15434.03
577.681	15390.87
578.042	15550.64
578.403	15394.93
578.763	15494.37
579.124	15526
579.485	15454.82
579.845	15574.82
580.206	15454.82
580.566	15467.02
580.927	15429.51
581.287	15579.79
581.648	15436.29
582.008	15502.73
582.368	15382.05
582.728	15514.25
583.089	15490.52
583.449	15456.4
583.809	15497.53
584.169	15410.3
584.529	15444.2
584.889	15502.5
585.249	15429.96
585.609	15415.27
585.969	15419.11
586.329	15343.64
586.688	15409.4
587.048	15381.15
587.408	15377.53
587.768	15309.06
588.127	15283.07
588.487	15308.16
588.846	15397.42
589.206	15261.83
589.565	15302.73
589.925	15415.27
590.284	15355.84
590.643	15315.61
591.003	15379.57
591.362	15368.95
591.721	15327.59
592.08	15190.42
592.44	15416.63
592.799	15392.22
593.158	15328.27
593.517	15276.97
593.876	15337.76
594.235	15331.66
594.593	15370.98
594.952	15336.18
595.311	15174.83
595.67	15292.34
596.029	15383.18
596.387	15405.1
596.746	15372.11
597.104	15301.38
597.463	15258.89
597.822	15401.04
598.18	15275.62
598.538	15143.87
598.897	15324.43
599.255	15146.35
599.613	15397.87
599.972	15246.46
600.33	15251.44
600.688	15219.12
601.046	15253.92
601.404	15269.29
601.762	15277.65
602.12	15245.11
602.478	15295.95
602.836	15271.32
603.194	15240.36
603.552	15263.86
603.91	15264.77
604.268	15264.99
604.625	15225.67
604.983	15343.41
605.341	15168.27
605.698	15351.55
606.056	15375.05
606.413	15332.34
606.771	15406.46
607.128	15373.69
607.485	15285.11
607.843	15409.62
608.2	15306.12
608.557	15407.82
608.914	15395.16
609.272	15511.77
609.629	15436.29
609.986	15465.21
610.343	15474.48
610.7	15542.27
611.057	15439.45
611.414	15524.2
611.771	15525.78
612.127	15537.08
612.484	15497.3
612.841	15577.53
613.198	15509.28
613.554	15521.71
613.911	15518.32
614.267	15580.69
614.624	15531.2
614.98	15525.1
615.337	15629.28
615.693	15725.77
616.05	15631.09
616.406	15708.82
616.762	15700.01
617.118	15707.24
617.475	15636.28
617.831	15725.77
618.187	15719.67
618.543	15727.35
618.899	15903.4
619.255	15764.64
619.611	15784.3
619.967	15729.84
620.323	15890.97
620.678	15762.16
621.034	15736.85
621.39	15757.41
621.746	15774.59
622.101	15917.41
622.457	15678.77
622.812	15793.57
623.168	15907.24
623.523	15829.05
623.879	15838.99
624.234	15808.93
624.589	15778.2
624.945	15793.79
625.3	15810.06
625.655	15784.08
626.01	15757.64
626.365	15813.23
626.72	15671.99
627.075	15783.4
627.43	15762.83
627.785	15803.96
628.14	15795.6
628.495	15762.83
628.85	15667.24
629.205	15722.38
629.559	15836.73
629.914	15734.59
630.269	15780.01
630.623	15633.12
630.978	15645.1
631.332	15693.91
631.687	15698.88
632.041	15615.72
632.396	15679.45
632.75	15582.05
633.104	15638.32
633.459	15549.51
633.813	15510.19
634.167	15529.62
634.521	15543.18
634.875	15553.12
635.229	15467.47
635.583	15412.56
635.937	15474.48
636.291	15439.23
636.645	15463.41
636.999	15403.52
637.352	15384.31
637.706	15296.86
638.06	15408.72
638.413	15399.23
638.767	15339.79
639.121	15349.06
639.474	15182.28
639.828	15226.8
640.181	15238.1
640.534	15212.57
640.888	15190.19
641.241	15205.79
641.594	15229.51
641.947	15136.64
642.301	15215.5
642.654	15147.26
643.007	15227.48
643.36	15170.76
643.713	15142.74
644.066	15178.67
644.419	15060.25
644.771	15016.19
645.124	14874.5
645.477	14845.57
645.83	14783.65
646.182	14702.07
646.535	14604.9
646.888	14679.47
647.24	14557.44
647.593	14634.28
647.945	14568.97
648.298	14474.28
648.65	14504.56
649.002	14524.67
649.355	14559.93
649.707	14552.24
650.059	14691.45
650.411	14761.28
650.763	14815.51
651.115	14911.78
651.467	14907.72
651.819	14907.26
652.171	14911.56
652.523	14881.95
652.875	14885.57
653.227	14773.03
653.578	14980.26
653.93	14966.7
654.282	14815.29
654.633	14768.28
654.985	14843.08
655.337	14823.2
655.688	14902.52
656.039	14949.3
656.391	14902.29
656.742	14783.88
657.094	14892.12
657.445	15011.44
657.796	14916.3
658.147	14905.68
658.498	14858.23
658.849	14899.81
659.2	14901.84
659.551	14817.77
659.902	14922.4
660.253	14859.36
660.604	14885.57
660.955	14851.45
661.306	14915.62
661.656	14792.24
662.007	14974.38
662.358	14966.92
662.708	14892.12
663.059	14942.74
663.409	14804.22
663.76	14909.52
664.11	14931.67
664.461	14902.97
664.811	14914.72
665.161	14989.3
665.511	14944.78
665.862	14843.54
666.212	14928.51
666.562	14981.16
666.912	14934.16
667.262	14963.99
667.612	14873.37
667.962	14934.83
668.312	14884.67
668.662	14959.69
669.011	14940.48
669.361	14879.02
669.711	14967.37
670.06	14809.86
670.41	14842.18
670.76	14849.41
671.109	14891.9
671.459	14877.21
671.808	14821.62
672.157	14832.01
672.507	14758.34
672.856	14726.7
673.205	14782.75
673.554	14807.15
673.904	14702.3
674.253	14798.57
674.602	14775.06
674.951	14571.68
675.3	14488.97
675.649	14653.94
675.998	14642.19
676.346	14655.07
676.695	14691
677.044	14721.28
677.393	14556.09
677.741	14584.11
678.09	14600.15
678.438	14547.05
678.787	14601.51
679.135	14583.88
679.484	14489.87
679.832	14538.23
680.181	14470.66
680.529	14450.78
680.877	14459.37
681.225	14462.53
681.573	14516.31
681.922	14390.67
682.27	14348.63
682.618	14424.56
682.966	14336.43
683.314	14384.34
683.661	14236.55
684.009	14210.56
684.357	14181.86
684.705	14161.52
685.053	14166.04
685.4	14141.41
685.748	14127.17
686.095	14053.5
686.443	14046.5
686.79	14015.54
687.138	14060.05
687.485	14024.57
687.832	13956.1
688.18	13916.33
688.527	13801.98
688.874	13825.26
689.221	13855.99
689.568	13806.28
689.915	13783.68
690.262	13680.18
690.609	13647.64
690.956	13697.8
691.303	13644.47
691.65	13514.08
691.997	13462.78
692.344	13514.31
692.69	13353.63
693.037	13366.74
693.383	13241.77
693.73	13358.38
694.077	13206.97
694.423	13180.76
694.769	13178.27
695.116	13151.15
695.462	13154.77
695.808	12962
696.155	13027.76
696.501	12897.15
696.847	12914.32
697.193	12872.29
697.539	12882.91
697.885	12733.76
698.231	12685.85
698.577	12755.91
698.923	12689.92
699.269	12637.72
699.614	12513.65
699.96	12496.93
700.306	12499.64
700.651	12366.99
700.997	12366.31
701.342	12342.59
701.688	12329.48
702.033	12249.71
702.379	12244.51
702.724	12188.92
703.069	12294.22
703.415	12102.14
703.76	12001.13
704.105	12064.4
704.45	11988.7
704.795	11966.32
705.14	11877.96
705.485	11886.1
705.83	11812.88
706.175	11818.98
706.52	11728.14
706.865	11742.83
707.209	11724.07
707.554	11657.63
707.899	11686.33
708.243	11548.93
708.588	11620.57
708.932	11480.23
709.277	11458.77
709.621	11510.74
709.966	11439.33
710.31	11484.53
710.654	11413.34
710.998	11352.1
711.342	11413.34
711.687	11316.17
712.031	11276.62
712.375	11254.48
712.719	11282.73
713.063	11312.33
713.407	11226.23
713.75	11153.01
714.094	11155.27
714.438	11179
714.782	11191.2
715.125	11008.61
715.469	11122.05
715.812	11038.66
716.156	11013.58
716.499	11070.98
716.843	11012
717.186	10877.54
717.53	10973.13
717.873	10961.6
718.216	10937.88
718.559	10903.3
718.902	10808.16
719.246	10818.78
719.589	10779.91
719.932	10777.43
720.275	10778.11
720.617	10777.2
720.96	10745.34
721.303	10790.31
721.646	10782.4
721.989	10686.13
722.331	10820.37
722.674	10729.52
723.016	10671.89
723.359	10737.66
723.701	10664.66
724.044	10608.62
724.386	10513.25
724.729	10666.92
725.071	10586.25
725.413	10552.8
725.755	10531.11
726.097	10619.69
726.439	10538.34
726.782	10583.99
727.124	10571.11
727.465	10463.54
727.807	10554.38
728.149	10486.59
728.491	10468.06
728.833	10546.7
729.175	10517.55
729.516	10453.14
729.858	10491.33
730.199	10385.8
730.541	10529.75
730.882	10459.47
731.224	10532.92
731.565	10462.18
731.906	10451.11
732.248	10392.58
732.589	10395.52
732.93	10300.15
733.271	10407.72
733.612	10401.17
733.953	10389.87
734.294	10402.07
734.635	10374.28
734.976	10414.5
735.317	10387.83
735.658	10330.66
735.999	10312.13
736.339	10356.42
736.68	10394.61
737.021	10345.12
737.361	10372.02
737.702	10350.77
738.042	10368.4
738.383	10299.25
738.723	10426.25
739.063	10377.89
739.404	10354.84
739.744	10409.53
740.084	10389.19
740.424	10385.35
740.764	10370.66
741.104	10408.62
741.444	10381.96
741.784	10326.82
742.124	10422.18
742.464	10466.93
742.804	10430.32
743.143	10433.48
743.483	10494.95
743.823	10500.37
744.162	10557.32
744.502	10545.8
744.841	10594.83
745.181	10608.17
745.52	10664.44
745.86	10716.19
746.199	10712.12
746.538	10769.07
746.877	10935.84
747.216	10842.29
747.556	10894.26
747.895	10936.52
748.234	11005.45
748.573	11033.92
748.911	11104.2
749.25	11169.96
749.589	11164.54
749.928	11294.7
750.267	11368.37
750.605	11436.17
750.944	11498.54
751.283	11442.95
751.621	11674.81
751.96	11633.45
752.298	11761.13
752.636	11958.87
752.975	11934.46
753.313	12038.86
753.651	12187.79
753.989	12280.21
754.327	12364.05
754.666	12446.31
755.004	12530.83
755.342	12741.22
755.679	12800.2
756.017	12875.68
756.355	13119.74
756.693	13153.64
757.031	13249.45
757.368	13424.59
757.706	13538.26
758.044	13715.88
758.381	13885.82
758.719	14038.13
759.056	14184.12
759.394	14365.58
759.731	14453.04
760.068	14652.58
760.405	14769.41
760.743	14847.38
761.08	15113.13
761.417	15217.76
761.754	15384.31
762.091	15670.63
762.428	15648.71
762.765	15811.42
763.102	16056.16
763.438	16167.8
763.775	16201.01
764.112	16558.75
764.449	16621.57
764.785	16738.85
765.122	16833.09
765.458	17156.24
765.795	17185.4
766.131	17355.11
766.467	17549
766.804	17648.21
767.14	17752.84
767.476	17948.77
767.812	18023.34
768.148	18130.46
768.485	18245.48
768.821	18253.16
769.157	18437.11
769.492	18632.59
769.828	18722.08
770.164	18706.49
770.5	18810.44
770.836	18881.17
771.171	18878.68
771.507	19049.98
771.842	19095.18
772.178	19297.2
772.513	19263.76
772.849	19361.84
773.184	19417.88
773.519	19524.09
773.855	19596.86
774.19	19548.95
774.525	19644.31
774.86	19751.66
775.195	19750.98
775.53	19841.14
775.865	19795.04
776.2	19823.97
776.535	19658.55
776.87	19896.74
777.205	19882.73
777.539	19937.64
777.874	19975.83
778.209	19903.29
778.543	19994.14
778.878	19919.56
779.212	19984.87
779.547	19976.06
779.881	20037.52
780.215	20004.08
780.55	20096.28
780.884	20054.7
781.218	20005.89
781.552	20041.14
781.886	19989.16
782.22	19992.1
782.554	20037.52
782.888	19939.67
783.222	19938.54
783.556	19901.26
783.889	19906.45
784.223	19792.11
784.557	19860.35
784.89	19914.82
785.224	19848.15
785.557	19718.66
785.891	19704.88
786.224	19762.95
786.558	19746.68
786.891	19604.99
787.224	19642.51
787.557	19609.74
787.891	19497.88
788.224	19626.69
788.557	19701.71
788.89	19585.56
789.223	19603.64
789.556	19499.46
789.888	19482.96
790.221	19414.94
790.554	19229.18
790.887	19304.66
791.219	19275.28
791.552	19271.89
791.884	19207.94
792.217	19123.88
792.549	19094.27
792.882	19104.89
793.214	18953.94
793.546	19066.93
793.879	18924.33
794.211	18832.58
794.543	18884.79
794.875	18696.99
795.207	18907.61
795.539	18824
795.871	18774.96
796.203	18647.73
796.535	18625.13
796.867	18604.12
797.198	18544.68
797.53	18581.97
797.862	18442.09
798.193	18525.47
798.525	18309.66
798.856	18448.64
799.188	18128.42
799.519	18231.47
799.85	18116.22
800.182	18070.57
800.513	18168.65
800.844	17965.04
801.175	18079.84
801.506	18098.37
801.837	17936.79
802.168	17953.06
802.499	17756
802.83	17802.33
803.161	17745.83
803.491	17813.85
803.822	17779.5
804.153	17652.5
804.483	17613.18
804.814	17519.85
805.145	17524.37
805.475	17452.96
805.805	17474.2
806.136	17323.7
806.466	17396.46
806.796	17288.67
807.126	17188.11
807.457	17194.21
807.787	17225.85
808.117	17128
808.447	17011.39
808.777	17174.55
809.107	17042.57
809.436	16936.36
809.766	16889.81
810.096	16859.98
810.426	16836.48
810.755	16851.62
811.085	16813.88
811.414	16780.89
811.744	16614.34
812.073	16686.88
812.403	16617.27
812.732	16571.17
813.061	16584.51
813.39	16543.83
813.719	16467
814.049	16505.64
814.378	16451.63
814.707	16376.38
815.036	16424.06
815.365	16228.81
815.693	16290.5
816.022	16270.17
816.351	16200.34
816.68	16113.56
817.008	16149.26
817.337	16038.99
817.665	16012.32
817.994	15978.65
818.322	16000.57
818.651	15925.09
818.979	15885.32
819.307	15811.65
819.636	15904.3
819.964	15810.06
820.292	15925.77
820.62	15888.71
820.948	15716.96
821.276	15794.7
821.604	15815.71
821.932	15801.48
822.259	15844.41
822.587	15777.3
822.915	15689.62
823.243	15803.74
823.57	15800.35
823.898	15727.81
824.225	15690.75
824.553	15661.14
824.88	15701.82
825.207	15749.05
825.535	15731.65
825.862	15773.68
826.189	15781.59
826.516	15747.47
826.843	15814.36
827.17	15775.72
827.497	15777.97
827.824	15801.03
828.151	15799.44
828.478	15785.88
828.805	15887.35
829.131	15831.53
829.458	15756.96
829.785	15712.21
830.111	15688.49
830.438	15807.13
830.764	15831.98
831.09	15891.87
831.417	15724.42
831.743	15752.44
832.069	15741.82
832.395	15642.16
832.722	15707.69
833.048	15663.85
833.374	15708.15
833.7	15580.69
834.026	15680.58
834.351	15750.63
834.677	15635.61
835.003	15678.99
835.329	15693.46
835.654	15623.85
835.98	15559.45
836.306	15661.59
836.631	15596.96
836.956	15558.32
837.282	15554.7
837.607	15502.95
837.932	15436.06
838.258	15496.63
838.583	15529.62
838.908	15361.94
839.233	15357.87
839.558	15325.33
839.883	15242.17
840.208	15229.74
840.533	15258.44
840.858	15264.32
841.182	15323.07
841.507	15148.61
841.832	15142.06
842.156	15101.38
842.481	15054.83
842.805	15071.33
843.13	15006.92
843.454	14998.33
843.778	14894.83
844.103	14922.4
844.427	14804.44
844.751	14874.72
845.075	14822.07
845.399	14807.15
845.723	14720.15
846.047	14690.77
846.371	14669.53
846.695	14588.18
847.019	14417.78
847.343	14434.28
847.666	14383.44
847.99	14299.37
848.313	14266.6
848.637	14191.35
848.96	14201.97
849.284	14173.5
849.607	14086.72
849.931	14050.11
850.254	13936.89
850.577	13768.76
850.9	13851.7
851.223	13733.51
851.546	13664.36
851.869	13603.12
852.192	13661.19
852.515	13488.09
852.838	13529.67
853.161	13429.56
853.483	13352.28
853.806	13422.1
854.129	13318.6
854.451	13250.13
854.774	13173.52
855.096	13116.12
855.419	13172.17
855.741	13128.78
856.063	13035.9
856.385	13027.99
856.708	13021.44
857.03	12968.33
857.352	12951.83
857.674	12872.29
857.996	12816.47
858.318	12807.88
858.64	12697.6
858.961	12678.17
859.283	12693.08
859.605	12551.17
859.926	12731.73
860.248	12685.17
860.57	12508
860.891	12599.53
861.212	12442.92
861.534	12458.06
861.855	12393.43
862.176	12415.58
862.498	12364.73
862.819	12402.47
863.14	12320.89
863.461	12303.49
863.782	12270.72
864.103	12262.14
864.424	12233.21
864.745	12331.51
865.065	12162.48
865.386	12160.89
865.707	12138.75
866.027	12114.57
866.348	12105.53
866.668	12125.42
866.989	12069.15
867.309	11947.12
867.63	11943.95
867.95	12004.06
868.27	11906.66
868.59	11952.09
868.91	11922.94
869.23	11888.36
869.55	11801.58
869.87	11873.67
870.19	11871.64
870.51	11764.52
870.83	11830.96
871.15	11752.54
871.469	11777.63
871.789	11807.46
872.109	11761.36
872.428	11649.04
872.748	11715.26
873.067	11680.23
873.386	11714.8
873.706	11743.28
874.025	11587.35
874.344	11543.51
874.663	11601.81
874.982	11600.68
875.301	11628.03
875.62	11581.25
875.939	11544.41
876.258	11510.52
876.577	11495.83
876.896	11437.98
877.214	11417.64
877.533	11429.84
877.852	11324.76
878.17	11431.42
878.489	11391.42
878.807	11374.7
879.125	11408.82
879.444	11350.52
879.762	11331.31
880.08	11307.58
880.398	11186.46
880.716	11211.09
881.034	11183.75
881.352	11216.51
881.67	11211.99
881.988	11157.98
882.306	11103.52
882.624	11084.31
882.941	11061.71
883.259	11032.11
883.577	10956.63
883.894	10933.36
884.212	10965.9
884.529	10913.24
884.846	10912.57
885.164	10884.54
885.481	10898.33
885.798	10939.68
886.115	10708.5
886.432	10804.55
886.75	10691.33
887.067	10753.25
887.383	10650.65
887.7	10634.38
888.017	10651.1
888.334	10663.99
888.651	10625.79
888.967	10624.89
889.284	10552.58
889.6	10408.62
889.917	10428.74
890.233	10457.66
890.55	10358.91
890.866	10462.63
891.182	10376.99
891.498	10324.33
891.815	10279.14
892.131	10280.49
892.447	10261.96
892.763	10228.52
893.079	10207.5
893.395	10115.75
893.71	10078.69
894.026	10065.81
894.342	10083.21
894.657	10004.79
894.973	9955.08
895.289	9939.03
895.604	9904.91
895.92	9825.36
896.235	9809.32
896.55	9801.63
896.865	9855.19
897.181	9746.72
897.496	9729.09
897.811	9745.37
898.126	9646.16
898.441	9671.92
898.756	9606.16
899.071	9476.67
899.386	9556.44
899.7	9391.93
900.015	9424.24
900.33	9373.17
900.644	9358.71
900.959	9378.6
901.273	9316.45
901.588	9314.87
901.902	9189.45
902.216	9203.46
902.531	9184.48
902.845	9118.94
903.159	9112.61
903.473	9057.25
903.787	8988.77
904.101	9009.34
904.415	8948.78
904.729	8944.03
905.042	8833.98
905.356	8906.74
905.67	8793.98
905.984	8821.55
906.297	8814.09
906.611	8718.5
906.924	8770.93
907.237	8705.62
907.551	8644.6
907.864	8518.73
908.177	8649.57
908.491	8486.19
908.804	8450.71
909.117	8442.35
909.43	8325.06
909.743	8343.37
910.056	8364.61
910.368	8273.54
910.681	8191.51
910.994	8208.46
911.307	8248.46
911.619	8110.61
911.932	8157.61
912.244	8038.74
912.557	8052.3
912.869	8043.49
913.181	8031.51
913.494	7982.7
913.806	7952.87
914.118	7896.83
914.43	7867.67
914.742	7854.79
915.054	7838.52
915.366	7729.83
915.678	7757.85
915.99	7695.02
916.302	7647.12
916.613	7624.52
916.925	7643.73
917.236	7574.57
917.548	7534.35
917.859	7512.88
918.171	7442.83
918.482	7498.19
918.794	7419.78
919.105	7435.82
919.416	7399.66
919.727	7337.97
920.038	7336.39
920.349	7268.14
920.66	7265.2
920.971	7264.53
921.282	7215.49
921.593	7183.17
921.903	7161.03
922.214	7118.99
922.525	7081.25
922.835	7119.67
923.146	7003.29
923.456	7008.26
923.767	6925.78
924.077	6955.16
924.387	6905.44
924.697	6869.28
925.008	6831.77
925.318	6810.75
925.628	6735.73
925.938	6757.65
926.248	6720.36
926.558	6680.14
926.867	6668.84
927.177	6699.12
927.487	6674.71
927.796	6572.57
928.106	6544.77
928.416	6506.35
928.725	6502.06
929.034	6451.67
929.344	6511.78
929.653	6469.75
929.962	6370.54
930.271	6369.86
930.581	6361.5
930.89	6324.21
931.199	6314.72
931.508	6258.45
931.817	6257.1
932.125	6213.48
932.434	6229.3
932.743	6149.08
933.051	6139.58
933.36	6164.89
933.669	6088.74
933.977	6059.13
934.286	6036.54
934.594	5992.7
934.902	5933.26
935.21	5951.34
935.519	5926.26
935.827	5943.88
936.135	5893.72
936.443	5859.59
936.751	5824.79
937.059	5811.91
937.367	5795.41
937.674	5784.11
937.982	5759.48
938.29	5729.2
938.597	5712.25
938.905	5668.64
939.213	5611.46
939.52	5618.92
939.827	5594.29
940.135	5557.23
940.442	5528.3
940.749	5546.15
941.056	5547.51
941.363	5495.76
941.67	5476.78
941.977	5437.46
942.284	5336.44
942.591	5386.84
942.898	5382.32
943.205	5356.1
943.511	5307.29
943.818	5255.09
944.125	5246.95
944.431	5232.49
944.738	5246.5
945.044	5193.85
945.35	5154.75
945.657	5104.58
945.963	5150.46
946.269	5125.15
946.575	5074.08
946.881	5083.34
947.187	5079.05
947.493	5011.7
947.799	4992.27
948.105	4962.67
948.41	4917.7
948.716	4950.69
949.022	4908.66
949.327	4895.78
949.633	4865.49
949.938	4854.42
950.244	4836.12
950.549	4766.29
950.854	4816.46
951.16	4774.42
951.465	4775.1
951.77	4700.75
952.075	4715.89
952.38	4709.11
952.685	4665.72
952.99	4590.92
953.294	4606.74
953.599	4606.74
953.904	4625.5
954.209	4554.09
954.513	4593.64
954.818	4503.7
955.122	4476.8
955.426	4470.02
955.731	4507.31
956.035	4435
956.339	4441.32
956.643	4470.48
956.948	4398.61
957.252	4345.51
957.556	4365.62
957.86	4340.08
958.163	4289.92
958.467	4324.04
958.771	4339.18
959.075	4299.63
959.378	4262.35
959.682	4235.68
959.985	4218.05
960.289	4228.9
960.592	4180.99
960.896	4183.25
961.199	4177.15
961.502	4121.33
961.805	4079.98
962.108	4095.57
962.411	4041.11
962.714	4068.9
963.017	4060.32
963.32	4030.04
963.623	3998.85
963.926	3987.78
964.228	3952.07
964.531	3916.14
964.833	3951.62
965.136	3894.22
965.438	3894.22
965.741	3865.07
966.043	3851.06
966.345	3877.5
966.648	3814.9
966.95	3808.8
967.252	3741
967.554	3778.97
967.856	3752.98
968.158	3719.76
968.46	3730.83
968.761	3719.99
969.063	3671.63
969.365	3682.02
969.666	3677.28
969.968	3652.19
970.269	3645.19
970.571	3578.97
970.872	3616.49
971.174	3612.19
971.475	3538.52
971.776	3575.13
972.077	3554.12
972.378	3524.29
972.679	3540.56
972.98	3507.79
973.281	3472.54
973.582	3448.81
973.883	3448.13
974.183	3448.36
974.484	3428.92
974.785	3378.53
975.085	3400.45
975.386	3378.53
975.686	3365.65
975.986	3365.42
976.287	3302.82
976.587	3344.18
976.887	3301.47
977.187	3296.5
977.487	3310.28
977.787	3293.56
978.087	3225.54
978.387	3209.72
978.687	3213.79
978.987	3201.58
979.286	3158.19
979.586	3120.23
979.885	3154.58
980.185	3123.17
980.484	3115.03
980.784	3115.26
981.083	3096.95
981.382	3063.96
981.682	3094.69
981.981	3026.22
982.28	3057.86
982.579	3019.89
982.878	3023.51
983.177	2951.65
983.475	3016.73
983.774	2974.92
984.073	2953.23
984.372	2945.77
984.67	2943.28
984.969	2917.75
985.267	2941.25
985.566	2909.39
985.864	2846.56
986.162	2907.58
986.461	2833.46
986.759	2844.08
987.057	2796.62
987.355	2820.8
987.653	2797.75
987.951	2754.81
988.249	2793.91
988.547	2789.84
988.844	2790.29
989.142	2742.84
989.44	2728.6
989.737	2729.05
990.035	2689.73
990.332	2694.03
990.63	2655.16
990.927	2691.54
991.224	2651.77
991.521	2627.13
991.819	2644.99
992.116	2621.03
992.413	2590.98
992.71	2590.53
993.006	2589.4
993.303	2600.02
993.6	2550.3
993.897	2532.45
994.193	2541.71
994.49	2521.83
994.787	2518.21
995.083	2482.96
995.379	2484.31
995.676	2487.7
995.972	2446.8
996.268	2433.69
996.565	2442.28
996.861	2421.49
997.157	2412.45
997.453	2407.71
997.749	2389.85
998.044	2333.13
998.34	2361.15
998.636	2348.95
998.932	2341.72
999.227	2305.79
999.523	2267.6
999.818	2302.4
1000.114	2281.61
1000.409	2290.19
1000.704	2241.83
1001	2243.64
1001.295	2229.4
1001.59	2249.97
1001.885	2211.1
1002.18	2207.71
1002.475	2218.33
1002.77	2193.93
1003.065	2150.76
1003.359	2165
1003.654	2137.88
1003.949	2127.26
1004.243	2146.47
1004.538	2114.15
1004.832	2115.28
1005.127	2065.34
1005.421	2089.07
1005.715	2054.04
1006.009	2049.3
1006.304	2057.88
1006.598	2025.57
1006.892	2042.52
1007.186	2000.03
1007.48	1982.41
1007.773	1950.09
1008.067	1967.94
1008.361	1974.72
1008.655	1950.77
1008.948	1950.32
1009.242	1962.52
1009.535	1898.79
1009.829	1946.7
1010.122	1873.48
1010.415	1880.71
1010.708	1868.06
1011.001	1853.37
1011.295	1855.18
1011.588	1833.48
1011.881	1823.99
1012.173	1783.77
1012.466	1800.04
1012.759	1788.96
1013.052	1813.82
1013.344	1784.9
1013.637	1781.73
1013.93	1740.83
1014.222	1725.92
1014.514	1697.67
1014.807	1727.5
1015.099	1719.59
1015.391	1693.6
1015.683	1689.53
1015.976	1697.22
1016.268	1649.76
1016.56	1675.07
1016.851	1638.01
1017.143	1650.21
1017.435	1623.32
1017.727	1641.85
1018.018	1634.17
1018.31	1600.49
1018.602	1600.49
1018.893	1583.77
1019.185	1576.31
1019.476	1550.1
1019.767	1551.46
1020.058	1561.63
1020.35	1521.17
1020.641	1508.97
1020.932	1473.49
1021.223	1463.78
1021.514	1516.88
1021.804	1463.55
1022.095	1472.14
1022.386	1463.32
1022.677	1442.31
1022.967	1433.72
1023.258	1411.57
1023.548	1412.48
1023.839	1437.56
1024.129	1395.08
1024.419	1395.53
1024.709	1397.79
1025	1370.67
1025.29	1371.57
1025.58	1349.43
1025.87	1312.82
1026.16	1331.35
1026.449	1309.2
1026.739	1319.37
1027.029	1313.5
1027.319	1304.01
1027.608	1299.03
1027.898	1285.7
1028.187	1266.94
1028.477	1284.8
1028.766	1259.94
1029.055	1246.61
1029.344	1264.68
1029.634	1231.92
1029.923	1240.28
1030.212	1228.3
1030.501	1217.91
1030.79	1165.48
1031.078	1200.05
1031.367	1181.97
1031.656	1188.3
1031.945	1160.73
1032.233	1161.64
1032.522	1169.32
1032.81	1171.58
1033.099	1133.84
1033.387	1120.73
1033.675	1136.55
1033.963	1106.95
1034.251	1127.06
1034.54	1110.11
1034.828	1115.31
1035.116	1080.73
1035.403	1086.61
1035.691	1071.02
1035.979	1080.73
1036.267	1073.5
1036.554	1066.5
1036.842	1039.15
1037.129	1033.96
1037.417	1033.05
1037.704	1032.15
1037.992	1010
1038.279	1035.54
1038.566	1011.13
1038.853	1011.13
1039.14	1011.13
