Data from hue_350_FLMS001491_82.txt Node
Date: Mon Feb 06 15:38:38 GMT 2017
User: dcchb
Spectrometer: FLMS00149
Trigger mode: 0
Integration Time (sec): 2.000000E-2
Scans to average: 10
Electric dark correction enabled: true
Nonlinearity correction enabled: false
Boxcar width: 0
XAxis mode: Wavelengths
Number of Pixels in Spectrum: 2048
>>>>>Begin Spectral Data<<<<<
341.393	-0.79
341.776	-0.79
342.16	-0.79
342.543	-64.97
342.927	-67
343.31	-95.7
343.693	-64.74
344.077	-48.7
344.46	-70.17
344.843	-56.16
345.226	-31.98
345.61	-18.64
345.993	-0.11
346.376	11.86
346.759	4.86
347.142	15.48
347.525	32.65
347.908	57.74
348.291	82.37
348.674	71.52
349.057	109.71
349.44	156.27
349.823	126.44
350.206	184.29
350.588	173.89
350.971	203.05
351.354	243.04
351.737	233.78
352.119	234.01
352.502	256.15
352.884	264.74
353.267	273.55
353.65	309.71
354.032	288.02
354.414	316.49
354.797	313.33
355.179	292.08
355.562	318.52
355.944	316.04
356.326	354
356.709	337.28
357.091	334.12
357.473	336.83
357.855	343.38
358.238	361.46
358.62	338.64
359.002	331.86
359.384	321.23
359.766	341.35
360.148	335.7
360.53	349.71
360.912	338.64
361.294	324.4
361.676	315.36
362.057	349.26
362.439	319.88
362.821	339.09
363.203	325.98
363.584	312.87
363.966	323.49
364.348	335.02
364.729	344.96
365.111	324.4
365.493	292.99
365.874	298.86
366.256	327.11
366.637	308.13
367.019	310.61
367.4	309.03
367.781	309.26
368.163	309.26
368.544	317.17
368.925	321.46
369.306	316.49
369.688	336.38
370.069	304.29
370.45	318.52
370.831	299.31
371.212	318.07
371.593	294.12
371.974	288.24
372.355	298.64
372.736	318.75
373.117	325.08
373.498	325.98
373.879	317.39
374.26	309.71
374.641	312.42
375.021	295.02
375.402	316.94
375.783	303.38
376.163	329.82
376.544	325.08
376.925	321.91
377.305	317.39
377.686	304.29
378.066	338.41
378.447	345.41
378.827	307.68
379.208	311.52
379.588	357.84
379.968	363.95
380.349	324.85
380.729	346.77
381.109	333.89
381.489	334.79
381.87	337.96
382.25	332.31
382.63	333.21
383.01	335.92
383.39	339.77
383.77	354
384.15	346.77
384.53	323.72
384.91	356.71
385.29	350.39
385.67	342.02
386.049	359.88
386.429	335.25
386.809	355.36
387.189	351.52
387.568	339.31
387.948	337.05
388.328	319.43
388.707	328.01
389.087	356.94
389.466	348.35
389.846	337.28
390.225	365.53
390.605	373.21
390.984	364.62
391.363	370.5
391.743	346.54
392.122	343.15
392.501	355.81
392.881	358.75
393.26	354.45
393.639	382.93
394.018	356.94
394.397	352.65
394.776	356.04
395.155	382.7
395.534	366.43
395.913	380.22
396.292	366.88
396.671	353.1
397.05	368.01
397.429	363.95
397.808	384.28
398.186	379.99
398.565	358.52
398.944	396.03
399.323	391.74
399.701	383.83
400.08	377.05
400.458	371.4
400.837	392.65
401.215	404.62
401.594	417.73
401.972	393.32
402.351	383.38
402.729	393.32
403.107	414.34
403.486	391.97
403.864	396.71
404.242	404.4
404.62	388.8
404.999	420.21
405.377	396.94
405.755	415.24
406.133	402.36
406.511	409.82
406.889	427.22
407.267	424.06
407.645	426.77
408.023	428.58
408.401	433.55
408.779	435.36
409.156	444.62
409.534	437.62
409.912	434.23
410.29	445.07
410.667	415.47
411.045	438.52
411.422	450.95
411.8	442.59
412.178	439.65
412.555	471.96
412.933	455.24
413.31	459.31
413.687	468.12
414.065	480.33
414.442	464.96
414.819	483.49
415.197	455.92
415.574	482.36
415.951	477.16
416.328	489.14
416.705	496.82
417.082	497.73
417.46	481.68
417.837	492.76
418.214	471.74
418.591	488.69
418.967	511.74
419.344	510.16
419.721	521.23
420.098	519.42
420.475	523.72
420.852	510.61
421.228	519.87
421.605	541.34
421.982	521.91
422.358	536.82
422.735	535.47
423.111	550.16
423.488	565.52
423.864	549.93
424.241	547.9
424.617	556.26
424.994	554.22
425.37	570.27
425.746	556.26
426.123	584.05
426.499	575.69
426.875	557.16
427.251	575.01
427.627	570.49
428.003	585.86
428.379	606.65
428.756	581.79
429.132	610.94
429.507	611.62
429.883	608.01
430.259	626.99
430.635	653.43
431.011	618.4
431.387	643.94
431.763	658.85
432.138	652.75
432.514	652.3
432.89	652.07
433.265	689.13
433.641	648.46
434.016	664.5
434.392	682.13
434.767	683.03
435.143	675.35
435.518	688.91
435.894	706.76
436.269	708.57
436.644	706.99
437.02	699.3
437.395	720.32
437.77	715.57
438.145	721
438.52	740.66
438.895	724.84
439.271	749.02
439.646	767.32
440.021	763.93
440.395	743.6
440.77	742.47
441.145	771.17
441.52	793.54
441.895	746.53
442.27	799.41
442.645	780.88
443.019	775.46
443.394	783.37
443.769	805.06
444.143	786.76
444.518	814.33
444.892	796.02
445.267	823.37
445.641	819.53
446.016	827.21
446.39	844.38
446.764	844.38
447.139	826.08
447.513	844.38
447.887	842.12
448.262	824.27
448.636	849.36
449.01	833.54
449.384	838.06
449.758	857.27
450.132	867.43
450.506	856.36
450.88	878.28
451.254	858.4
451.628	853.65
452.002	886.19
452.376	887.77
452.75	904.72
453.123	890.94
453.497	887.77
453.871	929.58
454.244	928.45
454.618	917.38
454.992	938.39
455.365	940.88
455.739	964.61
456.112	956.02
456.486	956.02
456.859	978.17
457.232	986.3
457.606	977.94
457.979	1004.15
458.352	1014.78
458.725	1005.06
459.099	1038.05
459.472	1026.53
459.845	1049.58
460.218	1066.53
460.591	1075.79
460.964	1058.16
461.337	1082.34
461.71	1108.33
462.083	1107.88
462.456	1096.58
462.829	1113.98
463.201	1148.33
463.574	1124.38
463.947	1130.7
464.32	1204.15
464.692	1178.61
465.065	1181.1
465.438	1202.34
465.81	1209.8
466.183	1209.35
466.555	1250.7
466.928	1239.85
467.3	1223.58
467.672	1286.86
468.045	1311.49
468.417	1296.8
468.789	1302.23
469.161	1309.01
469.534	1337.48
469.906	1342.45
470.278	1372.28
470.65	1388.33
471.022	1388.33
471.394	1432.62
471.766	1442.11
472.138	1458.61
472.51	1469.23
472.882	1506.06
473.253	1510.81
473.625	1542.22
473.997	1569.79
474.369	1577.7
474.74	1588.77
475.112	1610.24
475.484	1660.41
475.855	1674.65
476.227	1704.7
476.598	1732.5
476.97	1738.37
477.341	1747.19
477.713	1802.55
478.084	1833.74
478.455	1864.92
478.827	1894.98
479.198	1913.51
479.569	1917.12
479.94	1985.15
480.311	1981.76
480.682	2027.18
481.053	2094.75
481.424	2118.7
481.795	2155.76
482.166	2163.67
482.537	2210.68
482.908	2260.39
483.279	2280.96
483.65	2306.04
484.021	2344.91
484.391	2376.55
484.762	2402.08
485.133	2433.95
485.503	2483.21
485.874	2505.36
486.244	2557.33
486.615	2570.67
486.985	2665.58
487.356	2666.48
487.726	2683.21
488.097	2735.63
488.467	2764.33
488.837	2821.51
489.207	2886.14
489.578	2920.26
489.948	2892.47
490.318	2971.56
490.688	2982.86
491.058	3018.56
491.428	3079.58
491.798	3103.31
492.168	3155.28
492.538	3160.48
492.908	3204.32
493.278	3255.62
493.648	3214.04
494.017	3263.53
494.387	3305.79
494.757	3343.08
495.126	3388.72
495.496	3350.76
495.866	3417.42
496.235	3418.33
496.605	3476.86
496.974	3534.94
497.344	3556.63
497.713	3557.99
498.082	3560.7
498.452	3609.06
498.821	3653.12
499.19	3636.63
499.559	3693.12
499.928	3720.92
500.298	3717.76
500.667	3767.25
501.036	3753.46
501.405	3821.03
501.774	3827.13
502.143	3843.63
502.512	3879.78
502.88	3846.11
503.249	3877.53
503.618	3941.03
503.987	3917.98
504.356	3979.9
504.724	3974.25
505.093	3976.96
505.462	3978.31
505.83	4039.1
506.199	4040.68
506.567	4068.71
506.936	4083.4
507.304	4140.57
507.672	4159.55
508.041	4149.61
508.409	4150.74
508.777	4172.66
509.145	4216.95
509.514	4223.96
509.882	4245.65
510.25	4258.76
510.618	4296.5
510.986	4305.54
511.354	4284.75
511.722	4323.84
512.09	4388.7
512.458	4338.76
512.826	4419.66
513.193	4401.58
513.561	4416.95
513.929	4429.6
514.297	4438.87
514.664	4445.19
515.032	4514.8
515.4	4535.13
515.767	4553.21
516.135	4554.34
516.502	4525.87
516.869	4567.22
517.237	4588.01
517.604	4614.23
517.972	4651.06
518.339	4648.35
518.706	4640.22
519.073	4664.17
519.44	4708.01
519.808	4718.41
520.175	4723.6
520.542	4728.8
520.909	4766.54
521.276	4754.56
521.643	4799.99
522.009	4875.92
522.376	4861.23
522.743	4881.57
523.11	4927.67
523.477	4929.7
523.843	4917.5
524.21	4963.82
524.577	4991.85
524.943	5029.13
525.31	5039.75
525.676	5095.8
526.043	5079.98
526.409	5120.66
526.776	5166.3
527.142	5173.31
527.508	5218.05
527.874	5252.4
528.241	5281.1
528.607	5249.24
528.973	5259.86
529.339	5302.8
529.705	5387.77
530.071	5420.08
530.437	5427.31
530.803	5484.49
531.169	5532.4
531.535	5493.98
531.901	5487.2
532.267	5557.48
532.632	5501.21
532.998	5547.54
533.364	5575.56
533.73	5568.78
534.095	5662.56
534.461	5630.25
534.826	5704.37
535.192	5703.69
535.557	5778.72
535.923	5766.97
536.288	5837.02
536.653	5822.33
537.019	5804.48
537.384	5779.4
537.749	5873.63
538.114	5864.59
538.479	5927.87
538.845	5930.8
539.21	5917.47
539.575	5964.93
539.94	5973.29
540.305	6044.93
540.67	6033.4
541.034	6033.17
541.399	6044.25
541.764	6139.84
542.129	6146.62
542.494	6165.83
542.858	6169.44
543.223	6178.93
543.587	6265.94
543.952	6229.78
544.316	6238.14
544.681	6301.64
545.045	6316.33
545.41	6368.08
545.774	6359.04
546.138	6393.17
546.503	6440.4
546.867	6400.17
547.231	6450.11
547.595	6485.82
547.959	6474.07
548.324	6521.07
548.688	6605.82
549.052	6564.69
549.416	6595.87
549.779	6585.02
550.143	6631.8
550.507	6673.84
550.871	6742.76
551.235	6693.95
551.599	6708.41
551.962	6765.36
552.326	6770.1
552.689	6807.17
553.053	6835.41
553.417	6792.02
553.78	6878.12
554.143	6843.77
554.507	6901.17
554.87	6912.47
555.234	6978.01
555.597	6895.07
555.96	6986.37
556.323	7047.16
556.686	7033.37
557.05	7038.8
557.413	7082.64
557.776	7111.34
558.139	7165.35
558.502	7150.89
558.865	7226.59
559.228	7168.51
559.59	7229.98
559.953	7262.29
560.316	7314.04
560.679	7277.89
561.041	7383.87
561.404	7361.5
561.767	7475.62
562.129	7377.32
562.492	7456.41
562.854	7428.17
563.217	7459.8
563.579	7445.11
563.941	7576.18
564.304	7535.28
564.666	7587.26
565.028	7650.99
565.39	7635.39
565.753	7690.98
566.115	7709.29
566.477	7734.6
566.839	7767.14
567.201	7808.27
567.563	7796.97
567.925	7850.75
568.287	7904.54
568.648	7836.29
569.01	7951.09
569.372	8015.72
569.734	7978.89
570.095	7991.99
570.457	8053.23
570.819	8086.23
571.18	8164.19
571.542	8088.49
571.903	8152.44
572.265	8257.07
572.626	8268.14
572.987	8311.08
573.349	8329.61
573.71	8332.78
574.071	8404.86
574.432	8508.59
574.794	8568.25
575.155	8594.24
575.516	8606.89
575.877	8576.16
576.238	8751.97
576.599	8799.88
576.96	8821.12
577.32	8920.1
577.681	9025.19
578.042	9097.5
578.403	9143.83
578.763	9212.75
579.124	9308.34
579.485	9387.89
579.845	9473.08
580.206	9580.65
580.566	9662.46
580.927	9817.71
581.287	9986.97
581.648	9969.57
582.008	10164.14
582.368	10332.04
582.728	10410.23
583.089	10530.46
583.449	10649.1
583.809	10908.98
584.169	11014.51
584.529	11110.33
584.889	11425.8
585.249	11544.22
585.609	11577.89
585.969	11903.3
586.329	12028.27
586.688	12204.09
587.048	12419.45
587.408	12623.51
587.768	12817.4
588.127	13025.99
588.487	13235.25
588.846	13550.27
589.206	13612.41
589.565	13875.23
589.925	14207.88
590.284	14410.36
590.643	14623.01
591.003	15034.52
591.362	15206.27
591.721	15461.63
592.08	15735.29
592.44	16033.82
592.799	16373.69
593.158	16498.66
593.517	16782.72
593.876	17087.8
594.235	17384.97
594.593	17739.08
594.952	17945.86
595.311	18197.15
595.67	18546.52
596.029	18888.2
596.387	19196.22
596.746	19524.8
597.104	19717.33
597.463	19873.49
597.822	20357.54
598.18	20501.95
598.538	20780.36
598.897	21206.79
599.255	21227.13
599.613	21940.1
599.972	22012.87
600.33	22319.53
600.688	22538.73
601.046	22888.55
601.404	23208.99
601.762	23424.13
602.12	23767.62
602.478	23987.73
602.836	24354.95
603.194	24497.55
603.552	24759.01
603.91	24991.55
604.268	25393.12
604.625	25598.76
604.983	25939.54
605.341	26048.02
605.698	26443.03
606.056	26756.92
606.413	26861.1
606.771	27139.29
607.128	27305.38
607.485	27466.06
607.843	27759.16
608.2	28292.25
608.557	28473.71
608.914	28503.09
609.272	28740.6
609.629	29186.24
609.986	29426.23
610.343	29480.92
610.7	29787.13
611.057	30013.79
611.414	30111.64
611.771	30352.99
612.127	30645.86
612.484	30804.27
612.841	31096.02
613.198	31114.78
613.554	31434.77
613.911	31740.97
614.267	31738.04
614.624	31941.65
614.98	32058.25
615.337	32568.07
615.693	32475.42
616.05	32568.97
616.406	32990.21
616.762	32907.27
617.118	33023.43
617.475	33282.63
617.831	33420.48
618.187	33541.38
618.543	33687.14
618.899	34170.97
619.255	34075.83
619.611	34203.06
619.967	34426.55
620.323	34564.4
620.678	34598.98
621.034	34740.67
621.39	34820.89
621.746	34798.29
622.101	35218.17
622.457	35070.15
622.812	35190.6
623.168	35411.84
623.523	35549.46
623.879	35708.1
624.234	35622.68
624.589	35610.7
624.945	35791.49
625.3	35923.24
625.655	35972.73
626.01	36033.06
626.365	36196.22
626.72	36155.32
627.075	36174.3
627.43	36321.19
627.785	36344.69
628.14	36531.13
628.495	36482.32
628.85	36534.29
629.205	36454.52
629.559	36597.12
629.914	36673.27
630.269	36640.73
630.623	36673.5
630.978	36807.51
631.332	37025.35
631.687	37078.46
632.041	36915.53
632.396	37077.33
632.75	36873.95
633.104	36984.9
633.459	36935.19
633.813	36821.97
634.167	36919.37
634.521	36951.46
634.875	37120.27
635.229	37107.16
635.583	36956.43
635.937	36985.13
636.291	37085.92
636.645	36991.46
636.999	36913.72
637.352	37113.71
637.706	36962.98
638.06	37035.98
638.413	37080.72
638.767	36956.43
639.121	37068.97
639.474	36776.55
639.828	36895.41
640.181	37048.63
640.534	37056.09
640.888	36834.62
641.241	36746.94
641.594	36940.16
641.947	36900.84
642.301	36791.91
642.654	36964.56
643.007	36955.3
643.36	36989.42
643.713	36944.23
644.066	37042.3
644.419	36763.67
644.771	36624.69
645.124	36327.07
645.477	36236.45
645.83	35996.68
646.182	36018.15
646.535	35816.8
646.888	35863.58
647.24	35754.65
647.593	35933.18
647.945	35826.06
648.298	35733.18
648.65	35598.5
649.002	35639.63
649.355	35848.89
649.707	35670.36
650.059	35850.24
650.411	36153.29
650.763	36407.52
651.115	36708.75
651.467	36463.79
651.819	36630.34
652.171	36407.97
652.523	36483.67
652.875	36397.12
653.227	36291.81
653.578	36472.15
653.93	36418.36
654.282	36416.56
654.633	36248.43
654.985	36244.58
655.337	36328.42
655.688	36499.04
656.039	36491.13
656.391	36174.3
656.742	36287.75
657.094	36408.65
657.445	36424.01
657.796	36238.26
658.147	36299.5
658.498	36188.99
658.849	36231.25
659.2	36153.29
659.551	36140.18
659.902	36301.76
660.253	36281.19
660.604	36271.7
660.955	36172.72
661.306	36320.74
661.656	36090.92
662.007	36146.96
662.358	36294.3
662.708	36069.9
663.059	36253.17
663.409	35944.7
663.76	36254.3
664.11	36079.62
664.461	36103.8
664.811	36204.58
665.161	36225.83
665.511	36138.15
665.862	36217.69
666.212	36303.79
666.562	36273.74
666.912	36200.52
667.262	35982.44
667.612	36109.9
667.962	36011.37
668.312	35985.16
668.662	36275.09
669.011	36166.62
669.361	36029.9
669.711	35953.07
670.06	35950.13
670.41	35927.53
670.76	35871.26
671.109	36154.42
671.459	35901.99
671.808	35857.25
672.157	36161.42
672.507	35779.51
672.856	35820.87
673.205	35796.69
673.554	36013.18
673.904	35827.65
674.253	36144.25
674.602	35851.83
674.951	35319.41
675.3	35152.41
675.649	35748.55
675.998	35694.09
676.346	35794.65
676.695	35946.51
677.044	35624.04
677.393	35666.29
677.741	35671.04
678.09	35573.19
678.438	35497.48
678.787	35674.66
679.135	35701.1
679.484	35342.91
679.832	35515.79
680.181	35289.58
680.529	35411.39
680.877	35309.92
681.225	35399.86
681.573	35530.93
681.922	35229.02
682.27	35145.86
682.618	35151.05
682.966	35092.3
683.314	35098.17
683.661	35065.41
684.009	34754.91
684.357	34875.58
684.705	34799.65
685.053	34915.81
685.4	34806.66
685.748	34695.02
686.095	34635.36
686.443	34444.41
686.79	34524.85
687.138	34447.57
687.485	34363.28
687.832	34452.31
688.18	34412.09
688.527	34149.95
688.874	34198.08
689.221	34160.8
689.568	34059.78
689.915	34035.83
690.262	33931.65
690.609	33880.13
690.956	33801.03
691.303	33687.14
691.65	33547.03
691.997	33605.78
692.344	33351.1
692.69	33513.36
693.037	33374.38
693.383	33082.86
693.73	33303.42
694.077	33062.52
694.423	33074.72
694.769	32962.18
695.116	32894.39
695.462	32906.59
695.808	32696.88
696.155	32834.5
696.501	32623.66
696.847	32638.8
697.193	32370.11
697.539	32503.67
697.885	32082.89
698.231	32195.65
698.577	32146.84
698.923	31969.89
699.269	31863.23
699.614	31663.01
699.96	31604.03
700.306	31674.08
700.651	31681.54
700.997	31565.61
701.342	31453.98
701.688	31465.95
702.033	31272.96
702.379	31253.53
702.724	31086.75
703.069	31183.93
703.415	30833.65
703.76	30875.46
704.105	30860.77
704.45	30919.3
704.795	30599.31
705.14	30703.26
705.485	30520.44
705.83	30566.54
706.175	30320.9
706.52	30436.37
706.865	30373.33
707.209	30215.59
707.554	30110.28
707.899	30187.57
708.243	30069.83
708.588	30054.46
708.932	29828.48
709.277	29818.99
709.621	29881.59
709.966	29663.29
710.31	29708.26
710.654	29484.99
710.998	29616.06
711.342	29509.17
711.687	29435.27
712.031	29241.15
712.375	29102.62
712.719	29247.93
713.063	29168.39
713.407	29176.97
713.75	29005.9
714.094	29074.15
714.438	28955.96
714.782	28976.53
715.125	28690.66
715.469	28892.01
715.812	28655.86
716.156	28619.25
716.499	28505.35
716.843	28678.68
717.186	28334.06
717.53	28538.35
717.873	28416.09
718.216	28462.87
718.559	28309.65
718.902	28118.92
719.246	28120.05
719.589	28160.05
719.932	28020.85
720.275	27960.28
720.617	27966.38
720.96	27914.18
721.303	27917.8
721.646	27836.9
721.989	27519.84
722.331	27719.61
722.674	27730.23
723.016	27729.33
723.359	27693.17
723.701	27651.82
724.044	27434.65
724.386	27405.27
724.729	27491.37
725.071	27374.31
725.413	27365.72
725.755	27292.95
726.097	27198.95
726.439	27093.86
726.782	27102
727.124	27231.49
727.465	27044.83
727.807	26957.82
728.149	26992.17
728.491	26971.61
728.833	26902.46
729.175	26777.04
729.516	26742.69
729.858	26821.33
730.199	26697.26
730.541	26749.01
730.882	26658.17
731.224	26710.6
731.565	26577.04
731.906	26575.23
732.248	26568.91
732.589	26426.76
732.93	26344.05
733.271	26367.33
733.612	26286.88
733.953	26445.75
734.294	26309.25
734.635	26229.48
734.976	26288.46
735.317	26146.32
735.658	26133.89
735.999	26163.04
736.339	26064.74
736.68	26154.45
737.021	25977.51
737.361	26041.69
737.702	26006.89
738.042	25959.66
738.383	25915.36
738.723	25947.68
739.063	25743.84
739.404	25724.86
739.744	25760.11
740.084	25591.53
740.424	25717.18
740.764	25655.48
741.104	25775.03
741.444	25544.75
741.784	25446.45
742.124	25491.42
742.464	25506.33
742.804	25483.51
743.143	25380.01
743.483	25530.06
743.823	25202.39
744.162	25204.2
744.502	25283.29
744.841	25096.4
745.181	25248.49
745.52	25020.25
745.86	25087.59
746.199	25016.86
746.538	25046.91
746.877	25082.17
747.216	25061.15
747.556	25029.96
747.895	25016.4
748.234	24846.24
748.573	24817.54
748.911	24814.15
749.25	24870.19
749.589	24716.53
749.928	24722.63
750.267	24748.84
750.605	24667.26
750.944	24618.9
751.283	24488.51
751.621	24677.88
751.96	24302.3
752.298	24433.59
752.636	24411.67
752.975	24218.69
753.313	24293.49
753.651	24228.4
753.989	24157.22
754.327	24044.68
754.666	24002.65
755.004	24034.06
755.342	24019.14
755.679	23887.62
756.017	23778.02
756.355	23897.11
756.693	23810.56
757.031	23806.72
757.368	23594.75
757.706	23662.54
758.044	23683.56
758.381	23651.24
758.719	23481.98
759.056	23411.7
759.394	23374.19
759.731	23272.04
760.068	23231.59
760.405	23223.46
760.743	23036.8
761.08	23129.67
761.417	23036.34
761.754	23046.51
762.091	22889.68
762.428	22872.96
762.765	22629.35
763.102	22764.49
763.438	22618.95
763.775	22686.97
764.112	22472.06
764.449	22509.13
764.785	22463.25
765.122	22283.59
765.458	22102.81
765.795	22181.22
766.131	22150.72
766.467	22157.95
766.804	22036.14
767.14	21797.28
767.476	21904.85
767.812	21740.78
768.148	21885.41
768.485	21592.09
768.821	21491.07
769.157	21501.24
769.492	21402.94
769.828	21430.74
770.164	21186.9
770.5	21152.1
770.836	21214.02
771.171	21056.51
771.507	20977.64
771.842	20802.73
772.178	20825.33
772.513	20796.85
772.849	20756.18
773.184	20679.8
773.519	20676.18
773.855	20466.02
774.19	20488.61
774.525	20329.52
774.86	20301.95
775.195	20304.89
775.53	20119.81
775.865	20061.96
776.2	19961.85
776.535	19842.76
776.87	19855.64
777.205	19707.84
777.539	19692.02
777.874	19604.57
778.209	19512.14
778.543	19457.91
778.878	19373.61
779.212	19427.85
779.547	19245.03
779.881	19268.76
780.215	19117.8
780.55	19191.02
780.884	19045.49
781.218	19042.78
781.552	18934.76
781.886	18881.42
782.22	18754.42
782.554	18701.77
782.888	18623.35
783.222	18556.91
783.556	18440.76
783.889	18321.44
784.223	18219.97
784.557	18281.67
784.89	18122.8
785.224	18115.57
785.557	18053.88
785.891	17966.65
786.224	17851.85
786.558	17897.27
786.891	17805.29
787.224	17718.07
787.557	17657.05
787.891	17625.64
788.224	17596.49
788.557	17546.77
788.89	17511.97
789.223	17402.14
789.556	17289.15
789.888	17186.78
790.221	17268.36
790.554	17066.78
790.887	17136.16
791.219	17008.03
791.552	17001.93
791.884	16942.94
792.217	16882.61
792.549	16730.97
792.882	16709.28
793.214	16660.24
793.546	16722.61
793.879	16598.32
794.211	16476.06
794.543	16497.76
794.875	16447.82
795.207	16493.92
795.539	16364.43
795.871	16265.9
796.203	16190.65
796.535	16119.92
796.867	16071.55
797.198	16108.39
797.53	16010.99
797.862	15973.03
798.193	16020.03
798.525	15926.02
798.856	15884.67
799.188	15729.64
799.519	15757.66
799.85	15606.26
800.182	15648.52
800.513	15578.46
800.844	15502.76
801.175	15527.61
801.506	15434.06
801.837	15378.47
802.168	15438.35
802.499	15340.05
802.83	15190.22
803.161	15148.87
803.491	15152.26
803.822	15145.03
804.153	15068.19
804.483	14981.87
804.814	14934.86
805.145	14854.41
805.475	14863.68
805.805	14847.18
806.136	14776
806.466	14860.51
806.796	14760.18
807.126	14618.94
807.457	14590.69
807.787	14574.42
808.117	14580.07
808.447	14438.83
808.777	14489.45
809.107	14414.65
809.436	14401.77
809.766	14440.86
810.096	14356.12
810.426	14247.65
810.755	14258.5
811.085	14204.49
811.414	14150.02
811.744	14119.52
812.073	14105.5
812.403	14084.71
812.732	13910.48
813.061	13946.86
813.39	13886.08
813.719	13819.86
814.049	13947.09
814.378	13820.09
814.707	13715.91
815.036	13743.48
815.365	13629.13
815.693	13578.51
816.022	13575.8
816.351	13612.41
816.68	13443.38
817.008	13465.3
817.337	13409.7
817.665	13341.23
817.994	13323.38
818.322	13445.86
818.651	13319.99
818.979	13220.78
819.307	13321.34
819.636	13265.07
819.964	13182.82
820.292	13191.18
820.62	13155.25
820.948	13082.93
821.276	13185.08
821.604	13065.98
821.932	13174
822.259	13103.27
822.587	13118.64
822.915	13102.59
823.243	13129.26
823.57	13036.61
823.898	13106.66
824.225	13016.49
824.553	13062.59
824.88	13074.12
825.207	13094.01
825.535	13058.3
825.862	13037.96
826.189	13070.96
826.516	13052.2
826.843	13151.63
827.17	13144.63
827.497	13167.22
827.824	13089.49
828.151	13113.44
828.478	13090.16
828.805	13149.82
829.131	13026.44
829.458	13123.38
829.785	13033.67
830.111	12995.03
830.438	13079.32
830.764	13000.22
831.09	13032.09
831.417	12961.35
831.743	13022.82
832.069	13084.97
832.395	13003.84
832.722	12997.96
833.048	12989.6
833.374	12955.25
833.7	12825.31
834.026	12914.8
834.351	12911.86
834.677	12822.6
835.003	12907.12
835.329	12871.19
835.654	12865.54
835.98	12722.26
836.306	12861.47
836.631	12791.42
836.956	12788.03
837.282	12819.89
837.607	12638.2
837.932	12660.57
838.258	12732.43
838.583	12761.81
838.908	12598.65
839.233	12636.62
839.558	12633.45
839.883	12567.47
840.208	12510.52
840.533	12512.55
840.858	12529.95
841.182	12548.26
841.507	12466.23
841.832	12453.12
842.156	12387.13
842.481	12512.78
842.805	12312.11
843.13	12360.92
843.454	12291.99
843.778	12296.29
844.103	12219.23
844.427	12239.79
844.751	12172.9
845.075	12209.51
845.399	12093.58
845.723	12019.01
846.047	12171.54
846.371	12008.38
846.695	11979.46
847.019	11899.91
847.343	11783.31
847.666	11821.95
847.99	11793.25
848.313	11765
848.637	11660.6
848.96	11687.94
849.284	11658.79
849.607	11512.13
849.931	11538.34
850.254	11412.69
850.577	11359.14
850.9	11313.71
851.223	11288.63
851.546	11123.66
851.869	11143.77
852.192	11240.72
852.515	11134.96
852.838	11105.58
853.161	11095.41
853.483	11009.77
853.806	11012.48
854.129	10934.97
854.451	10911.92
854.774	10861.52
855.096	10822.88
855.419	10770.23
855.741	10763.22
856.063	10681.41
856.385	10680.06
856.708	10661.3
857.03	10584.69
857.352	10646.84
857.674	10558.71
857.996	10490.23
858.318	10497.69
858.64	10498.82
858.961	10359.61
859.283	10361.87
859.605	10316.23
859.926	10352.16
860.248	10310.12
860.57	10253.4
860.891	10301.31
861.212	10276.45
861.534	10160.98
861.855	10093.41
862.176	10166.17
862.498	10213.86
862.819	10165.95
863.14	10129.56
863.461	10115.78
863.782	10082.33
864.103	10078.49
864.424	10011.83
864.745	10026.06
865.065	9988.1
865.386	9956.01
865.707	9900.19
866.027	9954.65
866.348	9892.06
866.668	9884.15
866.989	9835.56
867.309	9780.87
867.63	9776.58
867.95	9800.31
868.27	9740.2
868.59	9779.97
868.91	9734.55
869.23	9758.95
869.55	9706.98
869.87	9747.88
870.19	9679.41
870.51	9691.61
870.83	9708.78
871.15	9681.67
871.469	9629.24
871.789	9584.27
872.109	9697.03
872.428	9579.75
872.748	9577.49
873.067	9583.59
873.386	9609.58
873.706	9641.22
874.025	9534.55
874.344	9488.68
874.663	9500.88
874.982	9502.24
875.301	9466.08
875.62	9443.71
875.939	9413.88
876.258	9417.04
876.577	9358.74
876.896	9453.2
877.214	9338.62
877.533	9343.6
877.852	9344.27
878.17	9345.86
878.489	9318.29
878.807	9340.66
879.125	9239.19
879.444	9277.38
879.762	9242.36
880.08	9184.05
880.398	9193.54
880.716	9195.35
881.034	9167.1
881.352	9243.94
881.67	9168.46
881.988	9158.97
882.306	9116.71
882.624	9127.33
882.941	9102.02
883.259	8992.19
883.577	9009.59
883.894	8937.73
884.212	8975.92
884.529	8955.13
884.846	8948.58
885.164	8957.17
885.481	8779.54
885.798	8928.24
886.115	8842.37
886.432	8831.29
886.75	8800.11
887.067	8810.73
887.383	8749.94
887.7	8789.03
888.017	8687.57
888.334	8723.73
888.651	8663.61
888.967	8667.46
889.284	8651.41
889.6	8590.62
889.917	8563.5
890.233	8530.28
890.55	8523.05
890.866	8566.89
891.182	8447.8
891.498	8483.73
891.815	8394.47
892.131	8388.37
892.447	8391.08
892.763	8338.42
893.079	8397.63
893.395	8280.8
893.71	8266.79
894.026	8294.58
894.342	8247.58
894.657	8151.54
894.973	8210.29
895.289	8164.87
895.604	8185.43
895.92	8113.57
896.235	8054.14
896.55	8027.7
896.865	8048.26
897.181	8013.01
897.496	7990.64
897.811	7982.5
898.126	7947.25
898.441	7864.31
898.756	7850.53
899.071	7751.55
899.386	7797.87
899.7	7775.73
900.015	7691.89
900.33	7670.87
900.644	7664.32
900.959	7671.32
901.273	7670.65
901.588	7645.56
901.902	7521.05
902.216	7561.95
902.531	7547.03
902.845	7487.37
903.159	7427.71
903.473	7434.95
903.787	7421.16
904.101	7381.61
904.415	7410.54
904.729	7364.67
905.042	7319.47
905.356	7272.01
905.67	7256.42
905.984	7284.44
906.297	7248.74
906.611	7168.06
906.924	7187.27
907.237	7150.66
907.551	7096.65
907.864	7078.57
908.177	7080.83
908.491	7051.9
908.804	6907.28
909.117	6944.34
909.43	6898.91
909.743	6924
910.056	6919.71
910.368	6867.73
910.681	6787.05
910.994	6820.27
911.307	6791.35
911.619	6746.15
911.932	6730.11
912.244	6659.15
912.557	6659.6
912.869	6619.37
913.181	6607.17
913.494	6634.74
913.806	6559.94
914.118	6533.73
914.43	6478.13
914.742	6536.21
915.054	6454.41
915.366	6497.12
915.678	6393.17
915.99	6359.27
916.302	6294.86
916.613	6332.15
916.925	6280.4
917.236	6277.46
917.548	6251.25
917.859	6263
918.171	6209.67
918.482	6184.58
918.794	6145.71
919.105	6155.66
919.416	6089.67
919.727	6094.42
920.038	6036.56
920.349	6042.89
920.66	6004.25
920.971	5992.05
921.282	5921.99
921.593	5897.13
921.903	5885.38
922.214	5866.63
922.525	5819.4
922.835	5832.5
923.146	5794.08
923.456	5765.84
923.767	5753.86
924.077	5734.43
924.387	5773.07
924.697	5678.38
925.008	5711.15
925.318	5633.19
925.628	5640.87
925.938	5576.69
926.248	5518.16
926.558	5551.83
926.867	5521.55
927.177	5520.65
927.487	5475.45
927.796	5422.57
928.106	5414.89
928.416	5404.26
928.725	5373.53
929.034	5362.91
929.344	5331.95
929.653	5301.22
929.962	5279.3
930.271	5268.45
930.581	5261.9
930.89	5217.15
931.199	5157.49
931.508	5145.29
931.817	5169.92
932.125	5136.93
932.434	5141.67
932.743	5081.79
933.051	5050.15
933.36	5006.08
933.669	4988.46
933.977	4994.56
934.286	4968.12
934.594	4971.28
934.902	4937.38
935.21	4950.27
935.519	4844.96
935.827	4909.81
936.135	4870.49
936.443	4856.93
936.751	4807.22
937.059	4733.77
937.367	4766.09
937.674	4719.31
937.982	4706.66
938.29	4718.63
938.597	4698.07
938.905	4668.69
939.213	4646.77
939.52	4621.46
939.827	4629.14
940.135	4575.36
940.442	4607.68
940.749	4562.7
941.056	4564.51
941.363	4475.02
941.67	4556.15
941.977	4524.06
942.284	4438.19
942.591	4466.89
942.898	4402.03
943.205	4388.02
943.511	4391.86
943.818	4373.56
944.125	4323.16
944.431	4303.05
944.738	4277.97
945.044	4267.12
945.35	4273.9
945.657	4210.17
945.963	4257.18
946.269	4193.22
946.575	4234.8
946.881	4167.69
947.187	4186.44
947.493	4128.37
947.799	4133.79
948.105	4097.86
948.41	4093.79
948.716	4079.78
949.022	4041.81
949.327	4052.21
949.633	4013.57
949.938	3972.44
950.244	4042.94
950.549	3998.2
950.854	3949.16
951.16	3946.45
951.465	3908.94
951.77	3910.07
952.075	3889.05
952.38	3882.95
952.685	3858.09
952.99	3834.81
953.294	3842.05
953.599	3783.06
953.904	3740.13
954.209	3745.33
954.513	3780.8
954.818	3739.68
955.122	3743.07
955.426	3738.09
955.731	3684.08
956.035	3678.21
956.339	3660.81
956.643	3659.45
956.948	3592.11
957.252	3607.7
957.556	3632.79
957.86	3609.28
958.163	3580.81
958.467	3534.71
958.771	3557.08
959.075	3534.71
959.378	3549.4
959.682	3532.68
959.985	3508.95
960.289	3441.38
960.592	3468.27
960.896	3445.45
961.199	3430.53
961.502	3415.62
961.805	3448.16
962.108	3378.33
962.411	3369.52
962.714	3371.55
963.017	3336.52
963.32	3337.2
963.623	3303.3
963.926	3311.44
964.228	3299.91
964.531	3284.09
964.833	3277.99
965.136	3213.59
965.438	3234.15
965.741	3234.38
966.043	3186.7
966.345	3171.56
966.648	3160.71
966.95	3204.1
967.252	3127.04
967.554	3116.19
967.856	3095.62
968.158	3071.44
968.46	3118.68
968.761	3085.46
969.063	3057.66
969.365	3050.2
969.666	3046.59
969.968	2992.35
970.269	2975.85
970.571	2966.59
970.872	2952.13
971.174	2985.57
971.475	2932.92
971.776	2930.66
972.077	2977.89
972.378	2935.86
972.679	2907.38
972.98	2891.56
973.281	2873.71
973.582	2853.15
973.883	2898.79
974.183	2846.82
974.484	2786.93
974.785	2840.72
975.085	2794.84
975.386	2779.93
975.686	2796.2
975.986	2793.94
976.287	2772.47
976.587	2781.28
976.887	2722.53
977.187	2730.44
977.487	2697.44
977.787	2702.19
978.087	2675.07
978.387	2678.69
978.687	2654.05
978.987	2626.71
979.286	2620.84
979.586	2612.47
979.885	2621.74
980.185	2596.2
980.484	2578.12
980.784	2556.2
981.083	2551.23
981.382	2547.62
981.682	2537.9
981.981	2551.23
982.28	2517.79
982.579	2491.35
982.878	2502.87
983.177	2481.86
983.475	2490.89
983.774	2469.65
984.073	2442.31
984.372	2459.26
984.67	2460.39
984.969	2442.76
985.267	2427.85
985.566	2394.17
985.864	2391.46
986.162	2396.43
986.461	2376.1
986.759	2369.54
987.057	2334.51
987.355	2339.49
987.653	2328.41
987.951	2317.11
988.249	2356.89
988.547	2315.53
988.844	2277.57
989.142	2303.78
989.44	2277.57
989.737	2295.42
990.035	2285.25
990.332	2256.55
990.63	2212.71
990.927	2220.62
991.224	2224.91
991.521	2215.65
991.819	2192.82
992.116	2186.04
992.413	2163.9
992.71	2142.66
993.006	2152.82
993.303	2157.57
993.6	2137.46
993.897	2129.77
994.193	2124.35
994.49	2138.59
994.787	2102.43
995.083	2113.73
995.379	2090.68
995.676	2064.01
995.972	2071.47
996.268	2037.35
996.565	2050.23
996.861	2054.52
997.157	1999.16
997.453	2040.74
997.749	2006.84
998.044	1982.21
998.34	2010.23
998.636	1974.3
998.932	1960.06
999.227	1960.29
999.523	1937.01
999.818	1931.81
1000.114	1927.52
1000.409	1896.11
1000.704	1906.28
1001	1895.43
1001.295	1845.26
1001.59	1868.76
1001.885	1884.36
1002.18	1855.88
1002.475	1841.65
1002.77	1823.34
1003.065	1825.38
1003.359	1811.82
1003.654	1799.16
1003.949	1804.81
1004.243	1782.89
1004.538	1779.28
1004.832	1779.73
1005.127	1751.48
1005.421	1728.43
1005.715	1716
1006.009	1734.98
1006.304	1716
1006.598	1720.07
1006.892	1692.05
1007.186	1703.35
1007.48	1675.1
1007.773	1669.9
1008.067	1653.85
1008.361	1640.52
1008.655	1616.12
1008.948	1631.26
1009.242	1613.63
1009.535	1635.1
1009.829	1612.27
1010.122	1603.91
1010.415	1574.53
1010.708	1572.95
1011.001	1584.7
1011.295	1586.74
1011.588	1542.9
1011.881	1523.46
1012.173	1552.16
1012.466	1511.71
1012.759	1530.69
1013.052	1516.91
1013.344	1520.98
1013.637	1514.2
1013.93	1497.25
1014.222	1509.68
1014.514	1482.79
1014.807	1455.67
1015.099	1463.58
1015.391	1436.01
1015.683	1460.19
1015.976	1456.35
1016.268	1427.87
1016.56	1411.83
1016.851	1389.91
1017.143	1393.52
1017.435	1397.36
1017.727	1365.05
1018.018	1385.61
1018.31	1363.47
1018.602	1354.88
1018.893	1332.96
1019.185	1351.04
1019.476	1313.07
1019.767	1312.85
1020.058	1317.82
1020.35	1302.45
1020.641	1310.36
1020.932	1311.04
1021.223	1299.06
1021.514	1259.74
1021.804	1280.31
1022.095	1249.35
1022.386	1257.03
1022.677	1235.33
1022.967	1223.13
1023.258	1229.91
1023.548	1232.62
1023.839	1201.89
1024.129	1197.82
1024.419	1205.73
1024.709	1188.33
1025	1175
1025.29	1189.91
1025.58	1154.21
1025.87	1161.89
1026.16	1157.37
1026.449	1191.27
1026.739	1118.95
1027.029	1131.61
1027.319	1124.6
1027.608	1100.88
1027.898	1113.3
1028.187	1102.91
1028.477	1082.57
1028.766	1091.61
1029.055	1096.36
1029.344	1067.2
1029.634	1040.99
1029.923	1043.7
1030.212	1049.58
1030.501	1068.11
1030.79	1029.92
1031.078	1056.81
1031.367	1046.19
1031.656	1007.09
1031.945	1034.44
1032.233	1029.24
1032.522	1010.26
1032.81	999.41
1033.099	976.36
1033.387	996.24
1033.675	970.26
1033.963	989.92
1034.251	947.66
1034.54	955.12
1034.828	952.18
1035.116	968.68
1035.403	959.41
1035.691	935.68
1035.979	968.22
1036.267	919.18
1036.554	949.24
1036.842	909.02
1037.129	919.64
1037.417	919.41
1037.704	908.34
1037.992	901.11
1038.279	889.36
1038.566	888
1038.853	888
1039.14	888
