Data from hue_60_FLMS001491_44.txt Node
Date: Mon Feb 06 15:17:26 GMT 2017
User: dcchb
Spectrometer: FLMS00149
Trigger mode: 0
Integration Time (sec): 2.000000E-2
Scans to average: 10
Electric dark correction enabled: true
Nonlinearity correction enabled: false
Boxcar width: 0
XAxis mode: Wavelengths
Number of Pixels in Spectrum: 2048
>>>>>Begin Spectral Data<<<<<
341.393	-15.92
341.776	-15.92
342.16	-15.92
342.543	-60.21
342.927	-79.87
343.31	-58.85
343.693	-74.9
344.077	-56.14
344.46	-52.75
344.843	-47.1
345.226	-54.79
345.61	-25.41
345.993	-20.89
346.376	5.32
346.759	10.97
347.142	14.14
347.525	40.35
347.908	63.18
348.291	70.86
348.674	83.06
349.057	102.95
349.44	107.92
349.823	126.45
350.206	163.96
350.588	214.36
350.971	213.45
351.354	224.08
351.737	236.28
352.119	243.51
352.502	260.69
352.884	270.18
353.267	287.8
353.65	283.96
354.032	300.46
354.414	297.97
354.797	323.28
355.179	326.22
355.562	305.88
355.944	319.44
356.326	328.93
356.709	355.15
357.091	340.68
357.473	341.36
357.855	344.98
358.238	340.91
358.62	354.92
359.002	343.39
359.384	352.89
359.766	337.75
360.148	347.01
360.53	330.29
360.912	325.54
361.294	320.12
361.676	338.65
362.057	329.84
362.439	329.61
362.821	312.66
363.203	330.06
363.584	331.87
363.966	318.08
364.348	315.37
364.729	307.01
365.111	317.86
365.493	316.95
365.874	335.26
366.256	323.06
366.637	301.36
367.019	316.05
367.4	308.59
367.781	299.55
368.163	333.23
368.544	325.09
368.925	307.92
369.306	322.83
369.688	323.06
370.069	299.55
370.45	323.51
370.831	310.18
371.212	299.55
371.593	309.5
371.974	313.79
372.355	317.86
372.736	311.76
373.117	301.14
373.498	293.68
373.879	329.84
374.26	312.66
374.641	304.53
375.021	333.9
375.402	310.85
375.783	321.93
376.163	318.31
376.544	334.13
376.925	308.14
377.305	328.03
377.686	351.3
378.066	331.64
378.447	321.7
378.827	329.38
379.208	322.6
379.588	323.73
379.968	321.93
380.349	321.47
380.729	325.77
381.109	331.42
381.489	335.94
381.87	335.26
382.25	333.23
382.63	351.98
383.01	317.86
383.39	338.65
383.77	347.69
384.15	326.67
384.53	361.02
384.91	331.19
385.29	328.48
385.67	329.38
386.049	341.81
386.429	342.27
386.809	348.14
387.189	342.49
387.568	341.81
387.948	333.9
388.328	359.21
388.707	356.95
389.087	334.36
389.466	354.47
389.846	349.04
390.225	355.82
390.605	371.19
390.984	352.43
391.363	354.69
391.743	347.24
392.122	354.69
392.501	382.26
392.881	350.17
393.26	351.08
393.639	373.9
394.018	356.28
394.397	349.72
394.776	367.35
395.155	354.69
395.534	356.05
395.913	364.86
396.292	343.85
396.671	373
397.05	380.46
397.429	366.67
397.808	356.5
398.186	371.87
398.565	362.83
398.944	373
399.323	378.2
399.701	389.04
400.08	395.14
400.458	369.38
400.837	406.9
401.215	385.43
401.594	371.19
401.972	386.78
402.351	390.4
402.729	403.73
403.107	375.48
403.486	370.51
403.864	403.73
404.242	405.31
404.62	379.33
404.999	408.93
405.377	412.55
405.755	419.78
406.133	393.11
406.511	412.32
406.889	407.57
407.267	425.2
407.645	417.74
408.023	418.2
408.401	412.32
408.779	420.68
409.156	424.75
409.534	435.14
409.912	411.42
410.29	429.72
410.667	450.74
411.045	436.73
411.422	431.75
411.8	434.92
412.178	424.52
412.555	424.97
412.933	437.86
413.31	457.29
413.687	435.37
414.065	444.64
414.442	449.83
414.819	466.78
415.197	443.05
415.574	466.1
415.951	497.74
416.328	458.19
416.705	476.27
417.082	458.65
417.46	461.81
417.837	460.45
418.214	474.46
418.591	475.14
418.967	465.43
419.344	486.44
419.721	492.09
420.098	482.83
420.475	473.79
420.852	486.44
421.228	488.93
421.605	489.38
421.982	508.14
422.358	504.07
422.735	491.64
423.111	527.8
423.488	514.24
423.864	501.81
424.241	509.27
424.617	499.77
424.994	516.95
425.37	508.81
425.746	521.24
426.123	517.18
426.499	528.47
426.875	544.97
427.251	545.65
427.627	552.2
428.003	550.4
428.379	531.86
428.756	540.68
429.132	543.62
429.507	558.08
429.883	551.3
430.259	544.75
430.635	576.16
431.011	560.11
431.387	570.28
431.763	586.1
432.138	576.61
432.514	580
432.89	586.78
433.265	571.19
433.641	580.45
434.016	592.43
434.392	586.1
434.767	632.65
435.143	629.49
435.518	632.88
435.894	650.28
436.269	617.96
436.644	643.05
437.02	632.65
437.395	643.73
437.77	660.9
438.145	640.34
438.52	657.51
438.895	669.94
439.271	671.52
439.646	655.7
440.021	651.86
440.395	658.41
440.77	662.48
441.145	684.63
441.52	677.17
441.895	669.04
442.27	679.21
442.645	684.4
443.019	713.1
443.394	698.87
443.769	706.78
444.143	701.13
444.518	708.58
444.892	696.83
445.267	698.41
445.641	693.44
446.016	718.53
446.39	743.16
446.764	739.32
447.139	739.09
447.513	739.09
447.887	718.75
448.262	740.9
448.636	754.46
449.01	749.49
449.384	759.2
449.758	764.17
450.132	751.07
450.506	767.56
450.88	782.03
451.254	775.93
451.628	808.92
452.002	803.04
452.376	808.92
452.75	788.13
453.123	836.72
453.497	789.71
453.871	817.96
454.244	813.21
454.618	845.75
454.992	829.26
455.365	837.85
455.739	855.25
456.112	867.67
456.486	885.08
456.859	864.74
457.232	890.5
457.606	892.98
457.979	897.96
458.352	904.74
458.725	927.79
459.099	908.8
459.472	961.46
459.845	969.37
460.218	945.86
460.591	984.51
460.964	990.38
461.337	1007.78
461.71	991.51
462.083	992.64
462.456	1031.06
462.829	1026.99
463.201	1027.9
463.574	1048.91
463.947	1077.16
464.32	1078.06
464.692	1071.51
465.065	1116.48
465.438	1118.97
465.81	1137.95
466.183	1165.52
466.555	1172.75
466.928	1197.84
467.3	1202.36
467.672	1203.94
468.045	1202.36
468.417	1258.85
468.789	1278.29
469.161	1303.37
469.534	1303.14
469.906	1344.05
470.278	1337.95
470.65	1370.26
471.022	1405.51
471.394	1441.9
471.766	1460.2
472.138	1456.36
472.51	1500.2
472.882	1548.56
473.253	1577.49
473.625	1595.79
473.997	1659.74
474.369	1670.82
474.74	1704.49
475.112	1792.4
475.484	1816.8
475.855	1854.99
476.227	1879.85
476.598	1972.5
476.97	1973.63
477.341	2039.62
477.713	2090.47
478.084	2135.89
478.455	2193.29
478.827	2242.1
479.198	2326.85
479.569	2382.89
479.94	2458.37
480.311	2506.95
480.682	2632.37
481.053	2708.53
481.424	2777.46
481.795	2841.86
482.166	2924.34
482.537	3014.06
482.908	3103.1
483.279	3163.21
483.65	3292.7
484.021	3376.31
484.391	3495.4
484.762	3535.63
485.133	3633.7
485.503	3744.89
485.874	3882.96
486.244	3984.66
486.615	4119.34
486.985	4211.32
487.356	4334.25
487.726	4473
488.097	4579.67
488.467	4687.69
488.837	4865.54
489.207	4974.23
489.578	5112.99
489.948	5206.54
490.318	5347.56
490.688	5495.8
491.058	5643.82
491.428	5764.27
491.798	5922.01
492.168	6114.99
492.538	6231.83
492.908	6394.31
493.278	6523.57
493.648	6666.17
494.017	6809.67
494.387	6886.5
494.757	7150
495.126	7253.95
495.496	7377.33
495.866	7489.87
496.235	7610.32
496.605	7829.53
496.974	7982.06
497.344	8143.19
497.713	8206.47
498.082	8389.74
498.452	8564.42
498.821	8637.19
499.19	8806.45
499.559	8912.44
499.928	9066.1
500.298	9253.44
500.667	9459.99
501.036	9479.65
501.405	9635.13
501.774	9788.8
502.143	9920.77
502.512	10055.46
502.88	10237.37
503.249	10295.9
503.618	10458.61
503.987	10634.42
504.356	10751.26
504.724	10827.64
505.093	11005.49
505.462	11043.45
505.83	11244.58
506.199	11352.15
506.567	11597.11
506.936	11639.6
507.304	11811.34
507.672	12008.85
508.041	12078.45
508.409	12243.87
508.777	12395.96
509.145	12466.69
509.514	12542.4
509.882	12719.11
510.25	12856.74
510.618	12973.8
510.986	13061.25
511.354	13268.93
511.722	13414.01
512.09	13535.82
512.458	13590.05
512.826	13721.57
513.193	13917.5
513.561	14002.24
513.929	14128.8
514.297	14313.42
514.664	14401.1
515.032	14500.08
515.4	14662.79
515.767	14803.81
516.135	14990.92
516.502	14834.54
516.869	15110.92
517.237	15302.78
517.604	15279.5
517.972	15529.21
518.339	15671.13
518.706	15733.27
519.073	15839.71
519.44	15987.96
519.808	16202.64
520.175	16132.58
520.542	16438.34
520.909	16533.25
521.276	16577.54
521.643	16839.91
522.009	16981.83
522.376	17109.73
522.743	17257.3
523.11	17402.38
523.477	17601.47
523.843	17739.32
524.21	17878.53
524.577	17990.61
524.943	18137.28
525.31	18239.2
525.676	18586.98
526.043	18502.47
526.409	18589.47
526.776	18947.88
527.142	18901.33
527.508	19145.39
527.874	19195.78
528.241	19411.14
528.607	19336.79
528.973	19564.58
529.339	19614.3
529.705	19931.58
530.071	20046.38
530.437	20219.03
530.803	20190.56
531.169	20365.02
531.535	20360.27
531.901	20434.62
532.267	20504.67
532.632	20717.32
532.998	20810.65
533.364	20942.4
533.73	20888.84
534.095	21115.05
534.461	21216.74
534.826	21343.97
535.192	21374.25
535.557	21598.2
535.923	21608.82
536.288	21690.4
536.653	21782.83
537.019	21812.43
537.384	21846.11
537.749	22011.75
538.114	22018.08
538.479	22146.44
538.845	22257.17
539.21	22187.11
539.575	22319.77
539.94	22404.96
540.305	22649.48
540.67	22563.15
541.034	22640.89
541.399	22724.28
541.764	22808.79
542.129	22906.87
542.494	22923.82
542.858	23104.15
543.223	23020.76
543.587	23172.4
543.952	23238.84
544.316	23340.3
544.681	23336.24
545.045	23394.99
545.41	23560.41
545.774	23553.63
546.138	23604.48
546.503	23704.59
546.867	23841.76
547.231	24088.08
547.595	23960.85
547.959	24008.99
548.324	24112.49
548.688	24287.17
549.052	24349.77
549.416	24359.94
549.779	24415.98
550.143	24431.8
550.507	24691.68
550.871	24661.85
551.235	24780.04
551.599	24931.45
551.962	24937.78
552.326	24986.14
552.689	25200.59
553.053	25117.88
553.417	25226.13
553.78	25481.94
554.143	25513.35
554.507	25622.96
554.87	25616.4
555.234	26002.16
555.597	25791.54
555.96	25861.14
556.323	26050.52
556.686	26034.24
557.05	26174.35
557.413	26293.9
557.776	26384.52
558.139	26571.86
558.502	26590.61
558.865	26725.75
559.228	26857.05
559.59	26969.59
559.953	27028.34
560.316	27324.61
560.679	27298.62
561.041	27434.21
561.404	27661.77
561.767	27826.97
562.129	27751.71
562.492	27987.19
562.854	28080.07
563.217	28063.8
563.579	28254.75
563.941	28456.1
564.304	28569.77
564.666	28738.35
565.028	28667.85
565.39	28762.53
565.753	28901.06
566.115	29156.65
566.477	29193.71
566.839	29225.57
567.201	29493.59
567.563	29482.06
567.925	29708.95
568.287	29714.37
568.648	29842.51
569.01	30132.22
569.372	30103.29
569.734	30022.39
570.095	30305.09
570.457	30430.06
570.819	30442.72
571.18	30503.51
571.542	30711.18
571.903	30658.3
572.265	30896.26
572.626	30828.7
572.987	30995.7
573.349	31109.59
573.71	31203.37
574.071	31277.27
574.432	31481.79
574.794	31569.47
575.155	31585.06
575.516	31541.9
575.877	31595.91
576.238	31759.52
576.599	31887.42
576.96	31929.01
577.32	31867.99
577.681	32037.7
578.042	32034.77
578.403	32137.14
578.763	32182.78
579.124	32274.08
579.485	32317.92
579.845	32470.23
580.206	32543
580.566	32308.43
580.927	32593.85
581.287	32645.6
581.648	32584.58
582.008	32841.3
582.368	32612.83
582.728	32670.91
583.089	32727.4
583.449	32703.45
583.809	32700.96
584.169	32845.82
584.529	32699.15
584.889	33086.26
585.249	32883.78
585.609	32752.49
585.969	32972.82
586.329	32891.24
586.688	33067.73
587.048	32884.01
587.408	32944.8
587.768	32924.46
588.127	33049.2
588.487	33005.36
588.846	33161.97
589.206	32968.3
589.565	33085.81
589.925	33242.87
590.284	33136.2
590.643	33131.91
591.003	33134.17
591.362	33330.1
591.721	33300.27
592.08	33328.06
592.44	33276.31
592.799	33383.88
593.158	33300.95
593.517	33360.61
593.876	33408.51
594.235	33183.21
594.593	33339.59
594.952	33581.84
595.311	33444.45
595.67	33343.88
596.029	33675.85
596.387	33665.68
596.746	33679.92
597.104	33389.53
597.463	33594.27
597.822	33781.84
598.18	33608.06
598.538	33554.95
598.897	33853.47
599.255	33671.56
599.613	34098.44
599.972	33897.99
600.33	34010.53
600.688	33850.08
601.046	33949.52
601.404	34207.36
601.762	34055.5
602.12	34207.36
602.478	34096.18
602.836	34365.1
603.194	34050.76
603.552	34348.38
603.91	34030.87
604.268	34282.39
604.625	34210.08
604.983	34360.13
605.341	34349.05
605.698	34370.52
606.056	34565.32
606.413	34319.22
606.771	34658.42
607.128	34704.07
607.485	34488.03
607.843	34666.11
608.2	34891.41
608.557	34878.08
608.914	34888.25
609.272	34925.99
609.629	35159.65
609.986	35170.05
610.343	35170.73
610.7	35396.26
611.057	35183.61
611.414	35226.77
611.771	35444.39
612.127	35519.42
612.484	35403.94
612.841	35575.91
613.198	35448.01
613.554	35546.31
613.911	35780.88
614.267	35740.66
614.624	35791.28
614.98	35819.3
615.337	35973.19
615.693	35826.08
616.05	35955.11
616.406	36056.58
616.762	35974.1
617.118	36037.82
617.475	36010.03
617.831	36158.95
618.187	36201.89
618.543	36269.68
618.899	36515.78
619.255	36424.93
619.611	36325.73
619.967	36533.86
620.323	36630.12
620.678	36617.02
621.034	36377.48
621.39	36598.94
621.746	36479.39
622.101	36901.08
622.457	36591.71
622.812	36741.31
623.168	36808.42
623.523	36978.14
623.879	36991.02
624.234	36653.85
624.589	36889.78
624.945	36975.88
625.3	36966.84
625.655	36873.73
626.01	37026.05
626.365	36919.61
626.72	36905.6
627.075	36891.13
627.43	36954.18
627.785	36858.82
628.14	36937.46
628.495	37103.56
628.85	37001.19
629.205	36913.05
629.559	37004.58
629.914	36971.58
630.269	37083.9
630.623	36920.06
630.978	36876.9
631.332	36975.43
631.687	37073.28
632.041	36739.95
632.396	37010.45
632.75	36866.28
633.104	37020.4
633.459	36874.41
633.813	36762.55
634.167	36682.33
634.521	36709.9
634.875	36887.07
635.229	36793.51
635.583	36586.51
635.937	36664.7
636.291	36542.67
636.645	36714.19
636.999	36567.3
637.352	36649.56
637.706	36433.29
638.06	36537.92
638.413	36529.79
638.767	36362.33
639.121	36432.62
639.474	36245.05
639.828	36308.32
640.181	36253.41
640.534	36325.05
640.888	36312.17
641.241	36118.5
641.594	36238.04
641.947	36318.27
642.301	36198.05
642.654	36318.04
643.007	36207.99
643.36	36235.56
643.713	36183.58
644.066	36296.12
644.419	35981.78
644.771	35860.65
645.124	35401.91
645.477	35413.21
645.83	35331.63
646.182	35156.26
646.535	35013.44
646.888	35172.08
647.24	34911.75
647.593	35063.84
647.945	34933.67
648.298	34697.07
648.65	34896.61
649.002	34680.12
649.355	34794.92
649.707	34737.97
650.059	34943.39
650.411	35429.7
650.763	35339.76
651.115	35757.38
651.467	35609.36
651.819	35464.51
652.171	35539.76
652.523	35361.23
652.875	35364.39
653.227	35255.25
653.578	35551.51
653.93	35447.1
654.282	35219.31
654.633	35237.62
654.985	35243.04
655.337	35180.9
655.688	35337.28
656.039	35469.93
656.391	35092.99
656.742	35031.07
657.094	35177.73
657.445	35296.37
657.796	35267.22
658.147	35193.55
658.498	35085.53
658.849	35174.8
659.2	35096.38
659.551	35161.24
659.902	35216.6
660.253	35210.05
660.604	35200.33
660.955	34921.92
661.306	35135.93
661.656	34986.33
662.007	35118.98
662.358	35084.63
662.708	34987
663.059	35149.49
663.409	34734.36
663.76	35165.3
664.11	35002.82
664.461	34972.99
664.811	35031.75
665.161	35027.45
665.511	34842.83
665.862	34998.08
666.212	35014.57
666.562	35048.92
666.912	34890.06
667.262	34916.5
667.612	34871.75
667.962	34879.44
668.312	34831.53
668.662	34997.62
669.011	34870.62
669.361	34775.48
669.711	34867.91
670.06	34774.13
670.41	34792.21
670.76	34556.28
671.109	34742.72
671.459	34761.02
671.808	34641.7
672.157	34656.39
672.507	34448.71
672.856	34544.08
673.205	34586.34
673.554	34761.02
673.904	34589.73
674.253	34747.24
674.602	34558.31
674.951	34104.09
675.3	33991.1
675.649	34418.88
675.998	34433.12
676.346	34565.77
676.695	34638.99
677.044	34323.29
677.393	34475.6
677.741	34375.04
678.09	34335.95
678.438	34349.73
678.787	34436.06
679.135	34319.22
679.484	34112.22
679.832	34372.1
680.181	34129.85
680.529	34229.74
680.877	34073.36
681.225	34060.25
681.573	34098.67
681.922	33896.64
682.27	33771.22
682.618	33928.05
682.966	33624.1
683.314	33891.89
683.661	33770.54
684.009	33585.46
684.357	33564.89
684.705	33453.71
685.053	33628.4
685.4	33523.31
685.748	33447.84
686.095	33252.36
686.443	33272.47
686.79	33180.72
687.138	33266.82
687.485	33180.05
687.832	33081.29
688.18	33082.2
688.527	33017.56
688.874	32992.25
689.221	32731.47
689.568	32816.89
689.915	32602.43
690.262	32711.36
690.609	32593.62
690.956	32497.8
691.303	32455.09
691.65	32357.92
691.997	32214.2
692.344	32119.96
692.69	32140.75
693.037	32133.52
693.383	31877.71
693.73	32021.88
694.077	31833.87
694.423	31780.99
694.769	31763.81
695.116	31559.75
695.462	31689.24
695.808	31445.85
696.155	31570.6
696.501	31425.29
696.847	31358.85
697.193	31129.7
697.539	31083.38
697.885	30950.95
698.231	30783.95
698.577	30836.6
698.923	30790.28
699.269	30557.29
699.614	30481.36
699.96	30399.55
700.306	30503.96
700.651	30278.43
700.997	30381.25
701.342	30179.67
701.688	30146.23
702.033	30072.56
702.379	30060.81
702.724	29841.83
703.069	30033.24
703.415	29514.61
703.76	29667.14
704.105	29653.58
704.45	29661.49
704.795	29455.85
705.14	29371.78
705.485	29245.23
705.83	29150.1
706.175	29170.89
706.52	29158.46
706.865	29023.32
707.209	29031.23
707.554	28929.76
707.899	28981.96
708.243	28775.42
708.588	28766.6
708.932	28574.07
709.277	28592.6
709.621	28545.82
709.966	28486.16
710.31	28386.05
710.654	28134.08
710.998	28301.08
711.342	28243.68
711.687	28290.46
712.031	28087.52
712.375	28085.94
712.719	27913.74
713.063	27965.95
713.407	28079.16
713.75	27901.99
714.094	27898.15
714.438	27774.09
714.782	27750.36
715.125	27603.47
715.469	27594.66
715.812	27560.08
716.156	27438.5
716.499	27413.42
716.843	27455
717.186	27223.59
717.53	27407.54
717.873	27377.49
718.216	27363.93
718.559	27154.44
718.902	27006.87
719.246	27143.37
719.589	26889.14
719.932	26757.39
720.275	26767.56
720.617	26796.71
720.96	26786.32
721.303	26895.69
721.646	26700.89
721.989	26629.48
722.331	26714.23
722.674	26551.75
723.016	26591.52
723.359	26371.41
723.701	26566.66
724.044	26394.01
724.386	26173.22
724.729	26249.15
725.071	26287.35
725.413	26298.42
725.755	26326.44
726.097	26123.73
726.439	25974.59
726.782	25968.26
727.124	26191.98
727.465	25905.43
727.807	25939.11
728.149	25944.08
728.491	25819.11
728.833	25897.07
729.175	25795.16
729.516	25638.32
729.858	25596.06
730.199	25655.05
730.541	25587.7
730.882	25565.78
731.224	25701.15
731.565	25477.42
731.906	25452.79
732.248	25362.4
732.589	25345
732.93	25222.51
733.271	25326.47
733.612	25233.36
733.953	25217.77
734.294	25221.84
734.635	25034.95
734.976	25154.72
735.317	25021.62
735.658	24995.4
735.999	24946.36
736.339	24931.45
736.68	24976.42
737.021	24946.36
737.361	24918.79
737.702	24843.77
738.042	24843.77
738.383	24819.36
738.723	24782.75
739.063	24804.45
739.404	24721.74
739.744	24661.85
740.084	24591.12
740.424	24607.62
740.764	24495.08
741.104	24533.27
741.444	24336.44
741.784	24370.33
742.124	24470.44
742.464	24312.93
742.804	24331.24
743.143	24223.9
743.483	24207.4
743.823	24135.76
744.162	23994.07
744.502	24044.69
744.841	24022.55
745.181	24091.47
745.52	24080.4
745.86	24051.92
746.199	23931.7
746.538	23954.75
746.877	24012.15
747.216	23882.66
747.556	23788.43
747.895	23853.74
748.234	23872.04
748.573	23709.33
748.911	23713.85
749.25	23594.53
749.589	23573.29
749.928	23594.53
750.267	23545.04
750.605	23637.25
750.944	23363.35
751.283	23418.49
751.621	23565.84
751.96	23319.29
752.298	23310.93
752.636	23225.51
752.975	23199.97
753.313	23115
753.651	23166.3
753.989	22998.39
754.327	23140.76
754.666	22860.32
755.004	22875.91
755.342	22932.63
755.679	22884.27
756.017	22771.51
756.355	22831.39
756.693	22686.99
757.031	22734.9
757.368	22519.76
757.706	22611.74
758.044	22535.81
758.381	22458.07
758.719	22386.43
759.056	22396.83
759.394	22327
759.731	22052.88
760.068	22120.22
760.405	22076.38
760.743	21966.78
761.08	21860.34
761.417	21822.38
761.754	21873.45
762.091	21771.76
762.428	21720.69
762.765	21564.53
763.102	21622.61
763.438	21504.65
763.775	21426.91
764.112	21356.18
764.449	21318.44
764.785	21271.21
765.122	21091.32
765.458	21037.54
765.795	21094.94
766.131	21049.29
766.467	20891.1
766.804	20798.22
767.14	20641.84
767.476	20714.16
767.812	20604.11
768.148	20635.29
768.485	20473.26
768.821	20426.71
769.157	20330.67
769.492	20334.06
769.828	20351.23
770.164	20153.95
770.5	20068.75
770.836	20155.53
771.171	19920.73
771.507	19980.39
771.842	19745.6
772.178	19706.95
772.513	19730.23
772.849	19701.53
773.184	19631.25
773.519	19635.32
773.855	19445.94
774.19	19465.15
774.525	19337.25
774.86	19280.3
775.195	19285.72
775.53	19107.65
775.865	19047.76
776.2	18927.77
776.535	18778.84
776.87	18873.76
777.205	18718.73
777.539	18713.31
777.874	18736.81
778.209	18584.05
778.543	18510.37
778.878	18387.21
779.212	18343.6
779.547	18235.58
779.881	18262.92
780.215	18141.8
780.55	18093.89
780.884	18030.84
781.218	18078.07
781.552	17963.27
781.886	17921.69
782.22	17767.12
782.554	17706.78
782.888	17603.28
783.222	17553.34
783.556	17437.41
783.889	17458.43
784.223	17154.93
784.557	17311.08
784.89	17305.43
785.224	17165.78
785.557	17127.36
785.891	17102.95
786.224	16960.81
786.558	16967.82
786.891	16828.61
787.224	16759.46
787.557	16743.42
787.891	16809.4
788.224	16710.42
788.557	16707.03
788.89	16674.49
789.223	16526.92
789.556	16480.6
789.888	16348.4
790.221	16286.93
790.554	16303.88
790.887	16161.51
791.219	16192.92
791.552	16114.28
791.884	16051.46
792.217	15987.28
792.549	15994.73
792.882	15777.11
793.214	15782.31
793.546	15736.44
793.879	15688.3
794.211	15555.42
794.543	15588.19
794.875	15590
795.207	15553.39
795.539	15514.52
795.871	15481.53
796.203	15337.8
796.535	15282.89
796.867	15198.82
797.198	15199.05
797.53	15185.26
797.862	15079.5
798.193	15103.23
798.525	15026.17
798.856	15001.99
799.188	14847.42
799.519	14825.05
799.85	14766.07
800.182	14758.61
800.513	14739.4
800.844	14658.5
801.175	14658.5
801.506	14595.45
801.837	14512.74
802.168	14510.71
802.499	14459.63
802.83	14420.54
803.161	14345.96
803.491	14381.67
803.822	14278.85
804.153	14239.53
804.483	14155.24
804.814	14173.77
805.145	14108.23
805.475	14166.53
805.805	14091.96
806.136	14034.33
806.466	14028.23
806.796	13961.79
807.126	13806.32
807.457	13788.92
807.787	13798.86
808.117	13790.5
808.447	13722.93
808.777	13669.6
809.107	13623.95
809.436	13520.22
809.766	13588.7
810.096	13463.28
810.426	13489.26
810.755	13508.25
811.085	13411.98
811.414	13486.1
811.744	13296.5
812.073	13335.14
812.403	13286.33
812.732	13266.67
813.061	13271.19
813.39	13115.49
813.719	13125.21
814.049	13152.32
814.378	13102.38
814.707	13073.46
815.036	13004.3
815.365	12964.31
815.693	12886.57
816.022	12859
816.351	12845.21
816.68	12810.41
817.008	12848.6
817.337	12657.65
817.665	12709.17
817.994	12706.23
818.322	12721.37
818.651	12612.22
818.979	12536.97
819.307	12591.43
819.636	12623.07
819.964	12505.56
820.292	12511.21
820.62	12487.48
820.948	12438.67
821.276	12521.38
821.604	12520.02
821.932	12517.54
822.259	12517.54
822.587	12435.73
822.915	12436.18
823.243	12414.04
823.57	12386.92
823.898	12409.07
824.225	12374.49
824.553	12362.74
824.88	12380.82
825.207	12415.17
825.535	12447.26
825.862	12334.04
826.189	12409.52
826.516	12327.71
826.843	12451.33
827.17	12366.13
827.497	12375.17
827.824	12392.12
828.151	12417.43
828.478	12353.93
828.805	12416.98
829.131	12380.59
829.458	12414.49
829.785	12272.12
830.111	12267.38
830.438	12364.55
830.764	12350.99
831.09	12285
831.417	12266.25
831.743	12368.84
832.069	12311.44
832.395	12256.53
832.722	12293.14
833.048	12235.06
833.374	12291.1
833.7	12224.66
834.026	12218.79
834.351	12243.42
834.677	12174.27
835.003	12288.62
835.329	12205.23
835.654	12216.3
835.98	12131.79
836.306	12151.9
836.631	12066.7
836.956	12084.1
837.282	12105.35
837.607	12046.14
837.932	12065.57
838.258	12046.36
838.583	11959.36
838.908	11951.23
839.233	11999.59
839.558	11937.67
839.883	11880.27
840.208	11816.31
840.533	11815.64
840.858	11901.51
841.182	11878.23
841.507	11865.35
841.832	11777.22
842.156	11743.77
842.481	11774.05
842.805	11675.3
843.13	11632.82
843.454	11652.25
843.778	11584
844.103	11557.56
844.427	11656.77
844.751	11570.67
845.075	11523.89
845.399	11478.47
845.723	11407.74
846.047	11416.78
846.371	11284.58
846.695	11307.4
847.019	11247.29
847.343	11224.92
847.666	11184.92
847.99	11103.11
848.313	11157.35
848.637	10977.47
848.96	11007.3
849.284	10997.13
849.607	10830.12
849.931	10924.81
850.254	10840.75
850.577	10763.46
850.9	10638.49
851.223	10681.2
851.546	10604.14
851.869	10591.71
852.192	10564.14
852.515	10443.47
852.838	10473.3
853.161	10522.79
853.483	10390.81
853.806	10384.03
854.129	10359.63
854.451	10331.15
854.774	10245.73
855.096	10215.9
855.419	10219.75
855.741	10151.27
856.063	10064.95
856.385	10053.42
856.708	10059.52
857.03	10047.09
857.352	10040.09
857.674	9991.05
857.996	9966.19
858.318	9895.46
858.64	9949.92
858.961	9883.48
859.283	9848
859.605	9784.05
859.926	9815.91
860.248	9804.39
860.57	9697.73
860.891	9823.37
861.212	9705.18
861.534	9616.15
861.855	9640.55
862.176	9645.98
862.498	9628.12
862.819	9675.8
863.14	9591.74
863.461	9530.27
863.782	9535.24
864.103	9485.75
864.424	9423.83
864.745	9489.37
865.065	9472.87
865.386	9405.53
865.707	9343.16
866.027	9439.88
866.348	9424.51
866.668	9426.32
866.989	9319.88
867.309	9284.18
867.63	9338.64
867.95	9353.33
868.27	9273.33
868.59	9282.82
868.91	9306.78
869.23	9156.5
869.55	9242.6
869.87	9263.16
870.19	9203.5
870.51	9132.32
870.83	9139.77
871.15	9118.76
871.469	9101.58
871.789	9199.21
872.109	9110.62
872.428	9065.88
872.748	9076.72
873.067	9051.64
873.386	9086.89
873.706	9009.61
874.025	9017.07
874.344	9020.68
874.663	9042.15
874.982	8910.63
875.301	9021.81
875.62	8937.52
875.939	8905.2
876.258	8891.87
876.577	8859.1
876.896	8831.76
877.214	8817.52
877.533	8893.9
877.852	8845.09
878.17	8779.33
878.489	8903.4
878.807	8810.97
879.125	8823.85
879.444	8781.37
879.762	8739.78
880.08	8718.32
880.398	8711.08
880.716	8742.27
881.034	8622.5
881.352	8662.27
881.67	8648.04
881.988	8650.97
882.306	8664.98
882.624	8603.06
882.941	8472.22
883.259	8489.62
883.577	8458.89
883.894	8458.44
884.212	8545.21
884.529	8496.17
884.846	8472.9
885.164	8492.33
885.481	8356.07
885.798	8430.87
886.115	8325.11
886.432	8353.81
886.75	8363.52
887.067	8394.26
887.383	8299.8
887.7	8321.04
888.017	8203.75
888.334	8244.88
888.651	8201.72
888.967	8169.86
889.284	8197.43
889.6	8137.54
889.917	8064.77
890.233	8094.83
890.55	8013.93
890.866	8120.82
891.182	8061.38
891.498	8075.17
891.815	8023.42
892.131	7948.39
892.447	7958.34
892.763	7863.88
893.079	7909.98
893.395	7858.9
893.71	7837.21
894.026	7830.43
894.342	7837.89
894.657	7750.88
894.973	7732.13
895.289	7747.49
895.604	7711.11
895.92	7671.79
896.235	7610.32
896.55	7581.85
896.865	7581.17
897.181	7526.71
897.496	7569.42
897.811	7538.91
898.126	7481.51
898.441	7399.03
898.756	7384.57
899.071	7403.77
899.386	7391.8
899.7	7331.91
900.015	7316.09
900.33	7258.69
900.644	7286.26
900.959	7306.6
901.273	7213.27
901.588	7204.01
901.902	7180.73
902.216	7144.35
902.531	7175.08
902.845	7102.99
903.159	7074.07
903.473	7011.47
903.787	6975.08
904.101	7015.08
904.415	6980.06
904.729	6941.19
905.042	6862.77
905.356	6888.53
905.67	6848.53
905.984	6822.09
906.297	6803.11
906.611	6805.6
906.924	6815.77
907.237	6754.53
907.551	6738.03
907.864	6714.98
908.177	6679.5
908.491	6667.52
908.804	6656
909.117	6601.31
909.43	6569.45
909.743	6507.53
910.056	6506.85
910.368	6521.99
910.681	6409.9
910.994	6404.25
911.307	6397.02
911.619	6384.59
911.932	6379.17
912.244	6311.15
912.557	6358.83
912.869	6246.29
913.181	6245.39
913.494	6222.79
913.806	6195.67
914.118	6206.29
914.43	6187.31
914.742	6160.87
915.054	6113.41
915.366	6141.43
915.678	6067.99
915.99	5995
916.302	5978.28
916.613	5950.48
916.925	5954.32
917.236	5969.24
917.548	5915
917.859	5899.18
918.171	5837.94
918.482	5765.85
918.794	5796.36
919.105	5792.07
919.416	5789.35
919.727	5729.69
920.038	5715.01
920.349	5715.68
920.66	5687.66
920.971	5625.97
921.282	5626.42
921.593	5604.5
921.903	5563.6
922.214	5562.24
922.525	5539.64
922.835	5496.03
923.146	5474.33
923.456	5482.02
923.767	5417.84
924.077	5466.2
924.387	5401.34
924.697	5365.41
925.008	5399.53
925.318	5367.67
925.628	5318.18
925.938	5280.21
926.248	5261.46
926.558	5239.54
926.867	5259.42
927.177	5208.13
927.487	5185.53
927.796	5160.22
928.106	5154.57
928.416	5121.35
928.725	5046.77
929.034	5074.34
929.344	5077.73
929.653	5098.07
929.962	4989.6
930.271	4938.08
930.581	5015.59
930.89	4920.22
931.199	4915.48
931.508	4878.19
931.817	4920
932.125	4873.9
932.434	4831.86
932.743	4821.7
933.051	4810.85
933.36	4771.98
933.669	4757.06
933.977	4748.02
934.286	4748.25
934.594	4698.99
934.902	4695.37
935.21	4650.85
935.519	4620.57
935.827	4627.12
936.135	4587.8
936.443	4537.18
936.751	4559.33
937.059	4572.21
937.367	4518.2
937.674	4490.18
937.982	4513
938.29	4475.49
938.597	4448.15
938.905	4384.64
939.213	4352.78
939.52	4380.35
939.827	4402.05
940.135	4366.79
940.442	4337.64
940.749	4274.82
941.056	4258.77
941.363	4273.24
941.67	4260.13
941.977	4202.28
942.284	4223.07
942.591	4176.29
942.898	4192.79
943.205	4179.23
943.511	4151.88
943.818	4107.82
944.125	4096.29
944.431	4162.28
944.738	4077.31
945.044	4072.11
945.35	4022.62
945.657	4014.94
945.963	4010.19
946.269	3967.48
946.575	4024.65
946.881	3966.12
947.187	3952.79
947.493	3920.25
947.799	3937.2
948.105	3871.44
948.41	3877.77
948.716	3886.13
949.022	3873.92
949.327	3860.14
949.633	3802.06
949.938	3786.24
950.244	3802.06
950.549	3779.46
950.854	3708.73
951.16	3757.32
951.465	3702.85
951.77	3705.57
952.075	3668.28
952.38	3708.5
952.685	3714.38
952.99	3647.04
953.294	3622.86
953.599	3600.26
953.904	3616.53
954.209	3550.77
954.513	3530.43
954.818	3560.71
955.122	3543.99
955.426	3541.28
955.731	3505.8
956.035	3471.22
956.339	3466.25
956.643	3502.86
956.948	3451.56
957.252	3404.33
957.556	3436.19
957.86	3409.3
958.163	3378.8
958.467	3350.1
958.771	3357.33
959.075	3354.84
959.378	3318.23
959.682	3320.72
959.985	3288.85
960.289	3252.7
960.592	3250.89
960.896	3283.43
961.199	3193.04
961.502	3226.93
961.805	3202.3
962.108	3196.43
962.411	3183.55
962.714	3213.15
963.017	3140.84
963.32	3123.89
963.623	3139.25
963.926	3101.06
964.228	3107.16
964.531	3084.57
964.833	3061.06
965.136	3044.79
965.438	3095.19
965.741	3053.61
966.043	3007.28
966.345	3031.01
966.648	3016.09
966.95	3025.13
967.252	2956.66
967.554	2962.76
967.856	2960.05
968.158	2933.38
968.46	2958.47
968.761	2923.21
969.063	2926.6
969.365	2902.65
969.666	2888.64
969.968	2842.54
970.269	2841.86
970.571	2851.58
970.872	2831.24
971.174	2825.82
971.475	2772.26
971.776	2813.16
972.077	2796.66
972.378	2790.79
972.679	2733.16
972.98	2739.49
973.281	2778.36
973.582	2708.08
973.883	2716.67
974.183	2726.84
974.484	2720.06
974.785	2710.79
975.085	2655.65
975.386	2675.99
975.686	2631.02
975.986	2642.54
976.287	2603.22
976.587	2601.64
976.887	2610
977.187	2570.46
977.487	2572.26
977.787	2546.73
978.087	2542.21
978.387	2579.49
978.687	2539.5
978.987	2499.5
979.286	2499.04
979.586	2481.64
979.885	2498.82
980.185	2473.06
980.484	2460.4
980.784	2433.96
981.083	2437.8
981.382	2438.48
981.682	2422.89
981.981	2421.53
982.28	2403.91
982.579	2384.25
982.878	2374.75
983.177	2373.85
983.475	2360.74
983.774	2346.05
984.073	2346.73
984.372	2314.64
984.67	2334.3
984.969	2338.14
985.267	2311.03
985.566	2289.56
985.864	2272.16
986.162	2286.17
986.461	2276.9
986.759	2258.37
987.057	2252.72
987.355	2172.95
987.653	2193.06
987.951	2224.48
988.249	2188.32
988.547	2174.08
988.844	2163.01
989.142	2159.39
989.44	2153.52
989.737	2125.49
990.035	2129.79
990.332	2102.9
990.63	2097.25
990.927	2104.03
991.224	2118.49
991.521	2100.86
991.819	2090.02
992.116	2091.82
992.413	2073.74
992.71	2036.68
993.006	2052.5
993.303	2044.14
993.6	2025.84
993.897	2011.37
994.193	2025.16
994.49	2015.67
994.787	1983.8
995.083	1958.95
995.379	1993.75
995.676	1962.11
995.972	1965.05
996.268	1940.87
996.565	1965.95
996.861	1928.21
997.157	1931.15
997.453	1910.13
997.749	1909.91
998.044	1893.41
998.34	1892.05
998.636	1872.62
998.932	1857.71
999.227	1865.39
999.523	1859.06
999.818	1852.51
1000.114	1810.7
1000.409	1807.54
1000.704	1807.99
1001	1792.85
1001.295	1781.32
1001.59	1769.8
1001.885	1772.96
1002.18	1737.93
1002.475	1747.65
1002.77	1741.1
1003.065	1757.14
1003.359	1740.87
1003.654	1715.56
1003.949	1718.73
1004.243	1703.36
1004.538	1677.15
1004.832	1681.89
1005.127	1682.57
1005.421	1622.23
1005.715	1649.8
1006.009	1638.05
1006.304	1643.7
1006.598	1628.11
1006.892	1638.5
1007.186	1596.24
1007.48	1603.02
1007.773	1604.6
1008.067	1575
1008.361	1578.39
1008.655	1582.91
1008.948	1540.43
1009.242	1533.42
1009.535	1528.9
1009.829	1526.41
1010.122	1529.8
1010.415	1523.7
1010.708	1497.04
1011.001	1485.29
1011.295	1491.39
1011.588	1513.31
1011.881	1447.09
1012.173	1488
1012.466	1459.75
1012.759	1443.93
1013.052	1450.94
1013.344	1437.38
1013.637	1417.49
1013.93	1432.18
1014.222	1435.12
1014.514	1436.47
1014.807	1398.73
1015.099	1382.69
1015.391	1376.14
1015.683	1387.89
1015.976	1331.39
1016.268	1373.65
1016.56	1332.07
1016.851	1326.87
1017.143	1356.93
1017.435	1331.39
1017.727	1330.94
1018.018	1307.66
1018.31	1338.62
1018.602	1293.43
1018.893	1305.18
1019.185	1290.49
1019.476	1293.2
1019.767	1269.92
1020.058	1252.75
1020.35	1256.37
1020.641	1242.13
1020.932	1224.5
1021.223	1275.12
1021.514	1229.93
1021.804	1191.73
1022.095	1222.24
1022.386	1201.68
1022.677	1220.21
1022.967	1170.04
1023.258	1167.55
1023.548	1157.61
1023.839	1180.89
1024.129	1167.1
1024.419	1139.53
1024.709	1126.43
1025	1100.66
1025.29	1115.8
1025.58	1137.05
1025.87	1116.26
1026.16	1091.62
1026.449	1108.57
1026.739	1084.17
1027.029	1080.1
1027.319	1087.78
1027.608	1054.34
1027.898	1050.04
1028.187	1043.94
1028.477	1045.52
1028.766	1036.71
1029.055	1065.86
1029.344	1021.8
1029.634	1038.52
1029.923	1020.44
1030.212	1045.07
1030.501	975.92
1030.79	986.77
1031.078	979.31
1031.367	969.59
1031.656	974.79
1031.945	951.29
1032.233	959.42
1032.522	987.45
1032.81	940.67
1033.099	919.42
1033.387	957.16
1033.675	942.48
1033.963	937.05
1034.251	930.05
1034.54	916.71
1034.828	907.45
1035.116	910.16
1035.403	899.31
1035.691	913.78
1035.979	917.17
1036.267	873.1
1036.554	878.07
1036.842	857.28
1037.129	861.8
1037.417	869.03
1037.704	865.19
1037.992	871.29
1038.279	867
1038.566	837.39
1038.853	837.39
1039.14	837.39
