Data from hue_24_FLMS001491_00060.txt Node
Date: Tue Feb 07 17:12:28 GMT 2017
User: dcchb
Spectrometer: FLMS00149
Trigger mode: 0
Integration Time (sec): 2.000000E-2
Scans to average: 10
Electric dark correction enabled: true
Nonlinearity correction enabled: false
Boxcar width: 0
XAxis mode: Wavelengths
Number of Pixels in Spectrum: 2048
>>>>>Begin Spectral Data<<<<<
341.393	-15.96
341.776	-15.96
342.16	-15.96
342.543	-66.58
342.927	-69.74
343.31	-57.31
343.693	-41.04
344.077	-70.65
344.46	-52.57
344.843	-55.51
345.226	-42.63
345.61	-39.46
345.993	-19.58
346.376	-6.24
346.759	3.7
347.142	40.54
347.525	20.2
347.908	67.88
348.291	57.03
348.674	98.61
349.057	97.03
349.44	118.27
349.823	158.95
350.206	171.83
350.588	196.24
350.971	215.67
351.354	223.36
351.737	225.84
352.119	229.46
352.502	261.77
352.884	277.37
353.267	278.5
353.65	268.55
354.032	279.85
354.414	282.79
354.797	330.7
355.179	306.29
355.562	314.2
355.944	321.21
356.326	323.24
356.709	330.7
357.091	331.6
357.473	354.65
357.855	328.44
358.238	336.12
358.62	344.71
359.002	317.59
359.384	333.86
359.766	319.17
360.148	340.64
360.53	348.78
360.912	320.08
361.294	315.1
361.676	338.38
362.057	330.92
362.439	325.27
362.821	316.23
363.203	331.6
363.584	321.66
363.966	313.07
364.348	335.9
364.729	313.52
365.111	307.65
365.493	306.97
365.874	306.74
366.256	306.52
366.637	320.98
367.019	314.2
367.4	322.34
367.781	315.1
368.163	314.43
368.544	335.9
368.925	321.88
369.306	316.01
369.688	319.4
370.069	320.08
370.45	304.71
370.831	323.01
371.212	308.33
371.593	297.25
371.974	304.26
372.355	312.39
372.736	316.69
373.117	318.72
373.498	306.52
373.879	309.23
374.26	325.95
374.641	318.04
375.021	297.93
375.402	306.74
375.783	325.05
376.163	309.23
376.544	308.55
376.925	320.53
377.305	324.14
377.686	318.49
378.066	329.79
378.447	325.05
378.827	339.06
379.208	331.38
379.588	321.88
379.968	313.97
380.349	340.19
380.729	317.82
381.109	320.08
381.489	341.32
381.87	345.84
382.25	355.56
382.63	345.84
383.01	330.7
383.39	316.01
383.77	345.16
384.15	332.51
384.53	327.31
384.91	348.55
385.29	335.9
385.67	323.69
386.049	350.36
386.429	347.42
386.809	350.36
387.189	362.34
387.568	349.68
387.948	353.07
388.328	360.08
388.707	356.01
389.087	372.05
389.466	359.17
389.846	357.82
390.225	364.37
390.605	352.39
390.984	345.39
391.363	370.92
391.743	388.55
392.122	379.51
392.501	362.11
392.881	360.75
393.26	365.5
393.639	376.35
394.018	364.37
394.397	382
394.776	380.87
395.155	400.53
395.534	391.71
395.913	384.26
396.292	387.87
396.671	360.3
397.05	376.12
397.429	392.39
397.808	389.68
398.186	376.57
398.565	389.23
398.944	367.08
399.323	389
399.701	384.03
400.08	376.57
400.458	412.96
400.837	378.61
401.215	393.52
401.594	389.23
401.972	395.78
402.351	399.62
402.729	424.71
403.107	414.54
403.486	401.43
403.864	393.07
404.242	399.85
404.62	386.97
404.999	400.3
405.377	390.58
405.755	406.4
406.133	419.51
406.511	405.5
406.889	444.82
407.267	432.16
407.645	412.96
408.023	429.23
408.401	404.14
408.779	425.84
409.156	445.72
409.534	439.17
409.912	445.95
410.29	439.85
410.667	424.71
411.045	438.27
411.422	429.68
411.8	445.72
412.178	447.98
412.555	456.8
412.933	458.83
413.31	471.48
413.687	449.11
414.065	463.35
414.442	500.64
414.819	461.99
415.197	475.1
415.574	498.15
415.951	464.93
416.328	464.03
416.705	472.39
417.082	465.84
417.46	470.35
417.837	486.63
418.214	487.08
418.591	508.09
418.967	503.12
419.344	486.4
419.721	500.64
420.098	518.72
420.475	512.84
420.852	507.64
421.228	511.71
421.605	531.14
421.982	498.15
422.358	509
422.735	530.47
423.111	515.55
423.488	547.87
423.864	523.69
424.241	516.46
424.617	551.71
424.994	526.17
425.37	529.34
425.746	538.38
426.123	545.83
426.499	550.58
426.875	548.54
427.251	540.41
427.627	556.68
428.003	568.43
428.379	593.29
428.756	548.54
429.132	575.66
429.507	580.18
429.883	582.44
430.259	578.6
430.635	589.45
431.011	583.35
431.387	606.85
431.763	601.65
432.138	619.28
432.514	626.51
432.89	625.38
433.265	610.46
433.641	639.84
434.016	606.4
434.392	636.23
434.767	632.38
435.143	619.05
435.518	635.1
435.894	667.86
436.269	654.53
436.644	675.32
437.02	691.59
437.395	675.77
437.77	684.36
438.145	672.16
438.52	679.16
438.895	697.69
439.271	710.57
439.646	694.08
440.021	710.12
440.395	707.18
440.77	692.27
441.145	671.48
441.52	717.13
441.895	728.88
442.27	725.94
442.645	718.71
443.019	723.46
443.394	740.86
443.769	725.72
444.143	733.4
444.518	742.89
444.892	763
445.267	743.34
445.641	765.71
446.016	773.85
446.39	780.63
446.764	779.95
447.139	799.39
447.513	776.56
447.887	776.11
448.262	780.86
448.636	815.66
449.01	823.11
449.384	808.88
449.758	804.58
450.132	796
450.506	828.76
450.88	801.19
451.254	773.85
451.628	813.17
452.002	839.61
452.376	842.1
452.75	849.55
453.123	863.11
453.497	861.98
453.871	877.58
454.244	890.91
454.618	871.7
454.992	880.74
455.365	879.38
455.739	889.1
456.112	896.56
456.486	923.9
456.859	908.76
457.232	950.57
457.606	906.73
457.979	928.2
458.352	951.02
458.725	937.46
459.099	980.62
459.472	995.31
459.845	997.8
460.218	1003.45
460.591	1028.76
460.964	1024.46
461.337	1024.69
461.71	1031.02
462.083	1010.23
462.456	1051.58
462.829	1056.55
463.201	1082.99
463.574	1087.74
463.947	1064.24
464.32	1119.6
464.692	1134.74
465.065	1129.32
465.438	1169.55
465.81	1152.14
466.183	1166.16
466.555	1173.84
466.928	1183.78
467.3	1178.36
467.672	1219.04
468.045	1224.69
468.417	1220.62
468.789	1244.35
469.161	1267.85
469.534	1280.96
469.906	1302.65
470.278	1301.07
470.65	1321.41
471.022	1360.73
471.394	1371.8
471.766	1379.03
472.138	1377.22
472.51	1460.84
472.882	1476.2
473.253	1450.44
473.625	1477.33
473.997	1526.15
474.369	1536.09
474.74	1565.92
475.112	1579.25
475.484	1567.5
475.855	1647.95
476.227	1651.79
476.598	1675.75
476.97	1701.28
477.341	1760.72
477.713	1782.86
478.084	1801.17
478.455	1819.02
478.827	1857.89
479.198	1895.85
479.569	1925.68
479.94	1989.41
480.311	1977.66
480.682	2059.24
481.053	2087.26
481.424	2142.85
481.795	2155.28
482.166	2214.49
482.537	2238.44
482.908	2258.1
483.279	2296.3
483.65	2369.97
484.021	2389.85
484.391	2439.12
484.762	2480.25
485.133	2514.82
485.503	2546.01
485.874	2592.56
486.244	2645.44
486.615	2702.84
486.985	2692.44
487.356	2750.07
487.726	2801.37
488.097	2855.15
488.467	2923.4
488.837	2935.37
489.207	3013.56
489.578	3023.06
489.948	3074.13
490.318	3155.48
490.688	3154.58
491.058	3230.96
491.428	3275.93
491.798	3308.47
492.168	3382.82
492.538	3395.7
492.908	3438.19
493.278	3503.95
493.648	3479.99
494.017	3588.01
494.387	3593.66
494.757	3650.61
495.126	3701.23
495.496	3663.49
495.866	3723.83
496.235	3818.74
496.605	3801.34
496.974	3885.86
497.344	3929.25
497.713	3908.46
498.082	3963.37
498.452	3992.3
498.821	3970.15
499.19	4060.99
499.559	4076.59
499.928	4099.19
500.298	4162.69
500.667	4203.36
501.036	4195.23
501.405	4189.35
501.774	4242.46
502.143	4260.54
502.512	4321.1
502.88	4333.76
503.249	4337.37
503.618	4365.85
503.987	4421.21
504.356	4402.68
504.724	4446.97
505.093	4470.25
505.462	4514.09
505.83	4571.72
506.199	4565.16
506.567	4654.2
506.936	4646.97
507.304	4694.65
507.672	4679.51
508.041	4700.3
508.409	4724.48
508.777	4799.73
509.145	4794.31
509.514	4776.46
509.882	4835.44
510.25	4801.54
510.618	4842.67
510.986	4892.61
511.354	4884.93
511.722	4903.01
512.09	4975.1
512.458	5003.57
512.826	5003.12
513.193	5071.82
513.561	5046.51
513.929	5033.62
514.297	5108.65
514.664	5163.34
515.032	5128.76
515.4	5267.52
515.767	5210.8
516.135	5236.56
516.502	5193.62
516.869	5278.59
517.237	5279.95
517.604	5281.3
517.972	5314.75
518.339	5348.64
518.706	5330.34
519.073	5321.75
519.44	5397.68
519.808	5460.51
520.175	5434.74
520.542	5494.86
520.909	5494.86
521.276	5529.43
521.643	5604.01
522.009	5550.45
522.376	5587.51
522.743	5623.21
523.11	5642.65
523.477	5648.07
523.843	5737.79
524.21	5799.93
524.577	5837.9
524.943	5848.07
525.31	5843.09
525.676	5920.38
526.043	5953.37
526.409	5980.04
526.776	6044.9
527.142	6004.67
527.508	6051.23
527.874	6123.31
528.241	6144.56
528.607	6112.92
528.973	6196.53
529.339	6209.86
529.705	6263.2
530.071	6301.39
530.437	6367.6
530.803	6340.03
531.169	6365.57
531.535	6380.03
531.901	6414.15
532.267	6429.29
532.632	6461.38
532.998	6464.1
533.364	6556.97
533.73	6607.59
534.095	6516.98
534.461	6628.61
534.826	6675.39
535.192	6645.11
535.557	6639.68
535.923	6719.68
536.288	6745.44
536.653	6792.45
537.019	6797.19
537.384	6791.54
537.749	6820.02
538.114	6823.41
538.479	6840.58
538.845	6940.92
539.21	6885.78
539.575	6923.52
539.94	7002.84
540.305	6983.86
540.67	7040.35
541.034	7022.95
541.399	7093.91
541.764	7055.49
542.129	7137.98
542.494	7210.06
542.858	7173.68
543.223	7214.13
543.587	7253.45
543.952	7294.81
544.316	7285.77
544.681	7366.67
545.045	7403.05
545.41	7352.66
545.774	7374.81
546.138	7459.78
546.503	7483.5
546.867	7458.19
547.231	7539.77
547.595	7547.23
547.959	7631.97
548.324	7551.07
548.688	7594.69
549.052	7626.32
549.416	7680.56
549.779	7736.15
550.143	7742.48
550.507	7791.97
550.871	7837.84
551.235	7868.13
551.599	7860.22
551.962	7810.05
552.326	7874.45
552.689	7871.74
553.053	7918.75
553.417	7947.45
553.78	8041
554.143	8010.95
554.507	8074.22
554.87	8032.64
555.234	8152.64
555.597	8145.86
555.96	8188.12
556.323	8224.5
556.686	8204.16
557.05	8326.42
557.413	8268.57
557.776	8306.76
558.139	8330.71
558.502	8361.67
558.865	8393.99
559.228	8430.15
559.59	8408
559.953	8494.1
560.316	8516.92
560.679	8537.04
561.041	8574.1
561.404	8612.97
561.767	8653.19
562.129	8590.59
562.492	8733.64
562.854	8704.26
563.217	8736.35
563.579	8816.8
563.941	8822.9
564.304	8810.25
564.666	8941.32
565.028	8871.72
565.39	8993.97
565.753	9059.28
566.115	8989
566.477	9030.36
566.839	9151.93
567.201	9109.9
567.563	9141.31
567.925	9207.3
568.287	9236.45
568.648	9200.07
569.01	9282.55
569.372	9326.62
569.734	9327.3
570.095	9382.21
570.457	9466.05
570.819	9416.33
571.18	9439.16
571.542	9502.21
571.903	9614.97
572.265	9636.67
572.626	9634.86
572.987	9721.41
573.349	9762.31
573.71	9817.23
574.071	9855.87
574.432	9960.27
574.794	10027.84
575.155	9969.77
575.516	9996.43
575.877	10176.31
576.238	10163.89
576.599	10338.34
576.96	10282.53
577.32	10435.29
577.681	10488.62
578.042	10547.38
578.403	10635.51
578.763	10706.7
579.124	10817.88
579.485	10915.5
579.845	11087.48
580.206	11153.24
580.566	11259.68
580.927	11308.49
581.287	11482.72
581.648	11543.06
582.008	11739.21
582.368	11790.06
582.728	11990.73
583.089	12044.51
583.449	12283.6
583.809	12370.15
584.169	12632.29
584.529	12721.78
584.889	12928.11
585.249	13089.68
585.609	13225.27
585.969	13504.81
586.329	13706.84
586.688	13873.39
587.048	14093.95
587.408	14291.46
587.768	14609.64
588.127	14744.56
588.487	15024.55
588.846	15318.1
589.206	15509.28
589.565	15694.14
589.925	16070.62
590.284	16264.52
590.643	16558.52
591.003	16883.03
591.362	17130.48
591.721	17373.87
592.08	17664.03
592.44	17900.86
592.799	18217.68
593.158	18519.37
593.517	18805.47
593.876	19058.11
594.235	19414.94
594.593	19717.53
594.952	19990.29
595.311	20270.51
595.67	20657.62
596.029	21014
596.387	21367.66
596.746	21692.4
597.104	21810.58
597.463	22134.87
597.822	22504.8
598.18	22663.44
598.538	23079.48
598.897	23428.4
599.255	23662.29
599.613	24244.87
599.972	24295.04
600.33	24729.6
600.688	24924.18
601.046	25215.47
601.404	25582.46
601.762	25912.4
602.12	26349
602.478	26636.22
602.836	26908.53
603.194	27107.62
603.552	27451.57
603.91	27566.37
604.268	27975.17
604.625	28225.11
604.983	28612.44
605.341	28753.9
605.698	29137.62
606.056	29405.87
606.413	29693.32
606.771	29987.32
607.128	30133.98
607.485	30295.11
607.843	30559.96
608.2	31037.23
608.557	31181.64
608.914	31318.81
609.272	31790.89
609.629	32052.8
609.986	32402.85
610.343	32378.67
610.7	32714.7
611.057	32733.01
611.414	33124.19
611.771	33321.47
612.127	33616.15
612.484	33772.53
612.841	33935.24
613.198	34149.7
613.554	34335
613.911	34678.72
614.267	34729.34
614.624	34877.36
614.98	35120.52
615.337	35375.2
615.693	35462.66
616.05	35682.54
616.406	36000.27
616.762	36060.61
617.118	36200.49
617.475	36339.69
617.831	36576.07
618.187	36836.86
618.543	36866.23
618.899	37066.45
619.255	37246.34
619.611	37393.23
619.967	37550.28
620.323	37718.19
620.678	37800.22
621.034	37790.96
621.39	38021.46
621.746	37926.77
622.101	38519.07
622.457	38225.97
622.812	38372.18
623.168	38684.27
623.523	38672.97
623.879	38850.36
624.234	38729.91
624.589	38879.06
624.945	39085.61
625.3	39202.22
625.655	39310.01
626.01	39352.72
626.365	39401.08
626.72	39361.76
627.075	39425.49
627.43	39610.79
627.785	39498.48
628.14	39900.5
628.495	39772.82
628.85	39897.57
629.205	39780.28
629.559	39973.72
629.914	39903.22
630.269	39906.15
630.623	39908.41
630.978	39909.32
631.332	40146.37
631.687	40375.07
632.041	40108.41
632.396	40120.16
632.75	39991.58
633.104	40248.52
633.459	40090.56
633.813	40104.79
634.167	40241.29
634.521	40327.84
634.875	40418.01
635.229	40286.94
635.583	40139.82
635.937	40234.51
636.291	40120.39
636.645	40189.76
636.999	40069.54
637.352	40339.14
637.706	40067.05
638.06	40252.81
638.413	40198.12
638.767	40018.24
639.121	40208.97
639.474	39989.77
639.828	40080.61
640.181	40135.07
640.534	40246.94
640.888	40148.63
641.241	39949.54
641.594	40153.38
641.947	40217.33
642.301	40172.59
642.654	40146.83
643.007	40259.37
643.36	40093.95
643.713	40176.66
644.066	40232.02
644.419	39954.97
644.771	39740.06
645.124	39362.67
645.477	39348.43
645.83	39069.11
646.182	38919.74
646.535	38905.73
646.888	39061.2
647.24	38856.01
647.593	39067.08
647.945	38989.12
648.298	38852.4
648.65	38839.06
649.002	38669.58
649.355	38938.72
649.707	38830.25
650.059	39081.32
650.411	39507.97
650.763	39478.37
651.115	39923.55
651.467	39748.64
651.819	39830.68
652.171	39640.85
652.523	39695.76
652.875	39569.44
653.227	39647.4
653.578	39757.01
653.93	39581.87
654.282	39576.22
654.633	39445.6
654.985	39570.57
655.337	39456.22
655.688	39563.11
656.039	39536.22
656.391	39365.6
656.742	39338.71
657.094	39379.39
657.445	39482.21
657.796	39384.81
658.147	39459.16
658.498	39454.87
658.849	39572.6
659.2	39431.14
659.551	39335.32
659.902	39525.6
660.253	39425.49
660.604	39453.06
660.955	39253.97
661.306	39488.09
661.656	39392.27
662.007	39371.93
662.358	39477.01
662.708	39368.09
663.059	39422.55
663.409	39083.35
663.76	39340.97
664.11	39269.33
664.461	39344.81
664.811	39442.66
665.161	39460.74
665.511	39188.66
665.862	39327.19
666.212	39434.75
666.562	39356.11
666.912	39214.87
667.262	39267.98
667.612	39234.31
667.962	39279.73
668.312	39239.96
668.662	39275.44
669.011	39313.63
669.361	39190.69
669.711	39136.23
670.06	39180.3
670.41	39027.53
670.76	39097.36
671.109	39227.53
671.459	39126.29
671.808	39100.53
672.157	39215.55
672.507	38985.27
672.856	38832.74
673.205	39057.36
673.554	39081.32
673.904	38951.15
674.253	39136.46
674.602	38990.47
674.951	38461.9
675.3	38242.02
675.649	38902.34
675.998	38902.11
676.346	38884.03
676.695	39005.16
677.044	38598.84
677.393	38823.02
677.741	38922
678.09	38614.21
678.438	38570.82
678.787	38814.21
679.135	38792.06
679.484	38389.58
679.832	38660.99
680.181	38404.95
680.529	38597.26
680.877	38371.05
681.225	38445.4
681.573	38595.68
681.922	38279.3
682.27	38218.74
682.618	38296.7
682.966	38230.49
683.314	38319.08
683.661	37961.12
684.009	37898.07
684.357	37891.29
684.705	37802.93
685.053	37829.6
685.4	37838.64
685.748	37642.94
686.095	37595.03
686.443	37495.82
686.79	37461.47
687.138	37613.56
687.485	37607.23
687.832	37496.27
688.18	37409.5
688.527	37211.54
688.874	37261.7
689.221	37088.15
689.568	36969.51
689.915	36957.08
690.262	37013.12
690.609	36775.61
690.956	36732.68
691.303	36654.71
691.65	36576.98
691.997	36451.78
692.344	36410.43
692.69	36276.87
693.037	36255.63
693.383	36010.44
693.73	36162.3
694.077	35943.32
694.423	35941.51
694.769	35797.56
695.116	35809.54
695.462	35652.03
695.808	35601.63
696.155	35707.85
696.501	35396.67
696.847	35372.26
697.193	35163.23
697.539	35274.19
697.885	35065.38
698.231	34945.15
698.577	34850.47
698.923	34856.57
699.269	34815.67
699.614	34571.61
699.96	34493.42
700.306	34438.95
700.651	34297.04
700.997	34324.61
701.342	34249.35
701.688	34163.25
702.033	34144.95
702.379	34059.75
702.724	33857.73
703.069	33988.57
703.415	33667.22
703.76	33745.19
704.105	33744.73
704.45	33683.49
704.795	33460
705.14	33320.34
705.485	33254.8
705.83	33155.6
706.175	33151.08
706.52	33091.64
706.865	32936.39
707.209	33045.09
707.554	32770.97
707.899	32957.64
708.243	32566.69
708.588	32643.07
708.932	32455.05
709.277	32367.6
709.621	32368.27
709.966	32212.35
710.31	32345.45
710.654	32129.41
710.998	32151.78
711.342	32091.9
711.687	31914.95
712.031	31832.02
712.375	31830.21
712.719	31808.51
713.063	31674.96
713.407	31900.94
713.75	31648.29
714.094	31609.2
714.438	31527.39
714.782	31495.53
715.125	31359.94
715.469	31484.45
715.812	31300.28
716.156	31065.03
716.499	31164.01
716.843	31093.28
717.186	30969.21
717.53	31074.97
717.873	31107.97
718.216	30956.33
718.559	30874.75
718.902	30644.7
719.246	30639.96
719.589	30619.62
719.932	30455.78
720.275	30497.14
720.617	30425.73
720.96	30442
721.303	30461.88
721.646	30408.55
721.989	30156.35
722.331	30306.63
722.674	30075.45
723.016	30264.6
723.359	30176.01
723.701	30146.86
724.044	29921.11
724.386	29750.71
724.729	29903.48
725.071	29875.01
725.413	29823.26
725.755	29844.05
726.097	29672.52
726.439	29537.84
726.782	29615.58
727.124	29623.03
727.465	29484.06
727.807	29416.71
728.149	29448.8
728.491	29444.51
728.833	29391.85
729.175	29296.49
729.516	29286.09
729.858	29237.96
730.199	29172.65
730.541	29217.62
730.882	29146.89
731.224	29171.75
731.565	28976.05
731.906	29025.31
732.248	28968.59
732.589	28760.01
732.93	28783.73
733.271	28832.55
733.612	28873
733.953	28759.33
734.294	28694.25
734.635	28490.86
734.976	28697.64
735.317	28525.44
735.658	28533.35
735.999	28440.69
736.339	28493.35
736.68	28516.85
737.021	28497.64
737.361	28190.3
737.702	28491.99
738.042	28429.39
738.383	28317.31
738.723	28283.18
739.063	28173.13
739.404	28270.98
739.744	28190.3
740.084	28046.35
740.424	28132
740.764	27986.24
741.104	28023.75
741.444	27933.81
741.784	27941.95
742.124	27903.76
742.464	27903.31
742.804	27782.63
743.143	27749.41
743.483	27882.97
743.823	27589.87
744.162	27612.69
744.502	27653.14
744.841	27484.79
745.181	27519.81
745.52	27413.6
745.86	27599.36
746.199	27425.35
746.538	27376.54
746.877	27510.55
747.216	27406.6
747.556	27445.46
747.895	27356.43
748.234	27197.34
748.573	27291.57
748.911	27200.95
749.25	27251.8
749.589	27013.39
749.928	27089.77
750.267	27161.18
750.605	26995.76
750.944	27070.56
751.283	26839.83
751.621	26948.75
751.96	26879.15
752.298	26847.51
752.636	26831.24
752.975	26648.42
753.313	26707.86
753.651	26709.89
753.989	26585.6
754.327	26469.67
754.666	26298.83
755.004	26340.86
755.342	26363.23
755.679	26273.29
756.017	26208.44
756.355	26261.99
756.693	26170.47
757.031	26186.29
757.368	26007.99
757.706	26015.9
758.044	25915.34
758.381	25930.48
758.719	25878.27
759.056	25934.77
759.394	25825.62
759.731	25682.12
760.068	25678.51
760.405	25442.35
760.743	25465.63
761.08	25484.39
761.417	25372.07
761.754	25269.93
762.091	25281.45
762.428	25210.5
762.765	25107.45
763.102	25122.81
763.438	25010.5
763.775	24805.76
764.112	24854.8
764.449	24831.07
764.785	24763.28
765.122	24550.85
765.458	24477.86
765.795	24500.46
766.131	24495.49
766.467	24253.01
766.804	24173.46
767.14	24163.07
767.476	24082.16
767.812	24025.67
768.148	24032.9
768.485	23927.82
768.821	23841.49
769.157	23816.41
769.492	23728.27
769.828	23692.34
770.164	23469.98
770.5	23280.38
770.836	23460.94
771.171	23274.28
771.507	23192.7
771.842	23055.75
772.178	23029.08
772.513	22972.81
772.849	22832.7
773.184	22799.71
773.519	22935.75
773.855	22660.05
774.19	22606.72
774.525	22574.18
774.86	22546.84
775.195	22512.49
775.53	22257.58
775.865	22298.48
776.2	22134.87
776.535	21891.03
776.87	21955.89
777.205	21941.2
777.539	21678.84
777.874	21849.91
778.209	21673.64
778.543	21556.13
778.878	21463.02
779.212	21408.11
779.547	21279.75
779.881	21500.31
780.215	21311.39
780.55	21239.07
780.884	21012.41
781.218	20961.34
781.552	21022.81
781.886	20842.47
782.22	20727.9
782.554	20691.74
782.888	20523.61
783.222	20475.25
783.556	20472.09
783.889	20283.85
784.223	20160.46
784.557	20214.92
784.89	20214.92
785.224	20116.84
785.557	19972.89
785.891	19903.06
786.224	19879.34
786.558	19852.9
786.891	19746.23
787.224	19576.75
787.557	19507.82
787.891	19539.46
788.224	19539.23
788.557	19468.27
788.89	19473.25
789.223	19370.87
789.556	19164.1
789.888	19120.71
790.221	19104.89
790.554	19065.8
790.887	19001.62
791.219	18785.81
791.552	18831
791.884	18725.92
792.217	18660.61
792.549	18759.59
792.882	18497.9
793.214	18461.52
793.546	18471.24
793.879	18352.82
794.211	18240.06
794.543	18237.12
794.875	18158.48
795.207	18245.25
795.539	18091.81
795.871	18068.99
796.203	18054.07
796.535	17900.41
796.867	17793.52
797.198	17826.96
797.53	17731.82
797.862	17621.99
798.193	17609.79
798.525	17588.77
798.856	17601.66
799.188	17403.02
799.519	17344.71
799.85	17283.7
800.182	17235.11
800.513	17343.13
800.844	17082.57
801.175	17187.88
801.506	17136.36
801.837	17051.84
802.168	17016.59
802.499	16807.55
802.83	16846.87
803.161	16718.29
803.491	16741.34
803.822	16801.22
804.153	16697.72
804.483	16633.09
804.814	16550.61
805.145	16563.94
805.475	16452.31
805.805	16390.84
806.136	16472.87
806.466	16337.96
806.796	16342.25
807.126	16163.05
807.457	16143.16
807.787	16154.01
808.117	16062.49
808.447	15987.24
808.777	16109.27
809.107	15923.73
809.436	15920.12
809.766	15938.42
810.096	15814.58
810.426	15676.06
810.755	15815.49
811.085	15785.43
811.414	15743.63
811.744	15621.59
812.073	15586.34
812.403	15459.11
812.732	15454.14
813.061	15475.16
813.39	15417.31
813.719	15377.31
814.049	15443.52
814.378	15363.07
814.707	15224.09
815.036	15255.05
815.365	15085.56
815.693	14987.26
816.022	15022.51
816.351	14985.91
816.68	14965.34
817.008	14951.1
817.337	14803.54
817.665	14796.53
817.994	14881.05
818.322	14732.58
818.651	14732.58
818.979	14629.3
819.307	14810.32
819.636	14642.19
819.964	14582.07
820.292	14654.16
820.62	14669.3
820.948	14495.52
821.276	14633.82
821.604	14575.97
821.932	14563.77
822.259	14583.66
822.587	14549.76
822.915	14458.91
823.243	14536.43
823.57	14461.85
823.898	14515.18
824.225	14440.83
824.553	14393.6
824.88	14479.48
825.207	14485.58
825.535	14467.5
825.862	14478.12
826.189	14446.26
826.516	14475.64
826.843	14543.88
827.17	14523.32
827.497	14531.45
827.824	14432.7
828.151	14469.99
828.478	14512.25
828.805	14505.24
829.131	14429.99
829.458	14415.52
829.785	14353.61
830.111	14419.59
830.438	14491.23
830.764	14410.78
831.09	14502.98
831.417	14375.07
831.743	14424.11
832.069	14443.09
832.395	14344.57
832.722	14417.11
833.048	14332.36
833.374	14357.22
833.7	14293.95
834.026	14334.85
834.351	14338.01
834.677	14322.65
835.003	14391.12
835.329	14284
835.654	14196.55
835.98	14151.35
836.306	14218.24
836.631	14179.15
836.956	14263.44
837.282	14163.78
837.607	14126.49
837.932	14060.96
838.258	14113.39
838.583	14061.18
838.908	13910.45
839.233	14004.46
839.558	13957.91
839.883	13868.87
840.208	13864.13
840.533	13846.95
840.858	13858.03
841.182	13844.01
841.507	13782.55
841.832	13698.93
842.156	13665.49
842.481	13672.27
842.805	13693.74
843.13	13688.54
843.454	13695.32
843.778	13601.31
844.103	13615.55
844.427	13637.01
844.751	13564.25
845.075	13480.41
845.399	13470.24
845.723	13338.72
846.047	13370.13
846.371	13339.4
846.695	13297.14
847.019	13142.79
847.343	13096.01
847.666	13086.07
847.99	13007.65
848.313	13000.19
848.637	12908.45
848.96	12873.87
849.284	12804.72
849.607	12769.92
849.931	12757.94
850.254	12770.82
850.577	12627.1
850.9	12502.13
851.223	12605.63
851.546	12469.81
851.869	12307.11
852.192	12504.16
852.515	12273.21
852.838	12195.47
853.161	12256.94
853.483	12127
853.806	12082.93
854.129	12137.17
854.451	12087.68
854.774	12009.26
855.096	11932.43
855.419	11951.86
855.741	11898.98
856.063	11856.04
856.385	11824.63
856.708	11758.19
857.03	11755.03
857.352	11712.77
857.674	11661.25
857.996	11699.66
858.318	11600.01
858.64	11609.27
858.961	11471.65
859.283	11457.18
859.605	11402.72
859.926	11463.74
860.248	11361.59
860.57	11319.79
860.891	11360.69
861.212	11273.91
861.534	11234.14
861.855	11171.32
862.176	11275.72
862.498	11282.73
862.819	11185.33
863.14	11149.17
863.461	11088.83
863.782	11154.37
864.103	11198.21
864.424	11059
864.745	11068.95
865.065	10989.85
865.386	10970.87
865.707	10979.23
866.027	10994.82
866.348	10934.03
866.668	10900.14
866.989	10955.95
867.309	10820.37
867.63	10819.91
867.95	10830.53
868.27	10853.58
868.59	10787.82
868.91	10809.29
869.23	10833.7
869.55	10704.21
869.87	10741.95
870.19	10734.27
870.51	10694.04
870.83	10702.4
871.15	10766.13
871.469	10694.49
871.789	10667.37
872.109	10609.07
872.428	10607.26
872.748	10598
873.067	10586.93
873.386	10663.99
873.706	10548.51
874.025	10556.19
874.344	10415.86
874.663	10508.96
874.982	10542.41
875.301	10485.91
875.62	10426.48
875.939	10445.01
876.258	10484.33
876.577	10377.21
876.896	10453.6
877.214	10240.72
877.533	10407.27
877.852	10294.28
878.17	10301.96
878.489	10282.3
878.807	10332.24
879.125	10283.88
879.444	10249.76
879.762	10179.93
880.08	10200.04
880.398	10151.91
880.716	10179.48
881.034	10159.37
881.352	10154.85
881.67	10099.93
881.988	10041.18
882.306	10005.7
882.624	9990.1
882.941	9970.67
883.259	9926.83
883.577	9873.72
883.894	9864.23
884.212	9881.86
884.529	9900.62
884.846	9855.87
885.164	9871.24
885.481	9795.76
885.798	9799.6
886.115	9767.96
886.432	9787.4
886.75	9779.26
887.067	9694.97
887.383	9700.85
887.7	9677.12
888.017	9608.87
888.334	9625.37
888.651	9531.59
888.967	9621.75
889.284	9539.27
889.6	9508.08
889.917	9420.85
890.233	9493.85
890.55	9399.39
890.866	9434.19
891.182	9382.21
891.498	9356.9
891.815	9314.87
892.131	9262.44
892.447	9282.1
892.763	9233.06
893.079	9236.68
893.395	9186.06
893.71	9160.52
894.026	9115.1
894.342	9116
894.657	9062.45
894.973	9102.44
895.289	9004.59
895.604	9008.21
895.92	8887.31
896.235	8898.61
896.55	8937.25
896.865	8937.02
897.181	8897.25
897.496	8829.91
897.811	8814.54
898.126	8764.6
898.441	8819.74
898.756	8716.24
899.071	8660.65
899.386	8631.04
899.7	8544.94
900.015	8542.68
900.33	8473.76
900.644	8493.65
900.959	8520.09
901.273	8504.72
901.588	8401.67
901.902	8331.17
902.216	8331.39
902.531	8337.49
902.845	8313.99
903.159	8259.08
903.473	8238.06
903.787	8168.46
904.101	8162.58
904.415	8178.17
904.729	8163.94
905.042	8078.74
905.356	8093.66
905.67	8030.38
905.984	8015.69
906.297	7987.9
906.611	7939.31
906.924	7972.76
907.237	7900.89
907.551	7910.16
907.864	7839.88
908.177	7833.33
908.491	7828.35
908.804	7756.26
909.117	7667.91
909.43	7634.69
909.743	7594.91
910.056	7658.64
910.368	7626.55
910.681	7579.55
910.994	7572.09
911.307	7490.28
911.619	7460.68
911.932	7469.49
912.244	7412.77
912.557	7347.91
912.869	7303.17
913.181	7323.73
913.494	7279.67
913.806	7221.14
914.118	7205.55
914.43	7181.59
914.742	7131.2
915.054	7115.15
915.366	7160.57
915.678	7059.33
915.99	7020.01
916.302	6959.22
916.613	6996.96
916.925	6953.35
917.236	6933.69
917.548	6873.58
917.859	6921.71
918.171	6879.68
918.482	6764.2
918.794	6771.88
919.105	6729.63
919.416	6730.08
919.727	6695.05
920.038	6691.43
920.349	6640.36
920.66	6609.4
920.971	6637.88
921.282	6588.39
921.593	6527.82
921.903	6456.41
922.214	6452.12
922.525	6408.96
922.835	6379.35
923.146	6400.59
923.456	6333.03
923.767	6288.96
924.077	6322.4
924.387	6283.76
924.697	6262.52
925.008	6256.42
925.318	6217.77
925.628	6189.53
925.938	6168.06
926.248	6117.66
926.558	6035.18
926.867	6043.09
927.177	6085.12
927.487	6010.55
927.796	5955.41
928.106	5942.98
928.416	5949.53
928.725	5901.62
929.034	5869.53
929.344	5906.82
929.653	5862.76
929.962	5810.1
930.271	5802.42
930.581	5724.23
930.89	5728.3
931.199	5672.25
931.508	5742.98
931.817	5670.9
932.125	5617.11
932.434	5634.06
932.743	5565.36
933.051	5568.98
933.36	5523.78
933.669	5449.66
933.977	5488.3
934.286	5511.58
934.594	5444.01
934.902	5404.46
935.21	5434.07
935.519	5447.63
935.827	5381.86
936.135	5290.57
936.443	5320.17
936.751	5316.33
937.059	5246.95
937.367	5244.01
937.674	5201.3
937.982	5169.21
938.29	5163.56
938.597	5171.47
938.905	5120.85
939.213	5122.21
939.52	5069.56
939.827	5024.81
940.135	5020.07
940.442	4996.11
940.749	5012.16
941.056	5034.98
941.363	4911.37
941.67	4918.6
941.977	4877.02
942.284	4889.9
942.591	4913.4
942.898	4845.38
943.205	4863.69
943.511	4818.94
943.818	4798.38
944.125	4795.66
944.431	4790.24
944.738	4714.09
945.044	4703.69
945.35	4683.8
945.657	4660.75
945.963	4581.89
946.269	4558.38
946.575	4587.31
946.881	4575.33
947.187	4560.19
947.493	4540.53
947.799	4523.36
948.105	4514.99
948.41	4520.19
948.716	4474.77
949.022	4457.59
949.327	4396.13
949.633	4392.29
949.938	4410.36
950.244	4465.96
950.549	4295.11
950.854	4341.44
951.16	4364.94
951.465	4291.72
951.77	4250.14
952.075	4268.67
952.38	4248.56
952.685	4269.13
952.99	4166.98
953.294	4186.42
953.599	4167.43
953.904	4149.58
954.209	4100.09
954.513	4120.65
954.818	4103.03
955.122	4064.61
955.426	4049.47
955.731	4064.61
956.035	4011.96
956.339	3999.3
956.643	3986.65
956.948	3970.38
957.252	3911.39
957.556	3903.94
957.86	3937.83
958.163	3927.89
958.467	3882.92
958.771	3877.95
959.075	3879.98
959.378	3882.47
959.682	3824.16
959.985	3793.21
960.289	3778.52
960.592	3790.04
960.896	3713.43
961.199	3714.56
961.502	3747.78
961.805	3724.05
962.108	3682.02
962.411	3628.01
962.714	3619.65
963.017	3642.02
963.32	3616.49
963.623	3586.43
963.926	3654
964.228	3569.71
964.531	3574.68
964.833	3524.74
965.136	3519.77
965.438	3510.27
965.741	3503.72
966.043	3476.6
966.345	3477.96
966.648	3475.7
966.95	3431.41
967.252	3425.76
967.554	3352.09
967.856	3408.13
968.158	3396.83
968.46	3378.75
968.761	3335.14
969.063	3331.52
969.365	3315.7
969.666	3316.83
969.968	3297.4
970.269	3329.49
970.571	3269.83
970.872	3249.49
971.174	3255.14
971.475	3240.23
971.776	3203.84
972.077	3188.48
972.378	3185.31
972.679	3212.88
972.98	3155.03
973.281	3194.58
973.582	3136.27
973.883	3120.68
974.183	3126.1
974.484	3090.4
974.785	3121.36
975.085	3068.03
975.386	3014.02
975.686	3051.08
975.986	3002.27
976.287	3007.69
976.587	2962.94
976.887	2971.98
977.187	2963.17
977.487	2951.42
977.787	2928.14
978.087	2935.83
978.387	2921.14
978.687	2896.96
978.987	2875.72
979.286	2890.86
979.586	2870.07
979.885	2832.78
980.185	2835.49
980.484	2815.83
980.784	2858.99
981.083	2818.32
981.382	2799.33
981.682	2769.96
981.981	2771.54
982.28	2773.12
982.579	2720.69
982.878	2736.28
983.177	2710.97
983.475	2710.97
983.774	2700.35
984.073	2685.89
984.372	2658.09
984.67	2662.39
984.969	2653.57
985.267	2666.23
985.566	2617.42
985.864	2596.63
986.162	2602.73
986.461	2585.33
986.759	2569.73
987.057	2570.86
987.355	2526.57
987.653	2576.74
987.951	2500.58
988.249	2517.53
988.547	2498.32
988.844	2483.64
989.142	2499
989.44	2477.31
989.737	2493.35
990.035	2454.03
990.332	2430.08
990.63	2454.48
990.927	2415.84
991.224	2425.33
991.521	2403.86
991.819	2400.47
992.116	2353.7
992.413	2380.14
992.71	2350.53
993.006	2372.45
993.303	2327.48
993.6	2335.62
993.897	2340.81
994.193	2279.57
994.49	2282.28
994.787	2307.37
995.083	2236.18
995.379	2249.74
995.676	2242.74
995.972	2248.84
996.268	2216.75
996.565	2209.07
996.861	2195.96
997.157	2167.71
997.453	2178.78
997.749	2194.6
998.044	2133.81
998.34	2179.01
998.636	2138.56
998.932	2126.36
999.227	2092.46
999.523	2131.78
999.818	2098.79
1000.114	2072.8
1000.409	2081.84
1000.704	2076.41
1001	2049.3
1001.295	2058.34
1001.59	2044.78
1001.885	2012.69
1002.18	2005
1002.475	1987.38
1002.77	1970.2
1003.065	1961.84
1003.359	1967.04
1003.654	1951.45
1003.949	1945.8
1004.243	1967.94
1004.538	1930.88
1004.832	1894.5
1005.127	1887.04
1005.421	1886.36
1005.715	1880.49
1006.009	1864.44
1006.304	1880.71
1006.598	1866.02
1006.892	1866.48
1007.186	1843.88
1007.48	1800.72
1007.773	1808.85
1008.067	1801.62
1008.361	1787.16
1008.655	1785.35
1008.948	1798.46
1009.242	1780.38
1009.535	1757.1
1009.829	1760.49
1010.122	1776.99
1010.415	1726.82
1010.708	1695.86
1011.001	1718.23
1011.295	1678.01
1011.588	1652.47
1011.881	1693.83
1012.173	1662.87
1012.466	1648.85
1012.759	1656.31
1013.052	1647.95
1013.344	1629.19
1013.637	1620.16
1013.93	1600.27
1014.222	1606.6
1014.514	1600.27
1014.807	1561.63
1015.099	1551.23
1015.391	1532.25
1015.683	1562.53
1015.976	1541.51
1016.268	1514.62
1016.56	1514.4
1016.851	1511.01
1017.143	1529.99
1017.435	1488.86
1017.727	1504.23
1018.018	1465.81
1018.31	1449.54
1018.602	1463.78
1018.893	1430.56
1019.185	1455.87
1019.476	1447.73
1019.767	1412.7
1020.058	1404.34
1020.35	1370.67
1020.641	1406.15
1020.932	1394.4
1021.223	1367.96
1021.514	1365.7
1021.804	1360.27
1022.095	1315.3
1022.386	1331.8
1022.677	1330.22
1022.967	1292.93
1023.258	1319.15
1023.548	1312.59
1023.839	1295.19
1024.129	1275.53
1024.419	1286.83
1024.709	1289.54
1025	1276.21
1025.29	1261.97
1025.58	1270.11
1025.87	1243.22
1026.16	1232.82
1026.449	1246.15
1026.739	1217.91
1027.029	1198.47
1027.319	1200.96
1027.608	1220.84
1027.898	1189.43
1028.187	1181.3
1028.477	1177.68
1028.766	1158.92
1029.055	1178.58
1029.344	1154.63
1029.634	1131.81
1029.923	1157.12
1030.212	1141.3
1030.501	1130.22
1030.79	1124.12
1031.078	1112.6
1031.367	1105.37
1031.656	1107.4
1031.945	1072.15
1032.233	1081.64
1032.522	1092.71
1032.81	1065.82
1033.099	1037.8
1033.387	1064.92
1033.675	1045.48
1033.963	1045.26
1034.251	1012.94
1034.54	1011.36
1034.828	1033.96
1035.116	1012.26
1035.403	1011.58
1035.691	975.88
1035.979	995.31
1036.267	978.82
1036.554	973.39
1036.842	968.42
1037.129	960.06
1037.417	938.59
1037.704	953.73
1037.992	933.39
1038.279	950.79
1038.566	908.31
1038.853	908.31
1039.14	908.31
