Data from hue_350_FLMS001491_42.txt Node
Date: Mon Feb 06 15:38:04 GMT 2017
User: dcchb
Spectrometer: FLMS00149
Trigger mode: 0
Integration Time (sec): 2.000000E-2
Scans to average: 10
Electric dark correction enabled: true
Nonlinearity correction enabled: false
Boxcar width: 0
XAxis mode: Wavelengths
Number of Pixels in Spectrum: 2048
>>>>>Begin Spectral Data<<<<<
341.393	-1.64
341.776	-1.64
342.16	-1.64
342.543	-63.78
342.927	-94.07
343.31	-59.72
343.693	-61.07
344.077	-74.18
344.46	-73.73
344.843	-69.89
345.226	-37.57
345.61	-27.4
345.993	-14.52
346.376	11.24
346.759	3.79
347.142	22.77
347.525	44.24
347.908	58.7
348.291	75.2
348.674	98.02
349.057	104.12
349.44	137.34
349.823	147.51
350.206	155.87
350.588	186.61
350.971	199.03
351.354	221.41
351.737	231.35
352.119	227.73
352.502	260.28
352.884	276.09
353.267	271.8
353.65	283.33
354.032	311.12
354.414	306.15
354.797	303.66
355.179	314.96
355.562	292.14
355.944	315.42
356.326	334.62
356.709	327.62
357.091	324
357.473	325.58
357.855	327.39
358.238	341.86
358.62	334.62
359.002	341.18
359.384	316.32
359.766	332.59
360.148	320.84
360.53	337.79
360.912	341.63
361.294	348.86
361.676	313.38
362.057	335.75
362.439	320.61
362.821	340.73
363.203	328.52
363.584	316.09
363.966	311.8
364.348	310.44
364.729	320.61
365.111	311.57
365.493	317.22
365.874	328.97
366.256	301.63
366.637	330.56
367.019	303.66
367.4	309.31
367.781	320.61
368.163	290.78
368.544	332.14
368.925	319.71
369.306	332.14
369.688	331.69
370.069	286.04
370.45	315.42
370.831	302.08
371.212	308.41
371.593	319.03
371.974	305.92
372.355	319.03
372.736	322.19
373.117	322.19
373.498	296.21
373.879	310.9
374.26	324.68
374.641	319.48
375.021	307.05
375.402	314.51
375.783	309.99
376.163	305.92
376.544	312.93
376.925	305.7
377.305	325.36
377.686	308.86
378.066	323.1
378.447	326.04
378.827	323.1
379.208	346.38
379.588	317.45
379.968	338.47
380.349	330.1
380.729	317
381.109	335.3
381.489	324.45
381.87	309.77
382.25	351.12
382.63	338.24
383.01	312.93
383.39	326.94
383.77	327.39
384.15	337.56
384.53	335.08
384.91	323.32
385.29	325.58
385.67	345.25
386.049	335.75
386.429	353.61
386.809	348.63
387.189	330.1
387.568	338.24
387.948	352.93
388.328	357.9
388.707	345.25
389.087	327.17
389.466	349.76
389.846	331.01
390.225	355.19
390.605	341.18
390.984	375.3
391.363	352.93
391.743	355.87
392.122	362.42
392.501	361.29
392.881	371.01
393.26	351.12
393.639	354.06
394.018	355.41
394.397	333.72
394.776	380.05
395.155	362.19
395.534	339.6
395.913	363.78
396.292	381.18
396.671	381.18
397.05	369.43
397.429	388.63
397.808	366.49
398.186	373.49
398.565	373.72
398.944	372.82
399.323	378.69
399.701	354.28
400.08	366.71
400.458	368.07
400.837	396.54
401.215	396.54
401.594	387.28
401.972	384.11
402.351	378.46
402.729	365.36
403.107	389.31
403.486	389.99
403.864	382.76
404.242	393.15
404.62	386.37
404.999	400.38
405.377	375.3
405.755	400.61
406.133	392.93
406.511	389.99
406.889	414.4
407.267	412.59
407.645	419.59
408.023	418.46
408.401	424.11
408.779	437.22
409.156	442.19
409.534	442.87
409.912	434.96
410.29	420.95
410.667	445.58
411.045	438.12
411.422	446.26
411.8	438.12
412.178	440.84
412.555	453.94
412.933	440.16
413.31	433.38
413.687	466.15
414.065	456.2
414.442	457.11
414.819	491
415.197	491.91
415.574	478.35
415.951	485.58
416.328	504.79
416.705	474.28
417.082	488.07
417.46	485.58
417.837	483.32
418.214	486.71
418.591	480.38
418.967	502.98
419.344	505.69
419.721	497.11
420.098	495.07
420.475	515.18
420.852	503.89
421.228	518.57
421.605	508.18
421.982	532.36
422.358	508.18
422.735	536.2
423.111	526.48
423.488	533.71
423.864	527.84
424.241	549.53
424.617	552.02
424.994	560.83
425.37	567.84
425.746	563.77
426.123	552.7
426.499	552.7
426.875	573.71
427.251	580.04
427.627	543.21
428.003	592.92
428.379	595.41
428.756	591.57
429.132	582.98
429.507	607.84
429.883	601.74
430.259	619.14
430.635	605.13
431.011	616.42
431.387	620.04
431.763	648.74
432.138	635.18
432.514	628.18
432.89	645.12
433.265	653.03
433.641	665.91
434.016	634.05
434.392	671.11
434.767	676.31
435.143	685.12
435.518	674.95
435.894	693.71
436.269	698.46
436.644	706.37
437.02	683.32
437.395	696.87
437.77	712.02
438.145	721.96
438.52	696.87
438.895	728.06
439.271	746.36
439.646	742.07
440.021	732.81
440.395	742.3
440.77	759.7
441.145	752.01
441.52	767.61
441.895	740.94
442.27	740.49
442.645	776.87
443.019	753.82
443.394	779.58
443.769	769.87
444.143	779.81
444.518	784.78
444.892	792.01
445.267	816.19
445.641	807.38
446.016	826.81
446.39	790.21
446.764	805.35
447.139	816.42
447.513	820.26
447.887	812.58
448.262	816.87
448.636	828.85
449.01	820.71
449.384	828.17
449.758	829.75
450.132	850.32
450.506	835.4
450.88	832.24
451.254	855.29
451.628	862.97
452.002	860.26
452.376	883.76
452.75	883.76
453.123	877.21
453.497	880.15
453.871	884.89
454.244	906.59
454.618	900.48
454.992	899.58
455.365	908.85
455.739	922.18
456.112	975.74
456.486	936.87
456.859	965.34
457.232	960.82
457.606	959.47
457.979	966.7
458.352	984.1
458.725	991.56
459.099	993.59
459.472	1022.74
459.845	1023.65
460.218	1051.22
460.591	1012.35
460.964	1030.88
461.337	1059.58
461.71	1062.06
462.083	1087.6
462.456	1095.51
462.829	1082.4
463.201	1102.51
463.574	1090.54
463.947	1116.75
464.32	1131.89
464.692	1163.75
465.065	1149.52
465.438	1176.41
465.81	1165.56
466.183	1193.13
466.555	1233.58
466.928	1195.39
467.3	1209.63
467.672	1222.74
468.045	1254.6
468.417	1275.16
468.789	1240.14
469.161	1264.54
469.534	1280.14
469.906	1320.59
470.278	1347.03
470.65	1375.95
471.022	1378.44
471.394	1405.56
471.766	1379.34
472.138	1425.44
472.51	1433.13
472.882	1455.27
473.253	1512.9
473.625	1485.78
473.997	1530.75
474.369	1540.92
474.74	1557.19
475.112	1571.43
475.484	1602.84
475.855	1636.96
476.227	1631.99
476.598	1654.59
476.97	1706.34
477.341	1747.69
477.713	1734.14
478.084	1741.37
478.455	1831.08
478.827	1802.38
479.198	1855.26
479.569	1883.51
479.94	1908.37
480.311	1951.98
480.682	1948.82
481.053	2011.64
481.424	2057.06
481.795	2098.65
482.166	2118.76
482.537	2159.89
482.908	2152.2
483.279	2197.4
483.65	2234.91
484.021	2283.05
484.391	2314.91
484.762	2334.57
485.133	2345.42
485.503	2366.43
485.874	2433.78
486.244	2468.35
486.615	2519.88
486.985	2549.93
487.356	2563.49
487.726	2624.06
488.097	2694.34
488.467	2709.48
488.837	2725.07
489.207	2755.35
489.578	2833.09
489.948	2823.15
490.318	2875.35
490.688	2901.34
491.058	2926.19
491.428	2926.87
491.798	3003.71
492.168	3017.04
492.538	3043.48
492.908	3098.39
493.278	3171.39
493.648	3204.83
494.017	3215
494.387	3223.81
494.757	3251.16
495.126	3295.22
495.496	3311.72
495.866	3346.52
496.235	3339.29
496.605	3396.01
496.974	3402.57
497.344	3452.96
497.713	3457.25
498.082	3462.45
498.452	3518.27
498.821	3541.09
499.19	3544.71
499.559	3593.52
499.928	3576.57
500.298	3633.75
500.667	3653.18
501.036	3629.9
501.405	3709
501.774	3693.86
502.143	3726.85
502.512	3745.83
502.88	3773.18
503.249	3785.83
503.618	3747.42
503.987	3815.44
504.356	3841.88
504.724	3891.59
505.093	3855.66
505.462	3886.62
505.83	3925.04
506.199	3930.46
506.567	3944.02
506.936	3970.69
507.304	4008.88
507.672	4005.49
508.041	4064.7
508.409	4058.14
508.777	4087.52
509.145	4136.78
509.514	4118.03
509.882	4117.35
510.25	4135.65
510.618	4152.83
510.986	4157.8
511.354	4165.48
511.722	4273.05
512.09	4212.49
512.458	4271.02
512.826	4285.48
513.193	4266.05
513.561	4232.15
513.929	4266.05
514.297	4264.46
514.664	4396.66
515.032	4374.97
515.4	4403.22
515.767	4437.34
516.135	4374.97
516.502	4336.55
516.869	4421.3
517.237	4436.66
517.604	4433.95
517.972	4472.59
518.339	4492.71
518.706	4468.53
519.073	4452.03
519.44	4528.64
519.808	4559.82
520.175	4561.18
520.542	4553.27
520.909	4600.73
521.276	4557.34
521.643	4642.08
522.009	4652.02
522.376	4644.12
522.743	4684.11
523.11	4729.76
523.477	4795.3
523.843	4738.8
524.21	4810.21
524.577	4809.99
524.943	4819.93
525.31	4894.5
525.676	4894.96
526.043	4924.79
526.409	4936.76
526.776	5005.69
527.142	5014.27
527.508	5028.29
527.874	5038
528.241	5056.31
528.607	5068.06
528.973	5114.61
529.339	5139.92
529.705	5143.09
530.071	5227.6
530.437	5192.12
530.803	5211.56
531.169	5192.12
531.535	5275.51
531.901	5267.15
532.267	5308.28
532.632	5314.38
532.998	5360.93
533.364	5352.8
533.73	5371.55
534.095	5391.89
534.461	5411.1
534.826	5486.8
535.192	5450.2
535.557	5496.07
535.923	5495.17
536.288	5544.2
536.653	5555.05
537.019	5549.4
537.384	5649.06
537.749	5611.1
538.114	5626.91
538.479	5640.7
538.845	5711.66
539.21	5718.44
539.575	5689.96
539.94	5765.22
540.305	5795.5
540.67	5792.33
541.034	5799.79
541.399	5843.18
541.764	5851.32
542.129	5893.8
542.494	5924.76
542.858	5953.69
543.223	5973.57
543.587	5992.1
543.952	6044.3
544.316	6025.55
544.681	6030.29
545.045	6030.97
545.41	6114.13
545.774	6089.73
546.138	6145.54
546.503	6152.32
546.867	6159.56
547.231	6177.63
547.595	6198.65
547.959	6296.5
548.324	6264.41
548.688	6301.47
549.052	6305.99
549.416	6317.29
549.779	6332.21
550.143	6321.13
550.507	6402.71
550.871	6448.36
551.235	6428.02
551.599	6484.74
551.962	6463.28
552.326	6509.15
552.689	6527.46
553.053	6534.23
553.417	6554.35
553.78	6605.19
554.143	6601.13
554.507	6619.2
554.87	6655.36
555.234	6712.54
555.597	6665.76
555.96	6753.21
556.323	6745.08
556.686	6749.37
557.05	6724.74
557.413	6790.27
557.776	6791.18
558.139	6795.47
558.502	6839.99
558.865	6817.39
559.228	6880.89
559.59	6895.36
559.953	6883.38
560.316	6992.53
560.679	6937.39
561.041	6964.28
561.404	7050.15
561.767	7084.95
562.129	7034.33
562.492	7120.89
562.854	7113.43
563.217	7149.36
563.579	7170.83
563.941	7187.33
564.304	7178.96
564.666	7252.63
565.028	7316.36
565.39	7247.66
565.753	7355.46
566.115	7392.07
566.477	7372.41
566.839	7426.19
567.201	7384.61
567.563	7442.69
567.925	7562.68
568.287	7529.24
568.648	7438.39
569.01	7537.37
569.372	7627.99
569.734	7605.39
570.095	7665.73
570.457	7672.28
570.819	7752.51
571.18	7727.42
571.542	7830.02
571.903	7748.21
572.265	7892.84
572.626	7942.33
572.987	7942.56
573.349	8025.95
573.71	7998.6
574.071	8048.32
574.432	8104.14
574.794	8231.82
575.155	8270.69
575.516	8220.52
575.877	8325.6
576.238	8374.86
576.599	8456.44
576.96	8476.1
577.32	8628.64
577.681	8628.64
578.042	8745.93
578.403	8800.62
578.763	8868.18
579.124	8964.91
579.485	9120.16
579.845	9221.17
580.206	9266.59
580.566	9320.6
580.927	9478.56
581.287	9586.36
581.648	9729.63
582.008	9812.11
582.368	9933.24
582.728	10110.41
583.089	10215.72
583.449	10303.18
583.809	10511.08
584.169	10626.78
584.529	10811.41
584.889	10961.46
585.249	11150.61
585.609	11257.95
585.969	11552.63
586.329	11603.03
586.688	11863.59
587.048	12107.42
587.408	12213.86
587.768	12462.44
588.127	12697.24
588.487	12900.17
588.846	13283.44
589.206	13339.03
589.565	13606.82
589.925	13844.55
590.284	14134.04
590.643	14315.27
591.003	14670.29
591.362	14891.98
591.721	15182.14
592.08	15432.53
592.44	15696.93
592.799	16063.93
593.158	16332.17
593.517	16646.74
593.876	16861.87
594.235	17069.78
594.593	17487.85
594.952	17692.36
595.311	17934.16
595.67	18258.45
596.029	18657.08
596.387	18942.04
596.746	19294.13
597.104	19386.55
597.463	19745.64
597.822	20025.41
598.18	20246.64
598.538	20565.96
598.897	20947.64
599.255	21053.4
599.613	21640.96
599.972	21738.35
600.33	22059.93
600.688	22230.77
601.046	22673.92
601.404	22994.82
601.762	23205.44
602.12	23659.43
602.478	23917.05
602.836	24196.14
603.194	24304.16
603.552	24583.25
603.91	24829.8
604.268	25111.6
604.625	25318.83
604.983	25663.45
605.341	25888.08
605.698	26170.1
606.056	26533.03
606.413	26623.88
606.771	26963.53
607.128	27264.76
607.485	27327.36
607.843	27639.22
608.2	28031.3
608.557	28190.84
608.914	28284.85
609.272	28696.36
609.629	28956.7
609.986	29129.8
610.343	29299.29
610.7	29645.72
611.057	29904.92
611.414	30076.89
611.771	30167.74
612.127	30467.62
612.484	30682.3
612.841	30953.93
613.198	31054.95
613.554	31128.84
613.911	31485.22
614.267	31574.25
614.624	31875.04
614.98	31797.98
615.337	32203.62
615.693	32332.65
616.05	32315.48
616.406	32933.99
616.762	32849.48
617.118	32950.26
617.475	33083.14
617.831	33411.72
618.187	33459.85
618.543	33549.57
618.899	33947.98
619.255	33986.17
619.611	33882.44
619.967	34220.51
620.323	34410.11
620.678	34320.17
621.034	34447.63
621.39	34633.61
621.746	34559.71
622.101	35168.28
622.457	34799.93
622.812	35062.07
623.168	35260.26
623.523	35361.95
623.879	35623.41
624.234	35354.95
624.589	35626.8
624.945	35757.42
625.3	35707.48
625.655	35858.89
626.01	35987.47
626.365	36162.61
626.72	36130.29
627.075	36178.65
627.43	36296.62
627.785	36271.08
628.14	36373.22
628.495	36513.11
628.85	36502.71
629.205	36376.61
629.559	36753.33
629.914	36621.58
630.269	36680.56
630.623	36589.49
630.978	36503.62
631.332	36769.82
631.687	36876.71
632.041	36690.28
632.396	36853.66
632.75	36749.94
633.104	36973.89
633.459	36727.34
633.813	36916.03
634.167	36903.83
634.521	36874.23
634.875	36843.27
635.229	36876.04
635.583	36785.64
635.937	36724.63
636.291	36965.75
636.645	36963.27
636.999	36842.14
637.352	36977.28
637.706	36785.87
638.06	37046.88
638.413	36880.56
638.767	36830.16
639.121	36892.76
639.474	36680.33
639.828	36761.91
640.181	36748.13
640.534	36939.76
640.888	36762.14
641.241	36493.22
641.594	36661.8
641.947	36890.72
642.301	36772.76
642.654	36687.79
643.007	36836.26
643.36	36843.72
643.713	36719.2
644.066	36907.67
644.419	36638.08
644.771	36450.06
645.124	36103.18
645.477	36109.95
645.83	35809.62
646.182	35711.09
646.535	35818.21
646.888	35809.62
647.24	35646.92
647.593	35921.26
647.945	35741.83
648.298	35613.02
648.65	35462.74
649.002	35473.36
649.355	35570.99
649.707	35637.2
650.059	35761.49
650.411	36107.24
650.763	36172.33
651.115	36478.08
651.467	36425.88
651.819	36322.15
652.171	36443.28
652.523	36296.16
652.875	36252.55
653.227	36190.86
653.578	36431.08
653.93	36311.08
654.282	36230.18
654.633	36144.53
654.985	36194.25
655.337	36195.6
655.688	36256.62
656.039	36232.21
656.391	35926.91
656.742	35961.48
657.094	36102.5
657.445	36224.98
657.796	36094.59
658.147	36227.92
658.498	35993.57
658.849	36119.45
659.2	36019.79
659.551	36042.61
659.902	36192.89
660.253	36104.76
660.604	36096.17
660.955	35977.08
661.306	36066.57
661.656	36121.71
662.007	36061.82
662.358	35973.23
662.708	35990.64
663.059	36065.21
663.409	35688.04
663.76	36000.8
664.11	35960.81
664.461	35998.09
664.811	36168.48
665.161	36031.76
665.511	35853.24
665.862	35973.46
666.212	36059.56
666.562	36048.71
666.912	35999.67
667.262	35774.6
667.612	36001.48
667.962	35905.44
668.312	35990.18
668.662	36012.78
669.011	36041.26
669.361	35856.85
669.711	35907.47
670.06	35889.85
670.41	35816.4
670.76	35719.46
671.109	35828.15
671.459	35810.3
671.808	35724.2
672.157	35923.97
672.507	35663.19
672.856	35684.43
673.205	35729.85
673.554	35836.06
673.904	35724.43
674.253	35809.4
674.602	35676.29
674.951	35137.78
675.3	35012.58
675.649	35682.85
675.998	35625.67
676.346	35581.38
676.695	35748.38
677.044	35451.67
677.393	35516.75
677.741	35479.69
678.09	35473.14
678.438	35408.28
678.787	35474.04
679.135	35394.95
679.484	35111.56
679.832	35283.08
680.181	35195.63
680.529	35233.37
680.877	35223.65
681.225	35034.73
681.573	35307.72
681.922	34893.04
682.27	34981.85
682.618	34991.11
682.966	34826.6
683.314	34946.6
683.661	34855.3
684.009	34731.46
684.357	34625.93
684.705	34681.07
685.053	34618.69
685.4	34548.41
685.748	34447.63
686.095	34438.81
686.443	34185.49
686.79	34213.28
687.138	34336.44
687.485	34282.66
687.832	34208.76
688.18	34138.48
688.527	34030.01
688.874	33911.82
689.221	33946.85
689.568	33885.83
689.915	33799.73
690.262	33774.2
690.609	33736.46
690.956	33534.43
691.303	33527.42
691.65	33526.07
691.997	33433.41
692.344	33264.83
692.69	33211.95
693.037	33286.98
693.383	32841.79
693.73	33026.87
694.077	32860.1
694.423	32849.48
694.769	32719.31
695.116	32711.85
695.462	32690.61
695.808	32452.42
696.155	32601.57
696.501	32319.09
696.847	32343.95
697.193	32104.41
697.539	32209.27
697.885	32086.33
698.231	31974.02
698.577	31857.18
698.923	31910.06
699.269	31685.21
699.614	31573.58
699.96	31501.94
700.306	31572.9
700.651	31343.75
700.997	31324.32
701.342	31238.67
701.688	31283.87
702.033	31103.31
702.379	31148.28
702.724	30994.83
703.069	31098.56
703.415	30765.46
703.76	30727.72
704.105	30682.98
704.45	30662.19
704.795	30546.03
705.14	30297.9
705.485	30406.38
705.83	30269.2
706.175	30203.9
706.52	30214.74
706.865	30064.24
707.209	30097.01
707.554	29983.34
707.899	30054.97
708.243	29823.11
708.588	29835.09
708.932	29536.12
709.277	29621.09
709.621	29600.52
709.966	29360.53
710.31	29499.96
710.654	29363.01
710.998	29340.64
711.342	29328.89
711.687	29274.88
712.031	29089.12
712.375	29005.28
712.719	28970.93
713.063	28993.98
713.407	29054.32
713.75	28842.12
714.094	28885.51
714.438	28750.15
714.782	28847.77
715.125	28639.64
715.469	28689.13
715.812	28451.62
716.156	28396.94
716.499	28484.17
716.843	28490.04
717.186	28275.36
717.53	28390.84
717.873	28366.2
718.216	28238.98
718.559	28102.26
718.902	27930.28
719.246	28118.98
719.589	27997.17
719.932	27935.93
720.275	27867.91
720.617	27864.3
720.96	27776.61
721.303	27746.11
721.646	27802.6
721.989	27467.24
722.331	27589.95
722.674	27509.73
723.016	27620.46
723.359	27415.04
723.701	27566.68
724.044	27396.51
724.386	27232.67
724.729	27338.89
725.071	27163.75
725.413	27175.73
725.755	27258.21
726.097	27070.64
726.439	26937.77
726.782	27043.07
727.124	27079.23
727.465	26855.51
727.807	26895.28
728.149	26867.49
728.491	26912
728.833	26800.82
729.175	26789.52
729.516	26666.14
729.858	26674.27
730.199	26680.82
730.541	26518.12
730.882	26574.16
731.224	26622.97
731.565	26358.35
731.906	26408.06
732.248	26384.33
732.589	26319.25
732.93	26167.84
733.271	26234.06
733.612	26263.21
733.953	26282.42
734.294	26179.59
734.635	26128.52
734.976	25978.47
735.317	25963.1
735.658	26062.31
735.999	25888.53
736.339	25883.56
736.68	25947.06
737.021	25752.49
737.361	25844.24
737.702	25863.9
738.042	25731.47
738.383	25750.9
738.723	25799.04
739.063	25716.56
739.404	25676.33
739.744	25570.34
740.084	25496
740.424	25461.19
740.764	25456.68
741.104	25490.8
741.444	25265.04
741.784	25310.69
742.124	25375.55
742.464	25244.25
742.804	25222.33
743.143	25098.27
743.483	25242.67
743.823	24980.98
744.162	25083.13
744.502	25158.15
744.841	24910.93
745.181	25054.65
745.52	25011.49
745.86	25004.26
746.199	24951.38
746.538	24951.6
746.877	24946.18
747.216	24872.96
747.556	24859.4
747.895	24771.27
748.234	24734.43
748.573	24625.06
748.911	24706.19
749.25	24622.57
749.589	24573.31
749.928	24568.34
750.267	24620.09
750.605	24427.55
750.944	24411.28
751.283	24236.59
751.621	24387.32
751.96	24226.2
752.298	24277.27
752.636	24244.28
752.975	24145.07
753.313	23891.52
753.651	24181.23
753.989	24015.36
754.327	23935.81
754.666	23887.45
755.004	23887.23
755.342	23899.88
755.679	23815.59
756.017	23639.32
756.355	23668.02
756.693	23591.87
757.031	23605.88
757.368	23574.01
757.706	23496.5
758.044	23393.45
758.381	23426.9
758.719	23288.14
759.056	23276.17
759.394	23275.94
759.731	23094.93
760.068	23095.61
760.405	23006.12
760.743	22939.23
761.08	22915.73
761.417	22868.95
761.754	22741.49
762.091	22679.57
762.428	22665.79
762.765	22412.69
763.102	22534.04
763.438	22434.38
763.775	22404.78
764.112	22415.17
764.449	22286.82
764.785	22212.24
765.122	22073.94
765.458	21981.74
765.795	22015.41
766.131	21947.84
766.467	21850.44
766.804	21736.32
767.14	21587.85
767.476	21663.33
767.812	21591.69
768.148	21615.87
768.485	21424.46
768.821	21430.57
769.157	21279.16
769.492	21341.98
769.828	21256.56
770.164	20979.5
770.5	20951.71
770.836	20980.63
771.171	20791.49
771.507	20803.92
771.842	20615.22
772.178	20698.16
772.513	20613.64
772.849	20513.75
773.184	20501.78
773.519	20453.64
773.855	20341.78
774.19	20246.87
774.525	20189.02
774.86	20207.32
775.195	20097.04
775.53	19986.31
775.865	19922.81
776.2	19843.26
776.535	19761.68
776.87	19636.72
777.205	19621.57
777.539	19509.94
777.874	19494.35
778.209	19381.35
778.543	19326.89
778.878	19263.62
779.212	19167.12
779.547	19206.9
779.881	19129.38
780.215	18914.47
780.55	18993.12
780.884	18813.46
781.218	18865.66
781.552	18846.91
781.886	18676.29
782.22	18654.14
782.554	18610.3
782.888	18389.74
783.222	18410.53
783.556	18254.15
783.889	18173.02
784.223	18122.4
784.557	18041.73
784.89	18075.4
785.224	17914.05
785.557	17860.94
785.891	17948.85
786.224	17756.99
786.558	17757.67
786.891	17610.1
787.224	17622.98
787.557	17472.93
787.891	17520.84
788.224	17481.97
788.557	17474.74
788.89	17223.67
789.223	17320.39
789.556	17242.88
789.888	17132.83
790.221	17077.01
790.554	17028.65
790.887	16966.73
791.219	16949.33
791.552	16874.75
791.884	16666.62
792.217	16704.14
792.549	16593.41
792.882	16567.64
793.214	16542.33
793.546	16539.4
793.879	16351.83
794.211	16354.99
794.543	16326.07
794.875	16303.7
795.207	16333.3
795.539	16163.13
795.871	16256.69
796.203	16071.61
796.535	15951.84
796.867	15918.17
797.198	15934.44
797.53	15846.08
797.862	15803.37
798.193	15801.34
798.525	15776.48
798.856	15761.11
799.188	15590.04
799.519	15494
799.85	15464.62
800.182	15511.4
800.513	15467.56
800.844	15227.79
801.175	15371.52
801.506	15379.2
801.837	15184.63
802.168	15158.19
802.499	15107.34
802.83	15079.1
803.161	15085.2
803.491	15009.27
803.822	15020.34
804.153	14865.54
804.483	14800.68
804.814	14776.05
805.145	14685.66
805.475	14807.92
805.805	14676.62
806.136	14612.67
806.466	14611.31
806.796	14518.88
807.126	14495.83
807.457	14399.56
807.787	14427.81
808.117	14356.18
808.447	14274.14
808.777	14352.33
809.107	14312.11
809.436	14304.65
809.766	14254.71
810.096	14189.63
810.426	14152.57
810.755	14130.65
811.085	14066.47
811.414	14061.95
811.744	13939.69
812.073	13898.11
812.403	13905.11
812.732	13769.52
813.061	13870.31
813.39	13735.4
813.719	13803.42
814.049	13802.97
814.378	13770.65
814.707	13673.93
815.036	13631.45
815.365	13574.73
815.693	13506.26
816.022	13471.23
816.351	13395.52
816.68	13363.89
817.008	13343.77
817.337	13247.96
817.665	13309.65
817.994	13327.73
818.322	13286.15
818.651	13224.68
818.979	13146.04
819.307	13193.49
819.636	13205.47
819.964	13056.55
820.292	13074.18
820.62	13116.66
820.948	12986.27
821.276	13050
821.604	13002.99
821.932	13118.47
822.259	13088.64
822.587	12986.49
822.915	12991.69
823.243	12996.89
823.57	12944.91
823.898	12967.74
824.225	12955.08
824.553	12976.55
824.88	12973.16
825.207	12915.99
825.535	12883.45
825.862	12963.67
826.189	12918.93
826.516	12956.89
826.843	12990.56
827.17	12990.79
827.497	13010.22
827.824	13017.23
828.151	12963.44
828.478	12957.12
828.805	12992.37
829.131	12959.83
829.458	12811.13
829.785	12875.76
830.111	12871.24
830.438	12926.61
830.764	12899.04
831.09	12916.21
831.417	12877.57
831.743	12961.86
832.069	12906.27
832.395	12746.5
832.722	12888.64
833.048	12744.92
833.374	12803.9
833.7	12754.64
834.026	12759.16
834.351	12770.23
834.677	12847.52
835.003	12760.74
835.329	12747.4
835.654	12756.44
835.98	12679.84
836.306	12744.02
836.631	12632.38
836.956	12653.17
837.282	12627.86
837.607	12671.93
837.932	12568.88
838.258	12496.56
838.583	12542.66
838.908	12441.65
839.233	12567.75
839.558	12460.63
839.883	12463.34
840.208	12436.23
840.533	12395.55
840.858	12477.13
841.182	12356.45
841.507	12441.42
841.832	12247.08
842.156	12273.29
842.481	12293.63
842.805	12257.93
843.13	12167.31
843.454	12135.9
843.778	12185.61
844.103	12090.02
844.427	12157.82
844.751	12123.24
845.075	12036.01
845.399	12045.95
845.723	11963.47
846.047	11946.52
846.371	11829.91
846.695	11799.63
847.019	11724.38
847.343	11686.87
847.666	11633.08
847.99	11577.72
848.313	11662.69
848.637	11485.52
848.96	11494.33
849.284	11459.08
849.607	11378.63
849.931	11404.84
850.254	11256.82
850.577	11237.61
850.9	11114.23
851.223	11055.02
851.546	11059.31
851.869	11033.78
852.192	11077.84
852.515	11020.44
852.838	10959.43
853.161	10965.98
853.483	10887.34
853.806	10809.38
854.129	10836.95
854.451	10754.69
854.774	10750.17
855.096	10685.99
855.419	10595.15
855.741	10635.82
856.063	10558.08
856.385	10558.54
856.708	10497.07
857.03	10521.25
857.352	10516.05
857.674	10446.22
857.996	10399.22
858.318	10370.52
858.64	10353.8
858.961	10273.12
859.283	10266.11
859.605	10220.24
859.926	10297.3
860.248	10243.52
860.57	10163.97
860.891	10200.81
861.212	10106.57
861.534	10106.57
861.855	10065.22
862.176	10019.57
862.498	10048.04
862.819	10058.44
863.14	9978.89
863.461	9921.94
863.782	9938.67
864.103	9974.6
864.424	9900.25
864.745	9899.57
865.065	9866.8
865.386	9828.39
865.707	9766.69
866.027	9811.66
866.348	9833.36
866.668	9855.73
866.989	9761.72
867.309	9681.5
867.63	9726.92
867.95	9701.61
868.27	9587.94
868.59	9726.69
868.91	9623.65
869.23	9649.18
869.55	9639.24
869.87	9657.99
870.19	9579.35
870.51	9568.51
870.83	9620.03
871.15	9543.42
871.469	9516.98
871.789	9616.19
872.109	9531.22
872.428	9516.08
872.748	9479.47
873.067	9477.66
873.386	9503.87
873.706	9496.19
874.025	9382.07
874.344	9408.51
874.663	9424.78
874.982	9408.96
875.301	9349.75
875.62	9350.43
875.939	9309.3
876.258	9320.15
876.577	9291.22
876.896	9274.73
877.214	9239.7
877.533	9255.07
877.852	9209.19
878.17	9303.43
878.489	9213.71
878.807	9219.81
879.125	9210.1
879.444	9205.58
879.762	9134.39
880.08	9153.38
880.398	9121.51
880.716	9139.59
881.034	9050.33
881.352	9095.75
881.67	9047.39
881.988	9122.19
882.306	9023.89
882.624	8973.49
882.941	8883.1
883.259	8992.02
883.577	8916.32
883.894	8845.59
884.212	8893.27
884.529	8855.76
884.846	8867.51
885.164	8804.23
885.481	8817.11
885.798	8826.15
886.115	8735.76
886.432	8695.76
886.75	8679.49
887.067	8643.56
887.383	8641.52
887.7	8659.38
888.017	8647.85
888.334	8616.21
888.651	8570.57
888.967	8570.57
889.284	8562.88
889.6	8450.57
889.917	8440.4
890.233	8467.74
890.55	8428.87
890.866	8451.7
891.182	8452.38
891.498	8401.08
891.815	8384.58
892.131	8284.47
892.447	8301.42
892.763	8296.9
893.079	8274.75
893.395	8282.44
893.71	8219.16
894.026	8202.67
894.342	8145.72
894.657	8110.24
894.973	8047.87
895.289	8074.31
895.604	8039.28
895.92	7937.36
896.235	7974.88
896.55	7977.36
896.865	7924.71
897.181	7929.9
897.496	7949.11
897.811	7844.26
898.126	7831.15
898.441	7815.56
898.756	7804.71
899.071	7792.06
899.386	7723.81
899.7	7690.59
900.015	7604.04
900.33	7615.11
900.644	7620.08
900.959	7568.78
901.273	7532.63
901.588	7533.76
901.902	7485.17
902.216	7463.7
902.531	7493.53
902.845	7466.19
903.159	7442.46
903.473	7331.28
903.787	7300.99
904.101	7310.71
904.415	7343.25
904.729	7311.39
905.042	7251.05
905.356	7160.66
905.67	7225.74
905.984	7169.25
906.297	7165.4
906.611	7120.43
906.924	7091.73
907.237	7047.67
907.551	7018.52
907.864	7009.48
908.177	6973.55
908.491	7006.31
908.804	6993.66
909.117	6867.79
909.43	6925.86
909.743	6826.43
910.056	6810.16
910.368	6807.45
910.681	6766.09
910.994	6787.34
911.307	6679.32
911.619	6654.23
911.932	6651.97
912.244	6656.04
912.557	6603.84
912.869	6556.61
913.181	6583.05
913.494	6524.52
913.806	6475.03
914.118	6455.59
914.43	6451.98
914.742	6399.32
915.054	6393
915.366	6351.41
915.678	6318.42
915.99	6258.76
916.302	6308.03
916.613	6227.12
916.925	6232.77
917.236	6212.66
917.548	6138.31
917.859	6126.11
918.171	6078.2
918.482	6104.87
918.794	6084.98
919.105	6070.97
919.416	6033.91
919.727	6056.73
920.038	6001.82
920.349	5894.7
920.66	5929.05
920.971	5941.03
921.282	5869.39
921.593	5831.88
921.903	5767.25
922.214	5799.34
922.525	5752.11
922.835	5753.01
923.146	5747.59
923.456	5715.05
923.767	5712.56
924.077	5643.18
924.387	5655.61
924.697	5611.55
925.008	5626.69
925.318	5551.44
925.628	5514.37
925.938	5488.16
926.248	5488.16
926.558	5433.25
926.867	5481.83
927.177	5431.67
927.487	5417.43
927.796	5369.97
928.106	5333.14
928.416	5331.33
928.725	5300.82
929.034	5292.91
929.344	5285.91
929.653	5275.06
929.962	5223.08
930.271	5214.27
930.581	5155.74
930.89	5121.62
931.199	5124.1
931.508	5101.05
931.817	5123.65
932.125	5089.3
932.434	5055.18
932.743	5024.67
933.051	5002.75
933.36	5019.7
933.669	4945.8
933.977	4924.56
934.286	4929.98
934.594	4945.12
934.902	4858.57
935.21	4869.65
935.519	4846.82
935.827	4802.08
936.135	4821.74
936.443	4762.76
936.751	4699.71
937.059	4754.39
937.367	4662.87
937.674	4707.39
937.982	4674.4
938.29	4655.64
938.597	4631.91
938.905	4612.7
939.213	4600.73
939.52	4607.28
939.827	4565.02
940.135	4506.27
940.442	4549.65
940.749	4492.48
941.056	4480.5
941.363	4478.24
941.67	4426.04
941.977	4437.57
942.284	4388.3
942.591	4389.88
942.898	4337.91
943.205	4326.61
943.511	4326.84
943.818	4294.07
944.125	4280.51
944.431	4220.85
944.738	4279.15
945.044	4245.71
945.35	4230.34
945.657	4222.43
945.963	4193.96
946.269	4231.92
946.575	4188.08
946.881	4125.48
947.187	4127.52
947.493	4114.86
947.799	4101.98
948.105	4058.14
948.41	4019.72
948.716	4019.72
949.022	4014.3
949.327	4012.95
949.633	3945.38
949.938	3957.13
950.244	3961.65
950.549	3962.78
950.854	3911.25
951.16	3880.75
951.465	3816.79
951.77	3871.93
952.075	3805.49
952.38	3839.16
952.685	3838.26
952.99	3793.52
953.294	3753.97
953.599	3757.36
953.904	3744.48
954.209	3736.79
954.513	3689.34
954.818	3687.3
955.122	3667.42
955.426	3678.49
955.731	3643.69
956.035	3687.08
956.339	3618.61
956.643	3623.58
956.948	3563.01
957.252	3557.14
957.556	3554.88
957.86	3485.95
958.163	3514.43
958.467	3518.04
958.771	3537.7
959.075	3482.11
959.378	3478.5
959.682	3470.36
959.985	3457.71
960.289	3462.45
960.592	3421.55
960.896	3443.02
961.199	3397.14
961.502	3377.26
961.805	3346.07
962.108	3292.96
962.411	3288.22
962.714	3300.87
963.017	3282.34
963.32	3299.97
963.623	3231.72
963.926	3249.58
964.228	3229.69
964.531	3231.72
964.833	3204.61
965.136	3202.35
965.438	3179.75
965.741	3176.13
966.043	3139.97
966.345	3144.27
966.648	3170.93
966.95	3082.57
967.252	3105.4
967.554	3159.41
967.856	3104.27
968.158	3035.8
968.46	3051.84
968.761	3027.89
969.063	3013.65
969.365	2984.27
969.666	3008
969.968	2969.81
970.269	2953.09
970.571	2951.96
970.872	2919.87
971.174	2918.28
971.475	2943.37
971.776	2902.69
972.077	2897.49
972.378	2899.3
972.679	2875.35
972.98	2885.52
973.281	2858.4
973.582	2864.95
973.883	2803.49
974.183	2783.37
974.484	2799.87
974.785	2756.48
975.085	2768.68
975.386	2747.89
975.686	2712.64
975.986	2695.24
976.287	2719.87
976.587	2737.95
976.887	2671.06
977.187	2688.69
977.487	2658.18
977.787	2657.5
978.087	2619.99
978.387	2631.29
978.687	2663.38
978.987	2617.05
979.286	2608.46
979.586	2590.84
979.885	2593.1
980.185	2544.51
980.484	2534.34
980.784	2538.63
981.083	2531.4
981.382	2525.98
981.682	2511.29
981.981	2539.09
982.28	2516.94
982.579	2476.94
982.878	2476.26
983.177	2438.75
983.475	2452.08
983.774	2444.62
984.073	2431.29
984.372	2414.8
984.67	2404.4
984.969	2381.12
985.267	2386.32
985.566	2361.69
985.864	2384.29
986.162	2370.28
986.461	2349.26
986.759	2351.75
987.057	2314.46
987.355	2310.17
987.653	2269.26
987.951	2286.66
988.249	2306.55
988.547	2275.14
988.844	2244.86
989.142	2276.04
989.44	2251.18
989.737	2213.67
990.035	2225.42
990.332	2228.13
990.63	2183.61
990.927	2181.36
991.224	2158.98
991.521	2193.78
991.819	2166.21
992.116	2127.12
992.413	2134.12
992.71	2148.36
993.006	2112.2
993.303	2112.88
993.6	2089.15
993.897	2101.36
994.193	2082.83
994.49	2092.77
994.787	2036.5
995.083	2072.21
995.379	2064.3
995.676	2040.79
995.972	2065.88
996.268	2041.02
996.565	2001.7
996.861	2007.57
997.157	1977.97
997.453	1995.15
997.749	1992.66
998.044	1947.24
998.34	1970.74
998.636	1961.7
998.932	1963.73
999.227	1923.73
999.523	1949.27
999.818	1897.29
1000.114	1946.11
1000.409	1874.7
1000.704	1856.39
1001	1845.32
1001.295	1859.56
1001.59	1852.78
1001.885	1840.35
1002.18	1826.56
1002.475	1806.45
1002.77	1817.07
1003.065	1780.46
1003.359	1800.57
1003.654	1775.49
1003.949	1804.42
1004.243	1772.1
1004.538	1703.4
1004.832	1742.72
1005.127	1746.11
1005.421	1714.47
1005.715	1725.55
1006.009	1669.28
1006.304	1671.31
1006.598	1668.37
1006.892	1657.75
1007.186	1650.75
1007.48	1633.8
1007.773	1640.35
1008.067	1622.95
1008.361	1627.02
1008.655	1630.64
1008.948	1605.55
1009.242	1628.6
1009.535	1622.05
1009.829	1597.64
1010.122	1560.13
1010.415	1569.62
1010.708	1552.45
1011.001	1544.54
1011.295	1537.3
1011.588	1538.66
1011.881	1551.32
1012.173	1533.01
1012.466	1512.22
1012.759	1500.24
1013.052	1510.19
1013.344	1496.18
1013.637	1476.29
1013.93	1476.74
1014.222	1463.63
1014.514	1463.63
1014.807	1434.03
1015.099	1437.42
1015.391	1440.13
1015.683	1422.96
1015.976	1415.95
1016.268	1389.51
1016.56	1398.1
1016.851	1419.57
1017.143	1391.55
1017.435	1374.6
1017.727	1336.63
1018.018	1363.3
1018.31	1342.73
1018.602	1337.54
1018.893	1334.37
1019.185	1322.39
1019.476	1333.47
1019.767	1315.39
1020.058	1288.5
1020.35	1301.15
1020.641	1286.24
1020.932	1262.74
1021.223	1274.71
1021.514	1247.82
1021.804	1246.92
1022.095	1255.73
1022.386	1243.98
1022.677	1205.34
1022.967	1250.08
1023.258	1232.45
1023.548	1212.79
1023.839	1185
1024.129	1186.58
1024.419	1195.62
1024.709	1165.34
1025	1143.87
1025.29	1160.59
1025.58	1151.55
1025.87	1135.73
1026.16	1132.57
1026.449	1146.58
1026.739	1118.33
1027.029	1120.14
1027.319	1105
1027.608	1109.74
1027.898	1095.51
1028.187	1063.42
1028.477	1071.55
1028.766	1091.21
1029.055	1097.32
1029.344	1047.37
1029.634	1070.88
1029.923	1055.51
1030.212	1046.24
1030.501	1045.57
1030.79	1010.54
1031.078	1008.96
1031.367	1004.44
1031.656	1026.58
1031.945	1001.27
1032.233	1001.5
1032.522	989.75
1032.81	984.32
1033.099	989.52
1033.387	956.98
1033.675	958.11
1033.963	973.93
1034.251	957.43
1034.54	921.95
1034.828	956.98
1035.116	925.34
1035.403	924.66
1035.691	921.73
1035.979	916.98
1036.267	935.74
1036.554	899.58
1036.842	893.93
1037.129	897.32
1037.417	888.73
1037.704	893.93
1037.992	876.53
1038.279	877.21
1038.566	879.24
1038.853	879.24
1039.14	879.24
