Data from hue_50_FLMS001491_80.txt Node
Date: Mon Feb 06 15:10:58 GMT 2017
User: dcchb
Spectrometer: FLMS00149
Trigger mode: 0
Integration Time (sec): 2.000000E-2
Scans to average: 10
Electric dark correction enabled: true
Nonlinearity correction enabled: false
Boxcar width: 0
XAxis mode: Wavelengths
Number of Pixels in Spectrum: 2048
>>>>>Begin Spectral Data<<<<<
341.393	-31.44
341.776	-31.44
342.16	-31.44
342.543	-61.95
342.927	-82.51
343.31	-82.29
343.693	-81.38
344.077	-55.85
344.46	-56.75
344.843	-62.85
345.226	-22.4
345.61	-25.79
345.993	-38.9
346.376	-4.55
346.759	11.72
347.142	7.2
347.525	42.91
347.908	74.09
348.291	99.4
348.674	86.52
349.057	108.9
349.44	124.71
349.823	139.4
350.206	187.09
350.588	216.69
350.971	234.09
351.354	220.3
351.737	240.64
352.119	250.59
352.502	259.17
352.884	280.19
353.267	293.07
353.65	281.32
354.032	280.19
354.414	317.93
354.797	309.12
355.179	331.94
355.562	313.41
355.944	342.79
356.326	347.31
356.709	332.39
357.091	322.68
357.473	341.43
357.855	338.27
358.238	340.08
358.62	341.88
359.002	325.84
359.384	357.48
359.766	350.25
360.148	323.35
360.53	372.84
360.912	355.44
361.294	326.29
361.676	327.87
362.057	328.32
362.439	340.53
362.821	336.01
363.203	338.49
363.584	325.84
363.966	342.79
364.348	329.91
364.729	337.36
365.111	322.9
365.493	330.36
365.874	327.87
366.256	330.13
366.637	330.36
367.019	313.86
367.4	318.61
367.781	305.05
368.163	301.43
368.544	296.01
368.925	312.51
369.306	326.29
369.688	313.18
370.069	303.24
370.45	307.99
370.831	323.58
371.212	315.22
371.593	333.52
371.974	307.76
372.355	312.05
372.736	335.1
373.117	315.9
373.498	313.86
373.879	335.1
374.26	318.38
374.641	331.04
375.021	298.95
375.402	314.77
375.783	315.9
376.163	333.75
376.544	321.77
376.925	327.87
377.305	335.33
377.686	337.82
378.066	320.19
378.447	343.01
378.827	338.04
379.208	330.13
379.588	324.03
379.968	343.01
380.349	336.01
380.729	336.01
381.109	329.91
381.489	360.41
381.87	323.35
382.25	339.17
382.63	339.85
383.01	364.03
383.39	338.72
383.77	324.26
384.15	331.26
384.53	345.05
384.91	352.5
385.29	356.12
385.67	352.05
386.049	368.32
386.429	342.79
386.809	347.76
387.189	363.35
387.568	348.66
387.948	343.69
388.328	352.73
388.707	336.46
389.087	357.93
389.466	354.99
389.846	344.14
390.225	344.6
390.605	368.32
390.984	347.99
391.363	353.18
391.743	356.35
392.122	347.99
392.501	386.4
392.881	359.96
393.26	372.39
393.639	374.88
394.018	366.97
394.397	385.72
394.776	376.46
395.155	368.78
395.534	378.49
395.913	367.65
396.292	373.52
396.671	379.17
397.05	378.94
397.429	376.91
397.808	387.08
398.186	384.82
398.565	395.89
398.944	397.25
399.323	380.53
399.701	370.81
400.08	382.79
400.458	380.75
400.837	385.5
401.215	391.6
401.594	390.24
401.972	385.95
402.351	399.06
402.729	402.67
403.107	391.83
403.486	390.24
403.864	389.79
404.242	395.44
404.62	403.58
404.999	396.35
405.377	411.03
405.755	407.64
406.133	399.06
406.511	423.69
406.889	419.62
407.267	427.53
407.645	407.19
408.023	415.33
408.401	420.07
408.779	415.78
409.156	424.82
409.534	409.45
409.912	442.67
410.29	428.66
410.667	432.95
411.045	462.78
411.422	454.42
411.8	428.89
412.178	427.53
412.555	434.99
412.933	444.25
413.31	464.59
413.687	446.97
414.065	457.59
414.442	466.17
414.819	442.67
415.197	465.5
415.574	481.99
415.951	480.41
416.328	484.93
416.705	472.28
417.082	491.94
417.46	500.52
417.837	491.71
418.214	480.41
418.591	485.83
418.967	492.39
419.344	503.91
419.721	492.84
420.098	486.96
420.475	521.31
420.852	505.5
421.228	507.76
421.605	500.98
421.982	506.17
422.358	521.09
422.735	526.06
423.111	494.87
423.488	510.24
423.864	529.9
424.241	517.02
424.617	531.26
424.994	536
425.37	545.95
425.746	536.91
426.123	526.29
426.499	547.75
426.875	530.58
427.251	538.71
427.627	554.76
428.003	554.08
428.379	560.63
428.756	552.27
429.132	560.63
429.507	575.55
429.883	591.82
430.259	588.88
430.635	592.05
431.011	597.92
431.387	613.51
431.763	567.41
432.138	589.33
432.514	622.1
432.89	620.07
433.265	627.3
433.641	626.17
434.016	630.46
434.392	636.79
434.767	625.27
435.143	639.73
435.518	646.73
435.894	642.21
436.269	647.41
436.644	658.94
437.02	655.77
437.395	677.47
437.77	674.98
438.145	673.85
438.52	675.66
438.895	704.59
439.271	683.34
439.646	696.45
440.021	700.97
440.395	679.95
440.77	707.52
441.145	705.04
441.52	690.35
441.895	689.45
442.27	753.62
442.645	721.53
443.019	724.25
443.394	720.86
443.769	748.65
444.143	763.79
444.518	739.16
444.892	753.62
445.267	752.27
445.641	736.22
446.016	748.88
446.39	772.61
446.764	760.4
447.139	764.25
447.513	754.53
447.887	777.58
448.262	756.79
448.636	773.74
449.01	807.18
449.384	804.24
449.758	791.14
450.132	812.83
450.506	795.43
450.88	794.3
451.254	810.57
451.628	810.8
452.002	785.26
452.376	842.89
452.75	826.62
453.123	839.5
453.497	841.08
453.871	854.64
454.244	869.1
454.618	853.96
454.992	899.84
455.365	859.84
455.739	889.21
456.112	894.64
456.486	903.9
456.859	908.42
457.232	932.83
457.606	951.59
457.979	931.02
458.352	959.04
458.725	960.85
459.099	974.64
459.472	951.59
459.845	1017.57
460.218	1004.01
460.591	1004.69
460.964	1018.02
461.337	1025.71
461.71	1051.92
462.083	1079.94
462.456	1077.91
462.829	1080.62
463.201	1104.35
463.574	1083.33
463.947	1146.83
464.32	1125.82
464.692	1155.2
465.065	1161.98
465.438	1166.49
465.81	1180.51
466.183	1219.6
466.555	1228.19
466.928	1240.62
467.3	1256.44
467.672	1247.4
468.045	1312.93
468.417	1272.03
468.789	1331.01
469.161	1340.28
469.534	1371.01
469.906	1372.59
470.278	1423.44
470.65	1403.32
471.022	1495.07
471.394	1476.32
471.766	1492.59
472.138	1571.91
472.51	1567.39
472.882	1628.18
473.253	1648.29
473.625	1693.71
473.997	1735.75
474.369	1758.57
474.74	1782.52
475.112	1846.48
475.484	1866.14
475.855	1912.24
476.227	1944.55
476.598	1990.43
476.97	2071.56
477.341	2086.24
477.713	2152.46
478.084	2164.66
478.455	2282.62
478.827	2345.22
479.198	2404.65
479.569	2442.62
479.94	2529.17
480.311	2596.74
480.682	2676.96
481.053	2749.05
481.424	2796.06
481.795	2900.69
482.166	2945.21
482.537	3061.36
482.908	3150.17
483.279	3237.63
483.65	3313.1
484.021	3412.54
484.391	3468.13
484.762	3589.26
485.133	3671.29
485.503	3783.83
485.874	3933.88
486.244	4013.2
486.615	4088.45
486.985	4260.65
487.356	4344.49
487.726	4467.42
488.097	4562.79
488.467	4703.35
488.837	4792.16
489.207	4918.71
489.578	5064.47
489.948	5224.02
490.318	5283.22
490.688	5447.74
491.058	5540.39
491.428	5644.8
491.798	5791.68
492.168	5978.12
492.538	6072.35
492.908	6299.69
493.278	6380.37
493.648	6461.72
494.017	6581.95
494.387	6740.59
494.757	6868.72
495.126	6997.53
495.496	7102.38
495.866	7283.4
496.235	7402.26
496.605	7508.7
496.974	7608.81
497.344	7795.92
497.713	7860.33
498.082	8067.56
498.452	8241.11
498.821	8336.25
499.19	8423.93
499.559	8579.86
499.928	8712.29
500.298	8806.07
500.667	8922
501.036	9015.55
501.405	9139.84
501.774	9217.81
502.143	9381.87
502.512	9484.24
502.88	9647.18
503.249	9738.02
503.618	9792.26
503.987	9885.81
504.356	10102.3
504.724	10145.47
505.093	10239.93
505.462	10352.02
505.83	10516.08
506.199	10723.08
506.567	10779.58
506.936	10809.86
507.304	10984.54
507.672	11144.99
508.041	11209.85
508.409	11360.13
508.777	11464.3
509.145	11636.95
509.514	11537.75
509.882	11760.11
510.25	11853.67
510.618	11933.9
510.986	12075.36
511.354	12139.54
511.722	12323.26
512.09	12475.35
512.458	12498.4
512.826	12645.51
513.193	12724.16
513.561	12763.03
513.929	12925.06
514.297	13034.43
514.664	13196.23
515.032	13248.66
515.4	13319.4
515.767	13418.38
516.135	13541.54
516.502	13490.46
516.869	13776.78
517.237	13918.93
517.604	13902.21
517.972	14085.93
518.339	14212.03
518.706	14190.33
519.073	14284.79
519.44	14471.46
519.808	14515.75
520.175	14552.13
520.542	14696.31
520.909	14910.09
521.276	14863.76
521.643	15072.57
522.009	15199.57
522.376	15320.25
522.743	15442.73
523.11	15611.09
523.477	15658.77
523.843	15801.59
524.21	15955.03
524.577	16106.67
524.943	16157.51
525.31	16235.7
525.676	16436.83
526.043	16575.58
526.409	16619.65
526.776	16836.14
527.142	16825.52
527.508	17033.87
527.874	17075.45
528.241	17159.29
528.607	17321.1
528.973	17400.64
529.339	17445.39
529.705	17574.65
530.071	17799.73
530.437	17820.75
530.803	18002.44
531.169	18060.97
531.535	18147.07
531.901	18159.72
532.267	18359.49
532.632	18357.23
532.998	18521.52
533.364	18495.53
533.73	18586.15
534.095	18807.84
534.461	18942.3
534.826	18984.78
535.192	19052.35
535.557	19196.76
535.923	19189.07
536.288	19327.37
536.653	19370.31
537.019	19340.48
537.384	19467.71
537.749	19636.74
538.114	19506.58
538.479	19675.84
538.845	19761.71
539.21	19726.68
539.575	19874.03
539.94	20012.33
540.305	20026.56
540.67	19938.2
541.034	20222.26
541.399	20249.61
541.764	20267.01
542.129	20380.9
542.494	20402.15
542.858	20485.08
543.223	20689.37
543.587	20667.68
543.952	20655.93
544.316	20791.29
544.681	20819.54
545.045	20891.85
545.41	21021.34
545.774	21024.5
546.138	20996.03
546.503	21139.75
546.867	21180.88
547.231	21487.99
547.595	21409.58
547.959	21512.17
548.324	21578.61
548.688	21529.12
549.052	21701.1
549.416	21753.07
549.779	21841.66
550.143	21872.17
550.507	21937.02
550.871	22041.43
551.235	21979.05
551.599	22274.64
551.962	22375.65
552.326	22355.09
552.689	22422.66
553.053	22391.47
553.417	22409.1
553.78	22846.83
554.143	22719.83
554.507	22885.92
554.87	22832.59
555.234	23177.22
555.597	22936.54
555.96	23069.87
556.323	23212.47
556.686	23104.45
557.05	23470.32
557.413	23533.14
557.776	23546.02
558.139	23657.2
558.502	23711.21
558.865	23822.85
559.228	23955.05
559.59	24103.97
559.953	24193.23
560.316	24305.55
560.679	24383.51
561.041	24521.59
561.404	24570.17
561.767	24727.01
562.129	24663.73
562.492	24933.78
562.854	24868.92
563.217	24978.98
563.579	25018.3
563.941	25190.04
564.304	25321.57
564.666	25535.57
565.028	25553.42
565.39	25637.26
565.753	25763.14
566.115	25792.74
566.477	25954.32
566.839	26010.14
567.201	26268.89
567.563	26177.14
567.925	26405.15
568.287	26422.78
568.648	26503.23
569.01	26717.01
569.372	26751.36
569.734	26774.18
570.095	26980.05
570.457	27116.09
570.819	27141.18
571.18	27153.61
571.542	27222.08
571.903	27395.86
572.265	27454.84
572.626	27581.17
572.987	27593.6
573.349	27752.46
573.71	27866.81
574.071	28006.92
574.432	28081.49
574.794	28213.92
575.155	28268.61
575.516	28247.59
575.877	28428.83
576.238	28451.65
576.599	28604.42
576.96	28549.5
577.32	28730.74
577.681	28897.74
578.042	28982.49
578.403	29003.73
578.763	29117.62
579.124	29196.27
579.485	29450.04
579.845	29424.73
580.206	29525.07
580.566	29432.87
580.927	29594.22
581.287	29829.24
581.648	29833.09
582.008	29971.16
582.368	29876.02
582.728	30096.58
583.089	30241.21
583.449	30168.22
583.809	30433.07
584.169	30503.8
584.529	30570.92
584.889	30941.31
585.249	30767.07
585.609	30807.98
585.969	31014.07
586.329	31162.77
586.688	31166.16
587.048	31227.85
587.408	31263.78
587.768	31415.19
588.127	31409.32
588.487	31541.97
588.846	31791.45
589.206	31773.83
589.565	31788.97
589.925	32026.93
590.284	32039.36
590.643	32137.21
591.003	32169.97
591.362	32549.17
591.721	32438.44
592.08	32544.43
592.44	32758.21
592.799	32767.47
593.158	32780.13
593.517	33052.66
593.876	33017.18
594.235	33024.19
594.593	33217.63
594.952	33338.08
595.311	33421.92
595.67	33537.85
596.029	33580.11
596.387	33835.92
596.746	33904.62
597.104	33757.73
597.463	33911.85
597.822	34174.67
598.18	34066.42
598.538	34120.2
598.897	34446.52
599.255	34200.43
599.613	34642.68
599.972	34673.86
600.33	34671.15
600.688	34587.31
601.046	34769.23
601.404	35031.37
601.762	34977.13
602.12	35279.27
602.478	35157.69
602.836	35328.53
603.194	35280.17
603.552	35414.18
603.91	35200.85
604.268	35569.88
604.625	35499.6
604.983	35682.42
605.341	35545.93
605.698	35775.3
606.056	35891.68
606.413	35883.55
606.771	36167.61
607.128	36135.52
607.485	36009.19
607.843	36217.1
608.2	36261.17
608.557	36418.45
608.914	36359.92
609.272	36568.28
609.629	36710.87
609.986	36927.81
610.343	36658.44
610.7	37006
611.057	37125.1
611.414	36912
611.771	37045.78
612.127	37217.3
612.484	37278.77
612.841	37335.49
613.198	37270.18
613.554	37387.69
613.911	37749.71
614.267	37676.5
614.624	37662.03
614.98	37731.86
615.337	38004.17
615.693	37797.85
616.05	37850.05
616.406	38127.78
616.762	38056.15
617.118	38007.11
617.475	38120.33
617.831	38263.37
618.187	38256.59
618.543	38258.63
618.899	38562.57
619.255	38572.29
619.611	38551.05
619.967	38721.44
620.323	38731.61
620.678	38612.52
621.034	38530.71
621.39	38733.64
621.746	38643.48
622.101	39007.53
622.457	38752.63
622.812	38733.42
623.168	39035.1
623.523	39096.34
623.879	39140.64
624.234	38926.86
624.589	39104.48
624.945	39057.02
625.3	39162.78
625.655	39212.95
626.01	39217.7
626.365	39311.71
626.72	39230.35
627.075	39174.99
627.43	39239.84
627.785	39172.28
628.14	39202.1
628.495	39231.71
628.85	39188.32
629.205	39201.65
629.559	39400.52
629.914	39180.18
630.269	39370.01
630.623	39153.07
630.978	39059.96
631.332	39269.9
631.687	39378.15
632.041	39293.4
632.396	39175.21
632.75	39134.54
633.104	39290.92
633.459	39106.51
633.813	39102.22
634.167	39302.44
634.521	39207.53
634.875	39213.4
635.229	39106.06
635.583	39076.91
635.937	39007.53
636.291	39160.3
636.645	39027.19
636.999	38800.99
637.352	39031.26
637.706	38810.02
638.06	39137.93
638.413	38868.55
638.767	38781.1
639.121	38899.74
639.474	38696.13
639.828	38740.2
640.181	38717.6
640.534	38834.88
640.888	38626.3
641.241	38595.34
641.594	38655.68
641.947	38784.04
642.301	38713.08
642.654	38540.2
643.007	38500.65
643.36	38544.72
643.713	38587.88
644.066	38608.45
644.419	38286.2
644.771	38093.66
645.124	37681.69
645.477	37749.04
645.83	37544.3
646.182	37464.98
646.535	37329.39
646.888	37391.3
647.24	37132.1
647.593	37406.9
647.945	37343.85
648.298	37196.96
648.65	37089.39
649.002	37241.03
649.355	37241.03
649.707	37211.42
650.059	37205.77
650.411	37635.59
650.763	37624.07
651.115	38105.64
651.467	37942.48
651.819	37914.46
652.171	37850.05
652.523	37796.04
652.875	37738.19
653.227	37696.61
653.578	37952.87
653.93	37644.18
654.282	37631.07
654.633	37457.07
654.985	37764.85
655.337	37634.69
655.688	37665.65
656.039	37763.05
656.391	37498.65
656.742	37562.83
657.094	37603.95
657.445	37565.76
657.796	37550.4
658.147	37432.89
658.498	37442.38
658.849	37470.4
659.2	37588.81
659.551	37307.01
659.902	37676.72
660.253	37561.7
660.604	37535.93
660.955	37433.11
661.306	37444.64
661.656	37360.12
662.007	37540
662.358	37329.39
662.708	37535.03
663.059	37458.65
663.409	37180.01
663.76	37290.52
664.11	37395.37
664.461	37376.62
664.811	37455.03
665.161	37315.15
665.511	37278.54
665.862	37217.52
666.212	37473.11
666.562	37386.79
666.912	37310.86
667.262	37283.96
667.612	37400.12
667.962	37261.14
668.312	37373.9
668.662	37413.45
669.011	37206
669.361	37243.96
669.711	37268.6
670.06	37116.06
670.41	37083.06
670.76	37035.16
671.109	37152.44
671.459	37087.13
671.808	37149.05
672.157	37159.9
672.507	36952.9
672.856	36881.71
673.205	36887.82
673.554	37165.1
673.904	36841.49
674.253	37263.62
674.602	36928.72
674.951	36442.4
675.3	36223.65
675.649	36818.21
675.998	36748.61
676.346	36840.58
676.695	36909.96
677.044	36667.48
677.393	36741.6
677.741	36891.88
678.09	36666.8
678.438	36620.93
678.787	36766.01
679.135	36665.9
679.484	36359.02
679.832	36636.75
680.181	36476.07
680.529	36519.24
680.877	36434.49
681.225	36375.96
681.573	36663.64
681.922	36326.7
682.27	36130.77
682.618	36345.46
682.966	36095.97
683.314	36163.09
683.661	36131
684.009	35967.61
684.357	35977.1
684.705	35824.57
685.053	35885.36
685.4	35776.88
685.748	35653.72
686.095	35675.19
686.443	35501.86
686.79	35593.84
687.138	35641.07
687.485	35488.98
687.832	35346.16
688.18	35372.15
688.527	35299.38
688.874	35183.68
689.221	35120.86
689.568	35121.31
689.915	35059.84
690.262	35112.04
690.609	34846.51
690.956	34778.27
691.303	34734.43
691.65	34544.83
691.997	34577.59
692.344	34373.98
692.69	34319.3
693.037	34471.16
693.383	34117.72
693.73	34137.15
694.077	33982.81
694.423	34041.56
694.769	33889.25
695.116	33739.65
695.462	33763.83
695.808	33583.95
696.155	33875.24
696.501	33400.68
696.847	33477.74
697.193	33254.92
697.539	33375.59
697.885	33134.47
698.231	33122.94
698.577	33105.32
698.923	32920.24
699.269	32858.32
699.614	32645.22
699.96	32561.38
700.306	32619
700.651	32492.22
700.997	32534.94
701.342	32393.47
701.688	32276.19
702.033	32327.71
702.379	32158.22
702.724	32098.34
703.069	32126.13
703.415	31784.9
703.76	31708.29
704.105	31915.97
704.45	31714.62
704.795	31627.61
705.14	31525.47
705.485	31501.97
705.83	31352.14
706.175	31320.05
706.52	31314.18
706.865	31200.51
707.209	31006.84
707.554	31113.05
707.899	31179.72
708.243	30846.17
708.588	30871.48
708.932	30715.77
709.277	30725.72
709.621	30677.13
709.966	30570.02
710.31	30579.96
710.654	30287.76
710.998	30470.36
711.342	30250.7
711.687	30236.69
712.031	30105.39
712.375	30050.26
712.719	30022.46
713.063	29920.99
713.407	30101.78
713.75	29901.11
714.094	29977.04
714.438	29760.09
714.782	29829.47
715.125	29763.03
715.469	29681.68
715.812	29536.82
716.156	29465.41
716.499	29493.43
716.843	29364.17
717.186	29272.2
717.53	29439.65
717.873	29447.79
718.216	29296.83
718.559	29140.45
718.902	29012.54
719.246	29039.89
719.589	28818.65
719.932	28773.9
720.275	28779.1
720.617	28794.47
720.96	28714.02
721.303	28863.85
721.646	28740.23
721.989	28600.58
722.331	28647.81
722.674	28533.91
723.016	28532.55
723.359	28354.48
723.701	28364.88
724.044	28307.48
724.386	28157.65
724.729	28383.86
725.071	28253.47
725.413	28157.2
725.755	28187.71
726.097	28110.19
726.439	27869.3
726.782	27930.08
727.124	28017.99
727.465	27891.89
727.807	27876.98
728.149	27841.05
728.491	27613.26
728.833	27746.13
729.175	27714.72
729.516	27589.98
729.858	27563.31
730.199	27569.42
730.541	27460.94
730.882	27494.62
731.224	27539.36
731.565	27342.76
731.906	27232.7
732.248	27341.85
732.589	27168.97
732.93	27140.73
733.271	27199.03
733.612	27168.3
733.953	27197.22
734.294	27035.87
734.635	26850.11
734.976	27095.53
735.317	26865.71
735.658	26879.72
735.999	26797.46
736.339	26747.29
736.68	26857.57
737.021	26742.32
737.361	26553.4
737.702	26750.91
738.042	26759.95
738.383	26540.52
738.723	26708.87
739.063	26466.62
739.404	26592.72
739.744	26482.67
740.084	26387.98
740.424	26360.41
740.764	26279.28
741.104	26466.17
741.444	26215.55
741.784	26098.95
742.124	26265.72
742.464	26132.39
742.804	26129.45
743.143	26064.82
743.483	26118.61
743.823	25907.31
744.162	25953.87
744.502	25925.84
744.841	25789.8
745.181	25943.02
745.52	25773.98
745.86	25851.04
746.199	25796.58
746.538	25624.83
746.877	25763.36
747.216	25606.53
747.556	25736.92
747.895	25695.34
748.234	25462.58
748.573	25399.76
748.911	25439.3
749.25	25469.36
749.589	25204.28
749.928	25287.67
750.267	25384.62
750.605	25302.36
750.944	25147.79
751.283	25075.47
751.621	25156.37
751.96	24955.25
752.298	24957.73
752.636	24951.41
752.975	24804.07
753.313	24815.14
753.651	24917.96
753.989	24714.58
754.327	24721.36
754.666	24579.21
755.004	24597.52
755.342	24775.82
755.679	24538.08
756.017	24356.62
756.355	24520
756.693	24309.62
757.031	24317.07
757.368	24258.77
757.706	24232.55
758.044	24088.15
758.381	24139.45
758.719	23950.75
759.056	23943.52
759.394	23819.23
759.731	23834.37
760.068	23787.82
760.405	23638.22
760.743	23623.76
761.08	23703.53
761.417	23411.56
761.754	23425.8
762.091	23352.13
762.428	23237.55
762.765	23184.45
763.102	23247.95
763.438	22973.6
763.775	22936.54
764.112	22988.75
764.449	23011.8
764.785	22780.16
765.122	22702.2
765.458	22553.95
765.795	22665.36
766.131	22497.46
766.467	22557.34
766.804	22359.61
767.14	22267.86
767.476	22319.84
767.812	22236.22
768.148	22207.07
768.485	22046.85
768.821	21900.41
769.157	21894.31
769.492	21911.26
769.828	21941.32
770.164	21605.51
770.5	21641.44
770.836	21582.91
771.171	21518.05
771.507	21467.88
771.842	21251.84
772.178	21258.4
772.513	21275.12
772.849	21123.26
773.184	21036.93
773.519	20990.83
773.855	20906.54
774.19	20834.68
774.525	20749.03
774.86	20714.91
775.195	20706.55
775.53	20628.13
775.865	20529.83
776.2	20328.7
776.535	20222.49
776.87	20222.94
777.205	20181.14
777.539	20071.08
777.874	20095.49
778.209	19838.77
778.543	19898.21
778.878	19725.78
779.212	19720.58
779.547	19632.9
779.881	19687.14
780.215	19378.9
780.55	19524.2
780.884	19369.63
781.218	19306.13
781.552	19245.57
781.886	19227.26
782.22	19066.36
782.554	19060.71
782.888	18849.65
783.222	18811.68
783.556	18772.13
783.889	18729.42
784.223	18527.17
784.557	18518.81
784.89	18572.36
785.224	18357.23
785.557	18384.57
785.891	18354.74
786.224	18274.52
786.558	18270.68
786.891	18173.28
787.224	18064.58
787.557	17910.69
787.891	17904.59
788.224	17844.93
788.557	17873.17
788.89	17916.34
789.223	17816.68
789.556	17596.8
789.888	17531.04
790.221	17585.05
790.554	17352.28
790.887	17468.89
791.219	17360.19
791.552	17314.77
791.884	17241.1
792.217	17083.82
792.549	17150.03
792.882	17009.02
793.214	16926.53
793.546	16927.21
793.879	16881.56
794.211	16703.71
794.543	16786.87
794.875	16686.99
795.207	16806.76
795.539	16708.46
795.871	16601.34
796.203	16512.31
796.535	16332.65
796.867	16395.47
797.198	16261.24
797.53	16291.52
797.862	16161.13
798.193	16237.28
798.525	16060.11
798.856	16138.53
799.188	15849.72
799.519	15917.75
799.85	15791.19
800.182	15859.89
800.513	15856.05
800.844	15693.8
801.175	15753
801.506	15573.57
801.837	15598.66
802.168	15575.16
802.499	15517.08
802.83	15475.72
803.161	15380.81
803.491	15419.68
803.822	15387.59
804.153	15260.59
804.483	15207.26
804.814	15230.53
805.145	15090.65
805.475	15143.75
805.805	15011.78
806.136	15080.48
806.466	15040.93
806.796	15055.62
807.126	14907.6
807.457	14857.43
807.787	14884.1
808.117	14662.64
808.447	14710.09
808.777	14727.49
809.107	14677.1
809.436	14623.32
809.766	14646.14
810.096	14539.93
810.426	14525.47
810.755	14486.37
811.085	14516.43
811.414	14392.14
811.744	14322.98
812.073	14279.37
812.403	14271.46
812.732	14190.79
813.061	14160.28
813.39	14130.22
813.719	14121.18
814.049	14237.11
814.378	14042.99
814.707	13942.88
815.036	14007.74
815.365	13890
815.693	13673.96
816.022	13732.94
816.351	13791.02
816.68	13722.77
817.008	13743.11
817.337	13625.38
817.665	13586.06
817.994	13563.46
818.322	13558.71
818.651	13507.64
818.979	13419.73
819.307	13550.8
819.636	13499.05
819.964	13381.31
820.292	13417.92
820.62	13423.8
820.948	13339.51
821.276	13354.42
821.604	13263.13
821.932	13350.13
822.259	13323.46
822.587	13398.04
822.915	13350.81
823.243	13324.59
823.57	13290.24
823.898	13317.81
824.225	13321.66
824.553	13203.24
824.88	13321.2
825.207	13336.12
825.535	13360.98
825.862	13241.66
826.189	13226.97
826.516	13324.37
826.843	13350.36
827.17	13310.13
827.497	13350.81
827.824	13311.26
828.151	13341.09
828.478	13287.31
828.805	13304.93
829.131	13233.52
829.458	13204.6
829.785	13163.92
830.111	13197.82
830.438	13266.06
830.764	13217.7
831.09	13249.11
831.417	13168.89
831.743	13163.02
832.069	13205.95
832.395	13143.35
832.722	13150.13
833.048	13132.51
833.374	13199.17
833.7	13164.15
834.026	13107.42
834.351	13132.06
834.677	13189.68
835.003	13147.65
835.329	13064.94
835.654	13050.02
835.98	13009.57
836.306	12990.59
836.631	13031.72
836.956	13049.8
837.282	13053.87
837.607	12966.18
837.932	12887.54
838.258	12947.88
838.583	12913.3
838.908	12833.31
839.233	12927.54
839.558	12823.59
839.883	12723.25
840.208	12759.41
840.533	12707.89
840.858	12776.36
841.182	12769.35
841.507	12682.12
841.832	12591.73
842.156	12552.64
842.481	12628.34
842.805	12586.08
843.13	12481
843.454	12473.32
843.778	12479.64
844.103	12545.4
844.427	12384.05
844.751	12390.38
845.075	12417.5
845.399	12258.63
845.723	12235.36
846.047	12244.85
846.371	12214.11
846.695	12175.92
847.019	12042.14
847.343	11978.19
847.666	11942.93
847.99	11890.28
848.313	11852.99
848.637	11831.3
848.96	11806.67
849.284	11729.83
849.607	11617.07
849.931	11585.66
850.254	11580.68
850.577	11551.08
850.9	11429.73
851.223	11438.32
851.546	11337.07
851.869	11270.18
852.192	11311.99
852.515	11251.2
852.838	11286.23
853.161	11217.98
853.483	11197.42
853.806	11073.58
854.129	11104.76
854.451	10993.36
854.774	11057.31
855.096	10979.34
855.419	10971.21
855.741	10867.71
856.063	10805.34
856.385	10810.53
856.708	10722.63
857.03	10728.05
857.352	10757.88
857.674	10722.18
857.996	10657.54
858.318	10645.79
858.64	10633.36
858.961	10550.88
859.283	10528.96
859.605	10516.53
859.926	10491
860.248	10457.32
860.57	10468.62
860.891	10402.86
861.212	10477.44
861.534	10339.59
861.855	10329.87
862.176	10319.7
862.498	10341.17
862.819	10327.84
863.14	10265.24
863.461	10232.47
863.782	10226.37
864.103	10130.55
864.424	10182.3
864.745	10196.54
865.065	10116.09
865.386	10086.26
865.707	10105.02
866.027	10080.84
866.348	10154.28
866.668	10049.88
866.989	10029.99
867.309	9964.46
867.63	9974.17
867.95	9994.06
868.27	9897.11
868.59	9882.2
868.91	9903.44
869.23	9907.73
869.55	9853.72
869.87	9878.58
870.19	9808.08
870.51	9884.91
870.83	9860.96
871.15	9742.77
871.469	9724.24
871.789	9805.14
872.109	9784.35
872.428	9686.04
872.748	9761.52
873.067	9697.57
873.386	9721.75
873.706	9637.91
874.025	9638.59
874.344	9580.51
874.663	9651.24
874.982	9577.12
875.301	9563.34
875.62	9623.22
875.939	9516.11
876.258	9542.77
876.577	9486.5
876.896	9485.15
877.214	9457.35
877.533	9466.62
877.852	9479.27
878.17	9444.7
878.489	9454.19
878.807	9464.13
879.125	9348.65
879.444	9391.36
879.762	9360.18
880.08	9397.46
880.398	9328.31
880.716	9290.57
881.034	9291.03
881.352	9342.1
881.67	9223.23
881.988	9236.11
882.306	9236.11
882.624	9243.34
882.941	9138.94
883.259	9194.31
883.577	9136
883.894	9081.31
884.212	9081.09
884.529	9112.73
884.846	9035.89
885.164	9017.36
885.481	8988.21
885.798	9041.54
886.115	9001.32
886.432	8958.15
886.75	8939.62
887.067	8940.98
887.383	8898.27
887.7	8852.85
888.017	8885.16
888.334	8809.23
888.651	8876.35
888.967	8741.89
889.284	8786.18
889.6	8726.07
889.917	8671.16
890.233	8670.48
890.55	8642.91
890.866	8605.4
891.182	8637.48
891.498	8634.77
891.815	8539.41
892.131	8512.52
892.447	8506.41
892.763	8421.9
893.079	8457.6
893.395	8383.93
893.71	8363.59
894.026	8335.12
894.342	8308.45
894.657	8296.02
894.973	8341.45
895.289	8235.01
895.604	8262.58
895.92	8194.78
896.235	8182.13
896.55	8185.07
896.865	8174.22
897.181	8169.02
897.496	8111.17
897.811	8098.74
898.126	7993.66
898.441	8005.41
898.756	8014
899.071	7866.88
899.386	7956.15
899.7	7923.61
900.015	7881.35
900.33	7827.79
900.644	7835.02
900.959	7794.8
901.273	7795.25
901.588	7772.87
901.902	7670.05
902.216	7631.41
902.531	7586.89
902.845	7560
903.159	7590.51
903.473	7509.83
903.787	7502.15
904.101	7456.72
904.415	7474.58
904.729	7435.93
905.042	7394.35
905.356	7331.53
905.67	7364.3
905.984	7378.76
906.297	7269.61
906.611	7243.85
906.924	7243.4
907.237	7229.84
907.551	7180.12
907.864	7141.48
908.177	7168.82
908.491	7160.01
908.804	7069.39
909.117	7091.76
909.43	7074.59
909.743	7026.68
910.056	6945.78
910.368	6912.33
910.681	6946.46
910.994	6885.89
911.307	6878.21
911.619	6785.33
911.932	6855.61
912.244	6733.35
912.557	6752.79
912.869	6676.86
913.181	6716.41
913.494	6662.4
913.806	6655.16
914.118	6603.41
914.43	6528.39
914.742	6610.87
915.054	6578.1
915.366	6493.36
915.678	6496.52
915.99	6380.37
916.302	6403.65
916.613	6366.81
916.925	6417.66
917.236	6329.52
917.548	6331.56
917.859	6329.3
918.171	6250.2
918.482	6268.28
918.794	6205.68
919.105	6207.27
919.416	6199.81
919.727	6168.4
920.038	6105.57
920.349	6086.37
920.66	6063.32
920.971	6087.27
921.282	6039.59
921.593	5967.95
921.903	5984.22
922.214	5931.12
922.525	5918.23
922.835	5889.53
923.146	5864.68
923.456	5835.07
923.767	5788.29
924.077	5765.47
924.387	5834.62
924.697	5734.51
925.008	5708.75
925.318	5707.62
925.628	5690.22
925.938	5625.36
926.248	5616.1
926.558	5594.4
926.867	5581.52
927.177	5561.63
927.487	5509.88
927.796	5509.88
928.106	5473.73
928.416	5453.16
928.725	5436.44
929.034	5415.2
929.344	5365.48
929.653	5371.58
929.962	5332.03
930.271	5310.79
930.581	5311.24
930.89	5283.9
931.199	5253.84
931.508	5244.35
931.817	5228.31
932.125	5164.81
932.434	5218.14
932.743	5080.06
933.051	5119.84
933.36	5131.81
933.669	5061.76
933.977	5031.25
934.286	5012.95
934.594	5047.97
934.902	4985.15
935.21	4940.86
935.519	4950.8
935.827	4948.54
936.135	4885.49
936.443	4873.52
936.751	4851.14
937.059	4903.12
937.367	4797.13
937.674	4840.07
937.982	4751.71
938.29	4755.78
938.597	4753.52
938.905	4730.92
939.213	4686.63
939.52	4634.65
939.827	4667.87
940.135	4637.82
940.442	4640.3
940.749	4636.46
941.056	4632.84
941.363	4606.4
941.67	4529.8
941.977	4529.12
942.284	4524.82
942.591	4449.8
942.898	4472.17
943.205	4495.45
943.511	4430.14
943.818	4391.49
944.125	4356.24
944.431	4350.59
944.738	4365.28
945.044	4318.05
945.35	4318.5
945.657	4287.09
945.963	4269.01
946.269	4243.25
946.575	4280.99
946.881	4179.07
947.187	4203.7
947.493	4201.9
947.799	4179.52
948.105	4170.94
948.41	4135.68
948.716	4144.95
949.022	4112.86
949.327	4094.1
949.633	4078.28
949.938	4069.7
950.244	4034.22
950.549	3989.47
950.854	4007.78
951.16	3966.2
951.465	3960.32
951.77	3974.56
952.075	3915.12
952.38	3875.8
952.685	3901.34
952.99	3883.71
953.294	3876.93
953.599	3842.36
953.904	3829.02
954.209	3814.79
954.513	3783.15
954.818	3817.27
955.122	3756.26
955.426	3736.82
955.731	3760.78
956.035	3688.24
956.339	3694.79
956.643	3674
956.948	3659.99
957.252	3645.98
957.556	3626.77
957.86	3609.82
958.163	3615.7
958.467	3601.23
958.771	3569.37
959.075	3605.07
959.378	3548.58
959.682	3543.83
959.985	3534.34
960.289	3519.88
960.592	3484.85
960.896	3481.91
961.199	3462.71
961.502	3462.71
961.805	3395.59
962.108	3406.89
962.411	3371.86
962.714	3327.79
963.017	3376.83
963.32	3398.53
963.623	3324.63
963.926	3294.57
964.228	3324.63
964.531	3290.96
964.833	3267
965.136	3270.85
965.438	3300.22
965.741	3237.4
966.043	3234.24
966.345	3240.11
966.648	3216.16
966.95	3200.34
967.252	3177.74
967.554	3118.76
967.856	3142.04
968.158	3120.57
968.46	3112.88
968.761	3097.74
969.063	3099.78
969.365	3072.66
969.666	3087.35
969.968	3035.15
970.269	3048.71
970.571	3038.31
970.872	3017.75
971.174	2960.35
971.475	3000.8
971.776	2998.54
972.077	3005.99
972.378	2959.44
972.679	2928.48
972.98	2901.36
973.281	2890.97
973.582	2901.82
973.883	2895.49
974.183	2862.27
974.484	2867.92
974.785	2874.47
975.085	2827.24
975.386	2822.27
975.686	2853.91
975.986	2798.77
976.287	2791.08
976.587	2765.77
976.887	2728.26
977.187	2745.66
977.487	2726.68
977.787	2723.52
978.087	2726.91
978.387	2714.48
978.687	2707.92
978.987	2657.98
979.286	2642.39
979.586	2646.23
979.885	2619.56
980.185	2648.72
980.484	2628.38
980.784	2602.84
981.083	2594.48
981.382	2591.09
981.682	2599.68
981.981	2567.81
982.28	2533.24
982.579	2549.74
982.878	2561.94
983.177	2535.72
983.475	2500.47
983.774	2524.2
984.073	2488.95
984.372	2440.59
984.67	2493.47
984.969	2462.51
985.267	2471.32
985.566	2428.83
985.864	2412.11
986.162	2423.41
986.461	2385.67
986.759	2368.95
987.057	2358.78
987.355	2373.47
987.653	2394.71
987.951	2349.74
988.249	2321.94
988.547	2312
988.844	2326.92
989.142	2295.05
989.44	2330.53
989.737	2294.15
990.035	2280.82
990.332	2271.55
990.63	2224.55
990.927	2248.5
991.224	2203.53
991.521	2203.3
991.819	2197.65
992.116	2208.5
992.413	2194.26
992.71	2172.8
993.006	2192.46
993.303	2119.69
993.6	2156.53
993.897	2132.12
994.193	2160.59
994.49	2106.81
994.787	2123.98
995.083	2108.62
995.379	2088.5
995.676	2087.15
995.972	2074.27
996.268	2053.25
996.565	2070.43
996.861	2013.93
997.157	2035.85
997.453	2031.1
997.749	2007.6
998.044	1998.79
998.34	2000.37
998.636	2011.44
998.932	1959.02
999.227	1944.1
999.523	1942.97
999.818	1960.82
1000.114	1938.23
1000.409	1936.64
1000.704	1915.85
1001	1902.52
1001.295	1875.85
1001.59	1877.66
1001.885	1876.53
1002.18	1861.62
1002.475	1860.04
1002.77	1855.52
1003.065	1825.69
1003.359	1825.46
1003.654	1812.81
1003.949	1766.03
1004.243	1774.61
1004.538	1758.34
1004.832	1783.65
1005.127	1768.51
1005.421	1758.34
1005.715	1757.67
1006.009	1779.36
1006.304	1741.62
1006.598	1744.33
1006.892	1722.64
1007.186	1697.55
1007.48	1699.59
1007.773	1685.8
1008.067	1684.45
1008.361	1668.63
1008.655	1651
1008.948	1637.67
1009.242	1664.11
1009.535	1609.87
1009.829	1616.65
1010.122	1601.74
1010.415	1617.33
1010.708	1571.91
1011.001	1612.13
1011.295	1566.26
1011.588	1576.43
1011.881	1545.02
1012.173	1560.16
1012.466	1593.38
1012.759	1529.65
1013.052	1524.9
1013.344	1525.81
1013.637	1519.93
1013.93	1512.47
1014.222	1501.4
1014.514	1462.31
1014.807	1500.95
1015.099	1473.61
1015.391	1472.93
1015.683	1446.94
1015.976	1452.81
1016.268	1443.1
1016.56	1426.6
1016.851	1392.03
1017.143	1413.04
1017.435	1418.47
1017.727	1383.66
1018.018	1404.45
1018.31	1384.79
1018.602	1367.62
1018.893	1366.26
1019.185	1335.3
1019.476	1361.07
1019.767	1325.13
1020.058	1332.37
1020.35	1305.25
1020.641	1303.21
1020.932	1312.93
1021.223	1291.24
1021.514	1300.28
1021.804	1295.3
1022.095	1280.84
1022.386	1267.51
1022.677	1270.22
1022.967	1235.87
1023.258	1227.96
1023.548	1201.3
1023.839	1235.42
1024.129	1220.28
1024.419	1204.23
1024.709	1192.26
1025	1195.42
1025.29	1161.98
1025.58	1157.46
1025.87	1157.46
1026.16	1164.46
1026.449	1166.95
1026.739	1143.9
1027.029	1134.86
1027.319	1145.03
1027.608	1111.13
1027.898	1118.13
1028.187	1100.73
1028.477	1075.88
1028.766	1099.15
1029.055	1070.68
1029.344	1079.27
1029.634	1077.46
1029.923	1058.02
1030.212	1048.76
1030.501	1055.54
1030.79	1068.42
1031.078	1035.88
1031.367	1030.68
1031.656	1006.95
1031.945	1036.55
1032.233	1029.32
1032.522	1021.41
1032.81	1008.08
1033.099	1002.21
1033.387	1000.17
1033.675	993.39
1033.963	965.82
1034.251	972.83
1034.54	977.8
1034.828	958.82
1035.116	949.33
1035.403	954.52
1035.691	947.74
1035.979	922.66
1036.267	939.38
1036.554	931.47
1036.842	894.41
1037.129	915.88
1037.417	906.61
1037.704	896.45
1037.992	887.41
1038.279	914.3
1038.566	874.3
1038.853	874.3
1039.14	874.3
