Data from hue_36_FLMS001491_00044.txt Node
Date: Tue Feb 07 17:29:51 GMT 2017
User: dcchb
Spectrometer: FLMS00149
Trigger mode: 0
Integration Time (sec): 2.000000E-2
Scans to average: 10
Electric dark correction enabled: true
Nonlinearity correction enabled: false
Boxcar width: 0
XAxis mode: Wavelengths
Number of Pixels in Spectrum: 2048
>>>>>Begin Spectral Data<<<<<
341.393	-14.56
341.776	-14.56
342.16	-14.56
342.543	-39.19
342.927	-74.67
343.31	-75.13
343.693	-61.79
344.077	-69.02
344.46	-69.48
344.843	-76.71
345.226	-30.61
345.61	-50.49
345.993	-29.02
346.376	-9.59
346.759	20.92
347.142	28.6
347.525	47.81
347.908	64.76
348.291	82.84
348.674	95.04
349.057	131.88
349.44	109.05
349.823	130.97
350.206	136.85
350.588	181.37
350.971	211.2
351.354	217.07
351.737	227.01
352.119	263.4
352.502	266.79
352.884	283.51
353.267	296.84
353.65	276.5
354.032	296.39
354.414	307.01
354.797	328.25
355.179	310.85
355.562	331.42
355.944	337.07
356.326	340.68
356.709	342.04
357.091	336.39
357.473	365.32
357.855	340.68
358.238	359.89
358.62	330.29
359.002	333.45
359.384	351.3
359.766	340.91
360.148	318.99
360.53	324.64
360.912	343.85
361.294	343.39
361.676	326.22
362.057	343.62
362.439	333.23
362.821	328.25
363.203	340.91
363.584	345.65
363.966	332.55
364.348	327.35
364.729	330.29
365.111	335.94
365.493	346.78
365.874	322.38
366.256	345.2
366.637	318.08
367.019	316.05
367.4	330.74
367.781	309.5
368.163	324.64
368.544	314.02
368.925	310.4
369.306	299.33
369.688	323.96
370.069	325.09
370.45	301.14
370.831	314.7
371.212	308.82
371.593	317.18
371.974	320.57
372.355	330.97
372.736	306.79
373.117	311.31
373.498	323.28
373.879	324.41
374.26	311.98
374.641	325.09
375.021	329.61
375.402	310.4
375.783	328.93
376.163	315.83
376.544	311.76
376.925	320.8
377.305	329.38
377.686	328.93
378.066	334.36
378.447	322.83
378.827	344.3
379.208	325.54
379.588	354.24
379.968	356.73
380.349	339.78
380.729	348.82
381.109	335.71
381.489	333.23
381.87	337.52
382.25	339.78
382.63	349.95
383.01	319.89
383.39	337.29
383.77	356.28
384.15	352.21
384.53	340.01
384.91	337.07
385.29	339.33
385.67	329.38
386.049	356.95
386.429	352.43
386.809	343.17
387.189	326.67
387.568	358.99
387.948	347.69
388.328	349.04
388.707	358.54
389.087	382.26
389.466	363.96
389.846	372.55
390.225	385.88
390.605	380.91
390.984	370.51
391.363	379.1
391.743	373.45
392.122	403.51
392.501	377.07
392.881	382.26
393.26	373.9
393.639	368.03
394.018	368.03
394.397	384.52
394.776	389.95
395.155	388.82
395.534	385.88
395.913	387.01
396.292	384.07
396.671	366.22
397.05	374.58
397.429	396.05
397.808	380.46
398.186	385.88
398.565	395.82
398.944	386.11
399.323	394.69
399.701	387.24
400.08	393.34
400.458	423.39
400.837	404.18
401.215	412.77
401.594	393.79
401.972	413
402.351	419.1
402.729	423.17
403.107	397.86
403.486	406.67
403.864	410.74
404.242	424.07
404.62	431.75
404.999	422.26
405.377	427.69
405.755	416.39
406.133	424.97
406.511	406.22
406.889	425.88
407.267	429.04
407.645	444.41
408.023	448.25
408.401	440.57
408.779	462.49
409.156	453
409.534	429.27
409.912	454.35
410.29	449.83
410.667	437.4
411.045	432.88
411.422	465.65
411.8	439.44
412.178	453
412.555	458.19
412.933	464.3
413.31	477.85
413.687	466.78
414.065	474.92
414.442	477.18
414.819	487.35
415.197	469.95
415.574	487.12
415.951	489.15
416.328	469.72
416.705	509.49
417.082	488.48
417.46	485.54
417.837	483.96
418.214	490.28
418.591	502.94
418.967	521.92
419.344	530.28
419.721	497.52
420.098	532.54
420.475	526.21
420.852	519.44
421.228	540
421.605	529.15
421.982	532.77
422.358	537.06
422.735	531.19
423.111	524.86
423.488	532.32
423.864	540.9
424.241	556.72
424.617	531.19
424.994	528.93
425.37	527.57
425.746	550.4
426.123	544.75
426.499	574.35
426.875	576.84
427.251	561.24
427.627	561.92
428.003	578.87
428.379	577.74
428.756	568.93
429.132	582.26
429.507	614.35
429.883	580.9
430.259	610.73
430.635	598.53
431.011	599.89
431.387	649.15
431.763	620.22
432.138	642.37
432.514	630.62
432.89	646.44
433.265	625.65
433.641	669.94
434.016	666.32
434.392	663.84
434.767	648.7
435.143	671.3
435.518	680.79
435.894	694.8
436.269	678.08
436.644	696.61
437.02	698.87
437.395	716.49
437.77	706.32
438.145	708.81
438.52	709.49
438.895	703.61
439.271	725.31
439.646	732.54
440.021	728.02
440.395	737.51
440.77	746.55
441.145	753.33
441.52	737.51
441.895	762.82
442.27	791.29
442.645	763.5
443.019	770.05
443.394	749.26
443.769	771.18
444.143	755.59
444.518	768.69
444.892	779.09
445.267	784.51
445.641	805.76
446.016	796.49
446.39	797.62
446.764	807.79
447.139	791.74
447.513	785.64
447.887	807.11
448.262	815.7
448.636	802.59
449.01	835.59
449.384	817.51
449.758	839.65
450.132	832.87
450.506	850.95
450.88	850.73
451.254	855.02
451.628	853.21
452.002	865.87
452.376	870.84
452.75	860.9
453.123	890.5
453.497	914.23
453.871	909.71
454.244	941.57
454.618	920.55
454.992	950.16
455.365	954.68
455.739	938.86
456.112	946.09
456.486	969.37
456.859	971.4
457.232	979.76
457.606	985.19
457.979	998.29
458.352	1026.31
458.725	1015.47
459.099	1038.29
459.472	1066.09
459.845	1052.08
460.218	1070.83
460.591	1055.69
460.964	1084.17
461.337	1080.32
461.71	1148.8
462.083	1150.15
462.456	1132.98
462.829	1111.28
463.201	1168.01
463.574	1163.26
463.947	1147.67
464.32	1221.11
464.692	1217.27
465.065	1241.9
465.438	1217.72
465.81	1267.66
466.183	1267.44
466.555	1283.94
466.928	1308.34
467.3	1291.39
467.672	1331.84
468.045	1354.89
468.417	1381.56
468.789	1356.25
469.161	1388.34
469.534	1422.24
469.906	1445.29
470.278	1446.64
470.65	1488
471.022	1506.3
471.394	1536.36
471.766	1551.05
472.138	1582.46
472.51	1615.9
472.882	1665.17
473.253	1671.5
473.625	1706.3
473.997	1742
474.369	1713.08
474.74	1790.36
475.112	1865.61
475.484	1863.35
475.855	1923.47
476.227	1945.16
476.598	2000.07
476.97	1989
477.341	2065.84
477.713	2120.07
478.084	2133.18
478.455	2227.19
478.827	2266.73
479.198	2353.29
479.569	2367.52
479.94	2438.93
480.311	2499.04
480.682	2534.52
481.053	2585.37
481.424	2692.26
481.795	2731.13
482.166	2821.52
482.537	2886.15
482.908	2970.67
483.279	3017
483.65	3063.55
484.021	3185.13
484.391	3238.69
484.762	3284.11
485.133	3416.31
485.503	3435.29
485.874	3569.75
486.244	3651.78
486.615	3720.48
486.985	3824.21
487.356	3908.05
487.726	4003.19
488.097	4095.61
488.467	4162.28
488.837	4298.32
489.207	4341.93
489.578	4508.94
489.948	4558.88
490.318	4661.25
490.688	4760
491.058	4850.85
491.428	4955.48
491.798	5066.21
492.168	5226.66
492.538	5273.66
492.908	5384.62
493.278	5519.98
493.648	5561.79
494.017	5691.05
494.387	5733.54
494.757	5824.83
495.126	5950.93
495.496	5972.17
495.866	6104.83
496.235	6194.31
496.605	6319.96
496.974	6362.22
497.344	6480.18
497.713	6585.49
498.082	6638.6
498.452	6772.38
498.821	6854.18
499.19	6851.25
499.559	6977.8
499.928	7071.58
500.298	7156.1
500.667	7213.27
501.036	7269.09
501.405	7430.67
501.774	7397.45
502.143	7550.44
502.512	7629.31
502.88	7640.83
503.249	7735.29
503.618	7845.57
503.987	7922.18
504.356	7989.52
504.724	7969.18
505.093	8096.19
505.462	8199.23
505.83	8200.14
506.199	8395.39
506.567	8392.22
506.936	8455.95
507.304	8540.02
507.672	8578.43
508.041	8692.1
508.409	8789.05
508.777	8812.32
509.145	8934.36
509.514	8954.02
509.882	9045.76
510.25	9134.35
510.618	9130.73
510.986	9181.35
511.354	9275.59
511.722	9412.76
512.09	9434.91
512.458	9462.93
512.826	9510.39
513.193	9595.13
513.561	9680.1
513.929	9729.81
514.297	9828.8
514.664	9899.75
515.032	9907.89
515.4	10010.94
515.767	10073.76
516.135	10150.37
516.502	10100.43
516.869	10223.14
517.237	10330.48
517.604	10254.55
517.972	10318.05
518.339	10454.54
518.706	10479.17
519.073	10567.76
519.44	10532.73
519.808	10704.7
520.175	10707.42
520.542	10843.68
520.909	10785.15
521.276	10888.43
521.643	10955.77
522.009	11047.52
522.376	11096.11
522.743	11175.65
523.11	11268.76
523.477	11424.23
523.843	11471.24
524.21	11561.86
524.577	11631.23
524.943	11678.46
525.31	11775.64
525.676	11834.62
526.043	11918.68
526.409	11949.64
526.776	12090.88
527.142	12087.94
527.508	12124.78
527.874	12236.42
528.241	12408.16
528.607	12376.07
528.973	12512.11
529.339	12621.26
529.705	12682.96
530.071	12718.89
530.437	12813.8
530.803	12886.12
531.169	12981.03
531.535	12960.92
531.901	13038.65
532.267	12984.19
532.632	13120.01
532.998	13131.53
533.364	13294.47
533.73	13278.2
534.095	13414.01
534.461	13466.67
534.826	13481.13
535.192	13555.48
535.557	13625.53
535.923	13664.63
536.288	13715.92
536.653	13719.77
537.019	13722.93
537.384	13762.03
537.749	13889.25
538.114	13942.36
538.479	13935.81
538.845	14000.66
539.21	14097.16
539.575	14133.54
539.94	14205.86
540.305	14272.97
540.67	14295.12
541.034	14364.95
541.399	14407.88
541.764	14433.87
542.129	14476.81
542.494	14573.98
542.858	14632.28
543.223	14624.15
543.587	14790.25
543.952	14749.34
544.316	14836.12
544.681	14820.53
545.045	14935.55
545.41	15037.25
545.774	15032.27
546.138	15116.57
546.503	15139.62
546.867	15195.21
547.231	15378.71
547.595	15317.69
547.959	15381.19
548.324	15390.68
548.688	15465.48
549.052	15507.74
549.416	15540.06
549.779	15548.87
550.143	15698.25
550.507	15784.12
550.871	15790.22
551.235	15822.31
551.599	15869.54
551.962	15967.84
552.326	16042.87
552.689	16055.07
553.053	16104.34
553.417	16116.99
553.78	16350.43
554.143	16237.44
554.507	16378.45
554.87	16386.14
555.234	16567.6
555.597	16485.8
555.96	16499.58
556.323	16627.49
556.686	16626.81
557.05	16683.3
557.413	16736.41
557.776	16814.6
558.139	16982.28
558.502	16919.23
558.865	16982.96
559.228	17066.35
559.59	17145.21
559.953	17091.43
560.316	17389.27
560.679	17327.58
561.041	17414.13
561.404	17592.21
561.767	17671.53
562.129	17585.65
562.492	17705.88
562.854	17761.24
563.217	17719.89
563.579	17829.71
563.941	17817.74
564.304	18012.76
564.666	18072.19
565.028	18095.47
565.39	18165.75
565.753	18236.03
566.115	18362.58
566.477	18420.43
566.839	18502.69
567.201	18591.95
567.563	18600.99
567.925	18690.94
568.287	18645.96
568.648	18774.77
569.01	18949.46
569.372	18981.1
569.734	18975.67
570.095	19006.63
570.457	19279.17
570.819	19249.79
571.18	19284.37
571.542	19337.25
571.903	19436.23
572.265	19577.24
572.626	19573.85
572.987	19695.43
573.349	19774.07
573.71	19934.52
574.071	19876.44
574.432	20069.2
574.794	20214.96
575.155	20200.73
575.516	20183.1
575.877	20465.13
576.238	20483.66
576.599	20699.7
576.96	20690.43
577.32	20779.69
577.681	21016.52
578.042	21180.14
578.403	21105.56
578.763	21331.09
579.124	21487.92
579.485	21701.25
579.845	21776.28
580.206	21828.03
580.566	21993.67
580.927	22266.66
581.287	22354.79
581.648	22321.12
582.008	22581.23
582.368	22707.55
582.728	22983.03
583.089	23090.59
583.449	23326.29
583.809	23492.84
584.169	23659.39
584.529	23774.19
584.889	24164.92
585.249	24156.1
585.609	24182.77
585.969	24568.07
586.329	24858
586.688	25042.86
587.048	25196.53
587.408	25407.59
587.768	25523.75
588.127	25808.26
588.487	26014.13
588.846	26321.02
589.206	26323.5
589.565	26636.26
589.925	26991.28
590.284	27132.52
590.643	27339.52
591.003	27528.22
591.362	28015.89
591.721	28100.41
592.08	28235.77
592.44	28539.72
592.799	28793.27
593.158	28877.33
593.517	29188.74
593.876	29407.94
594.235	29496.53
594.593	29847.7
594.952	30106.91
595.311	30192.1
595.67	30488.14
596.029	30917.28
596.387	31069.82
596.746	31315.24
597.104	31330.15
597.463	31531.05
597.822	31898.72
598.18	31960.64
598.538	32213.29
598.897	32609.21
599.255	32579.61
599.613	33163.1
599.972	33139.14
600.33	33420.94
600.688	33542.07
601.046	33766.02
601.404	33957.88
601.762	34053.69
602.12	34473.57
602.478	34495.27
602.836	34781.13
603.194	34778.2
603.552	34948.59
603.91	35045.31
604.268	35360.78
604.625	35422.25
604.983	35597.84
605.341	35684.61
605.698	36078.5
606.056	36183.81
606.413	36313.3
606.771	36603.68
607.128	36803.68
607.485	36606.17
607.843	36790.57
608.2	37164.8
608.557	37406.15
608.914	37300.16
609.272	37657.22
609.629	37837.1
609.986	38024.89
610.343	37998.45
610.7	38226.92
611.057	38242.51
611.414	38434.14
611.771	38685.66
612.127	38774.93
612.484	38982.38
612.841	39020.12
613.198	39062.15
613.554	39223.73
613.911	39507.34
614.267	39521.12
614.624	39596.6
614.98	39763.6
615.337	39961.34
615.693	39947.1
616.05	39967.66
616.406	40222.12
616.762	40268.9
617.118	40309.58
617.475	40329.01
617.831	40557.7
618.187	40703.92
618.543	40699.17
618.899	40926.06
619.255	40952.5
619.611	41125.6
619.967	41258.48
620.323	41456.89
620.678	41162.66
621.034	41186.39
621.39	41348.87
621.746	41338.48
622.101	41813.72
622.457	41488.53
622.812	41747.96
623.168	41920.15
623.523	41905.92
623.879	42080.83
624.234	41793.15
624.589	42123.99
624.945	42262.07
625.3	42236.76
625.655	42084.67
626.01	42212.35
626.365	42396.98
626.72	42303.87
627.075	42203.54
627.43	42304.1
627.785	42179.81
628.14	42329.64
628.495	42445.79
628.85	42439.69
629.205	42348.62
629.559	42588.61
629.914	42441.27
630.269	42488.73
630.623	42406.92
630.978	42430.65
631.332	42538.22
631.687	42783.63
632.041	42613.02
632.396	42627.71
632.75	42524.88
633.104	42607.82
633.459	42436.75
633.813	42378.9
634.167	42535.05
634.521	42508.61
634.875	42502.96
635.229	42420.71
635.583	42429.75
635.937	42360.37
636.291	42493.47
636.645	42358.11
636.999	42302.97
637.352	42627.93
637.706	42229.98
638.06	42419.12
638.413	42328.28
638.767	42295.51
639.121	42263.42
639.474	42012.13
639.828	42190.66
640.181	42153.82
640.534	42278.34
640.888	42236.76
641.241	41980.04
641.594	42133.48
641.947	42223.42
642.301	42080.15
642.654	42166.7
643.007	42138.45
643.36	42165.35
643.713	42117.89
644.066	42157.44
644.419	42066.82
644.771	41780.5
645.124	41390.68
645.477	41285.37
645.83	41008.54
646.182	40829.11
646.535	40893.29
646.888	40953.17
647.24	40605.16
647.593	40953.4
647.945	40844.7
648.298	40625.73
648.65	40504.6
649.002	40510.7
649.355	40692.84
649.707	40598.83
650.059	40737.14
650.411	41238.36
650.763	41265.71
651.115	41645.13
651.467	41487.62
651.819	41538.24
652.171	41394.52
652.523	41439.49
652.875	41395.2
653.227	41177.12
653.578	41400.39
653.93	41265.48
654.282	41250.12
654.633	41164.24
654.985	41190
655.337	41261.64
655.688	41225.48
656.039	41393.39
656.391	41115.2
656.742	41095.77
657.094	41096.9
657.445	41344.12
657.796	41134.19
658.147	41112.49
658.498	41086.05
658.849	41143.23
659.2	41171.47
659.551	41194.75
659.902	41400.62
660.253	41200.85
660.604	41167.86
660.955	40960.18
661.306	41194.07
661.656	41121.53
662.007	41044.02
662.358	41128.99
662.708	41000.86
663.059	41147.52
663.409	40837.02
663.76	41162.21
664.11	41130.57
664.461	41202.89
664.811	41193.39
665.161	41006.51
665.511	40986.85
665.862	41051.25
666.212	41163.11
666.562	41076.79
666.912	40987.52
667.262	41003.34
667.612	40981.65
667.962	40917.7
668.312	40968.54
668.662	41049.9
669.011	41012.16
669.361	40841.54
669.711	40893.06
670.06	40732.84
670.41	40766.29
670.76	40842.67
671.109	40830.47
671.459	40738.26
671.808	40667.08
672.157	40903.01
672.507	40583.24
672.856	40666.18
673.205	40618.49
673.554	40794.99
673.904	40709.57
674.253	40919.5
674.602	40739.17
674.951	40161.78
675.3	40087.66
675.649	40645.84
675.998	40587.31
676.346	40743.24
676.695	40721.54
677.044	40336.92
677.393	40519.06
677.741	40430.93
678.09	40431.15
678.438	40356.58
678.787	40400.19
679.135	40455.79
679.484	40179.86
679.832	40236.36
680.181	40223.02
680.529	40272.74
680.877	40144.61
681.225	39958.4
681.573	40276.81
681.922	39907.1
682.27	39893.77
682.618	39981.22
682.966	39822.81
683.314	39848.57
683.661	39675.47
684.009	39537.17
684.357	39548.92
684.705	39508.01
685.053	39485.87
685.4	39485.87
685.748	39168.36
686.095	39211.3
686.443	39198.42
686.79	39167.01
687.138	39241.36
687.485	39045.88
687.832	39085.43
688.18	39196.38
688.527	38897.86
688.874	38842.95
689.221	38803.4
689.568	38695.61
689.915	38593.69
690.262	38689.51
690.609	38561.83
690.956	38402.06
691.303	38308.72
691.65	38235.28
691.997	38155.28
692.344	37927.72
692.69	37839.13
693.037	37812.01
693.383	37583.32
693.73	37738.34
694.077	37537.9
694.423	37530.67
694.769	37350.56
695.116	37244.35
695.462	37131.81
695.808	37267.4
696.155	37231.24
696.501	37020.17
696.847	36901.76
697.193	36803.23
697.539	36987.18
697.885	36583.8
698.231	36594.19
698.577	36438.27
698.923	36428.1
699.269	36172.28
699.614	36149.46
699.96	36087.09
700.306	36113.53
700.651	35941.78
700.997	35848
701.342	35805.06
701.688	35764.61
702.033	35733.88
702.379	35699.3
702.724	35519.65
703.069	35577.95
703.415	35251.4
703.76	35232.87
704.105	35123.5
704.45	35166.43
704.795	35004.18
705.14	34897.97
705.485	34870.62
705.83	34613.45
706.175	34656.39
706.52	34627.92
706.865	34488.71
707.209	34482.61
707.554	34383.4
707.899	34356.51
708.243	34111.32
708.588	34178.44
708.932	33954.04
709.277	33993.58
709.621	33924.21
709.966	33575.97
710.31	33892.8
710.654	33411.9
710.998	33668.17
711.342	33555.85
711.687	33418.91
712.031	33497.33
712.375	33145.7
712.719	33309.31
713.063	33162.19
713.407	33249.87
713.75	33125.13
714.094	33147.05
714.438	32966.72
714.782	32939.83
715.125	32768.31
715.469	32830.45
715.812	32749.1
716.156	32572.83
716.499	32620.74
716.843	32467.97
717.186	32392.5
717.53	32562.89
717.873	32696.44
718.216	32340.52
718.559	32279.28
718.902	31885.84
719.246	32185.04
719.589	31886.07
719.932	31922.9
720.275	31964.03
720.617	31890.36
720.96	31887.2
721.303	31927.42
721.646	31788.67
721.989	31585.29
722.331	31675
722.674	31554.33
723.016	31663.48
723.359	31566.53
723.701	31700.99
724.044	31337.38
724.386	31166.09
724.729	31401.11
725.071	31399.75
725.413	31219.19
725.755	31157.95
726.097	31055.58
726.439	30859.43
726.782	30970.39
727.124	31035.92
727.465	30919.31
727.807	30993.44
728.149	30861.69
728.491	30636.84
728.833	30826.21
729.175	30662.6
729.516	30538.76
729.858	30569.27
730.199	30495.14
730.541	30486.33
730.882	30501.25
731.224	30544.86
731.565	30311.19
731.906	30418.99
732.248	30452.21
732.589	30108.04
732.93	30131.31
733.271	30099.45
733.612	30140.35
733.953	30141.93
734.294	29806.12
734.635	29996.63
734.976	29960.92
735.317	29790.76
735.658	29689.74
735.999	29798.89
736.339	29751.89
736.68	29817.65
737.021	29740.59
737.361	29642.74
737.702	29833.92
738.042	29579.69
738.383	29515.28
738.723	29565.23
739.063	29461.5
739.404	29567.94
739.744	29360.03
740.084	29352.12
740.424	29359.81
740.764	29356.19
741.104	29301.5
741.444	29113.03
741.784	29111.45
742.124	29097.44
742.464	29158.23
742.804	28932.02
743.143	28965.92
743.483	28965.24
743.823	28852.93
744.162	28816.77
744.502	28820.39
744.841	28736.09
745.181	28783.78
745.52	28824.45
745.86	28807.28
746.199	28682.31
746.538	28629.88
746.877	28824.23
747.216	28704.68
747.556	28602.54
747.895	28577
748.234	28388.99
748.573	28344.47
748.911	28369.78
749.25	28257.01
749.589	28236.67
749.928	28215.66
750.267	28243.68
750.605	28178.6
750.944	28088.65
751.283	27910.13
751.621	28058.82
751.96	27872.39
752.298	27902.22
752.636	27874.42
752.975	27675.56
753.313	27666.29
753.651	27739.96
753.989	27564.15
754.327	27586.75
754.666	27319.63
755.004	27456.58
755.342	27470.82
755.679	27415.45
756.017	27301.33
756.355	27311.05
756.693	27291.39
757.031	27239.64
757.368	27130.49
757.706	27148.79
758.044	26918.29
758.381	27087.1
758.719	26939.76
759.056	26770.27
759.394	26942.24
759.731	26672.42
760.068	26650.95
760.405	26477.62
760.743	26482.82
761.08	26511.52
761.417	26292.77
761.754	26311.98
762.091	26236.05
762.428	26098.65
762.765	25887.81
763.102	25913.8
763.438	25815.95
763.775	25795.61
764.112	25844.87
764.449	25765.33
764.785	25683.97
765.122	25509.06
765.458	25436.07
765.795	25474.03
766.131	25365.79
766.467	25255.96
766.804	25073.82
767.14	25049.86
767.476	25055.51
767.812	24912.24
768.148	24900.72
768.485	24751.57
768.821	24524
769.157	24558.35
769.492	24552.7
769.828	24514.28
770.164	24316.78
770.5	24346.83
770.836	24233.61
771.171	24115.43
771.507	24145.93
771.842	23884.92
772.178	23888.54
772.513	23760.18
772.849	23710.24
773.184	23647.87
773.519	23673.4
773.855	23499.17
774.19	23495.1
774.525	23293.3
774.86	23397.03
775.195	23221.21
775.53	23074.1
775.865	23069.8
776.2	22822.8
776.535	22554.56
776.87	22713.88
777.205	22665.75
777.539	22508.01
777.874	22511.63
778.209	22433.66
778.543	22316.38
778.878	22287.9
779.212	22141.47
779.547	22079.32
779.881	22029.83
780.215	21910.96
780.55	22004.97
780.884	21819.44
781.218	21715.94
781.552	21654.47
781.886	21630.97
782.22	21503.52
782.554	21441.15
782.888	21152.79
783.222	21103.53
783.556	21020.59
783.889	20987.6
784.223	20868.73
784.557	20791.44
784.89	20897.88
785.224	20763.87
785.557	20715.97
785.891	20599.59
786.224	20625.8
786.558	20520.27
786.891	20393.26
787.224	20299.48
787.557	20204.57
787.891	20242.31
788.224	20157.34
788.557	20149.2
788.89	19986.04
789.223	20031.46
789.556	19903.11
789.888	19899.49
790.221	19718.7
790.554	19636.9
790.887	19685.94
791.219	19510.12
791.552	19500.63
791.884	19416.79
792.217	19383.57
792.549	19167.31
792.882	19078.27
793.214	19057.03
793.546	19112.39
793.879	18889.8
794.211	18870.14
794.543	18959.4
794.875	18828.56
795.207	18922.79
795.539	18700.2
795.871	18746.3
796.203	18599.19
796.535	18469.25
796.867	18453.43
797.198	18368.91
797.53	18354.67
797.862	18200.55
798.193	18291.62
798.525	18133.44
798.856	18168.24
799.188	17959.43
799.519	17928.47
799.85	17808.92
800.182	17834.46
800.513	17901.13
800.844	17709.04
801.175	17825.42
801.506	17686.89
801.837	17575.26
802.168	17634.01
802.499	17500.68
802.83	17465.88
803.161	17363.51
803.491	17340.01
803.822	17331.87
804.153	17319.22
804.483	17150.86
804.814	17121.48
805.145	17027.02
805.475	17049.4
805.805	17080.81
806.136	16928.04
806.466	16981.6
806.796	16925.78
807.126	16747.03
807.457	16700.25
807.787	16741.83
808.117	16628.16
808.447	16556.75
808.777	16582.52
809.107	16469.98
809.436	16340.49
809.766	16420.26
810.096	16321.73
810.426	16227.95
810.755	16364.44
811.085	16239.25
811.414	16219.14
811.744	16051.23
812.073	16131.68
812.403	16062.98
812.732	16072.92
813.061	16012.59
813.39	15829.54
813.719	15874.74
814.049	15863.44
814.378	15758.81
814.707	15763.78
815.036	15764.91
815.365	15630.68
815.693	15559.94
816.022	15506.16
816.351	15484.24
816.68	15425.26
817.008	15510.91
817.337	15328.76
817.665	15278.6
817.994	15412.6
818.322	15293.28
818.651	15195.21
818.979	15166.51
819.307	15247.41
819.636	15137.36
819.964	15113.63
820.292	15150.92
820.62	15164.47
820.948	15030.24
821.276	15110.01
821.604	15014.42
821.932	15015.33
822.259	15067.53
822.587	14950.24
822.915	14937.36
823.243	15005.38
823.57	14992.05
823.898	14969.9
824.225	14964.71
824.553	14923.8
824.88	14955.67
825.207	14945.72
825.535	14992.28
825.862	14929.9
826.189	14946.63
826.516	15015.78
826.843	15020.07
827.17	15032.27
827.497	15029.34
827.824	14977.59
828.151	14946.17
828.478	14897.81
828.805	15065.72
829.131	14867.76
829.458	14982.11
829.785	14879.96
830.111	14998.6
830.438	15040.18
830.764	14953.41
831.09	14946.4
831.417	14786.4
831.743	14891.26
832.069	14927.19
832.395	14815.33
832.722	14830.02
833.048	14832.05
833.374	14757.03
833.7	14676.58
834.026	14703.02
834.351	14751.83
834.677	14790.92
835.003	14824.82
835.329	14742.79
835.654	14753.41
835.98	14678.84
836.306	14690.36
836.631	14574.21
836.956	14691.94
837.282	14642.91
837.607	14581.89
837.932	14564.26
838.258	14526.3
838.583	14514.55
838.908	14458.05
839.233	14494.21
839.558	14465.51
839.883	14322.91
840.208	14316.59
840.533	14336.25
840.858	14342.8
841.182	14330.15
841.507	14313.88
841.832	14262.12
842.156	14206.31
842.481	14213.76
842.805	14186.19
843.13	14155.01
843.454	13993.21
843.778	14009.7
844.103	14022.13
844.427	13965.64
844.751	13881.12
845.075	13870.5
845.399	13896.03
845.723	13773.55
846.047	13741.46
846.371	13721.12
846.695	13729.94
847.019	13567.45
847.343	13567.45
847.666	13514.57
847.99	13461.69
848.313	13393.45
848.637	13378.76
848.96	13296.05
849.284	13261.02
849.607	13145.09
849.931	13172.89
850.254	13071.87
850.577	12980.8
850.9	12963.85
851.223	12925.21
851.546	12839.79
851.869	12739.23
852.192	12846.79
852.515	12748.49
852.838	12667.14
853.161	12708.95
853.483	12595.73
853.806	12477.54
854.129	12563.64
854.451	12511.21
854.774	12453.58
855.096	12396.41
855.419	12389.63
855.741	12333.36
856.063	12224.89
856.385	12204.78
856.708	12127.04
857.03	12104.67
857.352	12173.82
857.674	12011.11
857.996	12037.32
858.318	11909.42
858.64	11996.87
858.961	11928.18
859.283	11831.23
859.605	11802.08
859.926	11842.08
860.248	11825.13
860.57	11762.76
860.891	11771.57
861.212	11657.22
861.534	11629.88
861.855	11566.6
862.176	11602.31
862.498	11689.99
862.819	11609.99
863.14	11520.28
863.461	11515.98
863.782	11497.68
864.103	11521.86
864.424	11418.13
864.745	11443.44
865.065	11449.54
865.386	11303.56
865.707	11367.06
866.027	11412.26
866.348	11385.82
866.668	11244.8
866.989	11310.56
867.309	11208.42
867.63	11253.39
867.95	11233.5
868.27	11205.71
868.59	11133.17
868.91	11142.88
869.23	11080.97
869.55	11018.82
869.87	11192.38
870.19	11080.06
870.51	11181.98
870.83	11071.93
871.15	11057.92
871.469	11012.27
871.789	11113.28
872.109	11070.8
872.428	10953.06
872.748	10990.35
873.067	11017.24
873.386	10991.7
873.706	10941.76
874.025	10882.33
874.344	10826.06
874.663	10810.92
874.982	10754.65
875.301	10874.19
875.62	10720.07
875.939	10789.9
876.258	10778.37
876.577	10733.63
876.896	10741.99
877.214	10709.22
877.533	10665.84
877.852	10695.44
878.17	10720.07
878.489	10644.82
878.807	10661.09
879.125	10567.08
879.444	10562.79
879.762	10569.57
880.08	10578.38
880.398	10491.15
880.716	10558.49
881.034	10489.79
881.352	10439.17
881.67	10450.47
881.988	10441.89
882.306	10320.31
882.624	10382
882.941	10342.68
883.259	10314.21
883.577	10286.64
883.894	10234.66
884.212	10245.51
884.529	10250.03
884.846	10170.48
885.164	10156.02
885.481	10132.29
885.798	10139.3
886.115	10106.08
886.432	10141.78
886.75	10100.2
887.067	10045.74
887.383	10000.32
887.7	10057.26
888.017	9956.25
888.334	9942.24
888.651	9914.67
888.967	9924.16
889.284	9834.67
889.6	9826.31
889.917	9779.31
890.233	9710.61
890.55	9742.47
890.866	9731.17
891.182	9695.47
891.498	9642.59
891.815	9678.29
892.131	9622.25
892.447	9564.17
892.763	9587.9
893.079	9511.74
893.395	9506.09
893.71	9452.53
894.026	9466.54
894.342	9455.92
894.657	9387.68
894.973	9358.3
895.289	9403.72
895.604	9365.3
895.92	9288.7
896.235	9225.42
896.55	9256.83
896.865	9184.52
897.181	9150.17
897.496	9083.28
897.811	9044.86
898.126	9031.3
898.441	8989.95
898.756	8956.5
899.071	8911.76
899.386	8952.66
899.7	8830.86
900.015	8841.93
900.33	8718.09
900.644	8783.17
900.959	8739.56
901.273	8742.27
901.588	8678.32
901.902	8628.15
902.216	8639.9
902.531	8656.17
902.845	8623.4
903.159	8605.1
903.473	8519
903.787	8484.88
904.101	8453.24
904.415	8426.35
904.729	8428.15
905.042	8361.26
905.356	8328.5
905.67	8353.35
905.984	8330.76
906.297	8248.5
906.611	8173.25
906.924	8189.29
907.237	8209.85
907.551	8156.75
907.864	8103.42
908.177	8065.45
908.491	8016.41
908.804	8020.26
909.117	7983.65
909.43	7868.17
909.743	7924.89
910.056	7876.3
910.368	7818.68
910.681	7814.16
910.994	7786.36
911.307	7672.02
911.619	7636.99
911.932	7665.01
912.244	7618.46
912.557	7636.99
912.869	7606.71
913.181	7573.94
913.494	7580.94
913.806	7497.11
914.118	7457.11
914.43	7445.36
914.742	7378.69
915.054	7373.04
915.366	7322.87
915.678	7327.62
915.99	7269.77
916.302	7244
916.613	7164.91
916.925	7192.71
917.236	7137.11
917.548	7140.96
917.859	7117
918.171	7080.17
918.482	7034.29
918.794	6993.84
919.105	6955.42
919.416	6906.39
919.727	6915.88
920.038	6863.22
920.349	6878.82
920.66	6815.77
920.971	6868.65
921.282	6747.29
921.593	6745.49
921.903	6660.97
922.214	6739.61
922.525	6599.05
922.835	6666.17
923.146	6546.85
923.456	6564.25
923.767	6538.71
924.077	6520.18
924.387	6515.89
924.697	6458.26
925.008	6424.59
925.318	6387.98
925.628	6313.63
925.938	6401.54
926.248	6330.13
926.558	6282
926.867	6286.29
927.177	6182.34
927.487	6256.69
927.796	6144.37
928.106	6194.99
928.416	6141.89
928.725	6111.15
929.034	6073.87
929.344	6089.23
929.653	6068.67
929.962	6009.01
930.271	5940.08
930.581	6002
930.89	5944.6
931.199	5912.51
931.508	5897.15
931.817	5890.14
932.125	5859.18
932.434	5838.84
932.743	5740.77
933.051	5752.52
933.36	5714.55
933.669	5675.23
933.977	5683.37
934.286	5632.75
934.594	5596.59
934.902	5561.34
935.21	5564.05
935.519	5548
935.827	5544.61
936.135	5467.55
936.443	5471.4
936.751	5413.77
937.059	5445.63
937.367	5404.28
937.674	5427.78
937.982	5409.48
938.29	5373.32
938.597	5349.14
938.905	5290.16
939.213	5290.16
939.52	5242.48
939.827	5297.39
940.135	5219.65
940.442	5164.06
940.749	5193.44
941.056	5158.64
941.363	5102.14
941.67	5102.59
941.977	5046.1
942.284	5031.86
942.591	5004.06
942.898	5009.71
943.205	5058.98
943.511	4962.71
943.818	4992.54
944.125	4868.25
944.431	4908.7
944.738	4928.59
945.044	4895.37
945.35	4845.88
945.657	4785.76
945.963	4760.91
946.269	4783.5
946.575	4788.48
946.881	4765.43
947.187	4771.53
947.493	4732.88
947.799	4711.64
948.105	4675.03
948.41	4602.27
948.716	4603.17
949.022	4573.11
949.327	4627.12
949.633	4535.15
949.938	4555.71
950.244	4567.69
950.549	4513.23
950.854	4452.21
951.16	4488.14
951.465	4455.15
951.77	4425.55
952.075	4439.11
952.38	4394.36
952.685	4409.5
952.99	4322.5
953.294	4341.03
953.599	4316.17
953.904	4287.47
954.209	4255.61
954.513	4275.49
954.818	4218.77
955.122	4254.7
955.426	4241.15
955.731	4203.41
956.035	4142.17
956.339	4113.92
956.643	4147.36
956.948	4093.13
957.252	4121.15
957.556	4104.2
957.86	4042.28
958.163	4060.13
958.467	4006.58
958.771	4011.77
959.075	3992.79
959.378	3929.52
959.682	3973.58
959.985	3919.35
960.289	3887.03
960.592	3884.77
960.896	3874.15
961.199	3872.79
961.502	3846.13
961.805	3837.99
962.108	3800.48
962.411	3817.65
962.714	3810.42
963.017	3774.94
963.32	3735.4
963.623	3686.36
963.926	3757.99
964.228	3721.16
964.531	3690.88
964.833	3707.37
965.136	3621.5
965.438	3642.52
965.741	3626.92
966.043	3617.66
966.345	3588.73
966.648	3593.7
966.95	3587.6
967.252	3540.82
967.554	3535.18
967.856	3486.14
968.158	3481.62
968.46	3480.04
968.761	3483.2
969.063	3462.86
969.365	3431.22
969.666	3425.12
969.968	3394.16
970.269	3371.34
970.571	3398.91
970.872	3374.5
971.174	3317.78
971.475	3315.52
971.776	3300.38
972.077	3328.63
972.378	3325.46
972.679	3280.04
972.98	3240.49
973.281	3262.41
973.582	3238.46
973.883	3212.47
974.183	3185.58
974.484	3205.92
974.785	3162.3
975.085	3119.37
975.386	3136.32
975.686	3123.21
975.986	3073.72
976.287	3159.82
976.587	3072.36
976.887	3107.39
977.187	3096.77
977.487	3091.12
977.787	3048.18
978.087	3002.53
978.387	3008.64
978.687	2990.56
978.987	3014.96
979.286	2969.77
979.586	3019.48
979.885	2939.71
980.185	2974.29
980.484	2956.21
980.784	2940.39
981.083	2930.9
981.382	2861.75
981.682	2827.17
981.981	2867.62
982.28	2847.96
982.579	2826.95
982.878	2831.47
983.177	2847.51
983.475	2773.39
983.774	2764.35
984.073	2764.35
984.372	2761.41
984.67	2759.83
984.969	2720.96
985.267	2728.19
985.566	2714.18
985.864	2689.55
986.162	2678.25
986.461	2657.23
986.759	2625.82
987.057	2613.62
987.355	2645.93
987.653	2626.72
987.951	2629.44
988.249	2614.75
988.547	2593.28
988.844	2577.23
989.142	2588.08
989.44	2557.12
989.737	2555.31
990.035	2514.41
990.332	2519.38
990.63	2483.45
990.927	2493.62
991.224	2496.11
991.521	2486.16
991.819	2447.07
992.116	2455.43
992.413	2419.95
992.71	2426.28
993.006	2425.15
993.303	2387.63
993.6	2394.87
993.897	2394.87
994.193	2384.47
994.49	2331.59
994.787	2336.56
995.083	2317.58
995.379	2313.29
995.676	2285.49
995.972	2321.2
996.268	2305.15
996.565	2308.09
996.861	2261.31
997.157	2284.13
997.453	2233.97
997.749	2217.92
998.044	2213.18
998.34	2228.09
998.636	2204.14
998.932	2185.83
999.227	2187.41
999.523	2144.93
999.818	2167.75
1000.114	2170.47
1000.409	2140.86
1000.704	2111.94
1001	2112.39
1001.295	2075.33
1001.59	2120.52
1001.885	2054.76
1002.18	2070.81
1002.475	2074.87
1002.77	2068.1
1003.065	2069.9
1003.359	2030.81
1003.654	2019.96
1003.949	1991.71
1004.243	2019.28
1004.538	1986.29
1004.832	1982.22
1005.127	1961.21
1005.421	1953.52
1005.715	1929.79
1006.009	1937.03
1006.304	1918.95
1006.598	1905.16
1006.892	1919.4
1007.186	1882.11
1007.48	1881.66
1007.773	1871.94
1008.067	1894.99
1008.361	1878.04
1008.655	1870.59
1008.948	1828.55
1009.242	1826.07
1009.535	1835.33
1009.829	1837.37
1010.122	1786.75
1010.415	1748.1
1010.708	1754.66
1011.001	1740.65
1011.295	1736.35
1011.588	1732.96
1011.881	1719.86
1012.173	1703.81
1012.466	1684.15
1012.759	1701.78
1013.052	1690.48
1013.344	1679.4
1013.637	1649.35
1013.93	1645.96
1014.222	1657.26
1014.514	1643.47
1014.807	1631.04
1015.099	1598.05
1015.391	1577.26
1015.683	1594.89
1015.976	1570.93
1016.268	1586.07
1016.56	1569.58
1016.851	1582.68
1017.143	1570.48
1017.435	1528.45
1017.727	1527.54
1018.018	1549.24
1018.31	1528
1018.602	1482.8
1018.893	1490.94
1019.185	1521.22
1019.476	1487.55
1019.767	1460.88
1020.058	1457.49
1020.35	1452.29
1020.641	1443.48
1020.932	1426.76
1021.223	1405.51
1021.514	1424.95
1021.804	1403.93
1022.095	1395.57
1022.386	1382.01
1022.677	1352.86
1022.967	1367.55
1023.258	1374.33
1023.548	1339.75
1023.839	1357.61
1024.129	1340.88
1024.419	1325.97
1024.709	1337.72
1025	1292.52
1025.29	1291.17
1025.58	1302.01
1025.87	1272.41
1026.16	1247.55
1026.449	1283.48
1026.739	1252.75
1027.029	1253.88
1027.319	1241.45
1027.608	1254.33
1027.898	1221.56
1028.187	1206.42
1028.477	1220.66
1028.766	1201.68
1029.055	1167.33
1029.344	1180.44
1029.634	1184.95
1029.923	1175.01
1030.212	1146.99
1030.501	1163.26
1030.79	1144.5
1031.078	1160.55
1031.367	1110.38
1031.656	1115.8
1031.945	1130.72
1032.233	1107.89
1032.522	1078.06
1032.81	1066.54
1033.099	1104.73
1033.387	1104.5
1033.675	1066.99
1033.963	1076.26
1034.251	1079.87
1034.54	1070.38
1034.828	1034.22
1035.116	1031.74
1035.403	1018.86
1035.691	1043.04
1035.979	1014.56
1036.267	997.84
1036.554	1015.02
1036.842	1003.72
1037.129	1016.6
1037.417	984.28
1037.704	973.89
1037.992	999.87
1038.279	955.36
1038.566	958.75
1038.853	958.75
1039.14	958.75
