Data from hue_00_FLMS001491_97.txt Node
Date: Mon Feb 06 15:30:42 GMT 2017
User: dcchb
Spectrometer: FLMS00149
Trigger mode: 0
Integration Time (sec): 2.000000E-2
Scans to average: 10
Electric dark correction enabled: true
Nonlinearity correction enabled: false
Boxcar width: 0
XAxis mode: Wavelengths
Number of Pixels in Spectrum: 2048
>>>>>Begin Spectral Data<<<<<
341.393	-20.68
341.776	-20.68
342.16	-20.68
342.543	-45.31
342.927	-67.68
343.31	-64.97
343.693	-68.36
344.077	-71.75
344.46	-51.86
344.843	-43.28
345.226	-46.89
345.61	-24.75
345.993	-19.32
346.376	4.41
346.759	-0.79
347.142	36.5
347.525	41.92
347.908	55.48
348.291	64.07
348.674	99.32
349.057	90.28
349.44	109.94
349.823	113.33
350.206	137.96
350.588	189.71
350.971	214.34
351.354	219.54
351.737	232.42
352.119	246.66
352.502	282.37
352.884	269.26
353.267	300.22
353.65	288.69
354.032	286.89
354.414	315.81
354.797	310.61
355.179	324.4
355.562	323.72
355.944	327.56
356.326	320.1
356.709	351.97
357.091	332.08
357.473	329.82
357.855	344.96
358.238	338.41
358.62	317.39
359.002	368.92
359.384	354
359.766	332.76
360.148	340.44
360.53	316.49
360.912	324.85
361.294	325.53
361.676	321.01
362.057	332.08
362.439	313.1
362.821	321.01
363.203	323.27
363.584	317.62
363.966	317.84
364.348	328.24
364.729	317.39
365.111	338.64
365.493	308.13
365.874	325.08
366.256	330.95
366.637	309.03
367.019	306.55
367.4	327.11
367.781	300.22
368.163	320.33
368.544	313.1
368.925	271.97
369.306	323.72
369.688	307.22
370.069	338.86
370.45	309.48
370.831	303.83
371.212	317.62
371.593	294.79
371.974	303.61
372.355	305.42
372.736	314
373.117	309.26
373.498	312.65
373.879	310.61
374.26	320.33
374.641	308.58
375.021	312.65
375.402	315.81
375.783	314.68
376.163	331.86
376.544	314.68
376.925	306.77
377.305	315.58
377.686	327.34
378.066	332.53
378.447	313.55
378.827	312.87
379.208	331.4
379.588	322.14
379.968	322.82
380.349	339.09
380.729	335.25
381.109	305.64
381.489	306.55
381.87	345.19
382.25	327.79
382.63	340.89
383.01	326.66
383.39	339.99
383.77	326.21
384.15	330.5
384.53	311.52
384.91	329.6
385.29	340.89
385.67	334.79
386.049	335.7
386.429	344.74
386.809	358.07
387.189	339.31
387.568	342.25
387.948	347.45
388.328	344.74
388.707	332.53
389.087	373.21
389.466	366.43
389.846	356.49
390.225	353.78
390.605	346.54
390.984	345.19
391.363	368.69
391.743	359.2
392.122	350.39
392.501	350.84
392.881	370.05
393.26	353.55
393.639	359.2
394.018	339.99
394.397	358.07
394.776	351.29
395.155	375.7
395.534	369.59
395.913	375.24
396.292	375.24
396.671	387.22
397.05	365.3
397.429	381.35
397.808	379.54
398.186	380.44
398.565	371.4
398.944	386.32
399.323	377.28
399.701	375.47
400.08	393.1
400.458	392.87
400.837	368.01
401.215	395.36
401.594	398.07
401.972	408.24
402.351	397.84
402.729	391.74
403.107	387
403.486	375.92
403.864	389.26
404.242	398.97
404.62	405.75
404.999	412.98
405.377	391.29
405.755	413.66
406.133	395.36
406.511	425.86
406.889	428.8
407.267	424.73
407.645	429.25
408.023	408.01
408.401	429.71
408.779	414.11
409.156	422.7
409.534	446.43
409.912	434.9
410.29	446.88
410.667	441.68
411.045	449.59
411.422	443.27
411.8	451.17
412.178	435.81
412.555	443.04
412.933	435.13
413.31	429.93
413.687	443.72
414.065	450.27
414.442	444.62
414.819	436.26
415.197	466.09
415.574	493.89
415.951	453.89
416.328	478.52
416.705	474.9
417.082	485.07
417.46	493.66
417.837	488.01
418.214	485.3
418.591	492.76
418.967	483.72
419.344	471.96
419.721	483.94
420.098	489.37
420.475	514.9
420.852	517.16
421.228	517.16
421.605	527.33
421.982	526.65
422.358	504.05
422.735	526.2
423.111	532.08
423.488	534.11
423.864	541.79
424.241	537.73
424.617	551.06
424.994	515.13
425.37	537.27
425.746	553.77
426.123	553.54
426.499	558.29
426.875	550.38
427.251	545.64
427.627	558.29
428.003	557.39
428.379	593.09
428.756	559.42
429.132	581.34
429.507	582.24
429.883	595.35
430.259	591.96
430.635	597.84
431.011	589.02
431.387	614.11
431.763	613.88
432.138	620.21
432.514	628.35
432.89	608.91
433.265	642.13
433.641	656.14
434.016	641.68
434.392	639.87
434.767	665.41
435.143	650.04
435.518	669.02
435.894	657.95
436.269	659.98
436.644	648.01
437.02	690.72
437.395	683.26
437.77	682.81
438.145	693.43
438.52	711.51
438.895	708.79
439.271	708.12
439.646	720.32
440.021	723.71
440.395	723.48
440.77	706.54
441.145	747.89
441.52	720.55
441.895	752.64
442.27	758.51
442.645	730.26
443.019	748.12
443.394	753.99
443.769	748.57
444.143	753.09
444.518	772.75
444.892	755.35
445.267	744.5
445.641	766.65
446.016	758.29
446.39	805.74
446.764	811.84
447.139	773.43
447.513	764.84
447.887	784.73
448.262	800.32
448.636	798.06
449.01	816.36
449.384	808.23
449.758	805.06
450.132	817.49
450.506	830.37
450.88	828.57
451.254	824.72
451.628	834.67
452.002	847.1
452.376	847.77
452.75	852.07
453.123	867.66
453.497	876.7
453.871	857.49
454.244	882.8
454.618	895.91
454.992	904.72
455.365	904.5
455.739	907.66
456.112	906.53
456.486	919.86
456.859	931.16
457.232	945.85
457.606	968.68
457.979	938.39
458.352	957.38
458.725	1004.61
459.099	958.51
459.472	1006.87
459.845	996.24
460.218	1003.7
460.591	1005.51
460.964	1040.99
461.337	1034.66
461.71	1057.49
462.083	1039.41
462.456	1049.12
462.829	1070.82
463.201	1099.75
463.574	1091.84
463.947	1105.85
464.32	1091.38
464.692	1128.44
465.065	1151.5
465.438	1179.52
465.81	1193.98
466.183	1189.91
466.555	1234.43
466.928	1202.34
467.3	1207.76
467.672	1198.27
468.045	1252.51
468.417	1249.12
468.789	1263.58
469.161	1271.27
469.534	1289.57
469.906	1316.01
470.278	1342.9
470.65	1360.76
471.022	1369.12
471.394	1394.88
471.766	1417.48
472.138	1423.8
472.51	1450.02
472.882	1462
473.253	1502.22
473.625	1492.28
473.997	1525.27
474.369	1527.98
474.74	1560.3
475.112	1577.47
475.484	1596.91
475.855	1605.27
476.227	1624.25
476.598	1690.92
476.97	1711.71
477.341	1746.06
477.713	1749.67
478.084	1793.74
478.455	1801.65
478.827	1833.74
479.198	1887.97
479.569	1894.98
479.94	1913.73
480.311	1947.41
480.682	2012.94
481.053	2029.89
481.424	2036.67
481.795	2115.76
482.166	2130.45
482.537	2141.3
482.908	2180.39
483.279	2224.69
483.65	2240.96
484.021	2311.92
484.391	2343.1
484.762	2390.78
485.133	2405.47
485.503	2436.21
485.874	2470.33
486.244	2530.67
486.615	2570.67
486.985	2608.18
487.356	2635.98
487.726	2641.85
488.097	2700.38
488.467	2744.9
488.837	2794.84
489.207	2851.79
489.578	2911.22
489.948	2898.12
490.318	2921.62
490.688	2949.19
491.058	3015.4
491.428	3045.46
491.798	3068.05
492.168	3106.7
492.538	3159.13
492.908	3210.42
493.278	3248.62
493.648	3251.78
494.017	3303.75
494.387	3359.8
494.757	3334.26
495.126	3383.75
495.496	3400.48
495.866	3432.79
496.235	3471.89
496.605	3475.05
496.974	3539.91
497.344	3593.46
497.713	3607.02
498.082	3564.77
498.452	3647.93
498.821	3656.29
499.19	3656.06
499.559	3709.17
499.928	3724.99
500.298	3751.65
500.667	3760.01
501.036	3788.26
501.405	3811.31
501.774	3839.79
502.143	3839.56
502.512	3875.94
502.88	3909.16
503.249	3959.56
503.618	3988.93
503.987	3976.28
504.356	3973.12
504.724	4005.21
505.093	4028.71
505.462	4049.95
505.83	4068.93
506.199	4115.03
506.567	4169.95
506.936	4131.3
507.304	4167.91
507.672	4211.53
508.041	4170.62
508.409	4228.7
508.777	4248.59
509.145	4295.37
509.514	4295.82
509.882	4329.94
510.25	4329.94
510.618	4370.85
510.986	4341.69
511.354	4438.41
511.722	4370.85
512.09	4484.06
512.458	4411.97
512.826	4551.63
513.193	4513.21
513.561	4483.84
513.929	4536.26
514.297	4569.71
514.664	4571.29
515.032	4596.83
515.4	4590.5
515.767	4637.51
516.135	4637.05
516.502	4633.21
516.869	4651.52
517.237	4693.55
517.604	4686.09
517.972	4745.07
518.339	4733.55
518.706	4779.87
519.073	4793.43
519.44	4798.86
519.808	4813.32
520.175	4834.11
520.542	4912.53
520.909	4883.83
521.276	4898.06
521.643	4905.97
522.009	4953.43
522.376	4976.03
522.743	4926.54
523.11	5018.51
523.477	5069.13
523.843	5082.01
524.21	5136.93
524.577	5140.77
524.943	5159.53
525.31	5167.66
525.676	5251.73
526.043	5223.7
526.409	5256.92
526.776	5347.32
527.142	5345.74
527.508	5342.35
527.874	5401.33
528.241	5399.07
528.607	5391.61
528.973	5439.74
529.339	5496.92
529.705	5514.54
530.071	5526.07
530.437	5571.04
530.803	5605.84
531.169	5616.91
531.535	5658.5
531.901	5685.61
532.267	5696.91
532.632	5695.78
532.998	5750.02
533.364	5755.67
533.73	5784.37
534.095	5788.66
534.461	5876.12
534.826	5935.78
535.192	5898.49
535.557	5919.73
535.923	5906.4
536.288	5914.31
536.653	6011.93
537.019	5947.75
537.384	6023.91
537.749	6034.98
538.114	6084.25
538.479	6099.61
538.845	6121.76
539.21	6112.72
539.575	6149.56
539.94	6181.65
540.305	6199.05
540.67	6203.79
541.034	6258.48
541.399	6211.25
541.764	6263.68
542.129	6338.03
542.494	6345.71
542.858	6331.92
543.223	6336.9
543.587	6437.46
543.952	6438.14
544.316	6471.58
544.681	6494.18
545.045	6542.77
545.41	6504.35
545.774	6601.3
546.138	6568.3
546.503	6596.55
546.867	6590.9
547.231	6669.54
547.595	6733.95
547.959	6731.69
548.324	6737.34
548.688	6798.35
549.052	6815.08
549.416	6746.83
549.779	6827.5
550.143	6825.02
550.507	6828.86
550.871	6880.16
551.235	6874.06
551.599	6955.64
551.962	6928.52
552.326	7002.19
552.689	6946.82
553.053	6942.76
553.417	6967.16
553.78	7088.51
554.143	7022.3
554.507	7047.39
554.87	7100.72
555.234	7196.53
555.597	7158.57
555.96	7170.55
556.323	7224.56
556.686	7197.66
557.05	7276.31
557.413	7289.19
557.776	7260.04
558.139	7342.52
558.502	7292.12
558.865	7402.86
559.228	7425.45
559.59	7352.24
559.953	7419.8
560.316	7475.62
560.679	7450.31
561.041	7590.87
561.404	7628.39
561.767	7626.13
562.129	7624.09
562.492	7726.92
562.854	7675.17
563.217	7679.01
563.579	7687.37
563.941	7799.23
564.304	7794.03
564.666	7808.27
565.028	7790.42
565.39	7822.05
565.753	7853.69
566.115	7943.41
566.477	7932.11
566.839	7959
567.201	7998.55
567.563	7977.98
567.925	8069.51
568.287	8046.68
568.648	8111.76
569.01	8121.03
569.372	8183.17
569.734	8184.53
570.095	8214.59
570.457	8268.14
570.819	8346.11
571.18	8330.74
571.542	8438.76
571.903	8409.38
572.265	8493.9
572.626	8544.07
572.987	8526.44
573.349	8493.67
573.71	8605.08
574.071	8639.89
574.432	8742.48
574.794	8791.07
575.155	8836.72
575.516	8847.34
575.877	8878.52
576.238	8964.4
576.599	9008.92
576.96	9010.27
577.32	9171.62
577.681	9216.37
578.042	9326.2
578.403	9389.02
578.763	9474.67
579.124	9505.63
579.485	9597.15
579.845	9768.22
580.206	9776.81
580.566	9870.81
580.927	9996.91
581.287	10097.02
581.648	10122.11
582.008	10340.41
582.368	10502.89
582.728	10534.98
583.089	10654.3
583.449	10800.51
583.809	10946.27
584.169	11065.13
584.529	11287.95
584.889	11381.96
585.249	11519.36
585.609	11728.39
585.969	11904.21
586.329	12040.7
586.688	12237.98
587.048	12357.98
587.408	12636.16
587.768	12789.83
588.127	12972.2
588.487	13167.22
588.846	13486.99
589.206	13578.51
589.565	13900.99
589.925	14034.32
590.284	14281.09
590.643	14566.96
591.003	14777.58
591.362	15071.36
591.721	15294.85
592.08	15445.36
592.44	15804.44
592.799	15952.46
593.158	16273.81
593.517	16482.84
593.876	16857.07
594.235	16989.95
594.593	17263.84
594.952	17540.22
595.311	17779.98
595.67	18000.32
596.029	18383.13
596.387	18620.87
596.746	18981.31
597.104	19164.81
597.463	19409.77
597.822	19734.51
598.18	19928.18
598.538	20120.26
598.897	20620.59
599.255	20765.22
599.613	21197.75
599.972	21323.85
600.33	21659.43
600.688	21833.44
601.046	22089.7
601.404	22402.01
601.762	22576.24
602.12	22939.17
602.478	23146.4
602.836	23430.01
603.194	23598.81
603.552	23882.87
603.91	24022.76
604.268	24386.36
604.625	24505.68
604.983	24815.28
605.341	24999.23
605.698	25344.53
606.056	25620.91
606.413	25713.56
606.771	26085.3
607.128	26304.73
607.485	26287.11
607.843	26655.01
608.2	26868.11
608.557	27120.76
608.914	27241.88
609.272	27688.2
609.629	27853.39
609.986	28080.73
610.343	28129.77
610.7	28668.51
611.057	28734.72
611.414	28855.85
611.771	29071.44
612.127	29288.38
612.484	29407.48
612.841	29589.84
613.198	29577.87
613.554	29835.94
613.911	30062.6
614.267	30185.53
614.624	30301.92
614.98	30535.13
615.337	30806.76
615.693	30860.32
616.05	30992.29
616.406	31211.04
616.762	31334.88
617.118	31462.79
617.475	31553.41
617.831	31753.18
618.187	31989.1
618.543	32118.59
618.899	32383.67
619.255	32395.65
619.611	32502.31
619.967	32688.75
620.323	32823.66
620.678	32778.69
621.034	32832.7
621.39	33053.93
621.746	33018.23
622.101	33508.38
622.457	33204.89
622.812	33394.94
623.168	33559
623.523	33633.58
623.879	33799.45
624.234	33624.54
624.589	33820.92
624.945	33970.07
625.3	33926.45
625.655	34073.34
626.01	34252.32
626.365	34239.21
626.72	34295.03
627.075	34216.16
627.43	34394.46
627.785	34334.35
628.14	34607.79
628.495	34540.22
628.85	34555.14
629.205	34504.06
629.559	34784.51
629.914	34588.36
630.269	34916.03
630.623	34730.95
630.978	34658.41
631.332	34829.48
631.687	34927.33
632.041	34835.13
632.396	35026.99
632.75	34899.53
633.104	34838.74
633.459	34752.19
633.813	34940.21
634.167	34902.47
634.521	34860.67
634.875	34893.88
635.229	34995.8
635.583	34883.04
635.937	34880.1
636.291	34875.13
636.645	34873.32
636.999	34904.05
637.352	35061.34
637.706	34864.73
638.06	35148.57
638.413	34983.15
638.767	34896.14
639.121	34914.9
639.474	34754
639.828	34859.99
640.181	34905.18
640.534	34860.21
640.888	34822.93
641.241	34647.56
641.594	34844.17
641.947	34831.06
642.301	34896.14
642.654	34838.52
643.007	34858.41
643.36	34971.85
643.713	34779.31
644.066	34958.97
644.419	34725.53
644.771	34492.99
645.124	34357.85
645.477	34253
645.83	33880.58
646.182	33848.49
646.535	33843.29
646.888	33907.24
647.24	33694.82
647.593	33882.39
647.945	33718.55
648.298	33611.21
648.65	33524.88
649.002	33578.67
649.355	33520.14
649.707	33624.77
650.059	33704.31
650.411	34010.07
650.763	34057.97
651.115	34498.19
651.467	34207.35
651.819	34492.31
652.171	34217.29
652.523	34247.8
652.875	34254.35
653.227	34151.98
653.578	34390.85
653.93	34408.93
654.282	34165.99
654.633	34106.11
654.985	34207.35
655.337	34280.34
655.688	34244.64
656.039	34256.61
656.391	34025.66
656.742	34045.77
657.094	34179.55
657.445	34286.9
657.796	34117.41
658.147	34032.44
658.498	34053.45
658.849	34101.82
659.2	34050.29
659.551	33976.39
659.902	34062.04
660.253	33982.5
660.604	34137.52
660.955	33940.46
661.306	34103.62
661.656	34065.43
662.007	34107.01
662.358	34092.55
662.708	34099.78
663.059	33989.05
663.409	33861.82
663.76	34108.37
664.11	34067.01
664.461	34111.98
664.811	34091.87
665.161	34032.89
665.511	33937.3
665.862	33930.52
666.212	33952.21
666.562	34061.14
666.912	34020.91
667.262	33915.61
667.612	33996.28
667.962	33935.72
668.312	33844.65
668.662	34102.95
669.011	33802.84
669.361	33841.03
669.711	33697.76
670.06	33730.75
670.41	33759
670.76	33678.1
671.109	33802.61
671.459	33832.22
671.808	33807.59
672.157	33924.64
672.507	33656.63
672.856	33751.99
673.205	33784.54
673.554	33690.75
673.904	33742.05
674.253	33874.7
674.602	33672.22
674.951	33201.27
675.3	33195.62
675.649	33667.93
675.998	33554.26
676.346	33657.31
676.695	33750.41
677.044	33561.49
677.393	33630.87
677.741	33531.43
678.09	33556.74
678.438	33524.66
678.787	33403.75
679.135	33502.28
679.484	33354.26
679.832	33459.8
680.181	33158.56
680.529	33434.04
680.877	33312.91
681.225	33211.9
681.573	33425
681.922	33083.08
682.27	33018.68
682.618	32922.19
682.966	32895.07
683.314	33150.43
683.661	32958.12
684.009	32842.64
684.357	32626.15
684.705	32680.16
685.053	32686.71
685.4	32728.29
685.748	32561.97
686.095	32531.01
686.443	32466.15
686.79	32439.94
687.138	32436.55
687.485	32409.43
687.832	32298.02
688.18	32122.21
688.527	32214.18
688.874	32150.45
689.221	32098.93
689.568	31880.4
689.915	31896.68
690.262	31972.15
690.609	31786.62
690.956	31711.82
691.303	31682.9
691.65	31548.44
691.997	31448.55
692.344	31401.1
692.69	31210.82
693.037	31363.13
693.383	31097.6
693.73	31180.76
694.077	31038.17
694.423	31006.08
694.769	31057.6
695.116	30914.1
695.462	30866.42
695.808	30626.2
696.155	30769.7
696.501	30479.76
696.847	30506.43
697.193	30173.33
697.539	30542.13
697.885	30190.51
698.231	30106.89
698.577	30064.63
698.923	29931.76
699.269	29905.99
699.614	29685.66
699.96	29847.01
700.306	29667.36
700.651	29594.14
700.997	29551.43
701.342	29470.07
701.688	29524.53
702.033	29320.92
702.379	29427.14
702.724	29249.06
703.069	29302.17
703.415	28967.03
703.76	29122.06
704.105	29024.43
704.45	29023.3
704.795	28844.55
705.14	28747.15
705.485	28768.4
705.83	28637.33
706.175	28746.02
706.52	28561.62
706.865	28482.98
707.209	28514.17
707.554	28305.81
707.899	28391.46
708.243	28176.55
708.588	28278.47
708.932	28004.8
709.277	28009.09
709.621	27977
709.966	27800.29
710.31	27839.38
710.654	27539.73
710.998	27621.76
711.342	27708.09
711.687	27607.97
712.031	27546.96
712.375	27352.84
712.719	27381.09
713.063	27349.22
713.407	27452.5
713.75	27255.44
714.094	27217.93
714.438	27087.31
714.782	27147.2
715.125	26995.34
715.469	26920.54
715.812	26895
716.156	26819.75
716.499	26832.4
716.843	26845.51
717.186	26670.37
717.53	26785.4
717.873	26703.14
718.216	26685.06
718.559	26602.58
718.902	26441.9
719.246	26462.92
719.589	26290.95
719.932	26280.78
720.275	26316.48
720.617	26259.76
720.96	26201.91
721.303	26170.95
721.646	26192.42
721.989	26006.43
722.331	26062.7
722.674	26056.38
723.016	26067.9
723.359	25968.92
723.701	25965.53
724.044	25794.46
724.386	25711.08
724.729	25815.03
725.071	25626.78
725.413	25654.81
725.755	25730.06
726.097	25524.41
726.439	25408.94
726.782	25584.53
727.124	25584.98
727.465	25443.06
727.807	25450.07
728.149	25283.74
728.491	25306.57
728.833	25321.26
729.175	25289.17
729.516	25185.44
729.858	25078.32
730.199	25149.96
730.541	25119.23
730.882	25037.65
731.224	25099.79
731.565	24952
731.906	24857.31
732.248	24967.82
732.589	24872.91
732.93	24655.74
733.271	24827.71
733.612	24867.71
733.953	24872
734.294	24654.61
734.635	24577.77
734.976	24738.9
735.317	24526.02
735.658	24563.08
735.999	24580.94
736.339	24459.36
736.68	24484.21
737.021	24452.58
737.361	24253.94
737.702	24400.15
738.042	24387.72
738.383	24255.52
738.723	24357.21
739.063	24192.7
739.404	24201.74
739.744	24255.97
740.084	24086.94
740.424	24107.28
740.764	23994.74
741.104	24080.84
741.444	23928.98
741.784	23984.34
742.124	23957.45
742.464	23886.49
742.804	23970.56
743.143	23841.29
743.483	23858.47
743.823	23695.31
744.162	23562.88
744.502	23729.43
744.841	23531.7
745.181	23692.82
745.52	23636.1
745.86	23564.24
746.199	23520.17
746.538	23582.77
746.877	23552.71
747.216	23436.56
747.556	23428.88
747.895	23443.79
748.234	23336.22
748.573	23220.29
748.911	23267.75
749.25	23326.73
749.589	23145.04
749.928	23243.12
750.267	23214.42
750.605	23139.62
750.944	23056.46
751.283	23052.39
751.621	23073.18
751.96	22929.68
752.298	22966.06
752.636	22837.03
752.975	22673.42
753.313	22700.76
753.651	22720.19
753.989	22652.85
754.327	22577.15
754.666	22566.07
755.004	22493.08
755.342	22552.06
755.679	22446.3
756.017	22481.78
756.355	22371.05
756.693	22319.3
757.031	22294.67
757.368	22223.26
757.706	22195.24
758.044	22141.23
758.381	22095.58
758.719	22037.05
759.056	21991.17
759.394	22018.07
759.731	21865.53
760.068	21772.2
760.405	21719.54
760.743	21685.64
761.08	21698.98
761.417	21565.65
761.754	21525.42
762.091	21489.04
762.428	21421.92
762.765	21223.06
763.102	21353.9
763.438	21217.41
763.775	21134.92
764.112	21179.9
764.449	21244.07
764.785	20889.28
765.122	20852.9
765.458	20709.17
765.795	20842.95
766.131	20732.9
766.467	20571.55
766.804	20567.71
767.14	20588.05
767.476	20398.67
767.812	20357.54
768.148	20439.58
768.485	20149.87
768.821	20248.17
769.157	20151.9
769.492	20125.23
769.828	20068.06
770.164	19951
770.5	19893.6
770.836	19864.45
771.171	19762.53
771.507	19674.85
771.842	19556.89
772.178	19572.48
772.513	19576.55
772.849	19465.36
773.184	19350.56
773.519	19307.18
773.855	19371.81
774.19	19240.51
774.525	19171.59
774.86	19083
775.195	19060.63
775.53	18960.07
775.865	18903.57
776.2	18717.13
776.535	18654.09
776.87	18651.83
777.205	18607.99
777.539	18433.53
777.874	18559.17
778.209	18407.76
778.543	18215.45
778.878	18245.28
779.212	18123.03
779.547	18097.72
779.881	18113.99
780.215	17932.75
780.55	18022.01
780.884	17884.16
781.218	17834.9
781.552	17748.35
781.886	17751.74
782.22	17611.18
782.554	17577.73
782.888	17462.03
783.222	17445.76
783.556	17244.18
783.889	17188.59
784.223	17124.41
784.557	17140.45
784.89	17113.11
785.224	17029.5
785.557	16946.79
785.891	16848.03
786.224	16935.71
786.558	16940.46
786.891	16720.13
787.224	16611.65
787.557	16618.66
787.891	16562.84
788.224	16508.61
788.557	16505.89
788.89	16462.5
789.223	16349.74
789.556	16328.5
789.888	16276.3
790.221	16118.33
790.554	16038.79
790.887	16114.72
791.219	15984.1
791.552	15921.73
791.884	15879.02
792.217	15896.42
792.549	15805.12
792.882	15687.84
793.214	15615.07
793.546	15625.01
793.879	15527.61
794.211	15397.9
794.543	15483.77
794.875	15392.02
795.207	15363.1
795.539	15380.73
795.871	15375.98
796.203	15146.16
796.535	15079.04
796.867	15088.08
797.198	15032.71
797.53	14952.26
797.862	14869.1
798.193	14915.88
798.525	14825.71
798.856	14863.68
799.188	14749.56
799.519	14661.2
799.85	14567.19
800.182	14601.99
800.513	14605.83
800.844	14518.15
801.175	14505.95
801.506	14518.15
801.837	14414.65
802.168	14388.66
802.499	14301.88
802.83	14282.9
803.161	14194.09
803.491	14153.19
803.822	14270.47
804.153	14053.75
804.483	14007.65
804.814	13945.06
805.145	13983.93
805.475	13985.28
805.805	13950.71
806.136	13831.84
806.466	13858.51
806.796	13740.99
807.126	13711.62
807.457	13686.08
807.787	13736.7
808.117	13621.45
808.447	13563.15
808.777	13640.21
809.107	13522.24
809.436	13505.75
809.766	13474.56
810.096	13528.34
810.426	13387.33
810.755	13378.52
811.085	13310.05
811.414	13314.11
811.744	13226.21
812.073	13188.69
812.403	13169.03
812.732	13009.49
813.061	13068.24
813.39	12982.37
813.719	13009.04
814.049	13042.71
814.378	12958.64
814.707	12955.25
815.036	12929.04
815.365	12874.8
815.693	12748.48
816.022	12691.76
816.351	12730.63
816.68	12627.35
817.008	12673.68
817.337	12582.83
817.665	12527.02
817.994	12597.75
818.322	12566.34
818.651	12441.59
818.979	12356.62
819.307	12482.5
819.636	12390.52
819.964	12351.88
820.292	12403.4
820.62	12412.67
820.948	12288.83
821.276	12328.38
821.604	12249.28
821.932	12266.68
822.259	12317.53
822.587	12374.48
822.915	12183.3
823.243	12284.76
823.57	12200.24
823.898	12220.13
824.225	12186.69
824.553	12225.55
824.88	12271.2
825.207	12310.07
825.535	12226.23
825.862	12308.72
826.189	12189.17
826.516	12275.04
826.843	12342.61
827.17	12238.89
827.497	12337.19
827.824	12329.96
828.151	12310.3
828.478	12248.6
828.805	12300.81
829.131	12255.38
829.458	12263.52
829.785	12219.23
830.111	12160.25
830.438	12252.9
830.764	12158.89
831.09	12236.18
831.417	12159.57
831.743	12214.71
832.069	12240.02
832.395	12123.86
832.722	12257.42
833.048	12143.3
833.374	12162.05
833.7	12063.3
834.026	12141.04
834.351	12167.7
834.677	12149.4
835.003	12128.83
835.329	12122.51
835.654	12027.14
835.98	11988.5
836.306	12055.84
836.631	11969.74
836.956	12061.26
837.282	12037.31
837.607	11903.98
837.932	11931.55
838.258	11943.98
838.583	11946.92
838.908	11812.68
839.233	11914.38
839.558	11873.02
839.883	11817.2
840.208	11785.34
840.533	11744.44
840.858	11765.68
841.182	11700.82
841.507	11661.73
841.832	11727.71
842.156	11638
842.481	11625.34
842.805	11627.83
843.13	11627.38
843.454	11538.79
843.778	11482.97
844.103	11435.07
844.427	11450.89
844.751	11524.78
845.075	11390.77
845.399	11412.69
845.723	11255.18
846.047	11244.79
846.371	11218.8
846.695	11242.3
847.019	11120.5
847.343	11118.92
847.666	11031.24
847.99	11023.33
848.313	10959.15
848.637	10876.44
848.96	10906.27
849.284	10918.47
849.607	10840.96
849.931	10816.33
850.254	10725.25
850.577	10679.61
850.9	10671.47
851.223	10538.59
851.546	10534.07
851.869	10514.19
852.192	10526.62
852.515	10463.57
852.838	10344.25
853.161	10370.69
853.483	10358.94
853.806	10257.92
854.129	10259.5
854.451	10209.34
854.774	10173.63
855.096	10172.27
855.419	10114.2
855.741	10104.25
856.063	10030.81
856.385	10025.39
856.708	9982.68
857.03	9977.93
857.352	9930.25
857.674	9962.56
857.996	9913.98
858.318	9836.46
858.64	9835.56
858.961	9772.29
859.283	9752.62
859.605	9721.67
859.926	9722.57
860.248	9713.53
860.57	9612.97
860.891	9689.12
861.212	9627.66
861.534	9596.47
861.855	9560.99
862.176	9536.81
862.498	9541.11
862.819	9534.78
863.14	9478.06
863.461	9456.59
863.782	9469.47
864.103	9445.51
864.424	9433.09
864.745	9394.22
865.065	9368
865.386	9350.83
865.707	9384.5
866.027	9386.53
866.348	9246.42
866.668	9350.6
866.989	9291.85
867.309	9208.46
867.63	9246.42
867.95	9199.65
868.27	9235.35
868.59	9165.52
868.91	9154.67
869.23	9186.09
869.55	9142.92
869.87	9161.68
870.19	9116.48
870.51	9143.15
870.83	9157.39
871.15	9079.87
871.469	9040.55
871.789	9104.96
872.109	9058.41
872.428	9025.64
872.748	9014.11
873.067	8973.21
873.386	8988.13
873.706	9031.06
874.025	8931.86
874.344	8951.06
874.663	8950.84
874.982	8929.37
875.301	8845.53
875.62	8826.32
875.939	8864.96
876.258	8880.11
876.577	8845.76
876.896	8836.49
877.214	8798.75
877.533	8730.73
877.852	8747.91
878.17	8768.47
878.489	8727.79
878.807	8735.93
879.125	8705.87
879.444	8640.11
879.762	8685.31
880.08	8671.07
880.398	8585.88
880.716	8611.86
881.034	8648.02
881.352	8673.56
881.67	8561.24
881.988	8551.3
882.306	8535.93
882.624	8517.86
882.941	8527.35
883.259	8510.62
883.577	8409.16
883.894	8415.48
884.212	8427.69
884.529	8441.02
884.846	8329.61
885.164	8336.84
885.481	8341.59
885.798	8321.7
886.115	8281.48
886.432	8334.58
886.75	8264.53
887.067	8269.05
887.383	8204.87
887.7	8257.97
888.017	8137.07
888.334	8152.89
888.651	8164.19
888.967	8163.74
889.284	8048.26
889.6	8038.55
889.917	7984.31
890.233	8014.59
890.55	8047.36
890.866	7921.26
891.182	8004.87
891.498	7961.94
891.815	7934.59
892.131	7888.49
892.447	7898.89
892.763	7851.66
893.079	7819.57
893.395	7768.95
893.71	7755.84
894.026	7748.16
894.342	7741.6
894.657	7734.15
894.973	7684.2
895.289	7647.6
895.604	7665.45
895.92	7625
896.235	7529.41
896.55	7590.65
896.865	7552.23
897.181	7513.59
897.496	7544.32
897.811	7494.15
898.126	7427.26
898.441	7375.06
898.756	7428.17
899.071	7358.11
899.386	7397.43
899.7	7274.05
900.015	7289.41
900.33	7279.92
900.644	7193.37
900.959	7220.94
901.273	7163.77
901.588	7173.48
901.902	7147.5
902.216	7086.71
902.531	7028.4
902.845	7067.72
903.159	7053.49
903.473	6947.27
903.787	6928.97
904.101	6961.51
904.415	6934.17
904.729	6867.28
905.042	6875.64
905.356	6782.76
905.67	6760.84
905.984	6786.15
906.297	6728.07
906.611	6715.64
906.924	6743.21
907.237	6718.81
907.551	6749.31
907.864	6648.98
908.177	6626.15
908.491	6624.8
908.804	6582.54
909.117	6536.89
909.43	6461.19
909.743	6427.97
910.056	6506.61
910.368	6445.14
910.681	6429.1
910.994	6354.3
911.307	6336.9
911.619	6278.37
911.932	6344.58
912.244	6292.6
912.557	6323.56
912.869	6204.02
913.181	6215.32
913.494	6228.88
913.806	6142.1
914.118	6108.88
914.43	6120.18
914.742	6113.4
915.054	6028.66
915.366	6015.77
915.678	5946.85
915.99	5997.7
916.302	5988.43
916.613	5940.07
916.925	5937.36
917.236	5973.74
917.548	5881.09
917.859	5853.74
918.171	5787.53
918.482	5814.2
918.794	5787.08
919.105	5787.76
919.416	5729
919.727	5744.82
920.038	5689.68
920.349	5675.9
920.66	5642.68
920.971	5611.72
921.282	5569.23
921.593	5581.44
921.903	5536.69
922.214	5492.62
922.525	5507.76
922.835	5469.35
923.146	5467.99
923.456	5436.58
923.767	5393.42
924.077	5394.77
924.387	5331.5
924.697	5307.77
925.008	5361.1
925.318	5302.8
925.628	5276.36
925.938	5260.99
926.248	5238.85
926.558	5178.28
926.867	5235.91
927.177	5154.78
927.487	5139.19
927.796	5126.76
928.106	5070.04
928.416	5120.88
928.725	5072.75
929.034	5025.07
929.344	5042.47
929.653	4980.1
929.962	4926.09
930.271	4952.3
930.581	4938.51
930.89	4901
931.199	4869.59
931.508	4879.53
931.817	4860.1
932.125	4851.06
932.434	4827.56
932.743	4798.63
933.051	4775.58
933.36	4719.31
933.669	4695.13
933.977	4732.42
934.286	4647.22
934.594	4722.7
934.902	4613.33
935.21	4566.32
935.519	4641.8
935.827	4602.03
936.135	4584.4
936.443	4556.6
936.751	4534.46
937.059	4529.71
937.367	4505.98
937.674	4508.92
937.982	4456.27
938.29	4481.8
938.597	4447
938.905	4404.74
939.213	4409.26
939.52	4355.93
939.827	4360
940.135	4345.76
940.442	4327
940.749	4310.51
941.056	4268.48
941.363	4262.83
941.67	4242.71
941.977	4219.44
942.284	4197.29
942.591	4179.21
942.898	4157.97
943.205	4201.58
943.511	4166.78
943.818	4111.42
944.125	4100.57
944.431	4085.88
944.738	4078.2
945.044	4010.4
945.35	4022.38
945.657	4036.84
945.963	3998.65
946.269	3944.87
946.575	3957.75
946.881	3934.92
947.187	3938.77
947.493	3890.63
947.799	3920.24
948.105	3889.5
948.41	3865.55
948.716	3845.44
949.022	3846.11
949.327	3801.59
949.633	3812.67
949.938	3770.86
950.244	3755.04
950.549	3758.88
950.854	3729.73
951.16	3703.74
951.465	3680.02
951.77	3662.39
952.075	3672.33
952.38	3651.54
952.685	3682.5
952.99	3625.78
953.294	3593.01
953.599	3590.75
953.904	3556.63
954.209	3556.63
954.513	3543.97
954.818	3511.21
955.122	3528.61
955.426	3496.52
955.731	3501.26
956.035	3468.04
956.339	3466.24
956.643	3447.71
956.948	3401.38
957.252	3396.86
957.556	3379.69
957.86	3361.83
958.163	3346.92
958.467	3336.75
958.771	3382.62
959.075	3371.1
959.378	3299.46
959.682	3343.08
959.985	3310.31
960.289	3292.46
960.592	3266.69
960.896	3222.18
961.199	3245.23
961.502	3237.54
961.805	3166.36
962.108	3185.34
962.411	3217.88
962.714	3140.6
963.017	3146.02
963.32	3179.69
963.623	3115.06
963.926	3101.5
964.228	3129.97
964.531	3048.62
964.833	3092.46
965.136	3063.31
965.438	3045.23
965.741	3010.66
966.043	3042.29
966.345	3014.72
966.648	2987.61
966.95	3009.3
967.252	2978.34
967.554	2944.44
967.856	2918.91
968.158	2936.08
968.46	2914.84
968.761	2901.73
969.063	2926.14
969.365	2889.75
969.666	2869.87
969.968	2826.71
970.269	2787.38
970.571	2842.07
970.872	2831
971.174	2802.98
971.475	2821.06
971.776	2781.51
972.077	2757.1
972.378	2766.82
972.679	2747.61
972.98	2733.15
973.281	2728.85
973.582	2731.57
973.883	2673.04
974.183	2659.03
974.484	2659.25
974.785	2661.74
975.085	2684.34
975.386	2680.95
975.686	2659.25
975.986	2644.11
976.287	2611.12
976.587	2590.55
976.887	2580.38
977.187	2572.7
977.487	2556.88
977.787	2538.35
978.087	2553.72
978.387	2542.42
978.687	2529.76
978.987	2517.33
979.286	2481.63
979.586	2496.09
979.885	2457.22
980.185	2458.35
980.484	2468.97
980.784	2455.64
981.083	2458.58
981.382	2455.87
981.682	2424.68
981.981	2403.89
982.28	2403.67
982.579	2386.72
982.878	2374.29
983.177	2378.13
983.475	2344.23
983.774	2349.66
984.073	2339.49
984.372	2346.49
984.67	2313.05
984.969	2303.1
985.267	2313.5
985.566	2282.99
985.864	2224.24
986.162	2258.58
986.461	2239.83
986.759	2234.18
987.057	2223.56
987.355	2220.62
987.653	2196.67
987.951	2169.77
988.249	2198.02
988.547	2192.82
988.844	2171.36
989.142	2181.07
989.44	2184.91
989.737	2134.75
990.035	2163.45
990.332	2133.39
990.63	2101.3
990.927	2159.38
991.224	2092.04
991.521	2071.92
991.819	2097.46
992.116	2083.22
992.413	2069.66
992.71	2041.64
993.006	2026.73
993.303	2059.95
993.6	2041.64
993.897	1986.95
994.193	2008.87
994.49	2026.05
994.787	1983.11
995.083	1991.02
995.379	1971.13
995.676	1978.37
995.972	1954.86
996.268	1948.76
996.565	1928.88
996.861	1921.19
997.157	1914.86
997.453	1899.5
997.749	1882.55
998.044	1882.32
998.34	1868.31
998.636	1888.88
998.932	1885.94
999.227	1837.8
999.523	1840.74
999.818	1832.38
1000.114	1839.39
1000.409	1835.32
1000.704	1784.25
1001	1784.02
1001.295	1809.78
1001.59	1796.68
1001.885	1768.2
1002.18	1765.04
1002.475	1734.53
1002.77	1744.7
1003.065	1730.69
1003.359	1711.25
1003.654	1687.98
1003.949	1697.92
1004.243	1690.46
1004.538	1717.81
1004.832	1660.41
1005.127	1679.84
1005.421	1667.64
1005.715	1658.83
1006.009	1641.65
1006.304	1646.17
1006.598	1631.71
1006.892	1622.9
1007.186	1613.18
1007.48	1610.47
1007.773	1579.73
1008.067	1591.03
1008.361	1537.93
1008.655	1578.6
1008.948	1546.29
1009.242	1535.67
1009.535	1543.35
1009.829	1552.16
1010.122	1525.95
1010.415	1500.64
1010.708	1504.93
1011.001	1512.16
1011.295	1505.84
1011.588	1486.18
1011.881	1478.27
1012.173	1466.29
1012.466	1450.92
1012.759	1462.22
1013.052	1431.26
1013.344	1431.49
1013.637	1430.36
1013.93	1430.36
1014.222	1409.79
1014.514	1423.58
1014.807	1403.01
1015.099	1372.28
1015.391	1356.69
1015.683	1394.65
1015.976	1347.65
1016.268	1348.1
1016.56	1377.25
1016.851	1306.29
1017.143	1331.6
1017.435	1316.24
1017.727	1347.87
1018.018	1308.55
1018.31	1302
1018.602	1277.82
1018.893	1293.41
1019.185	1262.9
1019.476	1267.42
1019.767	1280.31
1020.058	1265.16
1020.35	1249.12
1020.641	1243.7
1020.932	1264.49
1021.223	1224.94
1021.514	1203.02
1021.804	1188.1
1022.095	1186.52
1022.386	1201.89
1022.677	1188.1
1022.967	1176.58
1023.258	1188.33
1023.548	1156.69
1023.839	1182.23
1024.129	1156.92
1024.419	1140.65
1024.709	1143.59
1025	1121.21
1025.29	1087.99
1025.58	1127.77
1025.87	1107.2
1026.16	1076.47
1026.449	1102.68
1026.739	1089.8
1027.029	1095
1027.319	1063.14
1027.608	1089.35
1027.898	1056.58
1028.187	1059.29
1028.477	1045.74
1028.766	1038.28
1029.055	1025.4
1029.344	1043.48
1029.634	1018.17
1029.923	994.44
1030.212	1029.24
1030.501	985.4
1030.79	987.21
1031.078	979.07
1031.367	979.3
1031.656	984.04
1031.945	960.31
1032.233	972.52
1032.522	992.63
1032.81	955.12
1033.099	950.6
1033.387	939.07
1033.675	964.61
1033.963	922.8
1034.251	943.14
1034.54	919.41
1034.828	929.81
1035.116	901.78
1035.403	896.59
1035.691	920.54
1035.979	906.3
1036.267	905.4
1036.554	891.84
1036.842	872.86
1037.129	873.99
1037.417	872.63
1037.704	850.71
1037.992	863.14
1038.279	858.4
1038.566	840.54
1038.853	840.54
1039.14	840.54
