Data from hue_34_FLMS001491_00039.txt Node
Date: Tue Feb 07 17:25:33 GMT 2017
User: dcchb
Spectrometer: FLMS00149
Trigger mode: 0
Integration Time (sec): 2.000000E-2
Scans to average: 10
Electric dark correction enabled: true
Nonlinearity correction enabled: false
Boxcar width: 0
XAxis mode: Wavelengths
Number of Pixels in Spectrum: 2048
>>>>>Begin Spectral Data<<<<<
341.393	-6.57
341.776	-6.57
342.16	-6.57
342.543	-52.22
342.927	-76.85
343.31	-68.94
343.693	-69.84
344.077	-63.52
344.46	-58.32
344.843	-68.26
345.226	-50.41
345.61	-16.28
345.993	-19
346.376	-8.83
346.759	19.19
347.142	15.35
347.525	47.67
347.908	64.84
348.291	74.11
348.674	98.06
349.057	104.16
349.44	113.2
349.823	131.51
350.206	152.75
350.588	208.57
350.971	203.14
351.354	242.24
351.737	250.37
352.119	245.63
352.502	262.58
352.884	278.85
353.267	273.43
353.65	293.54
354.032	290.37
354.414	305.29
354.797	337.83
355.179	316.36
355.562	327.43
355.944	317.04
356.326	329.69
356.709	315.68
357.091	336.7
357.473	364.95
357.855	332.18
358.238	333.31
358.62	334.89
359.002	335.57
359.384	348.45
359.766	348.23
360.148	333.08
360.53	332.41
360.912	326.53
361.294	342.35
361.676	341.22
362.057	327.66
362.439	329.02
362.821	347.55
363.203	313.42
363.584	329.02
363.966	304.84
364.348	312.97
364.729	334.89
365.111	325.18
365.493	318.17
365.874	326.98
366.256	307.32
366.637	298.28
367.019	316.36
367.4	334.44
367.781	318.62
368.163	319.53
368.544	306.87
368.925	304.16
369.306	299.86
369.688	305.06
370.069	302.35
370.45	310.49
370.831	299.64
371.212	329.24
371.593	293.31
371.974	323.82
372.355	320.88
372.736	319.3
373.117	310.71
373.498	288.11
373.879	332.63
374.26	310.94
374.641	315.46
375.021	307.55
375.402	313.65
375.783	318.4
376.163	321.56
376.544	326.53
376.925	316.14
377.305	343.25
377.686	339.41
378.066	324.27
378.447	322.01
378.827	337.6
379.208	331.5
379.588	320.43
379.968	334.67
380.349	324.95
380.729	336.7
381.109	328.11
381.489	349.58
381.87	331.73
382.25	342.58
382.63	359.3
383.01	348
383.39	343.48
383.77	345.06
384.15	348.9
384.53	358.17
384.91	342.12
385.29	360.43
385.67	343.71
386.049	373.31
386.429	345.97
386.809	343.71
387.189	371.28
387.568	360.88
387.948	360.2
388.328	366.53
388.707	351.62
389.087	375.8
389.466	359.3
389.846	365.63
390.225	340.99
390.605	360.88
390.984	353.42
391.363	386.64
391.743	363.59
392.122	367.43
392.501	357.26
392.881	375.57
393.26	375.12
393.639	380.99
394.018	381.22
394.397	372.18
394.776	375.8
395.155	364.04
395.534	380.99
395.913	373.54
396.292	393.65
396.671	377.83
397.05	395
397.429	377.83
397.808	377.6
398.186	366.3
398.565	382.57
398.944	385.06
399.323	387.09
399.701	385.74
400.08	395.68
400.458	382.12
400.837	402.46
401.215	386.42
401.594	391.61
401.972	395
402.351	427.09
402.729	397.72
403.107	388.68
403.486	407.43
403.864	395.46
404.242	420.09
404.62	413.08
404.999	413.76
405.377	424.83
405.755	420.09
406.133	421.67
406.511	418.51
406.889	436.13
407.267	425.74
407.645	410.14
408.023	442.69
408.401	423.48
408.779	451.73
409.156	450.82
409.534	416.25
409.912	441.78
410.29	439.75
410.667	429.13
411.045	446.98
411.422	433.19
411.8	461.44
412.178	458.96
412.555	446.53
412.933	485.4
413.31	445.62
413.687	464.61
414.065	477.71
414.442	462.35
414.819	474.78
415.197	483.14
415.574	460.31
415.951	490.37
416.328	489.46
416.705	481.56
417.082	467.09
417.46	494.66
417.837	482.46
418.214	487.43
418.591	507.54
418.967	490.82
419.344	509.8
419.721	501.22
420.098	496.24
420.475	505.28
420.852	534.21
421.228	510.93
421.605	534.21
421.982	516.36
422.358	523.14
422.735	534.89
423.111	531.95
423.488	549.35
423.864	520.65
424.241	534.21
424.617	550.25
424.994	552.97
425.37	542.34
425.746	554.1
426.123	543.02
426.499	588.67
426.875	549.58
427.251	559.52
427.627	578.05
428.003	557.49
428.379	577.82
428.756	565.62
429.132	596.35
429.507	592.96
429.883	576.92
430.259	587.09
430.635	587.77
431.011	593.42
431.387	606.98
431.763	610.82
432.138	608.33
432.514	632.51
432.89	621.21
433.265	636.81
433.641	631.61
434.016	636.35
434.392	639.74
434.767	657.6
435.143	646.52
435.518	673.41
435.894	684.26
436.269	659.86
436.644	677.48
437.02	675.67
437.395	681.78
437.77	658.5
438.145	693.53
438.52	710.48
438.895	710.02
439.271	703.24
439.646	716.13
440.021	722
440.395	734.2
440.77	712.28
441.145	735.11
441.52	722.9
441.895	749.12
442.27	751.15
442.645	742.57
443.019	768.78
443.394	763.36
443.769	761.55
444.143	747.76
444.518	752.51
444.892	746.86
445.267	770.81
445.641	772.39
446.016	764.94
446.39	778.27
446.764	761.55
447.139	797.93
447.513	789.12
447.887	790.93
448.262	802.68
448.636	800.87
449.01	814.43
449.384	802.9
449.758	824.6
450.132	823.47
450.506	821.66
450.88	826.18
451.254	842.45
451.628	852.62
452.002	852.17
452.376	842.45
452.75	853.52
453.123	875.9
453.497	875.67
453.871	880.64
454.244	894.65
454.618	893.97
454.992	911.37
455.365	909.57
455.739	934.88
456.112	918.61
456.486	912.05
456.859	934.88
457.232	965.16
457.606	972.16
457.979	971.71
458.352	941.66
458.725	1004.71
459.099	1009.22
459.472	1043.8
459.845	1014.65
460.218	1015.55
460.591	1051.48
460.964	1023.01
461.337	1044.03
461.71	1082.9
462.083	1095.32
462.456	1091.93
462.829	1102.78
463.201	1105.72
463.574	1121.54
463.947	1133.52
464.32	1127.41
464.692	1162.89
465.065	1174.42
465.438	1169.9
465.81	1216.9
466.183	1222.55
466.555	1236.79
466.928	1232.72
467.3	1257.58
467.672	1282.44
468.045	1295.09
468.417	1307.3
468.789	1310.01
469.161	1327.86
469.534	1353.85
469.906	1369.89
470.278	1386.39
470.65	1408.99
471.022	1436.56
471.394	1465.48
471.766	1486.5
472.138	1493.05
472.51	1527.4
472.882	1571.47
473.253	1573.73
473.625	1618.7
473.997	1655.54
474.369	1671.35
474.74	1700.96
475.112	1737.12
475.484	1771.69
475.855	1794.51
476.227	1819.37
476.598	1868.64
476.97	1911.12
477.341	1959.26
477.713	1993.83
478.084	2029.76
478.455	2052.36
478.827	2099.14
479.198	2187.05
479.569	2185.47
479.94	2233.15
480.311	2303.43
480.682	2368.96
481.053	2412.35
481.424	2446.48
481.795	2510.88
482.166	2568.28
482.537	2640.14
482.908	2718.78
483.279	2733.47
483.65	2851.21
484.021	2884.66
484.391	2963.75
484.762	3043.52
485.133	3075.84
485.503	3139.79
485.874	3206.46
486.244	3230.18
486.615	3406.22
486.985	3392.67
487.356	3504.75
487.726	3556.05
488.097	3661.36
488.467	3736.38
488.837	3807.57
489.207	3843.05
489.578	3991.29
489.948	4045.3
490.318	4084.17
490.688	4209.59
491.058	4266.77
491.428	4368.68
491.798	4419.08
492.168	4547.89
492.538	4574.33
492.908	4659.75
493.278	4746.3
493.648	4807.09
494.017	4892.06
494.387	4983.36
494.757	5059.74
495.126	5157.14
495.496	5182.22
495.866	5196.69
496.235	5317.36
496.605	5356.68
496.974	5414.53
497.344	5528.2
497.713	5605.04
498.082	5654.3
498.452	5752.6
498.821	5819.72
499.19	5844.58
499.559	5904.92
499.928	5931.13
500.298	6014.97
500.667	6104.46
501.036	6101.97
501.405	6200.73
501.774	6212.48
502.143	6329.54
502.512	6350.1
502.88	6426.26
503.249	6429.65
503.618	6482.3
503.987	6617.89
504.356	6616.76
504.724	6648.17
505.093	6715.97
505.462	6734.72
505.83	6798.45
506.199	6880.26
506.567	7016.3
506.936	6974.94
507.304	7058.56
507.672	7121.83
508.041	7088.16
508.409	7156.18
508.777	7202.06
509.145	7360.92
509.514	7310.75
509.882	7420.13
510.25	7391.43
510.618	7519.79
510.986	7481.6
511.354	7574.02
511.722	7663.97
512.09	7655.15
512.458	7736.51
512.826	7753.68
513.193	7716.17
513.561	7800.23
513.929	7898.99
514.297	7952.77
514.664	8001.36
515.032	8025.54
515.4	8100.56
515.767	8058.53
516.135	8174.23
516.502	8133.78
516.869	8308.92
517.237	8294.01
517.604	8285.19
517.972	8344.17
518.339	8402.93
518.706	8433.66
519.073	8471.4
519.44	8459.65
519.808	8589.36
520.175	8574
520.542	8681.34
520.909	8651.51
521.276	8739.42
521.643	8776.93
522.009	8862.58
522.376	8921.79
522.743	8920.2
523.11	9046.75
523.477	9049.92
523.843	9151.84
524.21	9218.95
524.577	9209.24
524.943	9308.44
525.31	9315.67
525.676	9460.3
526.043	9429.12
526.409	9533.97
526.776	9560.86
527.142	9610.13
527.508	9724.93
527.874	9785.04
528.241	9761.31
528.607	9808.54
528.973	9899.84
529.339	9910.46
529.705	10048.54
530.071	10117.46
530.437	10148.87
530.803	10139.15
531.169	10194.52
531.535	10158.36
531.901	10224.35
532.267	10240.85
532.632	10430.9
532.998	10401.52
533.364	10548.18
533.73	10537.11
534.095	10596.09
534.461	10569.43
534.826	10703.89
535.192	10642.87
535.557	10813.26
535.923	10746.14
536.288	10842.19
536.653	10935.52
537.019	10855.07
537.384	10938.68
537.749	10988.85
538.114	10984.1
538.479	11093.93
538.845	11072.24
539.21	11106.13
539.575	11189.52
539.94	11204.21
540.305	11331.21
540.67	11309.74
541.034	11301.61
541.399	11401.49
541.764	11470.19
542.129	11453.7
542.494	11504.54
542.858	11528.95
543.223	11538.21
543.587	11707.7
543.952	11668.38
544.316	11729.62
544.681	11731.65
545.045	11830.86
545.41	11830.18
545.774	11914.47
546.138	11940.01
546.503	12038.09
546.867	12029.95
547.231	12134.13
547.595	12152.43
547.959	12133.23
548.324	12195.6
548.688	12236.73
549.052	12299.78
549.416	12317.85
549.779	12322.15
550.143	12365.76
550.507	12432.43
550.871	12536.83
551.235	12518.3
551.599	12670.39
551.962	12658.18
552.326	12673.1
552.689	12758.29
553.053	12697.05
553.417	12739.09
553.78	13034.67
554.143	12819.54
554.507	12938.63
554.87	12976.37
555.234	13073.09
555.597	13010.49
555.96	13048.68
556.323	13057.95
556.686	13112.86
557.05	13197.83
557.413	13179.75
557.776	13282.12
558.139	13377.94
558.502	13363.25
558.865	13450.71
559.228	13519.63
559.59	13561.21
559.953	13572.96
560.316	13775.44
560.679	13728.89
561.041	13805.95
561.404	13826.74
561.767	13919.17
562.129	13902.67
562.492	13933.18
562.854	14009.34
563.217	13961.88
563.579	14056.34
563.941	14130.01
564.304	14202.1
564.666	14238.71
565.028	14294.98
565.39	14311.47
565.753	14441.19
566.115	14444.8
566.477	14451.36
566.839	14522.32
567.201	14561.86
567.563	14603.22
567.925	14635.08
568.287	14778.13
568.648	14784.46
569.01	14830.33
569.372	14889.09
569.734	14931.34
570.095	15059.25
570.457	15049.53
570.819	15146.71
571.18	15140.15
571.542	15266.93
571.903	15255.4
572.265	15368.17
572.626	15452.23
572.987	15426.25
573.349	15599.35
573.71	15710.08
574.071	15834.15
574.432	15826.91
574.794	16035.27
575.155	15996.63
575.516	16057.19
575.877	16251.76
576.238	16239.56
576.599	16428.71
576.96	16400.68
577.32	16616.05
577.681	16699.43
578.042	16795.48
578.403	16901.01
578.763	17039.09
579.124	17272.07
579.485	17335.35
579.845	17580.99
580.206	17562.01
580.566	17715
580.927	17939.18
581.287	18073.18
581.648	18157.25
582.008	18379.16
582.368	18567.18
582.728	18677.01
583.089	18826.16
583.449	19109.54
583.809	19276.99
584.169	19424.56
584.529	19602.41
584.889	19946.13
585.249	20017.76
585.609	20164.65
585.969	20563.06
586.329	20642.15
586.688	20818.87
587.048	21185.87
587.408	21333.89
587.768	21551.28
588.127	21769.36
588.487	22059.74
588.846	22440.07
589.206	22445.27
589.565	22725.26
589.925	23122.54
590.284	23166.16
590.643	23605.01
591.003	23806.59
591.362	24062.4
591.721	24298.56
592.08	24534.26
592.44	24879.78
592.799	25194.35
593.158	25316.83
593.517	25523.61
593.876	25981
594.235	26139.41
594.593	26342.8
594.952	26784.14
595.311	26854.87
595.67	27185.71
596.029	27600.84
596.387	27751.8
596.746	27996.99
597.104	28143.88
597.463	28505
597.822	28750.19
598.18	28989.73
598.538	29138.2
598.897	29590.62
599.255	29579.55
599.613	30162.36
599.972	30172.53
600.33	30456.13
600.688	30640.76
601.046	30951.49
601.404	31300.86
601.762	31417.92
602.12	31715.08
602.478	31815.19
602.836	32144.9
603.194	32174.73
603.552	32424.67
603.91	32493.37
604.268	32889.52
604.625	33091.77
604.983	33347.36
605.341	33379
605.698	33724.75
606.056	33888.81
606.413	33989.83
606.771	34225.98
607.128	34520.89
607.485	34433.66
607.843	34691.96
608.2	34976.69
608.557	35170.59
608.914	35315.22
609.272	35708.65
609.629	35751.81
609.986	35934.86
610.343	35971.7
610.7	36352.93
611.057	36434.06
611.414	36424.34
611.771	36769.87
612.127	36877.21
612.484	37092.57
612.841	37299.8
613.198	37262.06
613.554	37383.41
613.911	37687.81
614.267	37773.91
614.624	37823.4
614.98	37896.84
615.337	38287.57
615.693	38288.02
616.05	38332.99
616.406	38704.05
616.762	38626.09
617.118	38765.07
617.475	38985.4
617.831	39037.38
618.187	39083.48
618.543	39211.38
618.899	39474.2
619.255	39475.56
619.611	39476.91
619.967	39666.29
620.323	39844.36
620.678	39918.94
621.034	39799.62
621.39	39824.02
621.746	39905.83
622.101	40459.49
622.457	40124.13
622.812	40362.31
623.168	40457.23
623.523	40494.06
623.879	40574.96
624.234	40472.59
624.589	40619.71
624.945	40764.79
625.3	40868.52
625.655	40775.18
626.01	40873.04
626.365	40963.2
626.72	40923.66
627.075	41195.74
627.43	41000.04
627.785	40960.04
628.14	41119.13
628.495	41243.87
628.85	41306.7
629.205	41081.62
629.559	41435.05
629.914	41259.24
630.269	41257.43
630.623	41302.18
630.978	41186.02
631.332	41435.73
631.687	41505.79
632.041	41481.16
632.396	41487.48
632.75	41265.57
633.104	41426.47
633.459	41279.13
633.813	41414.04
634.167	41351.21
634.521	41383.3
634.875	41547.59
635.229	41420.82
635.583	41353.02
635.937	41268.51
636.291	41359.8
636.645	41234.38
636.999	41233.03
637.352	41454.49
637.706	41175.63
638.06	41391.67
638.413	41376.3
638.767	41211.78
639.121	41321.84
639.474	41108.96
639.828	41189.64
640.181	41229.18
640.534	41155.06
640.888	41211.33
641.241	40974.05
641.594	41134.27
641.947	41153.25
642.301	41073.71
642.654	41018.12
643.007	41038.23
643.36	41042.3
643.713	40906.93
644.066	41203.2
644.419	40933.6
644.771	40735.19
645.124	40263.79
645.477	40301.07
645.83	40066.95
646.182	39878.03
646.535	39758.71
646.888	39868.32
647.24	39713.29
647.593	39823.8
647.945	39851.82
648.298	39610.47
648.65	39582
649.002	39509.91
649.355	39652.5
649.707	39701.54
650.059	39814.08
650.411	40276.67
650.763	40372.71
651.115	40659.26
651.467	40537.9
651.819	40649.09
652.171	40485.7
652.523	40347.63
652.875	40371.81
653.227	40255.2
653.578	40511.46
653.93	40474.85
654.282	40243.67
654.633	40172.04
654.985	40335.2
655.337	40275.76
655.688	40365.48
656.039	40494.29
656.391	40073.28
656.742	40322.54
657.094	40184.92
657.445	40285.48
657.796	40155.99
658.147	40080.97
658.498	40173.62
658.849	40226.5
659.2	40227.85
659.551	40039.61
659.902	40265.82
660.253	40111.7
660.604	40100.63
660.955	40086.84
661.306	40104.24
661.656	40050.68
662.007	40102.89
662.358	40013.17
662.708	40113.06
663.059	40054.75
663.409	39740.64
663.76	40108.99
664.11	40080.06
664.461	39978.82
664.811	40064.02
665.161	40093.85
665.511	39825.38
665.862	39986.96
666.212	40092.49
666.562	40048.42
666.912	40005.49
667.262	39924.81
667.612	40027.18
667.962	40080.51
668.312	39859.5
668.662	40202.09
669.011	39977.24
669.361	39797.36
669.711	39926.17
670.06	39831.25
670.41	39913.74
670.76	39877.36
671.109	39977.92
671.459	39866.28
671.808	39728.88
672.157	39884.81
672.507	39547.87
672.856	39589.45
673.205	39769.79
673.554	39781.54
673.904	39535.9
674.253	39774.31
674.602	39691.37
674.951	39158.05
675.3	38989.47
675.649	39526.86
675.998	39496.8
676.346	39640.3
676.695	39738.6
677.044	39460.19
677.393	39516.69
677.741	39427.42
678.09	39378.84
678.438	39349.23
678.787	39443.47
679.135	39494.31
679.484	39102.23
679.832	39302.23
680.181	39080.54
680.529	39185.4
680.877	39015.46
681.225	39080.77
681.573	39313.3
681.922	39026.53
682.27	38938.62
682.618	38872.86
682.966	38809.81
683.314	38934.33
683.661	38816.59
684.009	38617.5
684.357	38525.07
684.705	38639.65
685.053	38585.19
685.4	38463.16
685.748	38233.33
686.095	38288.24
686.443	38115.14
686.79	38200.11
687.138	38287.34
687.485	38248.47
687.832	38055.48
688.18	38134.35
688.527	38009.83
688.874	37907.24
689.221	37893
689.568	37729.62
689.915	37739.56
690.262	37578.21
690.609	37405.56
690.956	37498.21
691.303	37415.95
691.65	37161.95
691.997	37041.27
692.344	36906.59
692.69	36837.44
693.037	37063.19
693.383	36672.69
693.73	36780.26
694.077	36546.14
694.423	36658.46
694.769	36387.5
695.116	36361.29
695.462	36345.47
695.808	36234.51
696.155	36302.08
696.501	36089.21
696.847	36065.7
697.193	35892.15
697.539	35995.65
697.885	35706.17
698.231	35597.92
698.577	35585.26
698.923	35517.02
699.269	35381.43
699.614	35254.43
699.96	35177.14
700.306	35071.38
700.651	34991.61
700.997	34936.02
701.342	34879.52
701.688	34789.81
702.033	34578.06
702.379	34715.68
702.724	34585.97
703.069	34594.33
703.415	34211.06
703.76	34283.6
704.105	34263.72
704.45	34231.4
704.795	34082.03
705.14	33875.93
705.485	33985.53
705.83	33881.35
706.175	33789.61
706.52	33687.69
706.865	33541.48
707.209	33687.46
707.554	33531.08
707.899	33494.47
708.243	33347.36
708.588	33243.86
708.932	33032.79
709.277	33047.25
709.621	33051.09
709.966	32969.06
710.31	32955.73
710.654	32585.12
710.998	32682.52
711.342	32742.4
711.687	32575.4
712.031	32501.05
712.375	32373.15
712.719	32358.23
713.063	32338.34
713.407	32396.65
713.75	32271.45
714.094	32224.9
714.438	32022.42
714.782	32136.77
715.125	32132.02
715.469	32072.14
715.812	31928.64
716.156	31677.35
716.499	31812.93
716.843	31673.5
717.186	31479.38
717.53	31728.64
717.873	31661.98
718.216	31541.08
718.559	31379.27
718.902	31180.41
719.246	31296.79
719.589	31108.32
719.932	31063.35
720.275	31134.53
720.617	31089.11
720.96	31064.71
721.303	31122.11
721.646	30848.67
721.989	30718.5
722.331	30898.38
722.674	30778.84
723.016	30742.91
723.359	30679.41
723.701	30757.82
724.044	30502.69
724.386	30357.61
724.729	30505.62
725.071	30420.43
725.413	30451.16
725.755	30415.91
726.097	30243.94
726.439	30161.9
726.782	30212.52
727.124	30243.26
727.465	30019.76
727.807	30065.86
728.149	29986.54
728.491	29990.38
728.833	29996.94
729.175	29864.74
729.516	29751.75
729.858	29728.7
730.199	29768.69
730.541	29717.85
730.882	29543.16
731.224	29808.02
731.565	29530.96
731.906	29539.77
732.248	29530.73
732.589	29290.29
732.93	29350.85
733.271	29370.51
733.612	29261.14
733.953	29365.77
734.294	29295.71
734.635	29103.85
734.976	29303.17
735.317	29131.88
735.658	29077.87
735.999	29072.89
736.339	29053.69
736.68	29059.56
737.021	28938.21
737.361	28776.63
737.702	28964.2
738.042	28879
738.383	28688.05
738.723	28783.18
739.063	28732.34
739.404	28773.47
739.744	28631.1
740.084	28508.16
740.424	28582.51
740.764	28559.23
741.104	28656.86
741.444	28330.77
741.784	28295.29
742.124	28372.35
742.464	28273.59
742.804	28207.61
743.143	28237.44
743.483	28148.4
743.823	28127.83
744.162	28125.8
744.502	28086.25
744.841	27964.22
745.181	28077.67
745.52	27958.8
745.86	28065.46
746.199	27889.42
746.538	27981.62
746.877	27959.7
747.216	27804.45
747.556	27746.83
747.895	27812.59
748.234	27726.49
748.573	27613.05
748.911	27470.22
749.25	27610.33
749.589	27478.59
749.928	27429.32
750.267	27541.63
750.605	27227.29
750.944	27387.97
751.283	27282.43
751.621	27249.66
751.96	27204.69
752.298	27081.08
752.636	27197.46
752.975	27001.99
753.313	26885.83
753.651	27015.77
753.989	26784.82
754.327	26890.8
754.666	26686.06
755.004	26786.17
755.342	26732.84
755.679	26581.89
756.017	26547.76
756.355	26529.46
756.693	26549.12
757.031	26390.25
757.368	26421.89
757.706	26333.08
758.044	26159.52
758.381	26289.01
758.719	26117.27
759.056	26180.99
759.394	26085.18
759.731	25893.54
760.068	25853.32
760.405	25837.95
760.743	25818.29
761.08	25765.41
761.417	25534.68
761.754	25555.25
762.091	25551.86
762.428	25343.73
762.765	25352.99
763.102	25362.48
763.438	25212.88
763.775	24996.16
764.112	25235.48
764.449	25065.99
764.785	24823.97
765.122	24775.15
765.458	24706.68
765.795	24649.96
766.131	24758.2
766.467	24567.02
766.804	24597.53
767.14	24350.31
767.476	24325.45
767.812	24140.14
768.148	24406.12
768.485	24241.16
768.821	23950.77
769.157	24000.48
769.492	23938.79
769.828	23795.07
770.164	23642.75
770.5	23631.23
770.836	23632.81
771.171	23448.41
771.507	23299.94
771.842	23284.12
772.178	23229.43
772.513	23217.91
772.849	23021.08
773.184	22917.12
773.519	23053.84
773.855	22857.01
774.19	22795.54
774.525	22658.83
774.86	22741.53
775.195	22632.39
775.53	22602.78
775.865	22382.22
776.2	22270.81
776.535	22157.6
776.87	22007.77
777.205	22026.07
777.539	21898.62
777.874	21977.71
778.209	21742.01
778.543	21745.63
778.878	21591.06
779.212	21690.26
779.547	21462.02
779.881	21593.54
780.215	21243.04
780.55	21400.78
780.884	21281.46
781.218	21131.86
781.552	21095.7
781.886	21087.12
782.22	20845.54
782.554	20906.78
782.888	20624.3
783.222	20555.6
783.556	20590.4
783.889	20447.58
784.223	20336.63
784.557	20338.89
784.89	20215.73
785.224	20129.63
785.557	20205.1
785.891	20041.94
786.224	19985.9
786.558	19991.78
786.891	19810.99
787.224	19726.92
787.557	19595.4
787.891	19644.67
788.224	19713.82
788.557	19580.26
788.89	19467.72
789.223	19474.95
789.556	19278.12
789.888	19327.16
790.221	19291.46
790.554	19098.69
790.887	19063.21
791.219	18965.59
791.552	18931.92
791.884	18887.17
792.217	18787.97
792.549	18750
792.882	18696.67
793.214	18500.74
793.546	18697.12
793.879	18416
794.211	18253.74
794.543	18431.37
794.875	18284.02
795.207	18425.94
795.539	18154.76
795.871	18298.26
796.203	18032.51
796.535	18051.49
796.867	17973.3
797.198	17914.32
797.53	17986.18
797.862	17860.99
798.193	17779.18
798.525	17679.3
798.856	17644.04
799.188	17508.68
799.519	17419.41
799.85	17372.64
800.182	17389.36
800.513	17354.11
800.844	17150.04
801.175	17307.78
801.506	17324.73
801.837	17182.58
802.168	17046.09
802.499	17068.69
802.83	16877.51
803.161	16926.09
803.491	16889.94
803.822	16812.65
804.153	16817.4
804.483	16673.9
804.814	16621.02
805.145	16653.11
805.475	16648.81
805.805	16546.22
806.136	16411.08
806.466	16449.72
806.796	16473
807.126	16324.53
807.457	16206.79
807.787	16305.55
808.117	16127.92
808.447	16075.04
808.777	16163.4
809.107	16074.37
809.436	16007.02
809.766	15982.84
810.096	15887.7
810.426	15839.12
810.755	15840.47
811.085	15825.11
811.414	15776.75
811.744	15685.22
812.073	15504.89
812.403	15660.59
812.732	15530.88
813.061	15530.42
813.39	15471.67
813.719	15361.39
814.049	15527.94
814.378	15370.43
814.707	15335.18
815.036	15325.23
815.365	15226.93
815.693	15092.92
816.022	15167.95
816.351	15107.39
816.68	14999.37
817.008	15032.36
817.337	14901.06
817.665	14867.84
817.994	14983.32
818.322	14955.98
818.651	14801.18
818.979	14744
819.307	14854.28
819.636	14703.55
819.964	14682.99
820.292	14763.44
820.62	14685.02
820.948	14661.97
821.276	14749.43
821.604	14683.67
821.932	14724.34
822.259	14695.64
822.587	14643.22
822.915	14539.49
823.243	14671.46
823.57	14572.71
823.898	14604.12
824.225	14522.32
824.553	14517.57
824.88	14618.13
825.207	14626.95
825.535	14559.6
825.862	14620.62
826.189	14478.7
826.516	14575.65
826.843	14631.24
827.17	14605.93
827.497	14532.71
827.824	14537.68
828.151	14546.95
828.478	14543.11
828.805	14578.36
829.131	14563.9
829.458	14452.71
829.785	14494.52
830.111	14457.23
830.438	14494.07
830.764	14512.37
831.09	14569.77
831.417	14448.65
831.743	14442.32
832.069	14449.1
832.395	14387.4
832.722	14488.87
833.048	14452.94
833.374	14424.24
833.7	14398.7
834.026	14470.11
834.351	14458.36
834.677	14412.94
835.003	14410.68
835.329	14299.27
835.654	14339.72
835.98	14239.84
836.306	14381.98
836.631	14134.08
836.956	14239.61
837.282	14210.91
837.607	14228.76
837.932	14151.93
838.258	14180.63
838.583	14167.75
838.908	14072.16
839.233	14050.01
839.558	14090.01
839.883	13985.83
840.208	13883.91
840.533	13929.11
840.858	13981.09
841.182	13941.09
841.507	13986.96
841.832	13858.6
842.156	13778.15
842.481	13835.33
842.805	13720.08
843.13	13708.33
843.454	13752.17
843.778	13648.67
844.103	13626.29
844.427	13662.45
844.751	13575.22
845.075	13525.28
845.399	13581.78
845.723	13372.06
846.047	13445.06
846.371	13337.26
846.695	13314.66
847.019	13229.24
847.343	13162.58
847.666	13149.24
847.99	13034.67
848.313	13074.44
848.637	13011.4
848.96	12914.22
849.284	12953.77
849.607	12806.88
849.931	12746.77
850.254	12705.64
850.577	12675.13
850.9	12546.77
851.223	12607.11
851.546	12496.38
851.869	12404.18
852.192	12517.62
852.515	12361.69
852.838	12247.35
853.161	12284.41
853.483	12199.21
853.806	12192.89
854.129	12160.57
854.451	12134.36
854.774	12037.41
855.096	12047.58
855.419	11989.95
855.741	11990.86
856.063	11890.29
856.385	11922.16
856.708	11798.55
857.03	11799.9
857.352	11788.38
857.674	11826.12
857.996	11742.5
858.318	11662.28
858.64	11630.41
858.961	11554.48
859.283	11580.02
859.605	11461.15
859.926	11532.56
860.248	11482.4
860.57	11510.19
860.891	11506.12
861.212	11333.25
861.534	11391.32
861.855	11375.73
862.176	11260.48
862.498	11345.22
862.819	11286.69
863.14	11289.41
863.461	11230.2
863.782	11168.96
864.103	11136.19
864.424	11111.78
864.745	11165.12
865.065	11077.43
865.386	11105.46
865.707	11049.41
866.027	11043.54
866.348	11004.22
866.668	11070.88
866.989	10989.98
867.309	10973.48
867.63	10960.15
867.95	10891
868.27	10826.59
868.59	10932.81
868.91	10839.47
869.23	10937.33
869.55	10762.41
869.87	10826.14
870.19	10801.28
870.51	10824.11
870.83	10810.55
871.15	10661.17
871.469	10749.76
871.789	10683.09
872.109	10740.27
872.428	10676.09
872.748	10676.99
873.067	10593.38
873.386	10707.73
873.706	10625.7
874.025	10516.32
874.344	10550.89
874.663	10604.23
874.982	10539.14
875.301	10597.45
875.62	10538.92
875.939	10433.84
876.258	10505.7
876.577	10479.48
876.896	10415.08
877.214	10357.45
877.533	10353.16
877.852	10411.92
878.17	10372.82
878.489	10358.58
878.807	10305.48
879.125	10269.77
879.444	10321.75
879.762	10239.72
880.08	10316.78
880.398	10169.44
880.716	10288.98
881.034	10151.58
881.352	10182.09
881.67	10138.48
881.988	10124.92
882.306	10043.34
882.624	10009.67
882.941	10012.6
883.259	9982.32
883.577	10020.06
883.894	10016.9
884.212	9933.51
884.529	9976.67
884.846	9868.43
885.164	9908.65
885.481	9804.7
885.798	9898.93
886.115	9816
886.432	9797.24
886.75	9817.13
887.067	9735.55
887.383	9703.01
887.7	9710.24
888.017	9712.27
888.334	9718.37
888.651	9672.27
888.967	9611.26
889.284	9647.42
889.6	9577.81
889.917	9487.65
890.233	9512.28
890.55	9455.33
890.866	9539.62
891.182	9432.73
891.498	9366.75
891.815	9412.17
892.131	9340.53
892.447	9335.33
892.763	9299.63
893.079	9308.89
893.395	9226.86
893.71	9170.14
894.026	9149.8
894.342	9255.34
894.657	9117.94
894.973	9076.81
895.289	9058.5
895.604	9051.27
895.92	8987.77
896.235	8945.06
896.55	9022.35
896.865	8926.3
897.181	8885.85
897.496	8884.05
897.811	8898.96
898.126	8845.18
898.441	8785.52
898.756	8810.38
899.071	8688.8
899.386	8694.9
899.7	8632.75
900.015	8627.33
900.33	8513.89
900.644	8623.94
900.959	8551.85
901.273	8520.21
901.588	8458.07
901.902	8472.08
902.216	8376.71
902.531	8398.41
902.845	8363.38
903.159	8348.92
903.473	8302.82
903.787	8269.37
904.101	8269.82
904.415	8250.39
904.729	8135.82
905.042	8130.62
905.356	8138.3
905.67	8072.77
905.984	8072.77
906.297	8045.88
906.611	8018.08
906.924	7995.03
907.237	7948.7
907.551	7942.83
907.864	7926.78
908.177	7918.65
908.491	7848.14
908.804	7729.05
909.117	7720.01
909.43	7706.68
909.743	7667.13
910.056	7704.64
910.368	7649.5
910.681	7618.09
910.994	7545.78
911.307	7550.75
911.619	7466.46
911.932	7445.44
912.244	7383.97
912.557	7332.22
912.869	7307.14
913.181	7353.46
913.494	7351.43
913.806	7238.89
914.118	7287.25
914.43	7251.77
914.742	7201.38
915.054	7156.41
915.366	7151.89
915.678	7113.92
915.99	7125.67
916.302	7065.79
916.613	6980.82
916.925	6983.08
917.236	6975.62
917.548	6928.17
917.859	6868.51
918.171	6873.03
918.482	6826.93
918.794	6866.47
919.105	6806.81
919.416	6753.48
919.727	6734.95
920.038	6696.31
920.349	6647.04
920.66	6665.8
920.971	6576.54
921.282	6644.33
921.593	6562.75
921.903	6496.54
922.214	6492.7
922.525	6442.75
922.835	6435.75
923.146	6376.32
923.456	6411.57
923.767	6290.44
924.077	6394.85
924.387	6338.35
924.697	6260.16
925.008	6282.53
925.318	6206.6
925.628	6166.6
925.938	6185.59
926.248	6163.89
926.558	6103.1
926.867	6132.25
927.177	6115.53
927.487	6043.89
927.796	5978.36
928.106	6017.68
928.416	5991.92
928.725	5960.28
929.034	5920.73
929.344	5910.79
929.653	5926.16
929.962	5823.56
930.271	5778.59
930.581	5793.28
930.89	5781.75
931.199	5718.03
931.508	5741.53
931.817	5723.68
932.125	5648.65
932.434	5663.79
932.743	5634.64
933.051	5588.09
933.36	5577.24
933.669	5557.58
933.977	5470.8
934.286	5511.93
934.594	5501.31
934.902	5399.17
935.21	5379.51
935.519	5430.13
935.827	5390.58
936.135	5333.63
936.443	5340.41
936.751	5323.46
937.059	5328.66
937.367	5230.36
937.674	5281.65
937.982	5232.62
938.29	5184.48
938.597	5193.97
938.905	5112.62
939.213	5130.47
939.52	5140.42
939.827	5080.3
940.135	5073.75
940.442	5098.61
940.749	5021.77
941.056	5021.32
941.363	4948.1
941.67	4979.29
941.977	4961.89
942.284	4930.03
942.591	4890.03
942.898	4920.99
943.205	4877.6
943.511	4877.15
943.818	4858.84
944.125	4795.34
944.431	4799.41
944.738	4765.96
945.044	4714.89
945.35	4721.44
945.657	4692.29
945.963	4668.34
946.269	4662.91
946.575	4636.25
946.881	4618.17
947.187	4609.58
947.493	4538.17
947.799	4559.64
948.105	4492.75
948.41	4518.51
948.716	4529.13
949.022	4491.39
949.327	4462.69
949.633	4396.25
949.938	4439.87
950.244	4411.62
950.549	4368.23
950.854	4370.27
951.16	4334.56
951.465	4360.55
951.77	4307.44
952.075	4236.26
952.38	4237.39
952.685	4302.47
952.99	4195.13
953.294	4195.36
953.599	4195.81
953.904	4212.08
954.209	4143.38
954.513	4141.8
954.818	4115.13
955.122	4115.13
955.426	4099.31
955.731	4067
956.035	4066.32
956.339	4049.37
956.643	4033.1
956.948	4021.8
957.252	3983.38
957.556	4003.27
957.86	3956.94
958.163	3923.27
958.467	3948.13
958.771	3911.3
959.075	3884.18
959.378	3863.61
959.682	3866.32
959.985	3868.13
960.289	3836.04
960.592	3814.57
960.896	3778.64
961.199	3758.98
961.502	3729.61
961.805	3732.32
962.108	3684.18
962.411	3684.86
962.714	3656.16
963.017	3677.18
963.32	3655.71
963.623	3624.75
963.926	3675.6
964.228	3601.47
964.531	3627.91
964.833	3581.13
965.136	3568.48
965.438	3538.2
965.741	3495.94
966.043	3534.58
966.345	3491.87
966.648	3483.28
966.95	3517.41
967.252	3468.82
967.554	3449.16
967.856	3408.71
968.158	3401.7
968.46	3388.37
968.761	3397.86
969.063	3334.36
969.365	3363.51
969.666	3334.59
969.968	3293.91
970.269	3294.36
970.571	3274.48
970.872	3300.92
971.174	3260.69
971.475	3232.22
971.776	3224.53
972.077	3220.24
972.378	3227.02
972.679	3211.88
972.98	3189.96
973.281	3127.81
973.582	3157.64
973.883	3112.9
974.183	3078.77
974.484	3100.02
974.785	3099.11
975.085	3106.8
975.386	3061.83
975.686	3045.56
975.986	2996.29
976.287	3049.62
976.587	3036.74
976.887	3004.43
977.187	3010.75
977.487	2970.76
977.787	2986.12
978.087	2956.74
978.387	2933.92
978.687	2930.08
978.987	2933.69
979.286	2888.27
979.586	2897.76
979.885	2868.61
980.185	2847.14
980.484	2818.89
980.784	2841.49
981.083	2841.04
981.382	2812.57
981.682	2796.52
981.981	2788.16
982.28	2747.94
982.579	2754.72
982.878	2756.75
983.177	2747.03
983.475	2722.4
983.774	2706.58
984.073	2737.32
984.372	2662.97
984.67	2692.8
984.969	2660.71
985.267	2664.55
985.566	2650.54
985.864	2628.39
986.162	2624.1
986.461	2612.57
986.759	2578.68
987.057	2585.23
987.355	2536.64
987.653	2562.63
987.951	2546.59
988.249	2542.74
988.547	2534.83
988.844	2516.3
989.142	2531.44
989.44	2465.01
989.737	2462.07
990.035	2469.53
990.332	2478.34
990.63	2463.65
990.927	2437.44
991.224	2416.19
991.521	2422.07
991.819	2404.89
992.116	2373.71
992.413	2374.16
992.71	2386.36
993.006	2408.74
993.303	2356.76
993.6	2349.98
993.897	2298.46
994.193	2314.05
994.49	2327.16
994.787	2283.77
995.083	2269.3
995.379	2301.17
995.676	2242.86
995.972	2259.81
996.268	2229.31
996.565	2233.37
996.861	2235.41
997.157	2243.54
997.453	2174.17
997.749	2219.59
998.044	2190.89
998.34	2170.1
998.636	2167.84
998.932	2149.76
999.227	2113.15
999.523	2112.02
999.818	2096.65
1000.114	2095.3
1000.409	2079.71
1000.704	2072.25
1001	2069.08
1001.295	2038.35
1001.59	2049.42
1001.885	2068.18
1002.18	2018.92
1002.475	2015.07
1002.77	1997.45
1003.065	2000.61
1003.359	1987.96
1003.654	1966.04
1003.949	1947.28
1004.243	1951.8
1004.538	1939.37
1004.832	1924.68
1005.127	1957
1005.421	1916.55
1005.715	1897.11
1006.009	1891.46
1006.304	1881.07
1006.598	1859.82
1006.892	1860.28
1007.186	1845.59
1007.48	1839.26
1007.773	1817.79
1008.067	1818.7
1008.361	1773.27
1008.655	1805.36
1008.948	1790
1009.242	1782.54
1009.535	1736.44
1009.829	1758.81
1010.122	1744.12
1010.415	1724.46
1010.708	1724.46
1011.001	1721.75
1011.295	1692.82
1011.588	1707.06
1011.881	1684.91
1012.173	1656.67
1012.466	1640.39
1012.759	1649.21
1013.052	1656.44
1013.344	1643.11
1013.637	1625.25
1013.93	1598.59
1014.222	1622.32
1014.514	1601.75
1014.807	1601.53
1015.099	1574.18
1015.391	1585.48
1015.683	1549.78
1015.976	1560.62
1016.268	1522.88
1016.56	1519.27
1016.851	1529.44
1017.143	1549.55
1017.435	1481.08
1017.727	1476.78
1018.018	1506.84
1018.31	1455.31
1018.602	1478.59
1018.893	1429.1
1019.185	1467.29
1019.476	1434.07
1019.767	1441.98
1020.058	1424.36
1020.35	1423
1020.641	1401.3
1020.932	1396.79
1021.223	1377.58
1021.514	1377.12
1021.804	1346.62
1022.095	1378.93
1022.386	1357.01
1022.677	1349.1
1022.967	1345.49
1023.258	1309.56
1023.548	1329.44
1023.839	1312.49
1024.129	1306.17
1024.419	1307.52
1024.709	1265.26
1025	1277.92
1025.29	1270.69
1025.58	1271.36
1025.87	1265.94
1026.16	1236.11
1026.449	1240.41
1026.739	1220.74
1027.029	1233.63
1027.319	1236.34
1027.608	1225.26
1027.898	1192.72
1028.187	1198.37
1028.477	1191.59
1028.766	1172.84
1029.055	1168.32
1029.344	1149.56
1029.634	1150.92
1029.923	1137.13
1030.212	1138.71
1030.501	1108.66
1030.79	1105.49
1031.078	1114.08
1031.367	1106.4
1031.656	1101.43
1031.945	1090.13
1032.233	1130.8
1032.522	1097.81
1032.81	1059.39
1033.099	1061.88
1033.387	1070.69
1033.675	1024.82
1033.963	1056.46
1034.251	1041.77
1034.54	1034.76
1034.828	1030.92
1035.116	984.59
1035.403	1001.09
1035.691	1005.84
1035.979	1004.25
1036.267	978.72
1036.554	1024.82
1036.842	977.14
1037.129	980.07
1037.417	974.42
1037.704	947.08
1037.992	966.06
1038.279	960.19
1038.566	924.03
1038.853	924.03
1039.14	924.03
