Data from hue_250_FLMS001491_00066.txt Node
Date: Tue Feb 07 16:01:18 GMT 2017
User: dcchb
Spectrometer: FLMS00149
Trigger mode: 0
Integration Time (sec): 2.000000E-2
Scans to average: 10
Electric dark correction enabled: true
Nonlinearity correction enabled: false
Boxcar width: 0
XAxis mode: Wavelengths
Number of Pixels in Spectrum: 2048
>>>>>Begin Spectral Data<<<<<
341.393	-13.69
341.776	-13.69
342.16	-13.69
342.543	-56.4
342.927	-62.27
343.31	-83.74
343.693	-68.15
344.077	-53.01
344.46	-58.43
344.843	-51.65
345.226	-33.35
345.61	-36.51
345.993	-8.49
346.376	9.36
346.759	6.2
347.142	33.77
347.525	42.58
347.908	45.97
348.291	74.45
348.674	63.6
349.057	117.38
349.44	120.32
349.823	156.7
350.206	142.92
350.588	158.29
350.971	210.94
351.354	234.22
351.737	224.73
352.119	242.8
352.502	240.77
352.884	251.84
353.267	284.16
353.65	283.26
354.032	298.17
354.414	299.53
354.797	311.28
355.179	322.12
355.562	299.07
355.944	315.8
356.326	329.13
356.709	338.17
357.091	337.04
357.473	339.98
357.855	324.38
358.238	325.51
358.62	337.04
359.002	335.46
359.384	347.66
359.766	322.35
360.148	328.68
360.53	339.3
360.912	332.97
361.294	310.15
361.676	337.94
362.057	325.97
362.439	327.1
362.821	350.37
363.203	332.29
363.584	317.38
363.966	301.56
364.348	326.42
364.729	322.58
365.111	302.24
365.493	317.38
365.874	316.47
366.256	317.6
366.637	345.17
367.019	321.22
367.4	309.92
367.781	315.57
368.163	307.21
368.544	320.09
368.925	312.18
369.306	309.47
369.688	318.73
370.069	302.01
370.45	323.93
370.831	330.26
371.212	298.62
371.593	310.15
371.974	295.91
372.355	306.53
372.736	307.89
373.117	305.85
373.498	297.27
373.879	321.9
374.26	309.92
374.641	321.9
375.021	311.28
375.402	315.34
375.783	315.57
376.163	315.34
376.544	328.23
376.925	318.51
377.305	322.58
377.686	336.81
378.066	307.89
378.447	328.9
378.827	321.9
379.208	341.56
379.588	327.55
379.968	317.15
380.349	323.71
380.729	339.3
381.109	339.52
381.489	330.03
381.87	345.63
382.25	333.2
382.63	336.36
383.01	358.73
383.39	345.17
383.77	333.2
384.15	342.69
384.53	330.03
384.91	332.52
385.29	316.25
385.67	357.6
386.049	351.28
386.429	369.13
386.809	371.61
387.189	354.44
387.568	357.83
387.948	353.54
388.328	351.05
388.707	373.65
389.087	354.89
389.466	375.91
389.846	375.23
390.225	355.34
390.605	369.35
390.984	367.09
391.363	393.31
391.743	381.33
392.122	372.52
392.501	365.06
392.881	379.52
393.26	399.41
393.639	402.57
394.018	388.34
394.397	384.5
394.776	374.78
395.155	401.44
395.534	386.08
395.913	392.86
396.292	398.28
396.671	396.7
397.05	391.05
397.429	425.4
397.808	405.96
398.186	408
398.565	401.44
398.944	403.03
399.323	428.56
399.701	434.44
400.08	449.58
400.458	429.92
400.837	436.02
401.215	419.97
401.594	416.13
401.972	425.85
402.351	432.4
402.729	428.11
403.107	446.41
403.486	453.87
403.864	445.06
404.242	444.38
404.62	438.96
404.999	456.81
405.377	464.27
405.755	478.73
406.133	479.86
406.511	469.92
406.889	478.73
407.267	490.26
407.645	467.66
408.023	481.89
408.401	490.03
408.779	494.55
409.156	505.17
409.534	533.64
409.912	538.16
410.29	515.57
410.667	549.46
411.045	539.07
411.422	557.15
411.8	539.97
412.178	541.78
412.555	549.46
412.933	560.54
413.31	570.93
413.687	583.13
414.065	594.43
414.442	599.86
414.819	617.71
415.197	622.46
415.574	622.46
415.951	631.49
416.328	641.89
416.705	640.31
417.082	635.34
417.46	645.28
417.837	673.3
418.214	666.07
418.591	658.16
418.967	666.75
419.344	690.7
419.721	699.29
420.098	675.79
420.475	717.37
420.852	740.87
421.228	730.25
421.605	732.06
421.982	743.36
422.358	769.34
422.735	738.61
423.111	758.72
423.488	778.38
423.864	786.07
424.241	833.3
424.617	800.98
424.994	817.48
425.37	831.04
425.746	869.45
426.123	853.86
426.499	877.82
426.875	854.99
427.251	884.82
427.627	888.44
428.003	900.41
428.379	927.53
428.756	924.37
429.132	942.45
429.507	913.75
429.883	978.83
430.259	986.97
430.635	989.23
431.011	975.21
431.387	992.62
431.763	1027.42
432.138	1037.36
432.514	1036
432.89	1050.47
433.265	1093.63
433.641	1097.47
434.016	1102.67
434.392	1137.02
434.767	1136.57
435.143	1115.55
435.518	1162.33
435.894	1178.15
436.269	1194.42
436.644	1215.21
437.02	1231.93
437.395	1221.76
437.77	1255.43
438.145	1284.81
438.52	1289.78
438.895	1294.98
439.271	1321.19
439.646	1348.99
440.021	1341.31
440.395	1384.7
440.77	1368.2
441.145	1392.15
441.52	1391.47
441.895	1435.09
442.27	1443.9
442.645	1443.22
443.019	1452.04
443.394	1481.42
443.769	1468.99
444.143	1474.41
444.518	1515.31
444.892	1522.32
445.267	1511.47
445.641	1523.9
446.016	1530.91
446.39	1595.99
446.764	1573.62
447.139	1572.26
447.513	1597.57
447.887	1587.85
448.262	1602.99
448.636	1626.95
449.01	1634.63
449.384	1668.08
449.758	1644.35
450.132	1680.96
450.506	1659.94
450.88	1680.73
451.254	1705.59
451.628	1710.34
452.002	1736.55
452.376	1740.84
452.75	1782.65
453.123	1790.33
453.497	1822.42
453.871	1845.02
454.244	1835.08
454.618	1834.63
454.992	1850.9
455.365	1874.17
455.739	1926.15
456.112	1966.83
456.486	1933.61
456.859	1963.89
457.232	1991.68
457.606	2000.05
457.979	2047.73
458.352	2082.53
458.725	2075.98
459.099	2090.67
459.472	2118.69
459.845	2197.33
460.218	2175.63
460.591	2175.41
460.964	2190.78
461.337	2222.41
461.71	2284.56
462.083	2308.29
462.456	2291.11
462.829	2321.39
463.201	2372.47
463.574	2360.04
463.947	2411.11
464.32	2425.12
464.692	2462.63
465.065	2477.55
465.438	2488.17
465.81	2531.11
466.183	2567.49
466.555	2604.78
466.928	2610.2
467.3	2650.42
467.672	2710.08
468.045	2697.2
468.417	2726.35
468.789	2753.25
469.161	2771.78
469.534	2849.52
469.906	2881.61
470.278	2921.15
470.65	2913.02
471.022	2972
471.394	3036.86
471.766	3041.15
472.138	3073.24
472.51	3176.74
472.882	3170.19
473.253	3211.31
473.625	3240.47
473.997	3279.33
474.369	3317.53
474.74	3299
475.112	3407.92
475.484	3472.78
475.855	3515.03
476.227	3525.66
476.598	3585.99
476.97	3636.39
477.341	3717.97
477.713	3774.69
478.084	3723.84
478.455	3878.64
478.827	3913.89
479.198	4019.88
479.569	3995.93
479.94	4055.36
480.311	4128.8
480.682	4193.66
481.053	4280.44
481.424	4395.69
481.795	4339.42
482.166	4456.25
482.537	4501.22
482.908	4594.1
483.279	4572.86
483.65	4707.09
484.021	4740.77
484.391	4788
484.762	4839.07
485.133	4835.45
485.503	4956.13
485.874	5040.64
486.244	5079.06
486.615	5136.91
486.985	5193.18
487.356	5297.59
487.726	5313.18
488.097	5400.18
488.467	5421.88
488.837	5466.4
489.207	5557.92
489.578	5670.23
489.948	5644.92
490.318	5772.15
490.688	5768.76
491.058	5874.97
491.428	5898.7
491.798	5978.47
492.168	6040.84
492.538	6092.14
492.908	6142.31
493.278	6192.7
493.648	6223.66
494.017	6239.03
494.387	6331.68
494.757	6379.59
495.126	6488.29
495.496	6472.02
495.866	6452.81
496.235	6549.98
496.605	6592.47
496.974	6628.63
497.344	6711.79
497.713	6691.22
498.082	6746.59
498.452	6818.45
498.821	6870.43
499.19	6791.33
499.559	6933.7
499.928	6973.47
500.298	6945
500.667	6988.39
501.036	7013.47
501.405	7081.04
501.774	7108.61
502.143	7104.09
502.512	7162.62
502.88	7186.8
503.249	7220.93
503.618	7279.23
503.987	7339.11
504.356	7307.25
504.724	7337.53
505.093	7396.51
505.462	7365.33
505.83	7432.9
506.199	7529.84
506.567	7565.1
506.936	7599.67
507.304	7602.16
507.672	7582.72
508.041	7606.23
508.409	7719.67
508.777	7714.7
509.145	7806.67
509.514	7717.41
509.882	7857.52
510.25	7915.6
510.618	7894.81
510.986	7851.64
511.354	7961.7
511.722	8012.09
512.09	8010.28
512.458	8037.4
512.826	8101.13
513.193	8034.69
513.561	8081.92
513.929	8109.72
514.297	8241.69
514.664	8239.88
515.032	8281.46
515.4	8233.55
515.767	8306.77
516.135	8332.76
516.502	8271.97
516.869	8412.08
517.237	8415.02
517.604	8347
517.972	8443.27
518.339	8506.99
518.706	8468.8
519.073	8460.44
519.44	8541.8
519.808	8562.36
520.175	8586.54
520.542	8654.56
520.909	8684.62
521.276	8620.89
521.643	8702.92
522.009	8762.81
522.376	8787.21
522.743	8795.12
523.11	8898.85
523.477	8930.49
523.843	8939.07
524.21	8955.12
524.577	9013.2
524.943	9024.95
525.31	9068.34
525.676	9127.09
526.043	9140.65
526.409	9173.42
526.776	9242.57
527.142	9193.53
527.508	9204.38
527.874	9328.67
528.241	9273.53
528.607	9294.54
528.973	9403.02
529.339	9375.22
529.705	9481.43
530.071	9529.79
530.437	9473.75
530.803	9495.89
531.169	9576.8
531.535	9490.47
531.901	9578.83
532.267	9539.06
532.632	9632.84
532.998	9626.96
533.364	9589.68
533.73	9608.43
534.095	9654.99
534.461	9727.53
534.826	9699.96
535.192	9727.75
535.557	9666.51
535.923	9788.54
536.288	9749.45
536.653	9781.31
537.019	9675.55
537.384	9810.46
537.749	9814.76
538.114	9754.64
538.479	9743.57
538.845	9789.22
539.21	9788.77
539.575	9773.4
539.94	9781.76
540.305	9832.38
540.67	9820.41
541.034	9851.82
541.399	9832.61
541.764	9831.7
542.129	9900.4
542.494	9852.04
542.858	9937.24
543.223	9875.55
543.587	9945.15
543.952	9892.72
544.316	9908.54
544.681	9859.27
545.045	9984.02
545.41	9940.18
545.774	9926.62
546.138	9948.31
546.503	9959.16
546.867	9848.65
547.231	9956.67
547.595	9964.13
547.959	9934.98
548.324	10003.23
548.688	9936.56
549.052	9974.98
549.416	10026.28
549.779	9983.57
550.143	9988.31
550.507	10067.63
550.871	9950.35
551.235	9954.64
551.599	10032.38
551.962	9970.68
552.326	10104.69
552.689	10081.64
553.053	9962.77
553.417	10024.69
553.78	10137.23
554.143	10063.11
554.507	10121.41
554.87	10098.59
555.234	10226.95
555.597	10049.1
555.96	10152.6
556.323	10144.46
556.686	10204.58
557.05	10163.67
557.413	10208.64
557.776	10156.67
558.139	10289.77
558.502	10295.65
558.865	10313.27
559.228	10374.29
559.59	10362.31
559.953	10352.82
560.316	10503.78
560.679	10405.7
561.041	10478.24
561.404	10534.06
561.767	10573.38
562.129	10479.82
562.492	10598.24
562.854	10529.31
563.217	10546.04
563.579	10625.81
563.941	10696.54
564.304	10694.28
564.666	10679.59
565.028	10706.03
565.39	10789.87
565.753	10780.38
566.115	10781.74
566.477	10860.6
566.839	10980.38
567.201	10912.81
567.563	10946.48
567.925	10961.84
568.287	10972.24
568.648	11048.85
569.01	11089.3
569.372	11137.43
569.734	11072.8
570.095	11242.52
570.457	11236.87
570.819	11216.75
571.18	11195.96
571.542	11221.95
571.903	11282.06
572.265	11292.91
572.626	11321.38
572.987	11386.92
573.349	11409.74
573.71	11482.73
574.071	11451.32
574.432	11441.38
574.794	11593.69
575.155	11489.97
575.516	11554.6
575.877	11604.77
576.238	11664.2
576.599	11699.45
576.96	11670.75
577.32	11710.3
577.681	11857.41
578.042	11751.2
578.403	11757.53
578.763	11746
579.124	11809.51
579.485	11880.92
579.845	11836.85
580.206	11877.07
580.566	11899.45
580.927	11909.84
581.287	11981.03
581.648	11919.33
582.008	11972.44
582.368	12032.32
582.728	12000.91
583.089	12049.73
583.449	12041.14
583.809	12049.73
584.169	12092.66
584.529	12082.27
584.889	12179.67
585.249	12201.81
585.609	12085.88
585.969	12140.8
586.329	12176.28
586.688	12193
587.048	12213.11
587.408	12233
587.768	12165.65
588.127	12204.3
588.487	12209.5
588.846	12357.97
589.206	12273.22
589.565	12284.07
589.925	12347.57
590.284	12355.25
590.643	12375.59
591.003	12373.11
591.362	12408.59
591.721	12329.72
592.08	12443.16
592.44	12464.4
592.799	12444.29
593.158	12397.29
593.517	12407.46
593.876	12537.62
594.235	12411.3
594.593	12432.77
594.952	12430.05
595.311	12387.34
595.67	12471.41
596.029	12553.67
596.387	12517.28
596.746	12525.19
597.104	12469.15
597.463	12512.31
597.822	12599.99
598.18	12538.75
598.538	12474.12
598.897	12546.44
599.255	12509.6
599.613	12716.83
599.972	12531.29
600.33	12555.93
600.688	12535.59
601.046	12580.79
601.404	12767.67
601.762	12631.41
602.12	12764.06
602.478	12662.36
602.836	12784.85
603.194	12655.13
603.552	12646.77
603.91	12621.91
604.268	12685.64
604.625	12638.41
604.983	12740.1
605.341	12717.5
605.698	12726.32
606.056	12785.3
606.413	12804.96
606.771	12825.3
607.128	12762.93
607.485	12764.96
607.843	12747.11
608.2	12839.76
608.557	12806.54
608.914	12832.98
609.272	12928.8
609.629	12931.28
609.986	13002.47
610.343	12917.27
610.7	12938.29
611.057	12891.96
611.414	12939.19
611.771	12898.52
612.127	13000.21
612.484	12990.27
612.841	13004.73
613.198	12964.5
613.554	13015.58
613.911	13059.19
614.267	13050.83
614.624	13024.84
614.98	13041.79
615.337	13034.56
615.693	13065.52
616.05	13039.3
616.406	13168.57
616.762	13042.47
617.118	13035.69
617.475	13120.21
617.831	13175.8
618.187	13159.75
618.543	13073.43
618.899	13194.1
619.255	13167.89
619.611	13142.35
619.967	13181
620.323	13300.09
620.678	13235.91
621.034	13184.38
621.39	13182.13
621.746	13165.18
622.101	13376.02
622.457	13125.4
622.812	13274.1
623.168	13250.82
623.523	13190.71
623.879	13265.06
624.234	13185.06
624.589	13218.73
624.945	13188.45
625.3	13258.96
625.655	13200.2
626.01	13131.73
626.365	13248.34
626.72	13162.01
627.075	13255.8
627.43	13112.3
627.785	13122.01
628.14	13211.73
628.495	13183.03
628.85	13115.46
629.205	13089.02
629.559	13195.91
629.914	13230.94
630.269	13124.5
630.623	13078.63
630.978	13075.01
631.332	13127.21
631.687	13136.02
632.041	13153.43
632.396	13098.06
632.75	13053.09
633.104	13083.37
633.459	12925.86
633.813	12985.75
634.167	12929.25
634.521	12904.84
634.875	13007.44
635.229	12999.98
635.583	12772.87
635.937	12859.2
636.291	12840.21
636.645	12911.62
636.999	12825.75
637.352	12897.16
637.706	12826.65
638.06	12828.91
638.413	12823.94
638.767	12788.46
639.121	12809.71
639.474	12705.3
639.828	12682.03
640.181	12715.02
640.534	12708.24
640.888	12695.81
641.241	12608.13
641.594	12631.63
641.947	12744.62
642.301	12668.92
642.654	12696.71
643.007	12585.3
643.36	12661.01
643.713	12533.1
644.066	12668.47
644.419	12546.21
644.771	12522.26
645.124	12423.28
645.477	12397.96
645.83	12248.36
646.182	12241.13
646.535	12093.57
646.888	12174.47
647.24	12108.03
647.593	12157.29
647.945	12055.6
648.298	12105.77
648.65	12076.39
649.002	12069.61
649.355	12135.15
649.707	12084.3
650.059	12158.65
650.411	12333.33
650.763	12277.52
651.115	12449.26
651.467	12388.93
651.819	12385.31
652.171	12327.91
652.523	12349.15
652.875	12314.58
653.227	12291.3
653.578	12410.17
653.93	12259.21
654.282	12269.38
654.633	12181.25
654.985	12304.18
655.337	12311.64
655.688	12267.35
656.039	12339.21
656.391	12255.14
656.742	12237.97
657.094	12266.44
657.445	12276.61
657.796	12240.23
658.147	12220.12
658.498	12244.97
658.849	12245.2
659.2	12270.06
659.551	12230.96
659.902	12290.17
660.253	12194.58
660.604	12207.91
660.955	12232.55
661.306	12192.77
661.656	12209.27
662.007	12187.58
662.358	12274.8
662.708	12216.5
663.059	12250.85
663.409	12192.09
663.76	12214.69
664.11	12252.88
664.461	12293.56
664.811	12281.81
665.161	12242.71
665.511	12284.97
665.862	12213.34
666.212	12223.05
666.562	12259.66
666.912	12267.57
667.262	12185.54
667.612	12173.56
667.962	12248.82
668.312	12251.53
668.662	12277.97
669.011	12226.67
669.361	12251.53
669.711	12170.4
670.06	12225.54
670.41	12142.6
670.76	12109.16
671.109	12229.83
671.459	12183.73
671.808	12196.61
672.157	12151.87
672.507	12072.32
672.856	12088.59
673.205	12069.84
673.554	12118.42
673.904	12000.91
674.253	12130.4
674.602	12136.73
674.951	11856.51
675.3	11879.79
675.649	12081.36
675.998	12083.4
676.346	12081.14
676.695	12038.65
677.044	11998.43
677.393	11951.42
677.741	11941.25
678.09	11949.16
678.438	11909.62
678.787	11940.8
679.135	11963.17
679.484	11860.8
679.832	11931.76
680.181	11832.78
680.529	11883.63
680.877	11896.06
681.225	11784.2
681.573	11907.58
681.922	11771.99
682.27	11708.49
682.618	11750.52
682.966	11741.03
683.314	11734.25
683.661	11702.39
684.009	11651.54
684.357	11573.81
684.705	11573.13
685.053	11522.06
685.4	11535.84
685.748	11544.2
686.095	11499.23
686.443	11499.46
686.79	11412.23
687.138	11526.58
687.485	11445.22
687.832	11355.51
688.18	11390.76
688.527	11281.61
688.874	11220.82
689.221	11283.87
689.568	11238.9
689.915	11238
690.262	11205.91
690.609	11079.81
690.956	11103.54
691.303	11104.67
691.65	11031.22
691.997	11094.95
692.344	10985.57
692.69	10935.63
693.037	10987.38
693.383	10867.61
693.73	10876.88
694.077	10858.34
694.423	10825.58
694.769	10789.65
695.116	10741.51
695.462	10719.14
695.808	10729.53
696.155	10707.61
696.501	10602.31
696.847	10592.14
697.193	10525.25
697.539	10579.71
697.885	10490.44
698.231	10438.24
698.577	10445.25
698.923	10376.78
699.269	10303.78
699.614	10286.83
699.96	10336.32
700.306	10233.73
700.651	10131.36
700.997	10207.29
701.342	10175.2
701.688	10133.84
702.033	10114.18
702.379	10105.14
702.724	10057.46
703.069	10022.66
703.415	9968.65
703.76	9976.79
704.105	9944.92
704.45	9921.65
704.795	9891.59
705.14	9812.72
705.485	9786.06
705.83	9786.73
706.175	9763.68
706.52	9710.8
706.865	9682.33
707.209	9645.27
707.554	9584.25
707.899	9690.24
708.243	9522.11
708.588	9520.98
708.932	9456.8
709.277	9521.43
709.621	9470.58
709.966	9401.43
710.31	9447.53
710.654	9402.11
710.998	9386.07
711.342	9314.43
711.687	9382
712.031	9290.7
712.375	9288.22
712.719	9299.52
713.063	9306.97
713.407	9311.49
713.75	9272.4
714.094	9215
714.438	9208.44
714.782	9205.28
715.125	9149.24
715.469	9236.69
715.812	9170.71
716.156	9081.89
716.499	9083.93
716.843	9065.4
717.186	9076.7
717.53	9091.16
717.873	9130.93
718.216	9059.07
718.559	9055.68
718.902	8970.94
719.246	9030.6
719.589	8938.62
719.932	8943.59
720.275	8948.79
720.617	8919.19
720.96	8855.23
721.303	8924.61
721.646	8904.5
721.989	8851.39
722.331	8901.79
722.674	8869.24
723.016	8822.24
723.359	8767.1
723.701	8822.92
724.044	8784.05
724.386	8713.99
724.729	8789.7
725.071	8751.06
725.413	8736.14
725.755	8690.04
726.097	8698.85
726.439	8622.7
726.782	8737.04
727.124	8733.43
727.465	8693.43
727.807	8676.03
728.149	8574.34
728.491	8650.04
728.833	8706.99
729.175	8629.7
729.516	8632.41
729.858	8664.05
730.199	8544.96
730.541	8639.65
730.882	8616.37
731.224	8594.9
731.565	8491.85
731.906	8551.51
732.248	8632.41
732.589	8544.51
732.93	8563.04
733.271	8541.57
733.612	8515.36
733.953	8515.13
734.294	8541.34
734.635	8575.92
734.976	8566.88
735.317	8535.92
735.658	8523.26
735.999	8504.73
736.339	8509.48
736.68	8534.79
737.021	8517.84
737.361	8468.58
737.702	8542.47
738.042	8524.62
738.383	8523.49
738.723	8520.33
739.063	8531.85
739.404	8494.56
739.744	8496.15
740.084	8470.61
740.424	8537.5
740.764	8498.41
741.104	8509.93
741.444	8468.12
741.784	8520.33
742.124	8532.3
742.464	8523.94
742.804	8507.45
743.143	8513.1
743.483	8524.39
743.823	8469.71
744.162	8512.64
744.502	8585.18
744.841	8567.78
745.181	8626.31
745.52	8607.78
745.86	8634.22
746.199	8635.8
746.538	8698.18
746.877	8710.38
747.216	8725.07
747.556	8711.06
747.895	8684.62
748.234	8730.72
748.573	8789.92
748.911	8778.4
749.25	8918.96
749.589	8936.59
749.928	8942.01
750.267	8970.03
750.605	9039.64
750.944	9086.41
751.283	9105.62
751.621	9173.19
751.96	9176.58
752.298	9285.28
752.636	9337.03
752.975	9347.65
753.313	9383.81
753.651	9511.26
753.989	9524.82
754.327	9657.02
754.666	9601.43
755.004	9736.57
755.342	9885.04
755.679	9873.06
756.017	9975.2
756.355	10054.3
756.693	10176.78
757.031	10213.84
757.368	10340.62
757.706	10405.7
758.044	10484.34
758.381	10559.14
758.719	10613.61
759.056	10739.48
759.394	10876.88
759.731	10828.97
760.068	11048.62
760.405	11101.5
760.743	11187.15
761.08	11388.05
761.417	11400.48
761.754	11502.85
762.091	11539.46
762.428	11642.5
762.765	11771.31
763.102	11893.12
763.438	11889.96
763.775	11951.2
764.112	12057.18
764.449	12274.13
764.785	12302.37
765.122	12376.04
765.458	12394.12
765.795	12563.61
766.131	12706.66
766.467	12729.48
766.804	12758.18
767.14	12784.62
767.476	12885.64
767.812	12988.23
768.148	13073.88
768.485	13048.8
768.821	13155.23
769.157	13240.65
769.492	13337.6
769.828	13376.24
770.164	13343.48
770.5	13374.89
770.836	13494.21
771.171	13532.4
771.507	13596.13
771.842	13492.63
772.178	13622.34
772.513	13579.18
772.849	13740.53
773.184	13679.74
773.519	13853.52
773.855	13779.62
774.19	13869.34
774.525	13807.87
774.86	13944.82
775.195	13813.07
775.53	13923.8
775.865	13846.97
776.2	13870.69
776.535	13803.13
776.87	13885.38
777.205	13904.37
777.539	13853.52
777.874	13964.7
778.209	13996.57
778.543	13907.08
778.878	13937.59
779.212	13865.72
779.547	13882.22
779.881	13919.51
780.215	13869.79
780.55	13898.04
780.884	13904.82
781.218	13831.37
781.552	13973.29
781.886	13832.96
782.22	13859.4
782.554	13797.02
782.888	13721.09
783.222	13709.79
783.556	13738.72
783.889	13759.74
784.223	13676.58
784.557	13646.97
784.89	13683.13
785.224	13660.08
785.557	13571.72
785.891	13547.99
786.224	13531.04
786.558	13532.17
786.891	13527.88
787.224	13401.78
787.557	13378.73
787.891	13426.64
788.224	13392.97
788.557	13423.02
788.89	13453.53
789.223	13435.23
789.556	13272.07
789.888	13305.51
790.221	13343.25
790.554	13197.94
790.887	13139.64
791.219	13171.96
791.552	13124.95
791.884	13093.09
792.217	13062.13
792.549	13081.11
792.882	13050.38
793.214	12944.84
793.546	12969.48
793.879	12864.62
794.211	12851.51
794.543	12925.41
794.875	12924.73
795.207	12863.04
795.539	12796.82
795.871	12815.13
796.203	12764.28
796.535	12719.09
796.867	12636.6
797.198	12666.66
797.53	12643.16
797.862	12588.69
798.193	12623.04
798.525	12515.93
798.856	12486.32
799.188	12420.11
799.519	12396.16
799.85	12400.68
800.182	12432.54
800.513	12364.29
800.844	12300.79
801.175	12286.78
801.506	12369.72
801.837	12209.27
802.168	12157.07
802.499	12109.84
802.83	12076.84
803.161	11990.52
803.491	12000.46
803.822	12099.67
804.153	12088.37
804.483	11960.01
804.814	11928.82
805.145	11861.48
805.475	11915.49
805.805	11875.72
806.136	11860.35
806.466	11766.12
806.796	11807.25
807.126	11680.47
807.457	11691.77
807.787	11634.82
808.117	11669.4
808.447	11640.24
808.777	11629.17
809.107	11607.7
809.436	11524.32
809.766	11543.3
810.096	11493.58
810.426	11386.69
810.755	11516.63
811.085	11435.96
811.414	11419.23
811.744	11426.92
812.073	11355.28
812.403	11336.75
812.732	11308.5
813.061	11313.02
813.39	11221.72
813.719	11120.48
814.049	11265.11
814.378	11234.61
814.707	11173.36
815.036	11157.55
815.365	11073.03
815.693	11057.44
816.022	11021.5
816.351	11026.02
816.68	10981.28
817.008	10974.73
817.337	10951.45
817.665	10924.33
817.994	10885.69
818.322	10918.46
818.651	10769.53
818.979	10755.75
819.307	10863.77
819.636	10829.42
819.964	10770.44
820.292	10756.2
820.62	10821.28
820.948	10700.83
821.276	10748.29
821.604	10771.12
821.932	10760.95
822.259	10787.61
822.587	10695.18
822.915	10728.18
823.243	10718.01
823.57	10649.31
823.898	10760.27
824.225	10747.61
824.553	10723.88
824.88	10699.48
825.207	10825.12
825.535	10737.44
825.862	10793.26
826.189	10730.44
826.516	10802.53
826.843	10786.03
827.17	10758.91
827.497	10750.1
827.824	10805.69
828.151	10812.47
828.478	10788.29
828.805	10812.47
829.131	10741.06
829.458	10779.48
829.785	10767.73
830.111	10721.85
830.438	10757.78
830.764	10714.62
831.09	10758.23
831.417	10621.97
831.743	10748.29
832.069	10766.6
832.395	10710.1
832.722	10659.25
833.048	10655.86
833.374	10718.24
833.7	10677.33
834.026	10656.99
834.351	10675.07
834.677	10614.06
835.003	10620.61
835.329	10665.81
835.654	10662.19
835.98	10579.71
836.306	10617.67
836.631	10607.96
836.956	10600.5
837.282	10591.68
837.607	10569.76
837.932	10494.96
838.258	10541.97
838.583	10494.06
838.908	10438.92
839.233	10444.8
839.558	10469.43
839.883	10384.01
840.208	10350.56
840.533	10391.69
840.858	10378.58
841.182	10375.65
841.507	10324.12
841.832	10291.81
842.156	10259.04
842.481	10297.91
842.805	10253.61
843.13	10235.08
843.454	10202.99
843.778	10195.54
844.103	10181.53
844.427	10116.67
844.751	10163.67
845.075	10176.33
845.399	10075.31
845.723	10043
846.047	10059.95
846.371	9952.83
846.695	10003.23
847.019	9810.24
847.343	9810.24
847.666	9738.6
847.99	9718.71
848.313	9783.57
848.637	9698.6
848.96	9673.52
849.284	9603.01
849.607	9571.37
849.931	9536.35
850.254	9509.45
850.577	9457.93
850.9	9353.75
851.223	9425.61
851.546	9396.01
851.869	9328.89
852.192	9293.64
852.515	9180.2
852.838	9225.17
853.161	9222.68
853.483	9231.04
853.806	9081.44
854.129	9123.7
854.451	9064.49
854.774	9036.92
855.096	8987.66
855.419	9011.39
855.741	8958.73
856.063	8906.98
856.385	8923.48
856.708	8903.14
857.03	8788.34
857.352	8806.65
857.674	8836.48
857.996	8827.89
858.318	8706.99
858.64	8698.63
858.961	8708.12
859.283	8720.77
859.605	8636.48
859.926	8628.8
860.248	8626.31
860.57	8627.89
860.891	8627.22
861.212	8571.62
861.534	8504.06
861.855	8526.2
862.176	8476.71
862.498	8460.67
862.819	8530.04
863.14	8458.86
863.461	8459.76
863.782	8419.31
864.103	8464.28
864.424	8396.04
864.745	8394.68
865.065	8330.05
865.386	8342.7
865.707	8331.18
866.027	8304.06
866.348	8285.3
866.668	8273.55
866.989	8289.37
867.309	8199.66
867.63	8252.54
867.95	8189.04
868.27	8185.65
868.59	8196.04
868.91	8152.43
869.23	8193.33
869.55	8152.65
869.87	8167.79
870.19	8160.11
870.51	8178.87
870.83	8121.92
871.15	8082.15
871.469	8125.53
871.789	8108.13
872.109	8081.24
872.428	8028.36
872.748	8081.47
873.067	7969.83
873.386	8022.94
873.706	7954.01
874.025	7994.69
874.344	7916.95
874.663	7963.05
874.982	7953.34
875.301	7967.35
875.62	7947.91
875.939	7902.26
876.258	7969.15
876.577	7866.56
876.896	7900
877.214	7815.71
877.533	7919.44
877.852	7827.92
878.17	7868.59
878.489	7852.55
878.807	7892.09
879.125	7791.08
879.444	7811.87
879.762	7726.9
880.08	7819.78
880.398	7773.45
880.716	7745.88
881.034	7607.13
881.352	7707.69
881.67	7631.54
881.988	7644.42
882.306	7624.53
882.624	7591.54
882.941	7573.69
883.259	7497.75
883.577	7580.46
883.894	7573.23
884.212	7554.02
884.529	7521.26
884.846	7474.48
885.164	7528.49
885.481	7433.12
885.798	7504.08
886.115	7394.03
886.432	7435.84
886.75	7352.9
887.067	7373.69
887.383	7359
887.7	7326.91
888.017	7265.22
888.334	7257.99
888.651	7318.32
888.967	7257.99
889.284	7235.61
889.6	7265.67
889.917	7198.33
890.233	7210.98
890.55	7171.21
890.866	7163.75
891.182	7135.5
891.498	7069.29
891.815	7086.24
892.131	7002.63
892.447	7018.22
892.763	7011.67
893.079	6976.86
893.395	6996.53
893.71	7000.82
894.026	7012.8
894.342	6893.48
894.657	6906.81
894.973	6877.21
895.289	6840.82
895.604	6863.65
895.92	6804.44
896.235	6732.8
896.55	6788.39
896.865	6761.5
897.181	6729.64
897.496	6725.8
897.811	6672.69
898.126	6643.09
898.441	6620.72
898.756	6590.89
899.071	6582.52
899.386	6607.83
899.7	6545.92
900.015	6531
900.33	6413.04
900.644	6473.15
900.959	6447.16
901.273	6384.11
901.588	6377.33
901.902	6372.36
902.216	6359.48
902.531	6346.37
902.845	6271.57
903.159	6261.63
903.473	6279.03
903.787	6226.38
904.101	6185.7
904.415	6246.94
904.729	6140.28
905.042	6139.82
905.356	6170.11
905.67	6093.05
905.984	6081.29
906.297	6072.03
906.611	6054.85
906.924	6001.3
907.237	6048.75
907.551	5961.98
907.864	5984.8
908.177	5904.12
908.491	5975.53
908.804	5912.94
909.117	5888.53
909.43	5863.22
909.743	5769.89
910.056	5806.27
910.368	5774.86
910.681	5664.13
910.994	5743.22
911.307	5743.22
911.619	5706.39
911.932	5639.05
912.244	5665.03
912.557	5615.09
912.869	5639.95
913.181	5629.33
913.494	5562.21
913.806	5537.13
914.118	5517.02
914.43	5464.14
914.742	5484.93
915.054	5434.98
915.366	5436.79
915.678	5390.69
915.99	5376.45
916.302	5313.18
916.613	5343.91
916.925	5321.09
917.236	5319.06
917.548	5241.09
917.859	5239.96
918.171	5222.56
918.482	5224.59
918.794	5168.1
919.105	5125.84
919.416	5106.86
919.727	5139.85
920.038	5096.46
920.349	5098.72
920.66	5051.94
920.971	5104.37
921.282	4992.51
921.593	4941.21
921.903	4957.48
922.214	4952.06
922.525	4941.21
922.835	4908.67
923.146	4902.34
923.456	4873.87
923.767	4851.72
924.077	4892.17
924.387	4808.79
924.697	4801.1
925.008	4737.38
925.318	4756.36
925.628	4750.71
925.938	4751.61
926.248	4704.38
926.558	4698.96
926.867	4679.3
927.177	4634.1
927.487	4636.14
927.796	4603.14
928.106	4606.98
928.416	4540.54
928.725	4564.5
929.034	4504.16
929.344	4523.37
929.653	4569.92
929.962	4452.86
930.271	4448.34
930.581	4473.2
930.89	4457.16
931.199	4401.79
931.508	4421.23
931.817	4400.66
932.125	4370.61
932.434	4352.3
932.743	4327.89
933.051	4295.58
933.36	4299.87
933.669	4264.85
933.977	4212.64
934.286	4277.05
934.594	4217.16
934.902	4189.82
935.21	4182.36
935.519	4195.92
935.827	4138.97
936.135	4146.88
936.443	4087.22
936.751	4083.38
937.059	4089.48
937.367	4051.07
937.674	4072.08
937.982	4098.97
938.29	3981.01
938.597	3983.72
938.905	3952.99
939.213	3943.27
939.52	3970.16
939.827	3983.72
940.135	3926.78
940.442	3920.67
940.749	3912.09
941.056	3917.96
941.363	3843.39
941.67	3865.53
941.977	3800.9
942.284	3833.22
942.591	3790.51
942.898	3720
943.205	3753.45
943.511	3747.34
943.818	3768.59
944.125	3693.56
944.431	3725.2
944.738	3689.49
945.044	3642.94
945.35	3641.36
945.657	3654.24
945.963	3638.65
946.269	3603.62
946.575	3610.4
946.881	3580.34
947.187	3560.46
947.493	3550.97
947.799	3513.9
948.105	3518.65
948.41	3489.27
948.716	3498.31
949.022	3437.07
949.327	3461.7
949.633	3427.81
949.938	3427.13
950.244	3420.35
950.549	3414.92
950.854	3372.44
951.16	3380.8
951.465	3355.94
951.77	3302.61
952.075	3326.79
952.38	3352.78
952.685	3309.62
952.99	3273.01
953.294	3256.96
953.599	3240.69
953.904	3247.7
954.209	3228.71
954.513	3200.01
954.818	3232.78
955.122	3202.5
955.426	3189.85
955.731	3197.53
956.035	3166.12
956.339	3165.21
956.643	3134.93
956.948	3119.79
957.252	3093.58
957.556	3139.9
957.86	3082.73
958.163	3072.33
958.467	3046.57
958.771	3055.16
959.075	3067.14
959.378	3022.62
959.682	3027.82
959.985	3011.55
960.289	3004.09
960.592	2938.78
960.896	2957.54
961.199	2941.04
961.502	2944.65
961.805	2897.2
962.108	2899.68
962.411	2892.68
962.714	2898.78
963.017	2886.12
963.32	2868.95
963.623	2860.36
963.926	2853.58
964.228	2805
964.531	2791.89
964.833	2824.88
965.136	2796.18
965.438	2795.96
965.741	2728.84
966.043	2747.6
966.345	2743.76
966.648	2749.41
966.95	2702.85
967.252	2715.06
967.554	2689.07
967.856	2647.94
968.158	2655.4
968.46	2649.75
968.761	2637.54
969.063	2659.46
969.365	2619.92
969.666	2623.76
969.968	2597.32
970.269	2577.66
970.571	2563.65
970.872	2570.2
971.174	2596.87
971.475	2558.45
971.776	2516.42
972.077	2513.03
972.378	2529.07
972.679	2501.95
972.98	2482.07
973.281	2494.72
973.582	2489.52
973.883	2465.8
974.183	2444.1
974.484	2461.73
974.785	2430.32
975.085	2424.89
975.386	2409.08
975.686	2392.35
975.986	2447.49
976.287	2404.33
976.587	2410.66
976.887	2373.14
977.187	2347.16
977.487	2328.63
977.787	2359.13
978.087	2297.67
978.387	2308.29
978.687	2327.95
978.987	2303.32
979.286	2301.06
979.586	2280.94
979.885	2284.78
980.185	2247.95
980.484	2253.6
980.784	2224.67
981.083	2241.62
981.382	2234.84
981.682	2195.97
981.981	2191
982.28	2194.39
982.579	2177.67
982.878	2185.58
983.177	2164.79
983.475	2173.83
983.774	2120.04
984.073	2120.04
984.372	2114.85
984.67	2121.85
984.969	2124.79
985.267	2132.47
985.566	2077.11
985.864	2134.28
986.162	2111.23
986.461	2057.45
986.759	2063.55
987.057	2056.77
987.355	2046.6
987.653	2046.15
987.951	2012.93
988.249	2035.98
988.547	2052.47
988.844	1991.23
989.142	2011.57
989.44	1948.97
989.737	1974.51
990.035	1994.85
990.332	1934.06
990.63	1972.93
990.927	1953.27
991.224	1931.8
991.521	1946.94
991.819	1920.95
992.116	1900.61
992.413	1907.39
992.71	1899.26
993.006	1872.37
993.303	1877.34
993.6	1829.88
993.897	1874.4
994.193	1881.41
994.49	1872.14
994.787	1851.12
995.083	1841.86
995.379	1792.14
995.676	1815.64
995.972	1799.37
996.268	1778.58
996.565	1795.31
996.861	1753.27
997.157	1748.98
997.453	1744.69
997.749	1759.15
998.044	1712.37
998.34	1706.49
998.636	1725.7
998.932	1668.53
999.227	1714.86
999.523	1708.3
999.818	1689.32
1000.114	1664.01
1000.409	1668.98
1000.704	1637.12
1001	1640.96
1001.295	1616.1
1001.59	1632.82
1001.885	1620.85
1002.18	1600.28
1002.475	1627.63
1002.77	1589.66
1003.065	1578.36
1003.359	1584.69
1003.654	1571.81
1003.949	1561.19
1004.243	1526.84
1004.538	1539.04
1004.832	1531.13
1005.127	1574.29
1005.421	1532.26
1005.715	1523
1006.009	1502.21
1006.304	1496.1
1006.598	1504.47
1006.892	1496.1
1007.186	1492.26
1007.48	1473.05
1007.773	1448.65
1008.067	1507.63
1008.361	1448.42
1008.655	1445.03
1008.948	1454.75
1009.242	1434.64
1009.535	1410.01
1009.829	1415.2
1010.122	1404.13
1010.415	1400.74
1010.708	1399.38
1011.001	1391.47
1011.295	1372.49
1011.588	1365.03
1011.881	1339.27
1012.173	1364.13
1012.466	1346.28
1012.759	1301.76
1013.052	1343.34
1013.344	1317.35
1013.637	1321.42
1013.93	1306.05
1014.222	1290.01
1014.514	1261.99
1014.807	1282.55
1015.099	1268.31
1015.391	1280.97
1015.683	1265.38
1015.976	1282.1
1016.268	1259.5
1016.56	1253.63
1016.851	1225.6
1017.143	1268.31
1017.435	1212.72
1017.727	1199.84
1018.018	1227.64
1018.31	1163.68
1018.602	1221.08
1018.893	1194.42
1019.185	1198.71
1019.476	1194.64
1019.767	1192.84
1020.058	1163.23
1020.35	1171.82
1020.641	1120.3
1020.932	1165.49
1021.223	1133.18
1021.514	1103.8
1021.804	1116.45
1022.095	1104.7
1022.386	1099.96
1022.677	1109.45
1022.967	1107.87
1023.258	1086.17
1023.548	1098.15
1023.839	1054.76
1024.129	1044.59
1024.419	1038.72
1024.709	1039.85
1025	1026.06
1025.29	1038.49
1025.58	1026.29
1025.87	1002.33
1026.16	1039.85
1026.449	1024.03
1026.739	1018.6
1027.029	986.97
1027.319	995.78
1027.608	974.76
1027.898	996.91
1028.187	989.23
1028.477	975.89
1028.766	984.71
1029.055	954.42
1029.344	953.29
1029.634	933.63
1029.923	913.07
1030.212	943.58
1030.501	930.24
1030.79	908.78
1031.078	908.1
1031.367	913.07
1031.656	900.19
1031.945	909.45
1032.233	906.97
1032.522	888.66
1032.81	884.14
1033.099	889.12
1033.387	877.82
1033.675	864.03
1033.963	865.16
1034.251	867.87
1034.54	834.65
1034.828	868.1
1035.116	842.11
1035.403	850.7
1035.691	834.88
1035.979	814.99
1036.267	815.22
1036.554	823.35
1036.842	823.81
1037.129	804.82
1037.417	813.41
1037.704	803.24
1037.992	786.97
1038.279	790.13
1038.566	781.32
1038.853	781.32
1039.14	781.32
