Data from hue_70_FLMS001491_91.txt Node
Date: Mon Feb 06 15:21:45 GMT 2017
User: dcchb
Spectrometer: FLMS00149
Trigger mode: 0
Integration Time (sec): 2.000000E-2
Scans to average: 10
Electric dark correction enabled: true
Nonlinearity correction enabled: false
Boxcar width: 0
XAxis mode: Wavelengths
Number of Pixels in Spectrum: 2048
>>>>>Begin Spectral Data<<<<<
341.393	3.5
341.776	3.5
342.16	3.5
342.543	-70.62
342.927	-69.26
343.31	-78.08
343.693	-83.5
344.077	-71.3
344.46	-41.69
344.843	-57.51
345.226	-69.04
345.61	-20.23
345.993	-7.12
346.376	1.02
346.759	5.08
347.142	31.98
347.525	51.64
347.908	54.35
348.291	68.13
348.674	106.32
349.057	109.94
349.44	124.63
349.823	157.4
350.206	150.62
350.588	215.02
350.971	207.57
351.354	234.91
351.737	257.73
352.119	262.48
352.502	279.65
352.884	276.94
353.267	271.52
353.65	285.76
354.032	292.31
354.414	315.36
354.797	333.66
355.179	308.81
355.562	312.2
355.944	323.72
356.326	337.73
356.709	325.53
357.091	355.81
357.473	343.61
357.855	351.29
358.238	335.47
358.62	324.62
359.002	346.77
359.384	333.66
359.766	342.02
360.148	344.28
360.53	339.31
360.912	321.01
361.294	329.82
361.676	339.54
362.057	337.51
362.439	331.86
362.821	314.68
363.203	318.3
363.584	336.15
363.966	343.15
364.348	324.62
364.729	324.62
365.111	328.92
365.493	327.34
365.874	328.24
366.256	313.78
366.637	310.16
367.019	287.56
367.4	311.07
367.781	303.38
368.163	323.95
368.544	330.27
368.925	327.11
369.306	328.01
369.688	313.33
370.069	321.23
370.45	324.85
370.831	299.54
371.212	313.78
371.593	318.52
371.974	304.96
372.355	305.64
372.736	307.9
373.117	325.3
373.498	337.96
373.879	350.84
374.26	304.29
374.641	304.06
375.021	312.87
375.402	317.39
375.783	314.23
376.163	333.21
376.544	313.1
376.925	323.49
377.305	337.51
377.686	320.1
378.066	321.23
378.447	339.99
378.827	313.78
379.208	337.96
379.588	342.48
379.968	342.7
380.349	349.48
380.729	332.76
381.109	318.97
381.489	313.78
381.87	323.49
382.25	343.15
382.63	329.37
383.01	349.03
383.39	339.54
383.77	343.61
384.15	339.31
384.53	325.53
384.91	342.02
385.29	352.42
385.67	344.28
386.049	351.52
386.429	344.96
386.809	340.67
387.189	354
387.568	355.81
387.948	356.04
388.328	343.15
388.707	352.42
389.087	361.46
389.466	360.56
389.846	350.39
390.225	363.27
390.605	356.49
390.984	350.16
391.363	353.78
391.743	353.55
392.122	380.44
392.501	379.99
392.881	371.63
393.26	352.87
393.639	347.22
394.018	375.47
394.397	369.37
394.776	366.43
395.155	386.09
395.534	365.08
395.913	363.49
396.292	362.59
396.671	370.27
397.05	366.43
397.429	385.19
397.808	379.54
398.186	373.66
398.565	370.27
398.944	363.49
399.323	376.83
399.701	382.93
400.08	373.66
400.458	390.16
400.837	382.93
401.215	401.01
401.594	382.93
401.972	403.94
402.351	407.56
402.729	426.99
403.107	404.85
403.486	409.82
403.864	394
404.242	375.92
404.62	390.61
404.999	406.2
405.377	404.85
405.755	400.1
406.133	412.98
406.511	427.67
406.889	420.89
407.267	417.05
407.645	415.47
408.023	440.33
408.401	419.31
408.779	408.46
409.156	442.14
409.534	412.53
409.912	431.74
410.29	433.77
410.667	432.42
411.045	425.64
411.422	460.21
411.8	434.9
412.178	440.33
412.555	479.65
412.933	443.27
413.31	453.43
413.687	451.17
414.065	471.06
414.442	475.58
414.819	459.08
415.197	466.54
415.574	459.31
415.951	473.32
416.328	453.89
416.705	480.1
417.082	478.97
417.46	504.51
417.837	481.91
418.214	499.76
418.591	489.37
418.967	474.68
419.344	511.96
419.721	501.57
420.098	487.56
420.475	505.64
420.852	510.38
421.228	497.05
421.605	490.95
421.982	524.39
422.358	524.62
422.735	521.23
423.111	522.81
423.488	539.76
423.864	540.21
424.241	546.77
424.617	532.08
424.994	509.93
425.37	531.85
425.746	537.5
426.123	552.87
426.499	557.39
426.875	533.66
427.251	579.53
427.627	570.04
428.003	568.23
428.379	554.9
428.756	572.3
429.132	590.61
429.507	564.17
429.883	614.56
430.259	596.26
430.635	584.05
431.011	568.69
431.387	586.54
431.763	587.89
432.138	620.21
432.514	606.65
432.89	592.19
433.265	611.17
433.641	644.62
434.016	649.14
434.392	642.81
434.767	642.13
435.143	651.62
435.518	651.85
435.894	657.72
436.269	674.67
436.644	662.02
437.02	662.24
437.395	658.85
437.77	680.55
438.145	671.96
438.52	701.79
438.895	692.98
439.271	685.52
439.646	691.39
440.021	723.94
440.395	690.26
440.77	701.34
441.145	732.07
441.52	706.08
441.895	695.24
442.27	735.91
442.645	731.85
443.019	732.52
443.394	739.75
443.769	744.95
444.143	751.96
444.518	730.94
444.892	750.6
445.267	772.07
445.641	752.64
446.016	765.29
446.39	742.01
446.764	782.47
447.139	787.66
447.513	775.23
447.887	776.14
448.262	770.49
448.636	771.39
449.01	819.53
449.384	819.98
449.758	799.64
450.132	811.17
450.506	822.46
450.88	814.1
451.254	822.01
451.628	822.46
452.002	819.53
452.376	863.82
452.75	844.16
453.123	863.59
453.497	867.21
453.871	880.99
454.244	915.12
454.618	881.67
454.992	908.56
455.365	903.82
455.739	941.33
456.112	911.73
456.486	941.11
456.859	919.64
457.232	943.37
457.606	979.75
457.979	979.3
458.352	994.66
458.725	1003.25
459.099	993.53
459.472	1028.79
459.845	1038.28
460.218	1035.11
460.591	1030.37
460.964	1068.11
461.337	1084.6
461.71	1099.52
462.083	1117.6
462.456	1103.81
462.829	1122.34
463.201	1142.68
463.574	1144.94
463.947	1160.31
464.32	1154.88
464.692	1168.22
465.065	1191.95
465.438	1226.3
465.81	1228.33
466.183	1240.76
466.555	1269.01
466.928	1276.92
467.3	1299.29
467.672	1299.29
468.045	1364.37
468.417	1351.04
468.789	1353.52
469.161	1381.77
469.534	1446.63
469.906	1458.15
470.278	1486.85
470.65	1488.21
471.022	1518.04
471.394	1568.66
471.766	1602.33
472.138	1586.06
472.51	1661.09
472.882	1674.42
473.253	1663.8
473.625	1724.81
473.997	1811.14
474.369	1796.22
474.74	1843
475.112	1883.23
475.484	1924.81
475.855	1995.99
476.227	2009.78
476.598	2095.65
476.97	2122.54
477.341	2135.88
477.713	2228.98
478.084	2257.45
478.455	2332.03
478.827	2401.86
479.198	2506.94
479.569	2490.89
479.94	2599.59
480.311	2664.22
480.682	2743.32
481.053	2843.2
481.424	2931.56
481.795	3016.53
482.166	3074.16
482.537	3158.9
482.908	3250.42
483.279	3345.34
483.65	3409.06
484.021	3548.27
484.391	3637.53
484.762	3744.2
485.133	3854.02
485.503	3918.65
485.874	4018.54
486.244	4123.17
486.615	4301.92
486.985	4373.11
487.356	4505.31
487.726	4590.5
488.097	4748.69
488.467	4836.14
488.837	5019.87
489.207	5108.68
489.578	5286.98
489.948	5423.93
490.318	5530.82
490.688	5617.14
491.058	5846.96
491.428	5994.98
491.798	6084.7
492.168	6253.06
492.538	6361.3
492.908	6506.38
493.278	6678.58
493.648	6724.46
494.017	6907.5
494.387	6990.89
494.757	7165.12
495.126	7333.93
495.496	7489.41
495.866	7586.13
496.235	7696.63
496.605	7939.79
496.974	8016.63
497.344	8138.43
497.713	8268.6
498.082	8455.94
498.452	8625.87
498.821	8732.76
499.19	8799.88
499.559	9001.46
499.928	9097.95
500.298	9195.13
500.667	9359.19
501.036	9454.33
501.405	9647.54
501.774	9648.9
502.143	9870.81
502.512	9950.13
502.88	10050.02
503.249	10100.41
503.618	10325.27
503.987	10457.01
504.356	10492.27
504.724	10594.41
505.093	10745.82
505.462	10850.22
505.83	10986.72
506.199	11104
506.567	11265.13
506.936	11288.86
507.304	11451.56
507.672	11521.17
508.041	11701.05
508.409	11793.48
508.777	11888.39
509.145	12024.88
509.514	12092.45
509.882	12282.73
510.25	12349.84
510.618	12457.41
510.986	12505.77
511.354	12659.67
511.722	12746.44
512.09	12940.11
512.458	12938.08
512.826	13119.09
513.193	13230.5
513.561	13308.69
513.929	13355.69
514.297	13564.73
514.664	13562.24
515.032	13667.78
515.4	13867.77
515.767	13870.26
516.135	13941.44
516.502	13894.66
516.869	14237.7
517.237	14155.9
517.604	14159.06
517.972	14403.12
518.339	14512.73
518.706	14510.24
519.073	14548.66
519.44	14665.72
519.808	14882.21
520.175	14828.2
520.542	15057.34
520.909	15096.89
521.276	15141.18
521.643	15265.7
522.009	15304.34
522.376	15447.16
522.743	15514.73
523.11	15688.97
523.477	15786.59
523.843	15923.54
524.21	16007.15
524.577	16168.5
524.943	16109.07
525.31	16256.18
525.676	16356.29
526.043	16533.92
526.409	16504.31
526.776	16722.39
527.142	16744.53
527.508	16804.42
527.874	16984.53
528.241	17111.75
528.607	17020.91
528.973	17161.24
529.339	17122.6
529.705	17288.7
530.071	17375.02
530.437	17482.59
530.803	17480.33
531.169	17596.03
531.535	17577.5
531.901	17674.9
532.267	17715.35
532.632	17796.71
532.998	17850.27
533.364	17978.4
533.73	17903.15
534.095	18047.1
534.461	17995.12
534.826	18159.18
535.192	18183.59
535.557	18351.27
535.923	18230.59
536.288	18294.1
536.653	18402.79
537.019	18335.9
537.384	18410.02
537.749	18460.42
538.114	18369.35
538.479	18426.97
538.845	18528.89
539.21	18367.99
539.575	18555.56
539.94	18596.01
540.305	18559.17
540.67	18589.91
541.034	18722.78
541.399	18701.54
541.764	18723.01
542.129	18761.88
542.494	18753.97
542.858	18783.57
543.223	18839.84
543.587	18936.56
543.952	18838.94
544.316	18977.47
544.681	18860.18
545.045	18941.99
545.41	19003.23
545.774	18982.44
546.138	18983.12
546.503	19036.67
546.867	18905.15
547.231	19100.18
547.595	19066.96
547.959	19122.1
548.324	19127.29
548.688	19112.83
549.052	19101.31
549.416	19091.59
549.779	19106.73
550.143	19127.07
550.507	19338.36
550.871	19323.9
551.235	19295.65
551.599	19327.51
551.962	19492.71
552.326	19439.83
552.689	19474.86
553.053	19408.42
553.417	19384.91
553.78	19668.97
554.143	19600.05
554.507	19453.16
554.87	19492.93
555.234	19808.41
555.597	19670.1
555.96	19546.27
556.323	19751.01
556.686	19733.61
557.05	19871.23
557.413	19845.47
557.776	19915.3
558.139	20008.17
558.502	20065.12
558.865	19928.4
559.228	20198.9
559.59	20171.79
559.953	20161.16
560.316	20376.07
560.679	20280.71
561.041	20338.34
561.404	20461.27
561.767	20490.2
562.129	20372.01
562.492	20574.04
562.854	20598.67
563.217	20602.51
563.579	20637.76
563.941	20732.22
564.304	20854.71
564.666	20999.11
565.028	20900.81
565.39	21072.55
565.753	21213.11
566.115	21143.96
566.477	21183.74
566.839	21299.89
567.201	21355.94
567.563	21334.24
567.925	21439.1
568.287	21404.3
568.648	21505.54
569.01	21647.91
569.372	21734
569.734	21566.78
570.095	21751.18
570.457	21858.75
570.819	21869.82
571.18	21890.61
571.542	21971.51
571.903	21989.82
572.265	21986.88
572.626	22115.46
572.987	22092.19
573.349	22280.66
573.71	22243.37
574.071	22253.09
574.432	22232.3
574.794	22430.71
575.155	22407.66
575.516	22421.22
575.877	22484.49
576.238	22436.59
576.599	22569.01
576.96	22521.1
577.32	22593.19
577.681	22698.05
578.042	22708.89
578.403	22677.48
578.763	22624.38
579.124	22698.05
579.485	22778.95
579.845	22873.41
580.206	22713.64
580.566	22848.1
580.927	22781.21
581.287	22849.23
581.648	22860.53
582.008	22912.5
582.368	22819.4
582.728	22881.09
583.089	22809.91
583.449	22831.6
583.809	22827.54
584.169	22900.75
584.529	22940.98
584.889	22946.4
585.249	22864.37
585.609	22914.09
585.969	22933.07
586.329	22946.18
586.688	22910.7
587.048	22885.84
587.408	22839.96
587.768	22866.86
588.127	22931.71
588.487	22852.85
588.846	23011.03
589.206	22902.56
589.565	22861.66
589.925	23005.38
590.284	22947.31
590.643	22975.55
591.003	23026.85
591.362	22962.22
591.721	22943.92
592.08	23015.1
592.44	22954.09
592.799	22976.23
593.158	22850.36
593.517	22959.74
593.876	22932.62
594.235	23063.46
594.593	22951.15
594.952	23056.46
595.311	22870.92
595.67	22852.85
596.029	23063.69
596.387	23022.11
596.746	23122.67
597.104	22943.92
597.463	22934.43
597.822	22973.29
598.18	23076.12
598.538	22930.58
598.897	23110.24
599.255	22912.5
599.613	23227.07
599.972	23084.7
600.33	23092.39
600.688	23030.24
601.046	23179.39
601.404	23234.08
601.762	23154.53
602.12	23230.01
602.478	23236.11
602.836	23247.41
603.194	23125.83
603.552	23298.26
603.91	23032.73
604.268	23213.74
604.625	23112.27
604.983	23310.69
605.341	23111.82
605.698	23335.32
606.056	23413.96
606.413	23382.32
606.771	23334.64
607.128	23557.01
607.485	23315.66
607.843	23314.53
608.2	23432.72
608.557	23526.95
608.914	23488.53
609.272	23614.18
609.629	23618.93
609.986	23723.78
610.343	23515.65
610.7	23704.12
611.057	23703.22
611.414	23728.08
611.771	23797
612.127	23724.46
612.484	23793.61
612.841	23968.75
613.198	23918.35
613.554	23863.21
613.911	24078.8
614.267	23908.41
614.624	23905.25
614.98	23980.73
615.337	24114.96
615.693	24024.57
616.05	24064.56
616.406	24235.63
616.762	24147.27
617.118	24156.54
617.475	24100.95
617.831	24225.24
618.187	24174.39
618.543	24247.39
618.899	24374.39
619.255	24333.03
619.611	24395.63
619.967	24362.41
620.323	24478.57
620.678	24331.68
621.034	24278.8
621.39	24412.58
621.746	24321.06
622.101	24616.87
622.457	24474.5
622.812	24477.21
623.168	24546.36
623.523	24602.4
623.879	24645.11
624.234	24456.87
624.589	24571.44
624.945	24591.78
625.3	24610.09
625.655	24583.2
626.01	24636.08
626.365	24569.41
626.72	24629.07
627.075	24642.18
627.43	24616.87
627.785	24561.05
628.14	24593.82
628.495	24582.29
628.85	24610.99
629.205	24529.19
629.559	24700.25
629.914	24446.48
630.269	24587.49
630.623	24442.63
630.978	24408.96
631.332	24598.79
631.687	24566.92
632.041	24418.45
632.396	24544.33
632.75	24405.8
633.104	24499.81
633.459	24377.33
633.813	24426.59
634.167	24270.21
634.521	24370.32
634.875	24415.52
635.229	24283.77
635.583	24198.12
635.937	24263.88
636.291	24254.62
636.645	24213.49
636.999	24134.17
637.352	24225.92
637.706	24012.14
638.06	24148.18
638.413	23990.44
638.767	24096.65
639.121	24025.7
639.474	23960.16
639.828	24037.45
640.181	24053.49
640.534	24033.15
640.888	24065.02
641.241	23915.19
641.594	23910.44
641.947	23996.32
642.301	23911.12
642.654	23926.94
643.007	23919.94
643.36	23891.01
643.713	23762.43
644.066	23959.93
644.419	23746.38
644.771	23617.57
645.124	23418.48
645.477	23337.58
645.83	23214.42
646.182	23211.25
646.535	23105.04
646.888	23113.18
647.24	23074.31
647.593	23119.51
647.945	23192.5
648.298	22981.88
648.65	22931.94
649.002	22870.47
649.355	22981.88
649.707	22898.49
650.059	23018.26
650.411	23352.04
650.763	23347.3
651.115	23576.22
651.467	23484.69
651.819	23535.54
652.171	23516.78
652.523	23391.81
652.875	23533.96
653.227	23299.61
653.578	23513.62
653.93	23400.85
654.282	23373.74
654.633	23264.59
654.985	23411.93
655.337	23402.89
655.688	23406.28
656.039	23461.87
656.391	23250.58
656.742	23342.1
657.094	23444.92
657.445	23463.45
657.796	23342.32
658.147	23324.7
658.498	23251.93
658.849	23426.62
659.2	23310.46
659.551	23356.56
659.902	23436.56
660.253	23259.84
660.604	23280.63
660.955	23353.85
661.306	23325.38
661.656	23399.05
662.007	23326.96
662.358	23336.45
662.708	23358.37
663.059	23273.4
663.409	23224.59
663.76	23425.26
664.11	23344.13
664.461	23299.39
664.811	23276.11
665.161	23372.61
665.511	23276.11
665.862	23310.23
666.212	23478.82
666.562	23419.84
666.912	23413.51
667.262	23305.94
667.612	23307.52
667.962	23465.26
668.312	23227.07
668.662	23398.82
669.011	23250.58
669.361	23355.88
669.711	23356.11
670.06	23280.63
670.41	23275.89
670.76	23275.21
671.109	23305.94
671.459	23242.89
671.808	23177.58
672.157	23342.1
672.507	23093.74
672.856	23089.22
673.205	23211.03
673.554	23139.62
673.904	23030.47
674.253	23186.85
674.602	23080.86
674.951	22830.02
675.3	22635.68
675.649	23071.37
675.998	22961.54
676.346	23114.08
676.695	23127.19
677.044	22871.83
677.393	23067.76
677.741	23061.88
678.09	22971.71
678.438	22892.17
678.787	22894.88
679.135	22854.65
679.484	22819.4
679.832	22787.31
680.181	22665.28
680.529	22717.93
680.877	22709.57
681.225	22648.33
681.573	22864.6
681.922	22596.36
682.27	22567.2
682.618	22604.94
682.966	22494.21
683.314	22402.69
683.661	22547.32
684.009	22355.01
684.357	22332.86
684.705	22303.03
685.053	22285.85
685.4	22285.85
685.748	22156.82
686.095	22117.27
686.443	22105.07
686.79	22017.16
687.138	21996.37
687.485	21999.08
687.832	21922.25
688.18	21918.86
688.527	21776.72
688.874	21827.56
689.221	21753.89
689.568	21693.78
689.915	21625.99
690.262	21668.47
690.609	21534.46
690.956	21415.6
691.303	21452.43
691.65	21228.93
691.997	21333.56
692.344	21150.97
692.69	21161.14
693.037	21108.26
693.383	20905.55
693.73	21000.69
694.077	20858.77
694.423	20866.01
694.769	20877.08
695.116	20880.69
695.462	20698.78
695.808	20653.81
696.155	20710.53
696.501	20603.19
696.847	20565.45
697.193	20357.32
697.539	20400.93
697.885	20273.48
698.231	20239.35
698.577	20173.82
698.923	20167.27
699.269	20015.86
699.614	20014.28
699.96	19913.71
700.306	19864.9
700.651	19790.1
700.997	19617.22
701.342	19679.6
701.688	19597.34
702.033	19593.95
702.379	19579.94
702.724	19481.86
703.069	19505.14
703.415	19260.17
703.76	19337.23
704.105	19300.17
704.45	19231.02
704.795	19098.59
705.14	18949.9
705.485	19031.03
705.83	18871.48
706.175	18938.15
706.52	18887.3
706.865	18850.92
707.209	18708.32
707.554	18792.39
707.899	18772.95
708.243	18648.21
708.588	18670.81
708.932	18484.15
709.277	18442.79
709.621	18442.34
709.966	18353.3
710.31	18398.5
710.654	18149.47
710.998	18257.94
711.342	18231.05
711.687	18146.75
712.031	18100.2
712.375	18098.62
712.719	18091.84
713.063	18055.91
713.407	18027.44
713.75	17859.98
714.094	17984.72
714.438	17835.35
714.782	17890.04
715.125	17807.55
715.469	17766.65
715.812	17729.36
716.156	17548.13
716.499	17681.91
716.843	17579.54
717.186	17545.19
717.53	17658.63
717.873	17610.05
718.216	17476.26
718.559	17483.04
718.902	17330.05
719.246	17389.03
719.589	17403.05
719.932	17314.46
720.275	17283.05
720.617	17262.48
720.96	17280.34
721.303	17270.62
721.646	17267.68
721.989	17083.51
722.331	17210.28
722.674	17103.39
723.016	17143.17
723.359	17056.61
723.701	17118.76
724.044	17023.62
724.386	16975.71
724.729	17024.52
725.071	16898.88
725.413	16941.81
725.755	16805.32
726.097	16835.15
726.439	16731.65
726.782	16820.01
727.124	16810.07
727.465	16719.45
727.807	16754.25
728.149	16752.67
728.491	16683.74
728.833	16831.08
729.175	16614.14
729.516	16740.69
729.858	16639.9
730.199	16676.51
730.541	16693.91
730.882	16648.26
731.224	16671.77
731.565	16538.66
731.906	16552.45
732.248	16647.13
732.589	16533.01
732.93	16409.63
733.271	16540.24
733.612	16442.62
733.953	16479.23
734.294	16444.2
734.635	16345.22
734.976	16475.61
735.317	16464.09
735.658	16390.19
735.999	16447.14
736.339	16413.24
736.68	16380.93
737.021	16401.04
737.361	16311.55
737.702	16467.48
738.042	16350.64
738.383	16427.03
738.723	16365.56
739.063	16339.8
739.404	16468.83
739.744	16317.65
740.084	16266.58
740.424	16362.62
740.764	16317.65
741.104	16361.26
741.444	16282.62
741.784	16318.55
742.124	16353.36
742.464	16321.94
742.804	16288.95
743.143	16178.9
743.483	16370.3
743.823	16312.23
744.162	16467.7
744.502	16508.61
744.841	16396.52
745.181	16471.77
745.52	16412.11
745.86	16491.66
746.199	16497.98
746.538	16388.38
746.877	16563.07
747.216	16562.84
747.556	16468.83
747.895	16581.37
748.234	16508.15
748.573	16549.51
748.911	16599
749.25	16711.99
749.589	16618.21
749.928	16773.46
750.267	16790.41
750.605	16724.19
750.944	16881.03
751.283	16904.75
751.621	17043.28
751.96	16958.76
752.298	17003.28
752.636	17066.78
752.975	17121.24
753.313	17131.19
753.651	17283.73
753.989	17211.19
754.327	17333.44
754.666	17329.6
755.004	17497.51
755.342	17554.68
755.679	17592.87
756.017	17573.21
756.355	17637.62
756.693	17655.24
757.031	17827.89
757.368	17826.99
757.706	17871.06
758.044	17943.37
758.381	18052.52
758.719	18151.5
759.056	18104.95
759.394	18155.12
759.731	18144.72
760.068	18294.77
760.405	18399.4
760.743	18313.76
761.08	18528.89
761.417	18461.55
761.754	18517.82
762.091	18559.85
762.428	18594.2
762.765	18594.2
763.102	18700.86
763.438	18656.57
763.775	18746.96
764.112	18852.5
764.449	18986.05
764.785	18887.75
765.122	18791.71
765.458	18765.04
765.795	18982.21
766.131	18913.29
766.467	19011.36
766.804	19012.95
767.14	18932.95
767.476	18944.25
767.812	18991.48
768.148	19095.66
768.485	19020.18
768.821	18980.18
769.157	18981.99
769.492	18984.25
769.828	18984.7
770.164	18967.3
770.5	18982.21
770.836	19004.81
771.171	18936.11
771.507	18939.95
771.842	18786.96
772.178	18979.27
772.513	18854.98
772.849	18831.26
773.184	18791.94
773.519	18935.66
773.855	18866.96
774.19	18760.3
774.525	18685.95
774.86	18647.98
775.195	18742.45
775.53	18764.82
775.865	18612.05
776.2	18506.75
776.535	18404.37
776.87	18455.9
777.205	18373.42
777.539	18422
777.874	18426.07
778.209	18243.93
778.543	18279.41
778.878	18218.62
779.212	18232.4
779.547	18170.26
779.881	18124.83
780.215	18187.21
780.55	18049.58
780.884	17999.41
781.218	17972.52
781.552	17971.62
781.886	17909.02
782.22	17742.25
782.554	17761.23
782.888	17546.54
783.222	17547
783.556	17447.56
783.889	17481.46
784.223	17261.35
784.557	17394.46
784.89	17457.28
785.224	17286.89
785.557	17195.82
785.891	17175.48
786.224	17098.87
786.558	17150.62
786.891	16942.72
787.224	16920.12
787.557	16909.95
787.891	16916.28
788.224	16935.94
788.557	16816.39
788.89	16791.76
789.223	16834.02
789.556	16554.03
789.888	16618.21
790.221	16518.1
790.554	16403.75
790.887	16394.26
791.219	16405.56
791.552	16368.5
791.884	16249.4
792.217	16258.89
792.549	16222.74
792.882	16137.77
793.214	15995.85
793.546	16104.1
793.879	15963.99
794.211	15819.81
794.543	15894.16
794.875	15874.27
795.207	15920.37
795.539	15786.82
795.871	15768.29
796.203	15628.85
796.535	15541.17
796.867	15528.52
797.198	15515.64
797.53	15510.21
797.862	15433.15
798.193	15460.72
798.525	15366.49
798.856	15332.59
799.188	15238.36
799.519	15143.9
799.85	15120.39
800.182	15064.12
800.513	15035.65
800.844	14956.78
801.175	14959.49
801.506	14926.95
801.837	14909.33
802.168	14830.23
802.499	14821.19
802.83	14731.25
803.161	14759.72
803.491	14693.96
803.822	14752.49
804.153	14639.95
804.483	14558.6
804.814	14531.48
805.145	14460.75
805.475	14476.34
805.805	14463.01
806.136	14433.86
806.466	14392.05
806.796	14307.31
807.126	14233.19
807.457	14132.85
807.787	14226.86
808.117	14091.95
808.447	13999.07
808.777	14082.23
809.107	14060.31
809.436	13970.82
809.766	13991.61
810.096	13954.1
810.426	13945.06
810.755	13886.98
811.085	13834.78
811.414	13797.26
811.744	13713.88
812.073	13718.17
812.403	13703.93
812.732	13607.44
813.061	13592.75
813.39	13540.77
813.719	13471.62
814.049	13609.92
814.378	13469.14
814.707	13377.16
815.036	13469.59
815.365	13410.16
815.693	13247.22
816.022	13287.45
816.351	13166.77
816.68	13125.87
817.008	13187.34
817.337	13103.05
817.665	13049.71
817.994	13110.95
818.322	13085.42
818.651	13058.3
818.979	12978.75
819.307	13122.48
819.636	13069.83
819.964	12912.54
820.292	12964.97
820.62	12938.53
820.948	12938.3
821.276	12933.11
821.604	12852.88
821.932	12893.33
822.259	12903.5
822.587	12824.41
822.915	12837.97
823.243	12910.06
823.57	12741.25
823.898	12865.54
824.225	12729.5
824.553	12713.9
824.88	12827.12
825.207	12808.82
825.535	12764.52
825.862	12830.96
826.189	12711.42
826.516	12781.25
826.843	12783.28
827.17	12870.51
827.497	12884.97
827.824	12808.59
828.151	12813.79
828.478	12851.07
828.805	12876.38
829.131	12745.31
829.458	12830.28
829.785	12715.71
830.111	12747.12
830.438	12790.06
830.764	12745.99
831.09	12776.27
831.417	12701.02
831.743	12800.91
832.069	12811.53
832.395	12721.81
832.722	12743.28
833.048	12701.93
833.374	12698.31
833.7	12643.85
834.026	12619.67
834.351	12698.99
834.677	12690.17
835.003	12656.5
835.329	12615.6
835.654	12556.17
835.98	12623.51
836.306	12555.49
836.631	12560.23
836.956	12513.91
837.282	12564.3
837.607	12524.08
837.932	12401.59
838.258	12416.28
838.583	12464.87
838.908	12402.27
839.233	12450.86
839.558	12366.34
839.883	12366.12
840.208	12292.45
840.533	12235.27
840.858	12285.44
841.182	12295.83
841.507	12283.41
841.832	12169.96
842.156	12186.69
842.481	12171.77
842.805	12170.41
843.13	12190.07
843.454	12097.87
843.778	12076.63
844.103	11925
844.427	11953.47
844.751	11888.61
845.075	11941.27
845.399	11971.55
845.723	11844.77
846.047	11825.56
846.371	11759.58
846.695	11798.22
847.019	11650.88
847.343	11630.32
847.666	11564.55
847.99	11506.93
848.313	11511
848.637	11462.64
848.96	11432.35
849.284	11346.48
849.607	11298.8
849.931	11318.23
850.254	11230.78
850.577	11125.92
850.9	11062.65
851.223	11068.97
851.546	11019.71
851.869	10920.5
852.192	11035.76
852.515	10869.43
852.838	10907.85
853.161	10863.1
853.483	10773.62
853.806	10742.88
854.129	10757.12
854.451	10715.31
854.774	10644.8
855.096	10642.32
855.419	10522.77
855.741	10508.54
856.063	10473.96
856.385	10431.03
856.708	10386.05
857.03	10431.7
857.352	10440.52
857.674	10385.6
857.996	10361.65
858.318	10235.78
858.64	10279.62
858.961	10189.9
859.283	10150.13
859.605	10123.01
859.926	10151.26
860.248	10205.49
860.57	10100.19
860.891	10074.42
861.212	10021.77
861.534	10008.44
861.855	9982.22
862.176	10063.58
862.498	9990.81
862.819	9984.71
863.14	9940.87
863.461	9904.49
863.782	9799.18
864.103	9880.76
864.424	9848.44
864.745	9844.37
865.065	9798.27
865.386	9811.83
865.707	9775.9
866.027	9806.86
866.348	9734.77
866.668	9717.15
866.989	9718.05
867.309	9611.39
867.63	9636.24
867.95	9695.23
868.27	9607.77
868.59	9591.27
868.91	9593.99
869.23	9638.05
869.55	9568.67
869.87	9511.5
870.19	9557.6
870.51	9516.25
870.83	9582.46
871.15	9486.87
871.469	9469.24
871.789	9462.46
872.109	9497.04
872.428	9449.36
872.748	9362.35
873.067	9316.03
873.386	9468.56
873.706	9393.31
874.025	9391.73
874.344	9317.38
874.663	9313.77
874.982	9281.45
875.301	9258.63
875.62	9282.81
875.939	9221.57
876.258	9244.62
876.577	9254.56
876.896	9207.33
877.214	9139.31
877.533	9208.46
877.852	9182.24
878.17	9154.9
878.489	9167.33
878.807	9141.79
879.125	9040.1
879.444	9067.45
879.762	9051.4
880.08	9067.22
880.398	9023.83
880.716	9122.36
881.034	9031.97
881.352	8989.48
881.67	8951.29
881.988	8947.22
882.306	8961.69
882.624	8927.56
882.941	8930.27
883.259	8846.89
883.577	8778.87
883.894	8875.13
884.212	8759.2
884.529	8817.06
884.846	8818.64
885.164	8780.67
885.481	8689.6
885.798	8713.78
886.115	8676.04
886.432	8631.3
886.75	8580.23
887.067	8581.58
887.383	8581.81
887.7	8600.11
888.017	8531.87
888.334	8529.15
888.651	8490.96
888.967	8508.59
889.284	8465.2
889.6	8478.31
889.917	8378.88
890.233	8433.79
890.55	8418.42
890.866	8365.54
891.182	8302.27
891.498	8335.04
891.815	8270.63
892.131	8278.54
892.447	8262.95
892.763	8164.42
893.079	8196.73
893.395	8162.61
893.71	8123.97
894.026	8079.9
894.342	8104.53
894.657	8055.95
894.973	7950.19
895.289	8043.52
895.604	8018.21
895.92	7959.45
896.235	7943.63
896.55	7946.57
896.865	7889.17
897.181	7867.25
897.496	7802.62
897.811	7792.68
898.126	7764.88
898.441	7743.41
898.756	7740.93
899.071	7647.14
899.386	7699.12
899.7	7620.7
900.015	7616.18
900.33	7580.93
900.644	7589.74
900.959	7530.08
901.273	7528.73
901.588	7505.68
901.902	7442.18
902.216	7417.77
902.531	7379.13
902.845	7371.9
903.159	7327.38
903.473	7254.84
903.787	7268.85
904.101	7267.27
904.415	7229.08
904.729	7177.1
905.042	7167.16
905.356	7096.88
905.67	7110.21
905.984	7135.97
906.297	7071.11
906.611	7048.06
906.924	7033.83
907.237	7018.91
907.551	7018.46
907.864	6948.86
908.177	6899.14
908.491	6910.67
908.804	6854.85
909.117	6836.32
909.43	6749.77
909.743	6749.09
910.056	6728.98
910.368	6718.58
910.681	6714.06
910.994	6663.89
911.307	6616.44
911.619	6608.3
911.932	6644.68
912.244	6557.91
912.557	6512.48
912.869	6463.22
913.181	6444.69
913.494	6503.67
913.806	6409.89
914.118	6397.01
914.43	6414.18
914.742	6389.1
915.054	6368.76
915.366	6321.08
915.678	6269.33
915.99	6253.51
916.302	6264.81
916.613	6204.7
916.925	6211.25
917.236	6161.31
917.548	6159.73
917.859	6123.79
918.171	6088.99
918.482	6109.78
918.794	5979.84
919.105	6057.58
919.416	5990.01
919.727	5954.98
920.038	5926.96
920.349	5939.62
920.66	5869.79
920.971	5883.57
921.282	5850.81
921.593	5802.45
921.903	5782.33
922.214	5784.82
922.525	5706.63
922.835	5753.18
923.146	5671.15
923.456	5714.31
923.767	5680.64
924.077	5586.86
924.387	5666.18
924.697	5563.13
925.008	5593.64
925.318	5580.31
925.628	5470.93
925.938	5470.48
926.248	5427.31
926.558	5392.06
926.867	5423.7
927.177	5387.77
927.487	5413.08
927.796	5326.07
928.106	5262.57
928.416	5326.98
928.725	5308.45
929.034	5232.07
929.344	5200.43
929.653	5225.96
929.962	5185.74
930.271	5134.89
930.581	5160.88
930.89	5121.56
931.199	5089.92
931.508	5094.22
931.817	5080.21
932.125	5026.87
932.434	5012.41
932.743	5005.41
933.051	4965.18
933.36	4946.65
933.669	4897.39
933.977	4890.15
934.286	4891.51
934.594	4882.7
934.902	4846.54
935.21	4822.81
935.519	4782.81
935.827	4821
936.135	4784.62
936.443	4698.07
936.751	4706.66
937.059	4710.05
937.367	4641.8
937.674	4680.67
937.982	4668.24
938.29	4612.2
938.597	4591.4
938.905	4577.39
939.213	4522.48
939.52	4534.01
939.827	4529.49
940.135	4547.56
940.442	4509.82
940.749	4501.69
941.056	4499.88
941.363	4429.15
941.67	4393.9
941.977	4394.12
942.284	4397.29
942.591	4370.39
942.898	4327.46
943.205	4346.89
943.511	4254.46
943.818	4269.38
944.125	4266.89
944.431	4262.37
944.738	4233.9
945.044	4208.59
945.35	4195.93
945.657	4217.4
945.963	4161.13
946.269	4092.66
946.575	4120.23
946.881	4061.7
947.187	4082.49
947.493	4074.81
947.799	4077.52
948.105	4044.98
948.41	4019.22
948.716	4038.42
949.022	3976.73
949.327	4001.36
949.633	3945.55
949.938	3981.7
950.244	3928.37
950.549	3881.82
950.854	3860.35
951.16	3883.17
951.465	3835.72
951.77	3850.41
952.075	3832.78
952.38	3820.35
952.685	3812.44
952.99	3741.26
953.294	3768.15
953.599	3737.42
953.904	3725.44
954.209	3728.15
954.513	3712.11
954.818	3643.86
955.122	3706.23
955.426	3666.68
955.731	3577.87
956.035	3583.97
956.339	3605.67
956.643	3575.61
956.948	3560.47
957.252	3559.34
957.556	3570.87
957.86	3479.8
958.163	3518.66
958.467	3503.3
958.771	3526.12
959.075	3474.37
959.378	3430.08
959.682	3445.22
959.985	3387.82
960.289	3407.93
960.592	3400.25
960.896	3386.01
961.199	3380.36
961.502	3416.29
961.805	3344.88
962.108	3321.38
962.411	3293.13
962.714	3300.14
963.017	3258.78
963.32	3258.78
963.623	3247.94
963.926	3229.63
964.228	3195.74
964.531	3216.98
964.833	3221.72
965.136	3167.71
965.438	3170.43
965.741	3159.8
966.043	3165.23
966.345	3168.39
966.648	3144.21
966.95	3126.81
967.252	3111.22
967.554	3119.13
967.856	3069.86
968.158	3061.05
968.46	3026.02
968.761	3006.36
969.063	3030.77
969.365	3009.3
969.666	2984.22
969.968	2970.88
970.269	2957.1
970.571	2946.7
970.872	2941.73
971.174	2908.29
971.475	2920.94
971.776	2888.62
972.077	2906.25
972.378	2891.79
972.679	2882.07
972.98	2844.11
973.281	2840.49
973.582	2814.05
973.883	2804.33
974.183	2817.44
974.484	2819.93
974.785	2797.78
975.085	2774.28
975.386	2786.25
975.686	2761.17
975.986	2714.62
976.287	2740.38
976.587	2697.22
976.887	2714.39
977.187	2701.06
977.487	2658.35
977.787	2643.21
978.087	2652.7
978.387	2620.38
978.687	2661.06
978.987	2595.52
979.286	2581.51
979.586	2589.65
979.885	2595.98
980.185	2554.85
980.484	2580.84
980.784	2556.43
981.083	2522.53
981.382	2528.63
981.682	2556.66
981.981	2488.86
982.28	2502.65
982.579	2450.22
982.878	2505.13
983.177	2453.61
983.475	2434.63
983.774	2430.78
984.073	2406.83
984.372	2408.41
984.67	2419.48
984.969	2416.32
985.267	2373.61
985.566	2393.5
985.864	2388.75
986.162	2364.8
986.461	2357.11
986.759	2352.14
987.057	2322.54
987.355	2297.68
987.653	2307.62
987.951	2253.84
988.249	2252.94
988.547	2255.65
988.844	2309.88
989.142	2269.66
989.44	2226.04
989.737	2209.09
990.035	2205.93
990.332	2191.92
990.63	2246.16
990.927	2159.6
991.224	2188.98
991.521	2160.06
991.819	2135.65
992.116	2149.44
992.413	2149.66
992.71	2129.55
993.006	2122.32
993.303	2118.48
993.6	2123.22
993.897	2102.43
994.193	2083
994.49	2075.54
994.787	2062.88
995.083	2057.46
995.379	2045.71
995.676	2043
995.972	2042.77
996.268	2022.66
996.565	2008.65
996.861	1976.78
997.157	2003.68
997.453	1979.95
997.749	1953.73
998.044	1969.1
998.34	1960.29
998.636	1931.59
998.932	1919.16
999.227	1918.03
999.523	1891.59
999.818	1926.84
1000.114	1866.28
1000.409	1891.59
1000.704	1877.35
1001	1888.2
1001.295	1859.73
1001.59	1848.43
1001.885	1818.37
1002.18	1827.41
1002.475	1815.43
1002.77	1809.33
1003.065	1785.83
1003.359	1811.59
1003.654	1771.82
1003.949	1753.51
1004.243	1770.01
1004.538	1742.21
1004.832	1748.99
1005.127	1723.91
1005.421	1730.46
1005.715	1716
1006.009	1728.2
1006.304	1710.8
1006.598	1716
1006.892	1683.68
1007.186	1638.26
1007.48	1675.32
1007.773	1669
1008.067	1671.48
1008.361	1613.86
1008.655	1642.33
1008.948	1622.67
1009.242	1600.52
1009.535	1577.47
1009.829	1578.15
1010.122	1588.77
1010.415	1587.19
1010.708	1567.08
1011.001	1563.69
1011.295	1528.66
1011.588	1532.73
1011.881	1521.43
1012.173	1501.54
1012.466	1485.95
1012.759	1505.38
1013.052	1485.72
1013.344	1471.94
1013.637	1470.58
1013.93	1456.8
1014.222	1478.72
1014.514	1471.49
1014.807	1444.14
1015.099	1429.68
1015.391	1422
1015.683	1429.45
1015.976	1411.38
1016.268	1409.12
1016.56	1382.68
1016.851	1375.22
1017.143	1388.78
1017.435	1385.16
1017.727	1369.79
1018.018	1358.72
1018.31	1352.62
1018.602	1320.76
1018.893	1340.87
1019.185	1328.21
1019.476	1314.43
1019.767	1302.23
1020.058	1294.09
1020.35	1258.38
1020.641	1266.52
1020.932	1282.79
1021.223	1254.32
1021.514	1243.24
1021.804	1239.18
1022.095	1238.72
1022.386	1225.17
1022.677	1197.14
1022.967	1207.09
1023.258	1211.38
1023.548	1200.08
1023.839	1223.81
1024.129	1201.89
1024.419	1171.83
1024.709	1137.26
1025	1170.93
1025.29	1150.59
1025.58	1144.49
1025.87	1118.28
1026.16	1151.5
1026.449	1139.29
1026.739	1137.71
1027.029	1102.46
1027.319	1114.66
1027.608	1101.1
1027.898	1119.41
1028.187	1107.65
1028.477	1093.19
1028.766	1066.75
1029.055	1069.46
1029.344	1076.69
1029.634	1070.14
1029.923	1062.46
1030.212	1011.16
1030.501	1028.33
1030.79	1040.76
1031.078	1033.98
1031.367	1019.52
1031.656	1038.73
1031.945	999.86
1032.233	1010.93
1032.522	999.86
1032.81	986.98
1033.099	983.14
1033.387	991.05
1033.675	991.5
1033.963	989.92
1034.251	966.19
1034.54	963.48
1034.828	933.65
1035.116	928.22
1035.403	925.96
1035.691	943.14
1035.979	922.8
1036.267	930.03
1036.554	919.41
1036.842	910.15
1037.129	880.09
1037.417	903.82
1037.704	883.03
1037.992	910.15
1038.279	879.41
1038.566	882.35
1038.853	882.35
1039.14	882.35
