Data from hue_240_FLMS001491_00013.txt Node
Date: Tue Feb 07 16:35:06 GMT 2017
User: dcchb
Spectrometer: FLMS00149
Trigger mode: 0
Integration Time (sec): 2.000000E-2
Scans to average: 10
Electric dark correction enabled: true
Nonlinearity correction enabled: false
Boxcar width: 0
XAxis mode: Wavelengths
Number of Pixels in Spectrum: 2048
>>>>>Begin Spectral Data<<<<<
341.393	-19.29
341.776	-19.29
342.16	-19.29
342.543	-56.81
342.927	-50.93
343.31	-75.34
343.693	-69.46
344.077	-76.69
344.46	-54.32
344.843	-73.76
345.226	-36.69
345.61	-21.1
345.993	-23.81
346.376	-3.47
346.759	30.2
347.142	31.33
347.525	41.5
347.908	61.16
348.291	76.75
348.674	87.6
349.057	106.13
349.44	113.13
349.823	142.74
350.206	170.98
350.588	183.41
350.971	205.33
351.354	220.25
351.737	233.81
352.119	250.98
352.502	246.46
352.884	268.83
353.267	261.6
353.65	306.35
354.032	295.95
354.414	325.78
354.797	309.06
355.179	311.77
355.562	327.82
355.944	324.43
356.326	313.58
356.709	336.18
357.091	340.92
357.473	351.54
357.855	346.12
358.238	325.56
358.62	344.31
359.002	320.36
359.384	310.87
359.766	349.51
360.148	331.21
360.53	330.08
360.912	337.31
361.294	336.18
361.676	331.66
362.057	324.88
362.439	321.04
362.821	321.49
363.203	312
363.584	308.38
363.966	311.32
364.348	348.15
364.729	312.45
365.111	315.39
365.493	315.39
365.874	328.72
366.256	293.92
366.637	316.07
367.019	298.89
367.4	304.77
367.781	319.45
368.163	307.25
368.544	330.98
368.925	299.12
369.306	333.69
369.688	315.16
370.069	304.54
370.45	322.17
370.831	304.09
371.212	315.84
371.593	290.53
371.974	310.64
372.355	284.2
372.736	316.97
373.117	302.96
373.498	314.26
373.879	319
374.26	313.81
374.641	309.51
375.021	292.79
375.402	324.2
375.783	304.31
376.163	318.1
376.544	312.68
376.925	308.83
377.305	324.65
377.686	351.09
378.066	308.38
378.447	339.12
378.827	332.11
379.208	329.4
379.588	341.38
379.968	348.15
380.349	321.26
380.729	317.42
381.109	317.65
381.489	333.24
381.87	333.47
382.25	343.86
382.63	350.41
383.01	326.23
383.39	343.64
383.77	328.72
384.15	345.22
384.53	347.25
384.91	341.6
385.29	348.15
385.67	355.61
386.049	348.61
386.429	345.89
386.809	349.96
387.189	351.77
387.568	336.18
387.948	368.49
388.328	375.95
388.707	340.92
389.087	355.84
389.466	370.98
389.846	346.12
390.225	355.16
390.605	381.15
390.984	351.32
391.363	346.8
391.743	384.99
392.122	373.92
392.501	363.52
392.881	395.16
393.26	369.17
393.639	402.16
394.018	363.75
394.397	381.37
394.776	371.66
395.155	359.68
395.534	379.79
395.913	391.77
396.292	379.79
396.671	383.18
397.05	367.36
397.429	406.01
397.808	401.49
398.186	398.1
398.565	398.1
398.944	407.14
399.323	398.55
399.701	383.18
400.08	404.42
400.458	391.09
400.837	406.91
401.215	428.83
401.594	389.06
401.972	391.32
402.351	434.25
402.729	419.11
403.107	428.38
403.486	417.76
403.864	420.7
404.242	443.75
404.62	436.51
404.999	446.01
405.377	405.55
405.755	448.94
406.133	460.02
406.511	439.45
406.889	473.12
407.267	441.49
407.645	464.31
408.023	453.01
408.401	462.95
408.779	473.12
409.156	468.15
409.534	482.84
409.912	491.2
410.29	471.32
410.667	520.81
411.045	499.79
411.422	517.19
411.8	515.16
412.178	528.26
412.555	504.08
412.933	532.78
413.31	551.54
413.687	530.97
414.065	555.38
414.442	556.51
414.819	561.03
415.197	587.47
415.574	577.75
415.951	597.19
416.328	592.44
416.705	578.88
417.082	603.29
417.46	595.15
417.837	604.87
418.214	614.81
418.591	627.02
418.967	610.75
419.344	654.14
419.721	630.41
420.098	644.87
420.475	628.37
420.852	664.53
421.228	683.06
421.605	655.27
421.982	668.82
422.358	696.62
422.735	705.66
423.111	693.23
423.488	710.18
423.864	732.78
424.241	732.78
424.617	776.62
424.994	765.54
425.37	768.71
425.746	788.37
426.123	762.83
426.499	789.95
426.875	784.98
427.251	822.27
427.627	851.64
428.003	827.46
428.379	843.28
428.756	845.32
429.132	844.19
429.507	834.7
429.883	866.79
430.259	851.87
430.635	877.41
431.011	904.3
431.387	902.72
431.763	909.95
432.138	912.21
432.514	955.82
432.89	935.26
433.265	949.95
433.641	975.71
434.016	1004.41
434.392	1032.43
434.767	1022.94
435.143	1044.41
435.518	1056.61
435.894	1033.11
436.269	1080.34
436.644	1075.14
437.02	1118.3
437.395	1149.04
437.77	1127.8
438.145	1152.88
438.52	1160.34
438.895	1182.71
439.271	1192.88
439.646	1215.25
440.021	1234.46
440.395	1249.6
440.77	1203.95
441.145	1236.72
441.52	1267.23
441.895	1290.95
442.27	1281.92
442.645	1306.55
443.019	1287.57
443.394	1308.36
443.769	1325.53
444.143	1348.13
444.518	1353.55
444.892	1327.56
445.267	1366.66
445.641	1397.62
446.016	1385.64
446.39	1401.01
446.764	1413.44
447.139	1401.46
447.513	1452.53
447.887	1410.95
448.262	1423.15
448.636	1457.05
449.01	1471.29
449.384	1478.97
449.758	1479.42
450.132	1491.4
450.506	1510.16
450.88	1505.19
451.254	1529.82
451.628	1543.83
452.002	1560.33
452.376	1584.28
452.75	1586.99
453.123	1611.62
453.497	1637.61
453.871	1608.46
454.244	1639.19
454.618	1656.14
454.992	1696.82
455.365	1698.18
455.739	1707.67
456.112	1734.11
456.486	1740.21
456.859	1749.7
457.232	1794.67
457.606	1784.28
457.979	1829.02
458.352	1852.07
458.725	1832.41
459.099	1856.36
459.472	1895.68
459.845	1917.6
460.218	1905.18
460.591	1961.45
460.964	1911.28
461.337	2009.35
461.71	2018.62
462.083	2057.71
462.456	2021.33
462.829	2061.56
463.201	2105.62
463.574	2097.49
463.947	2108.56
464.32	2153.98
464.692	2214.77
465.065	2207.99
465.438	2209.8
465.81	2229.46
466.183	2258.84
466.555	2287.09
466.928	2298.61
467.3	2298.61
467.672	2377.25
468.045	2398.95
468.417	2438.04
468.789	2428.33
469.161	2450.25
469.534	2450.92
469.906	2530.47
470.278	2546.97
470.65	2592.84
471.022	2635.55
471.394	2676.23
471.766	2661.09
472.138	2705.15
472.51	2757.58
472.882	2783.12
473.253	2797.81
473.625	2862.66
473.997	2845.94
474.369	2910.57
474.74	2931.59
475.112	2968.2
475.484	2997.12
475.855	3048.87
476.227	3118.7
476.598	3169.1
476.97	3190.11
477.341	3242.77
477.713	3341.75
478.084	3339.26
478.455	3378.58
478.827	3399.37
479.198	3493.61
479.569	3496.55
479.94	3583.32
480.311	3641.63
480.682	3651.12
481.053	3745.13
481.424	3772.25
481.795	3820.38
482.166	3885.24
482.537	3917.55
482.908	4009.3
483.279	4006.14
483.65	4060.37
484.021	4182.4
484.391	4146.02
484.762	4225.34
485.133	4244.32
485.503	4296.75
485.874	4428.05
486.244	4436.18
486.615	4491.1
486.985	4550.3
487.356	4584.65
487.726	4643.63
488.097	4701.03
488.467	4702.62
488.837	4766.57
489.207	4861.03
489.578	4901.26
489.948	4974.7
490.318	5012.89
490.688	4997.3
491.058	5083.85
491.428	5184.86
491.798	5162.04
492.168	5298.98
492.538	5234.13
492.908	5319.32
493.278	5416.95
493.648	5439.77
494.017	5456.95
494.387	5519.77
494.757	5515.93
495.126	5593.44
495.496	5543.72
495.866	5639.54
496.235	5699.65
496.605	5747.79
496.974	5764.96
497.344	5774.9
497.713	5846.09
498.082	5881.34
498.452	5909.14
498.821	5932.41
499.19	5928.35
499.559	5985.29
499.928	6015.12
500.298	6044.73
500.667	6068.68
501.036	6038.4
501.405	6177.15
501.774	6168.57
502.143	6163.37
502.512	6213.99
502.88	6240.2
503.249	6235.46
503.618	6281.56
503.987	6266.42
504.356	6314.55
504.724	6318.85
505.093	6336.47
505.462	6361.33
505.83	6390.71
506.199	6430.03
506.567	6496.24
506.936	6466.86
507.304	6559.97
507.672	6533.08
508.041	6596.58
508.409	6635.22
508.777	6641.55
509.145	6673.19
509.514	6678.84
509.882	6688.78
510.25	6658.27
510.618	6765.84
510.986	6781.66
511.354	6856.23
511.722	6837.25
512.09	6898.94
512.458	6845.16
512.826	6837.25
513.193	6895.33
513.561	6873.86
513.929	6972.61
514.297	6985.72
514.664	6982.78
515.032	7023.01
515.4	7061.88
515.767	7035.66
516.135	7077.47
516.502	7072.27
516.869	7147.52
517.237	7085.83
517.604	7111.14
517.972	7175.77
518.339	7220.29
518.706	7240.4
519.073	7208.77
519.44	7216.67
519.808	7316.56
520.175	7248.99
520.542	7296.45
520.909	7352.72
521.276	7271.81
521.643	7396.33
522.009	7416.67
522.376	7418.25
522.743	7429.55
523.11	7483.56
523.477	7488.53
523.843	7512.26
524.21	7590.68
524.577	7649.21
524.943	7652.14
525.31	7697.79
525.676	7669.09
526.043	7683.33
526.409	7700.05
526.776	7745.93
527.142	7752.25
527.508	7774.4
527.874	7807.62
528.241	7815.98
528.607	7777.79
528.973	7853.49
529.339	7860.05
529.705	7905.02
530.071	7904.34
530.437	7886.49
530.803	7929.65
531.169	7930.78
531.535	7897.56
531.901	7938.01
532.267	7920.84
532.632	8013.72
532.998	8025.01
533.364	7981.4
533.73	8016.2
534.095	8029.76
534.461	8032.47
534.826	8016.2
535.192	8014.17
535.557	8074.28
535.923	8055.3
536.288	8054.62
536.653	8036.31
537.019	8009.2
537.384	8093.26
537.749	8039.03
538.114	8085.58
538.479	8061.17
538.845	8097.33
539.21	8049.87
539.575	8052.13
539.94	7956.77
540.305	8074.51
540.67	7964.68
541.034	8086.48
541.399	8021.63
541.764	7999.7
542.129	8018.69
542.494	7990.44
542.858	8018.46
543.223	8016.43
543.587	8094.17
543.952	7964
544.316	8044
544.681	8049.2
545.045	8045.58
545.41	8058.46
545.774	7987.28
546.138	8022.53
546.503	7976.43
546.867	7986.82
547.231	8030.21
547.595	7993.15
547.959	7980.5
548.324	8015.52
548.688	7999.25
549.052	8019.37
549.416	8030.21
549.779	8048.97
550.143	8004
550.507	8024.79
550.871	8046.71
551.235	8030.66
551.599	8027.73
551.962	8039.48
552.326	8047.84
552.689	8094.17
553.053	7979.82
553.417	8027.05
553.78	8043.32
554.143	8030.66
554.507	8032.25
554.87	8032.02
555.234	8088.97
555.597	8081.74
555.96	8045.13
556.323	8093.26
556.686	8072.92
557.05	8035.64
557.413	8098.69
557.776	8106.59
558.139	8136.88
558.502	8044.68
558.865	8143.66
559.228	8224.11
559.59	8192.24
559.953	8151.79
560.316	8215.97
560.679	8164.9
561.041	8217.78
561.404	8297.32
561.767	8284.9
562.129	8265.01
562.492	8274.95
562.854	8302.75
563.217	8239.02
563.579	8335.06
563.941	8301.39
564.304	8412.8
564.666	8387.04
565.028	8384.1
565.39	8456.87
565.753	8406.93
566.115	8465
566.477	8547.94
566.839	8483.53
567.201	8556.3
567.563	8527.15
567.925	8595.62
568.287	8612.34
568.648	8616.19
569.01	8632.23
569.372	8686.47
569.734	8631.1
570.095	8741.38
570.457	8729.18
570.819	8714.26
571.18	8749.06
571.542	8807.14
571.903	8768.27
572.265	8848.04
572.626	8829.29
572.987	8852.79
573.349	8843.07
573.71	8923.3
574.071	8861.83
574.432	8867.93
574.794	8942.05
575.155	8958.1
575.516	9000.58
575.877	9008.72
576.238	8989.74
576.599	9043.97
576.96	9033.58
577.32	8976.18
577.681	9090.98
578.042	9206.45
578.403	9067.7
578.763	9167.36
579.124	9202.16
579.485	9183.85
579.845	9210.07
580.206	9228.83
580.566	9197.19
580.927	9205.77
581.287	9272.21
581.648	9247.81
582.008	9328.26
582.368	9311.99
582.728	9340.69
583.089	9279.45
583.449	9298.2
583.809	9356.05
584.169	9296.62
584.529	9296.62
584.889	9365.77
585.249	9353.57
585.609	9380.69
585.969	9360.57
586.329	9312.21
586.688	9467.01
587.048	9411.19
587.408	9386.56
587.768	9407.13
588.127	9500
588.487	9357.41
588.846	9500.68
589.206	9398.76
589.565	9496.84
589.925	9486.9
590.284	9498.65
590.643	9464.07
591.003	9542.49
591.362	9536.39
591.721	9597.18
592.08	9497.74
592.44	9572.54
592.799	9568.03
593.158	9601.24
593.517	9563.28
593.876	9574.35
594.235	9538.65
594.593	9598.53
594.952	9580
595.311	9562.6
595.67	9560.79
596.029	9657.06
596.387	9617.74
596.746	9613.9
597.104	9585.43
597.463	9597.85
597.822	9611.87
598.18	9607.12
598.538	9566.67
598.897	9699.77
599.255	9643.5
599.613	9658.42
599.972	9617.06
600.33	9654.58
600.688	9663.39
601.046	9699.77
601.404	9744.29
601.762	9718.3
602.12	9796.72
602.478	9731.86
602.836	9745.65
603.194	9767.57
603.552	9748.36
603.91	9767.34
604.268	9787
604.625	9714.91
604.983	9810.28
605.341	9705.65
605.698	9781.8
606.056	9852.54
606.413	9804.18
606.771	9798.08
607.128	9871.29
607.485	9801.92
607.843	9775.7
608.2	9927.34
608.557	9895.93
608.914	9871.07
609.272	9850.5
609.629	9843.72
609.986	9934.12
610.343	9902.03
610.7	9985.64
611.057	9942.7
611.414	9897.51
611.771	9953.78
612.127	10008.01
612.484	9932.54
612.841	10017.96
613.198	9921.24
613.554	9891.86
613.911	10023.61
614.267	9987.68
614.624	9939.31
614.98	9930.95
615.337	10030.16
615.693	10051.63
616.05	10038.75
616.406	10073.55
616.762	10114.23
617.118	10044.17
617.475	10054.79
617.831	10089.14
618.187	10099.31
618.543	10103.83
618.899	10115.58
619.255	10162.59
619.611	10112.19
619.967	10105.86
620.323	10135.69
620.678	10092.98
621.034	10101.12
621.39	10040.1
621.746	10048.01
622.101	10111.06
622.457	10127.33
622.812	10110.16
623.168	10110.16
623.523	10166.88
623.879	10136.6
624.234	10155.35
624.589	10189.48
624.945	10044.17
625.3	10122.13
625.655	10086.43
626.01	10170.72
626.365	10119.88
626.72	10104.06
627.075	10079.42
627.43	10053.89
627.785	10054.34
628.14	10061.57
628.495	10145.64
628.85	10081.01
629.205	9995.13
629.559	10114.9
629.914	10009.37
630.269	10091.18
630.623	10031.74
630.978	9997.17
631.332	10122.59
631.687	10051.63
632.041	10039.65
632.396	10016.15
632.75	9947.68
633.104	9988.81
633.459	9965.98
633.813	9928.47
634.167	9907.23
634.521	9947.45
634.875	9900.45
635.229	9901.8
635.583	9885.08
635.937	9793.56
636.291	9896.38
636.645	9881.92
636.999	9792.43
637.352	9869.26
637.706	9824.29
638.06	9846.44
638.413	9820.9
638.767	9742.26
639.121	9807.57
639.474	9754.01
639.828	9778.87
640.181	9812.09
640.534	9758.98
640.888	9749.26
641.241	9644.18
641.594	9719.43
641.947	9678.3
642.301	9655.03
642.654	9619.78
643.007	9719.21
643.36	9602.15
643.713	9653.45
644.066	9661.81
644.419	9580.45
644.771	9510.17
645.124	9442.15
645.477	9502.04
645.83	9401.7
646.182	9278.99
646.535	9337.97
646.888	9351.31
647.24	9240.58
647.593	9348.6
647.945	9294.36
648.298	9292.1
648.65	9248.03
649.002	9215.04
649.355	9301.37
649.707	9267.69
650.059	9288.94
650.411	9457.29
650.763	9483.51
651.115	9536.16
651.467	9494.35
651.819	9471.98
652.171	9518.08
652.523	9471.98
652.875	9450.74
653.227	9394.02
653.578	9472.43
653.93	9456.16
654.282	9402.83
654.633	9392.21
654.985	9404.64
655.337	9352.44
655.688	9425.88
656.039	9455.71
656.391	9398.09
656.742	9342.04
657.094	9391.76
657.445	9394.47
657.796	9425.66
658.147	9389.27
658.498	9426.56
658.849	9426.33
659.2	9473.34
659.551	9356.05
659.902	9377.97
660.253	9403.06
660.604	9396.96
660.955	9370.52
661.306	9386.56
661.656	9388.37
662.007	9393.57
662.358	9355.6
662.708	9390.63
663.059	9404.41
663.409	9362.38
663.76	9439.44
664.11	9418.65
664.461	9474.02
664.811	9354.7
665.161	9411.42
665.511	9406.9
665.862	9434.7
666.212	9414.58
666.562	9458.2
666.912	9397.41
667.262	9338.65
667.612	9470.63
667.962	9424.3
668.312	9358.77
668.662	9446.45
669.011	9358.77
669.361	9415.94
669.711	9395.15
670.06	9385.88
670.41	9362.61
670.76	9303.4
671.109	9414.58
671.459	9344.08
671.808	9309.05
672.157	9348.6
672.507	9274.25
672.856	9283.96
673.205	9246.23
673.554	9354.02
673.904	9327.81
674.253	9337.07
674.602	9377.3
674.951	9133.91
675.3	9072.67
675.649	9278.77
675.998	9291.42
676.346	9272.44
676.695	9239.22
677.044	9209.62
677.393	9197.87
677.741	9202.61
678.09	9171.88
678.438	9132.56
678.787	9156.28
679.135	9152.89
679.484	9106.12
679.832	9165.55
680.181	9076.74
680.529	9085.78
680.877	9037.42
681.225	9053.24
681.573	9094.14
681.922	9062.5
682.27	9052.33
682.618	9011.88
682.966	9059.79
683.314	8990.19
683.661	8945.22
684.009	8952.67
684.357	8915.39
684.705	8951.32
685.053	8918.78
685.4	8847.37
685.748	8906.35
686.095	8826.35
686.443	8837.2
686.79	8759.23
687.138	8796.97
687.485	8793.36
687.832	8712.45
688.18	8750.19
688.527	8752.23
688.874	8650.31
689.221	8656.86
689.568	8636.07
689.915	8568.05
690.262	8565.79
690.609	8577.09
690.956	8550.2
691.303	8527.15
691.65	8502.06
691.997	8552.01
692.344	8384.33
692.69	8404.44
693.037	8507.26
693.383	8357.21
693.73	8393.37
694.077	8262.75
694.423	8321.05
694.769	8286.03
695.116	8285.57
695.462	8244.22
695.808	8197.21
696.155	8184.33
696.501	8147.5
696.847	8145.24
697.193	8074.96
697.539	8090.32
697.885	8034.51
698.231	7973.49
698.577	8033.15
698.923	7989.31
699.269	8019.82
699.614	7936.66
699.96	7898.69
700.306	7877.45
700.651	7793.83
700.997	7858.92
701.342	7795.87
701.688	7802.42
702.033	7747.73
702.379	7820.73
702.724	7733.95
703.069	7795.19
703.415	7634.06
703.76	7646.04
704.105	7635.65
704.45	7616.66
704.795	7533.95
705.14	7541.41
705.485	7517.68
705.83	7526.95
706.175	7463.67
706.52	7456.22
706.865	7394.07
707.209	7395.43
707.554	7350.23
707.899	7468.42
708.243	7363.11
708.588	7353.62
708.932	7272.04
709.277	7283.11
709.621	7275.43
709.966	7252.38
710.31	7259.39
710.654	7205.83
710.998	7204.02
711.342	7185.26
711.687	7165.15
712.031	7137.81
712.375	7123.12
712.719	7167.64
713.063	7099.16
713.407	7061.42
713.75	7126.73
714.094	7049
714.438	7053.97
714.782	7097.81
715.125	7001.31
715.469	7031.14
715.812	7016.23
716.156	6931.26
716.499	6947.53
716.843	6992.95
717.186	6960.86
717.53	7017.13
717.873	6946.63
718.216	6937.36
718.559	6925.61
718.902	6898.94
719.246	6859.62
719.589	6841.32
719.932	6851.71
720.275	6858.04
720.617	6816.01
720.96	6846.29
721.303	6847.64
721.646	6797.25
721.989	6768.1
722.331	6807.65
722.674	6761.77
723.016	6793.41
723.359	6780.3
723.701	6783.69
724.044	6746.63
724.386	6706.63
724.729	6712.06
725.071	6692.85
725.413	6714.31
725.755	6667.54
726.097	6715.22
726.439	6704.82
726.782	6695.11
727.124	6705.28
727.465	6645.62
727.807	6711.6
728.149	6700.08
728.491	6644.49
728.833	6685.16
729.175	6647.42
729.516	6670.25
729.858	6701.21
730.199	6708.89
730.541	6640.87
730.882	6671.38
731.224	6675.45
731.565	6595.9
731.906	6664.37
732.248	6630.7
732.589	6623.24
732.93	6597.48
733.271	6566.52
733.612	6605.39
733.953	6614.66
734.294	6539.18
734.635	6576.69
734.976	6600.65
735.317	6552.06
735.658	6594.54
735.999	6637.48
736.339	6547.54
736.68	6594.09
737.021	6614.2
737.361	6545.73
737.702	6575.79
738.042	6573.08
738.383	6591.61
738.723	6645.84
739.063	6552.51
739.404	6572.4
739.744	6588.44
740.084	6624.37
740.424	6586.18
740.764	6589.8
741.104	6646.52
741.444	6614.66
741.784	6661.89
742.124	6580.99
742.464	6617.82
742.804	6618.95
743.143	6687.2
743.483	6674.54
743.823	6645.39
744.162	6684.26
744.502	6731.94
744.841	6684.71
745.181	6705.28
745.52	6702.34
745.86	6723.35
746.199	6765.61
746.538	6745.95
746.877	6843.58
747.216	6799.96
747.556	6879.96
747.895	6912.28
748.234	6908.43
748.573	6919.28
748.911	6957.25
749.25	6999.96
749.589	6964.93
749.928	7028.66
750.267	7090.58
750.605	7154.3
750.944	7147.75
751.283	7144.59
751.621	7287.86
751.96	7314.75
752.298	7325.15
752.636	7385.03
752.975	7456.44
753.313	7448.76
753.651	7498.93
753.989	7601.07
754.327	7646.49
754.666	7724.23
755.004	7869.09
755.342	7896.43
755.679	7933.04
756.017	7987.28
756.355	8140.27
756.693	8180.04
757.031	8216.42
757.368	8264.33
757.706	8348.17
758.044	8450.54
758.381	8538.45
758.719	8638.78
759.056	8752.68
759.394	8772.57
759.731	8849.85
760.068	8898.89
760.405	9014.82
760.743	9092.11
761.08	9257.75
761.417	9280.35
761.754	9394.02
762.091	9451.87
762.428	9558.76
762.765	9596.73
763.102	9772.54
763.438	9831.97
763.775	9811.63
764.112	9996.04
764.449	10069.03
764.785	10183.15
765.122	10219.99
765.458	10238.06
765.795	10345.41
766.131	10381.34
766.467	10443.93
766.804	10614.55
767.14	10664.72
767.476	10646.41
767.812	10746.53
768.148	10822
768.485	10847.77
768.821	10863.81
769.157	10990.13
769.492	11010.25
769.828	11126.63
770.164	11065.84
770.5	11180.64
770.836	11198.26
771.171	11252.5
771.507	11334.76
771.842	11253.86
772.178	11393.74
772.513	11453.17
772.849	11482.78
773.184	11500.4
773.519	11459.73
773.855	11517.35
774.19	11557.58
774.525	11593.51
774.86	11596.22
775.195	11676.22
775.53	11543.79
775.865	11600.51
776.2	11625.37
776.535	11573.17
776.87	11616.33
777.205	11614.07
777.539	11567.07
777.874	11726.39
778.209	11648.42
778.543	11705.6
778.878	11655.88
779.212	11694.75
779.547	11670.12
779.881	11707.4
780.215	11689.1
780.55	11733.17
780.884	11671.02
781.218	11666.5
781.552	11667.41
781.886	11690.23
782.22	11661.53
782.554	11629.89
782.888	11603
783.222	11625.37
783.556	11567.07
783.889	11596.67
784.223	11493.17
784.557	11567.75
784.89	11609.1
785.224	11545.83
785.557	11478.26
785.891	11519.61
786.224	11460.63
786.558	11522.78
786.891	11250.24
787.224	11386.96
787.557	11407.07
787.891	11376.34
788.224	11319.39
788.557	11364.36
788.89	11352.84
789.223	11353.29
789.556	11252.27
789.888	11205.27
790.221	11199.85
790.554	11192.16
790.887	11162.79
791.219	11097.7
791.552	11048.21
791.884	11040.98
792.217	11049.12
792.549	11000.3
792.882	10998.72
793.214	10951.27
793.546	10977.25
793.879	10941.55
794.211	10803.92
794.543	10967.54
794.875	10877.14
795.207	10926.86
795.539	10874.21
795.871	10874.66
796.203	10714.44
796.535	10694.55
796.867	10723.02
797.198	10712.85
797.53	10644.61
797.862	10639.86
798.193	10666.53
798.525	10537.27
798.856	10583.59
799.188	10536.59
799.519	10505.85
799.85	10479.41
800.182	10379.3
800.513	10449.81
800.844	10288.68
801.175	10391.51
801.506	10413.88
801.837	10358.51
802.168	10300.21
802.499	10278.74
802.83	10278.52
803.161	10217.95
803.491	10229.02
803.822	10207.1
804.153	10168.24
804.483	10047.11
804.814	10066.54
805.145	10045.98
805.475	10038.07
805.805	10049.82
806.136	9993.32
806.466	10011.4
806.796	9961.69
807.126	9948.58
807.457	9874.68
807.787	9892.76
808.117	9842.14
808.447	9785.65
808.777	9835.59
809.107	9877.62
809.436	9773.9
809.766	9771.64
810.096	9680.34
810.426	9729.6
810.755	9688.47
811.085	9658.19
811.414	9611.19
811.744	9571.19
812.073	9614.8
812.403	9589.72
812.732	9549.72
813.061	9577.74
813.39	9567.57
813.719	9510.4
814.049	9527.57
814.378	9503.62
814.707	9524.18
815.036	9422.04
815.365	9422.04
815.693	9359.9
816.022	9369.16
816.351	9316.73
816.68	9333.68
817.008	9364.64
817.337	9236.73
817.665	9194.93
817.994	9218.88
818.322	9274.93
818.651	9160.13
818.979	9092.11
819.307	9195.38
819.636	9125.55
819.964	9153.57
820.292	9208.94
820.62	9138.88
820.948	9067.47
821.276	9209.84
821.604	9104.31
821.932	9126.45
822.259	9171.2
822.587	9112.44
822.915	9119.68
823.243	9129.84
823.57	9137.08
823.898	9098.21
824.225	9042.16
824.553	9095.95
824.88	9110.86
825.207	9159.45
825.535	9132.33
825.862	9156.51
826.189	9063.63
826.516	9051.65
826.843	9119.68
827.17	9163.74
827.497	9119.9
827.824	9064.08
828.151	9138.66
828.478	9099.11
828.805	9155.83
829.131	9102.95
829.458	9151.31
829.785	9006.46
830.111	9124.87
830.438	9124.65
830.764	9069.96
831.09	9111.99
831.417	8986.57
831.743	9056.17
832.069	9150.18
832.395	9027.47
832.722	9088.94
833.048	9018.66
833.374	9096.4
833.7	9057.76
834.026	9091.65
834.351	9010.75
834.677	9042.16
835.003	9069.28
835.329	8989.51
835.654	9013.69
835.98	8984.76
836.306	8990.64
836.631	8963.75
836.956	8982.28
837.282	8979.57
837.607	8905.67
837.932	8980.02
838.258	8974.14
838.583	8856.63
838.908	8857.08
839.233	8898.66
839.558	8857.54
839.883	8830.42
840.208	8809.4
840.533	8854.37
840.858	8867.7
841.182	8810.98
841.507	8779.35
841.832	8785.22
842.156	8735.05
842.481	8723.08
842.805	8740.7
843.13	8706.35
843.454	8725.11
843.778	8625.23
844.103	8607.15
844.427	8585
844.751	8612.57
845.075	8516.98
845.399	8573.02
845.723	8529.41
846.047	8515.62
846.371	8470.43
846.695	8422.52
847.019	8399.47
847.343	8384.33
847.666	8342.97
847.99	8313.37
848.313	8254.61
848.637	8208.74
848.96	8231.56
849.284	8189.76
849.607	8105.01
849.931	8154.73
850.254	8039.48
850.577	8066.6
850.9	8088.29
851.223	7954.51
851.546	7982.76
851.869	7900.05
852.192	7887.17
852.515	7918.35
852.838	7776.21
853.161	7833.61
853.483	7797.45
853.806	7765.13
854.129	7797.9
854.451	7764.23
854.774	7713.38
855.096	7645.36
855.419	7625.7
855.741	7611.69
856.063	7530.79
856.385	7577.12
856.708	7570.79
857.03	7479.72
857.352	7516.1
857.674	7478.81
857.996	7437.23
858.318	7423.22
858.64	7431.58
858.961	7379.61
859.283	7321.98
859.605	7349.78
859.926	7369.44
860.248	7336.67
860.57	7275.2
860.891	7284.7
861.212	7309.78
861.534	7250.35
861.855	7236.79
862.176	7205.15
862.498	7295.54
862.819	7228.88
863.14	7208.77
863.461	7230.01
863.782	7155.43
864.103	7139.39
864.424	7139.39
864.745	7086.28
865.065	7135.32
865.386	7061.42
865.707	7102.1
866.027	7056
866.348	7051.26
866.668	7072.5
866.989	7076.79
867.309	7036.57
867.63	7041.31
867.95	6985.49
868.27	6999.51
868.59	6955.89
868.91	6964.03
869.23	7004.48
869.55	6926.06
869.87	6910.02
870.19	6940.07
870.51	6902.56
870.83	6914.54
871.15	6893.29
871.469	6854.88
871.789	6898.49
872.109	6854.65
872.428	6857.14
872.748	6846.97
873.067	6877.47
873.386	6848.1
873.706	6821.88
874.025	6783.69
874.344	6816.91
874.663	6776.01
874.982	6747.08
875.301	6716.35
875.62	6740.75
875.939	6778.04
876.258	6722.22
876.577	6747.99
876.896	6732.39
877.214	6646.07
877.533	6680.19
877.852	6658.5
878.17	6695.78
878.489	6677.25
878.807	6664.6
879.125	6587.76
879.444	6648.1
879.762	6637.25
880.08	6625.73
880.398	6635
880.716	6633.41
881.034	6607.2
881.352	6597.93
881.67	6511.83
881.988	6540.53
882.306	6502.34
882.624	6474.1
882.941	6450.82
883.259	6469.58
883.577	6463.7
883.894	6413.53
884.212	6447.2
884.529	6434.32
884.846	6378.5
885.164	6419.41
885.481	6363.14
885.798	6392.97
886.115	6339.86
886.432	6279.98
886.75	6298.51
887.067	6297.83
887.383	6248.56
887.7	6291.28
888.017	6283.37
888.334	6305.06
888.651	6250.82
888.967	6239.3
889.284	6173.31
889.6	6192.75
889.917	6119.98
890.233	6171.05
890.55	6117.95
890.866	6151.62
891.182	6091.51
891.498	6096.25
891.815	6082.02
892.131	6086.99
892.447	6044.5
892.763	6030.27
893.079	6006.31
893.395	6023.94
893.71	5922.25
894.026	6038.4
894.342	5952.3
894.657	5883.38
894.973	5870.72
895.289	5908.23
895.604	5916.6
895.92	5861
896.235	5769.71
896.55	5849.7
896.865	5698.97
897.181	5747.79
897.496	5786.43
897.811	5762.25
898.126	5763.61
898.441	5632.99
898.756	5661.46
899.071	5665.98
899.386	5632.76
899.7	5564.97
900.015	5586.21
900.33	5510.73
900.644	5533.1
900.959	5580.56
901.273	5491.3
901.588	5517.28
901.902	5479.32
902.216	5479.09
902.531	5471.41
902.845	5492.2
903.159	5419.89
903.473	5351.86
903.787	5334.46
904.101	5315.03
904.415	5360.9
904.729	5282.71
905.042	5277.74
905.356	5249.49
905.67	5241.13
905.984	5227.57
906.297	5234.58
906.611	5215.6
906.924	5209.72
907.237	5154.81
907.551	5146.9
907.864	5129.27
908.177	5110.97
908.491	5118.2
908.804	5100.57
909.117	5050.86
909.43	4963.85
909.743	4981.03
910.056	4978.09
910.368	4953.46
910.681	4949.62
910.994	4925.21
911.307	4847.47
911.619	4893.8
911.932	4893.8
912.244	4793.91
912.557	4870.07
912.869	4819
913.181	4815.38
913.494	4789.39
913.806	4741.94
914.118	4726.57
914.43	4700.13
914.742	4683.41
915.054	4689.28
915.366	4692.67
915.678	4661.49
915.99	4637.31
916.302	4602.73
916.613	4563.86
916.925	4537.42
917.236	4553.24
917.548	4576.52
917.859	4553.24
918.171	4491.55
918.482	4454.94
918.794	4469.4
919.105	4455.39
919.416	4427.37
919.727	4452.68
920.038	4421.04
920.349	4394.83
920.66	4341.95
920.971	4349.18
921.282	4331.1
921.593	4328.84
921.903	4318.45
922.214	4297.66
922.525	4263.31
922.835	4245.91
923.146	4221.05
923.456	4182.63
923.767	4190.31
924.077	4186.02
924.387	4140.6
924.697	4145.57
925.008	4120.03
925.318	4077.32
925.628	4121.84
925.938	4086.81
926.248	4082.29
926.558	3990.09
926.867	4053.82
927.177	4006.36
927.487	4018.57
927.796	3953.03
928.106	3948.06
928.416	3960.72
928.725	3917.33
929.034	3884.33
929.344	3920.49
929.653	3903.99
929.962	3879.14
930.271	3847.5
930.581	3853.15
930.89	3830.32
931.199	3825.58
931.508	3785.8
931.817	3810.21
932.125	3774.05
932.434	3766.6
932.743	3734.96
933.051	3728.4
933.36	3729.53
933.669	3688.63
933.977	3661.97
934.286	3698.12
934.594	3690.89
934.902	3636.2
935.21	3619.03
935.519	3619.48
935.827	3618.58
936.135	3548.07
936.443	3545.58
936.751	3518.01
937.059	3594.4
937.367	3551.91
937.674	3513.27
937.982	3569.09
938.29	3498.81
938.597	3483.67
938.905	3428.3
939.213	3470.56
939.52	3410.45
939.827	3448.19
940.135	3438.69
940.442	3402.31
940.749	3380.39
941.056	3366.61
941.363	3326.16
941.67	3356.44
941.977	3337
942.284	3275.99
942.591	3279.6
942.898	3325.25
943.205	3285.25
943.511	3237.8
943.818	3264.46
944.125	3228.08
944.431	3217.46
944.738	3235.31
945.044	3165.93
945.35	3182.66
945.657	3178.14
945.963	3141.53
946.269	3135.88
946.575	3114.18
946.881	3130.23
947.187	3114.18
947.493	3093.39
947.799	3089.55
948.105	3063.79
948.41	3030.57
948.716	3099.95
949.022	3036.9
949.327	3002.1
949.633	2955.54
949.938	2967.52
950.244	2968.42
950.549	2944.02
950.854	2929.56
951.16	2954.64
951.465	2933.62
951.77	2922.32
952.075	2880.52
952.38	2895.21
952.685	2890.01
952.99	2863.12
953.294	2854.98
953.599	2794.19
953.904	2808.65
954.209	2828.09
954.513	2808.2
954.818	2792.16
955.122	2795.55
955.426	2763.01
955.731	2751.03
956.035	2738.15
956.339	2743.35
956.643	2745.61
956.948	2735.66
957.252	2686.85
957.556	2692.05
957.86	2698.15
958.163	2687.08
958.467	2673.07
958.771	2631.03
959.075	2622.45
959.378	2591.03
959.682	2643.01
959.985	2630.58
960.289	2623.35
960.592	2568.44
960.896	2604.59
961.199	2543.35
961.502	2568.89
961.805	2555.1
962.108	2527.98
962.411	2504.93
962.714	2483.24
963.017	2469.91
963.32	2493.63
963.623	2465.84
963.926	2485.95
964.228	2502.45
964.531	2458.83
964.833	2442.79
965.136	2431.72
965.438	2435.11
965.741	2450.7
966.043	2393.07
966.345	2385.39
966.648	2390.59
966.95	2388.55
967.252	2378.84
967.554	2367.76
967.856	2341.77
968.158	2327.31
968.46	2316.24
968.761	2354.43
969.063	2309.91
969.365	2357.14
969.666	2298.16
969.968	2295.67
970.269	2262
970.571	2233.53
970.872	2247.54
971.174	2254.77
971.475	2245.73
971.776	2216.35
972.077	2224.49
972.378	2205.06
972.679	2237.14
972.98	2184.49
973.281	2175.9
973.582	2172.74
973.883	2136.81
974.183	2171.16
974.484	2149.01
974.785	2134.77
975.085	2124.83
975.386	2120.76
975.686	2093.87
975.986	2104.27
976.287	2137.26
976.587	2090.71
976.887	2057.71
977.187	2119.41
977.487	2077.6
977.787	2061.56
978.087	2052.52
978.387	2052.52
978.687	2012.29
978.987	2015
979.286	1986.53
979.586	2035.12
979.885	2018.39
980.185	1996.7
980.484	1985.4
980.784	1951.5
981.083	1950.15
981.382	1944.27
981.682	1930.71
981.981	1955.12
982.28	1924.84
982.579	1919.41
982.878	1903.14
983.177	1868.11
983.475	1903.37
983.774	1846.65
984.073	1878.96
984.372	1876.02
984.67	1860.88
984.969	1868.79
985.267	1821.11
985.566	1838.28
985.864	1844.16
986.162	1829.02
986.461	1773.88
986.759	1782.47
987.057	1812.97
987.355	1759.64
987.653	1792.64
987.951	1776.82
988.249	1730.27
988.547	1775.91
988.844	1762.35
989.142	1763.71
989.44	1736.59
989.737	1731.4
990.035	1704.28
990.332	1738.85
990.63	1708.12
990.927	1693.43
991.224	1695.69
991.521	1686.2
991.819	1685.29
992.116	1689.14
992.413	1688.46
992.71	1660.44
993.006	1663.15
993.303	1626.99
993.6	1631.96
993.897	1658.18
994.193	1615.69
994.49	1610.04
994.787	1621.79
995.083	1606.88
995.379	1609.59
995.676	1614.11
995.972	1597.84
996.268	1575.02
996.565	1543.83
996.861	1568.91
997.157	1563.72
997.453	1564.39
997.749	1556.94
998.044	1547.9
998.34	1525.52
998.636	1545.64
998.932	1494.79
999.227	1524.62
999.523	1476.03
999.818	1505.64
1000.114	1490.72
1000.409	1465.87
1000.704	1454.11
1001	1471.97
1001.295	1451.18
1001.59	1473.77
1001.885	1461.8
1002.18	1449.59
1002.475	1403.49
1002.77	1410.95
1003.065	1422.7
1003.359	1413.89
1003.654	1396.26
1003.949	1402.36
1004.243	1395.58
1004.538	1380.9
1004.832	1378.18
1005.127	1340.67
1005.421	1370.73
1005.715	1346.09
1006.009	1328.92
1006.304	1328.02
1006.598	1338.41
1006.892	1299.77
1007.186	1296.83
1007.48	1319.65
1007.773	1297.51
1008.067	1296.6
1008.361	1300.67
1008.655	1296.6
1008.948	1278.07
1009.242	1277.62
1009.535	1274.91
1009.829	1271.97
1010.122	1263.16
1010.415	1232.2
1010.708	1245.98
1011.001	1220.9
1011.295	1231.07
1011.588	1239.66
1011.881	1213.44
1012.173	1203.27
1012.466	1212.76
1012.759	1168.7
1013.052	1179.32
1013.344	1171.41
1013.637	1196.04
1013.93	1198.98
1014.222	1149.94
1014.514	1146.55
1014.807	1147.23
1015.099	1190.62
1015.391	1155.37
1015.683	1126.44
1015.976	1102.94
1016.268	1116.72
1016.56	1096.61
1016.851	1110.85
1017.143	1084.18
1017.435	1100
1017.727	1097.29
1018.018	1095.25
1018.31	1080.56
1018.602	1069.27
1018.893	1061.13
1019.185	1058.64
1019.476	1062.26
1019.767	1051.64
1020.058	1057.97
1020.35	1031.75
1020.641	1037.63
1020.932	1013.22
1021.223	1028.59
1021.514	1005.76
1021.804	1044.86
1022.095	1000.79
1022.386	985.43
1022.677	981.13
1022.967	974.58
1023.258	994.69
1023.548	978.19
1023.839	970.74
1024.129	990.85
1024.419	971.19
1024.709	942.04
1025	955.14
1025.29	920.57
1025.58	936.84
1025.87	949.04
1026.16	931.64
1026.449	930.06
1026.739	929.16
1027.029	941.13
1027.319	906.78
1027.608	897.29
1027.898	893.9
1028.187	896.39
1028.477	878.54
1028.766	877.41
1029.055	881.93
1029.344	866.11
1029.634	893.45
1029.923	854.58
1030.212	869.5
1030.501	861.81
1030.79	833.34
1031.078	852.32
1031.367	822.27
1031.656	829.95
1031.945	835.6
1032.233	826.56
1032.522	815.26
1032.81	802.83
1033.099	778.88
1033.387	814.58
1033.675	808.48
1033.963	791.76
1034.251	811.65
1034.54	793.34
1034.828	771.42
1035.116	783.17
1035.403	779.78
1035.691	775.04
1035.979	778.65
1036.267	770.52
1036.554	720.8
1036.842	755.83
1037.129	750.86
1037.417	760.8
1037.704	740.69
1037.992	740.69
1038.279	753.57
1038.566	742.49
1038.853	742.49
1039.14	742.49
