Data from hue_110_FLMS001491_00006.txt Node
Date: Tue Feb 07 17:00:49 GMT 2017
User: dcchb
Spectrometer: FLMS00149
Trigger mode: 0
Integration Time (sec): 2.000000E-2
Scans to average: 10
Electric dark correction enabled: true
Nonlinearity correction enabled: false
Boxcar width: 0
XAxis mode: Wavelengths
Number of Pixels in Spectrum: 2048
>>>>>Begin Spectral Data<<<<<
341.393	2.34
341.776	2.34
342.16	2.34
342.543	-73.59
342.927	-72.23
343.31	-64.77
343.693	-95.05
344.077	-70.65
344.46	-49.18
344.843	-58.44
345.226	-49.86
345.61	-28.62
345.993	-5.34
346.376	-5.56
346.759	11.61
347.142	10.93
347.525	45.96
347.908	65.17
348.291	83.7
348.674	95.68
349.057	114.43
349.44	133.64
349.823	157.59
350.206	163.24
350.588	177.03
350.971	201.89
351.354	232.4
351.737	233.75
352.119	254.54
352.502	244.15
352.884	268.55
353.267	288.66
353.65	276.91
354.032	292.51
354.414	295.22
354.797	313.07
355.179	318.95
355.562	333.86
355.944	313.97
356.326	336.8
356.709	346.97
357.091	320.75
357.473	339.74
357.855	354.43
358.238	337.48
358.62	330.7
359.002	340.19
359.384	325.27
359.766	342
360.148	332.73
360.53	326.4
360.912	348.78
361.294	322.11
361.676	318.27
362.057	323.69
362.439	329.79
362.821	309.68
363.203	330.7
363.584	343.58
363.966	332.28
364.348	339.28
364.729	323.69
365.111	309.91
365.493	326.18
365.874	328.21
366.256	323.24
366.637	322.56
367.019	313.52
367.4	310.13
367.781	295.9
368.163	319.4
368.544	301.09
368.925	320.08
369.306	319.85
369.688	321.88
370.069	312.62
370.45	330.92
370.831	323.01
371.212	322.56
371.593	349.91
371.974	318.72
372.355	337.93
372.736	300.42
373.117	304.94
373.498	318.72
373.879	310.81
374.26	299.96
374.641	311.94
375.021	314.43
375.402	319.62
375.783	296.8
376.163	331.15
376.544	322.11
376.925	347.87
377.305	317.82
377.686	329.34
378.066	321.21
378.447	344.93
378.827	347.19
379.208	325.5
379.588	329.79
379.968	330.25
380.349	344.48
380.729	330.7
381.109	361.21
381.489	341.77
381.87	366.63
382.25	343.35
382.63	353.75
383.01	331.6
383.39	341.09
383.77	339.06
384.15	352.17
384.53	325.73
384.91	329.12
385.29	340.19
385.67	343.58
386.049	358.27
386.429	354.65
386.809	353.75
387.189	368.89
387.568	368.89
387.948	363.01
388.328	345.84
388.707	360.08
389.087	353.3
389.466	359.4
389.846	363.69
390.225	369.79
390.605	368.89
390.984	382
391.363	380.64
391.743	363.24
392.122	351.26
392.501	375.67
392.881	380.87
393.26	374.54
393.639	380.19
394.018	384.71
394.397	387.42
394.776	388.55
395.155	398.27
395.534	382
395.913	397.81
396.292	392.84
396.671	400.75
397.05	377.02
397.429	391.94
397.808	399.4
398.186	393.97
398.565	391.94
398.944	390.81
399.323	411.83
399.701	383.58
400.08	394.2
400.458	412.96
400.837	395.33
401.215	407.08
401.594	409.57
401.972	415.22
402.351	411.37
402.729	410.92
403.107	400.98
403.486	423.8
403.864	420.19
404.242	405.95
404.62	437.81
404.999	434.88
405.377	424.71
405.755	447.76
406.133	420.19
406.511	435.78
406.889	436.91
407.267	420.64
407.645	444.82
408.023	444.37
408.401	450.69
408.779	460.19
409.156	458.6
409.534	469.68
409.912	462.9
410.29	473.07
410.667	460.19
411.045	465.84
411.422	452.5
411.8	452.05
412.178	469.68
412.555	485.27
412.933	490.24
413.31	491.82
413.687	490.02
414.065	479.39
414.442	527.08
414.819	502.67
415.197	480.3
415.574	479.85
415.951	511.48
416.328	523.91
416.705	520.75
417.082	519.17
417.46	514.42
417.837	526.4
418.214	519.62
418.591	519.62
418.967	503.35
419.344	531.6
419.721	546.06
420.098	542.22
420.475	545.61
420.852	520.3
421.228	554.19
421.605	533.18
421.982	546.96
422.358	568.43
422.735	563.91
423.111	555.32
423.488	573.4
423.864	581.76
424.241	583.57
424.617	563.23
424.994	594.42
425.37	594.19
425.746	587.87
426.123	584.93
426.499	604.14
426.875	596.23
427.251	613.18
427.627	612.5
428.003	596.68
428.379	633.97
428.756	625.38
429.132	625.83
429.507	655.89
429.883	655.43
430.259	630.35
430.635	694.3
431.011	688.2
431.387	660.86
431.763	685.04
432.138	670.8
432.514	696.56
432.89	683
433.265	703.57
433.641	706.96
434.016	721.42
434.392	729.78
434.767	735.66
435.143	719.16
435.518	755.32
435.894	741.76
436.269	760.52
436.644	767.75
437.02	749.9
437.395	765.26
437.77	762.1
438.145	780.63
438.52	769.56
438.895	782.66
439.271	789.22
439.646	800.97
440.021	795.54
440.395	817.24
440.77	817.92
441.145	811.36
441.52	849.33
441.895	819.72
442.27	833.74
442.645	824.24
443.019	826.73
443.394	860.85
443.769	863.34
444.143	857.46
444.518	870.12
444.892	872.83
445.267	875.77
445.641	882.32
446.016	868.31
446.39	901.08
446.764	901.76
447.139	883.23
447.513	889.33
447.887	911.7
448.262	934.75
448.636	898.82
449.01	929.78
449.384	953.05
449.758	940.4
450.132	952.6
450.506	965.94
450.88	966.84
451.254	972.26
451.628	982.88
452.002	982.66
452.376	976.56
452.75	1006.61
453.123	1033.96
453.497	1025.14
453.871	1025.37
454.244	1054.75
454.618	1032.6
454.992	1077.8
455.365	1071.47
455.739	1091.36
456.112	1119.83
456.486	1102.65
456.859	1115.76
457.232	1143.78
457.606	1150.79
457.979	1132.94
458.352	1172.48
458.725	1217.68
459.099	1191.47
459.472	1227.17
459.845	1234.85
460.218	1250.45
460.591	1264.68
460.964	1266.94
461.337	1329.77
461.71	1319.82
462.083	1331.12
462.456	1351.24
462.829	1332.48
463.201	1396.43
463.574	1397.79
463.947	1399.6
464.32	1428.52
464.692	1438.01
465.065	1471.91
465.438	1497.67
465.81	1498.35
466.183	1508.97
466.555	1543.1
466.928	1584.45
467.3	1570.21
467.672	1614.28
468.045	1682.07
468.417	1654.28
468.789	1660.83
469.161	1702.41
469.534	1754.61
469.906	1777.44
470.278	1835.29
470.65	1844.1
471.022	1903.54
471.394	1915.97
471.766	1905.8
472.138	1963.87
472.51	1994.38
472.882	2052.23
473.253	2068.96
473.625	2161.61
473.997	2196.19
474.369	2226.24
474.74	2253.58
475.112	2329.97
475.484	2377.88
475.855	2429.85
476.227	2466.69
476.598	2566.12
476.97	2600.47
477.341	2684.53
477.713	2755.49
478.084	2774.93
478.455	2840.91
478.827	2940.8
479.198	3056.05
479.569	3105.54
479.94	3182.37
480.311	3250.17
480.682	3339.66
481.053	3421.69
481.424	3538.52
481.795	3594.34
482.166	3686.77
482.537	3771.06
482.908	3891.06
483.279	3964.95
483.65	4089.47
484.021	4238.39
484.391	4333.98
484.762	4400.42
485.133	4482.23
485.503	4592.73
485.874	4712.5
486.244	4809.22
486.615	4954.3
486.985	5115.2
487.356	5236.33
487.726	5318.81
488.097	5525.36
488.467	5567.85
488.837	5722.65
489.207	5842.19
489.578	6013.26
489.948	6118.79
490.318	6314.95
490.688	6367.37
491.058	6515.62
491.428	6686.91
491.798	6845.55
492.168	7018.66
492.538	7059.33
492.908	7238.99
493.278	7307.92
493.648	7510.85
494.017	7584.52
494.387	7801.01
494.757	7920.1
495.126	7969.82
495.496	8115.35
495.866	8256.59
496.235	8357.38
496.605	8499.3
496.974	8606.41
497.344	8814.54
497.713	8861.32
498.082	8959.85
498.452	9063.58
498.821	9237.81
499.19	9305.38
499.559	9305.38
499.928	9616.33
500.298	9619.49
500.667	9794.86
501.036	9869.66
501.405	9995.08
501.774	10041.18
502.143	10142.19
502.512	10314.62
502.88	10393.94
503.249	10446.36
503.618	10544.44
503.987	10627.6
504.356	10714.38
504.724	10733.81
505.093	10838.44
505.462	11006.8
505.83	10958.67
506.199	11137.19
506.567	11172.45
506.936	11290.86
507.304	11452.89
507.672	11499.67
508.041	11535.6
508.409	11640.68
508.777	11733.79
509.145	11824.86
509.514	11900.11
509.882	11947.12
510.25	12042.48
510.618	12131.52
510.986	12124.06
511.354	12238.63
511.722	12304.39
512.09	12406.76
512.458	12447.44
512.826	12573.09
513.193	12622.58
513.561	12611.5
513.929	12687.66
514.297	12718.17
514.664	12899.63
515.032	12819.86
515.4	12953.42
515.767	13032.28
516.135	12979.18
516.502	12922.23
516.869	13083.36
517.237	13246.06
517.604	13201.77
517.972	13269.57
518.339	13286.52
518.706	13351.37
519.073	13348.43
519.44	13482.89
519.808	13590.69
520.175	13564.47
520.542	13592.27
520.909	13705.49
521.276	13624.13
521.643	13788.87
522.009	13784.58
522.376	13804.47
522.743	13911.58
523.11	13977.12
523.477	14081.07
523.843	14048.98
524.21	14126.27
524.577	14132.37
524.943	14235.42
525.31	14216.66
525.676	14367.62
526.043	14373.27
526.409	14353.15
526.776	14437.9
527.142	14444
527.508	14471.12
527.874	14505.92
528.241	14500.27
528.607	14439.71
528.973	14653.94
529.339	14591.11
529.705	14639.93
530.071	14734.84
530.437	14710.43
530.803	14660.49
531.169	14692.35
531.535	14672.47
531.901	14669.76
532.267	14688.29
532.632	14792.46
532.998	14793.82
533.364	14795.85
533.73	14738.68
534.095	14806.7
534.461	14846.47
534.826	14830.88
535.192	14726.93
535.557	14857.32
535.923	14751.34
536.288	14762.18
536.653	14746.82
537.019	14635.18
537.384	14725.8
537.749	14720.38
538.114	14631.34
538.479	14717.21
538.845	14639.25
539.21	14585.69
539.575	14578.01
539.94	14569.65
540.305	14663.43
540.67	14477.44
541.034	14516.77
541.399	14556.31
541.764	14520.61
542.129	14464.34
542.494	14413.94
542.858	14437.9
543.223	14354.96
543.587	14392.25
543.952	14303.21
544.316	14330.33
544.681	14327.84
545.045	14325.36
545.41	14299.37
545.774	14318.35
546.138	14209.43
546.503	14355.19
546.867	14199.94
547.231	14191.12
547.595	14181.63
547.959	14102.09
548.324	14014.86
548.688	14026.38
549.052	14078.58
549.416	13973.73
549.779	13962.2
550.143	13971.47
550.507	13958.36
550.871	14022.99
551.235	13887.86
551.599	13955.65
551.962	13823.68
552.326	13856.9
552.689	13856.44
553.053	13732.38
553.417	13700.97
553.78	13829.1
554.143	13728.09
554.507	13786.39
554.87	13758.59
555.234	13879.95
555.597	13711.59
555.96	13734.86
556.323	13689.89
556.686	13696.9
557.05	13692.61
557.413	13694.41
557.776	13731.02
558.139	13818.25
558.502	13811.47
558.865	13671.14
559.228	13617.13
559.59	13738.71
559.953	13699.39
560.316	13777.8
560.679	13723.57
561.041	13833.17
561.404	13819.16
561.767	13763.79
562.129	13715.88
562.492	13789.78
562.854	13768.08
563.217	13805.6
563.579	13739.38
563.941	13842.43
564.304	13849.21
564.666	13931.47
565.028	13826.16
565.39	13781.19
565.753	13897.57
566.115	13953.84
566.477	13930.79
566.839	13951.36
567.201	13996.78
567.563	13999.04
567.925	13977.12
568.287	13987.06
568.648	14010.11
569.01	14029.77
569.372	14200.39
569.734	14083.1
570.095	14132.59
570.457	14124.69
570.819	14209.43
571.18	14124.46
571.542	14208.07
571.903	14246.49
572.265	14199.49
572.626	14266.6
572.987	14223.67
573.349	14302.08
573.71	14303.21
574.071	14277.22
574.432	14306.83
574.794	14373.27
575.155	14420.27
575.516	14233.16
575.877	14279.26
576.238	14282.65
576.599	14408.29
576.96	14329.65
577.32	14372.81
577.681	14386.15
578.042	14371.23
578.403	14409.65
578.763	14392.93
579.124	14338.92
579.485	14398.8
579.845	14476.77
580.206	14422.53
580.566	14361.29
580.927	14404.68
581.287	14404.45
581.648	14391.8
582.008	14411.91
582.368	14346.83
582.728	14430.21
583.089	14352.7
583.449	14356.54
583.809	14376.88
584.169	14433.15
584.529	14353.61
584.889	14461.17
585.249	14351.8
585.609	14293.27
585.969	14408.97
586.329	14323.78
586.688	14309.09
587.048	14355.87
587.408	14244.46
587.768	14294.4
588.127	14270.22
588.487	14187.96
588.846	14408.75
589.206	14225.02
589.565	14210.33
589.925	14307.73
590.284	14236.55
590.643	14223.67
591.003	14211.91
591.362	14260.05
591.721	14175.76
592.08	14254.4
592.44	14217.56
592.799	14174.18
593.158	14163.1
593.517	14186.38
593.876	14186.83
594.235	14112.48
594.593	14147.28
594.952	14167.4
595.311	14024.12
595.67	14146.15
596.029	14220.73
596.387	14183.89
596.746	14209.65
597.104	14055.53
597.463	14130.79
597.822	14219.37
598.18	14100.96
598.538	14059.83
598.897	14179.37
599.255	14054.18
599.613	14220.95
599.972	14116.55
600.33	14147.28
600.688	14093.73
601.046	14143.67
601.404	14302.31
601.762	14055.08
602.12	14210.11
602.478	14119.94
602.836	14192.48
603.194	14112.71
603.552	14084.23
603.91	14221.41
604.268	14170.56
604.625	14098.7
604.983	14107.74
605.341	14130.33
605.698	14196.77
606.056	14166.49
606.413	14150.9
606.771	14240.16
607.128	14191.8
607.485	14130.79
607.843	14214.63
608.2	14236.77
608.557	14218.47
608.914	14225.47
609.272	14175.31
609.629	14256.43
609.986	14294.17
610.343	14310.22
610.7	14239.48
611.057	14256.89
611.414	14272.48
611.771	14394.96
612.127	14332.59
612.484	14316.77
612.841	14414.62
613.198	14238.58
613.554	14363.32
613.911	14402.19
614.267	14435.41
614.624	14387.73
614.98	14356.09
615.337	14468.86
615.693	14391.12
616.05	14363.55
616.406	14502.08
616.762	14436.99
617.118	14468.63
617.475	14507.05
617.831	14541.85
618.187	14527.61
618.543	14555.18
618.899	14611.23
619.255	14611.23
619.611	14554.05
619.967	14524.45
620.323	14673.37
620.678	14535.75
621.034	14519.25
621.39	14550.89
621.746	14559.25
622.101	14640.15
622.457	14584.79
622.812	14586.14
623.168	14521.51
623.523	14581.85
623.879	14613.94
624.234	14567.39
624.589	14570.1
624.945	14597.22
625.3	14616.42
625.655	14586.59
626.01	14645.12
626.365	14599.02
626.72	14613.94
627.075	14561.74
627.43	14558.35
627.785	14542.3
628.14	14590.44
628.495	14529.42
628.85	14609.87
629.205	14507.95
629.559	14563.09
629.914	14465.24
630.269	14527.39
630.623	14403.32
630.978	14424.11
631.332	14487.39
631.687	14503.21
632.041	14407.84
632.396	14438.8
632.75	14466.82
633.104	14467.5
633.459	14452.59
633.813	14442.87
634.167	14351.35
634.521	14456.2
634.875	14392.47
635.229	14406.71
635.583	14273.16
635.937	14314.74
636.291	14206.49
636.645	14307.51
636.999	14222.54
637.352	14269.54
637.706	14141.41
638.06	14240.39
638.413	14242.87
638.767	14142.76
639.121	14171.46
639.474	14060.96
639.828	14064.57
640.181	14146.15
640.534	14133.5
640.888	14014.41
641.241	14032.26
641.594	14082.65
641.947	14108.87
642.301	14144.57
642.654	14026.83
643.007	14082.88
643.36	13947.51
643.713	13945.71
644.066	14052.37
644.419	13879.72
644.771	13824.58
645.124	13757.46
645.477	13681.98
645.83	13657.58
646.182	13590.01
646.535	13536.68
646.888	13565.38
647.24	13485.38
647.593	13543.46
647.945	13408.77
648.298	13483.57
648.65	13325.16
649.002	13448.09
649.355	13469.11
649.707	13462.1
650.059	13628.2
650.411	13697.8
650.763	13762.43
651.115	13834.98
651.467	13774.64
651.819	13800.85
652.171	13762.21
652.523	13707.52
652.875	13632.27
653.227	13766.05
653.578	13788.2
653.93	13786.39
654.282	13748.42
654.633	13719.72
654.985	13702.78
655.337	13764.47
655.688	13781.87
656.039	13788.87
656.391	13819.61
656.742	13723.34
657.094	13775.32
657.445	13827.29
657.796	13756.11
658.147	13816.44
658.498	13725.83
658.849	13798.14
659.2	13742.77
659.551	13747.29
659.902	13846.73
660.253	13794.52
660.604	13875.65
660.955	13780.97
661.306	13792.72
661.656	13801.53
662.007	13815.99
662.358	13882.21
662.708	13906.39
663.059	13794.07
663.409	13764.69
663.76	13827.52
664.11	13780.29
664.461	13913.39
664.811	13839.49
665.161	13888.31
665.511	13818.93
665.862	13826.39
666.212	13793.17
666.562	13890.57
666.912	13848.53
667.262	13862.77
667.612	13781.42
667.962	13796.33
668.312	13816.9
668.662	13939.15
669.011	13883.34
669.361	13793.39
669.711	13787.74
670.06	13738.25
670.41	13759.95
670.76	13710.01
671.109	13810.57
671.459	13763.79
671.808	13805.37
672.157	13829.1
672.507	13729.89
672.856	13690.8
673.205	13697.58
673.554	13730.12
673.904	13696
674.253	13761.98
674.602	13740.97
674.951	13513.18
675.3	13368.77
675.649	13657.58
675.998	13640.4
676.346	13674.98
676.695	13603.79
677.044	13492.39
677.393	13627.07
677.741	13513.63
678.09	13536.23
678.438	13510.01
678.787	13511.37
679.135	13559.5
679.484	13523.57
679.832	13435.89
680.181	13365.84
680.529	13512.95
680.877	13398.83
681.225	13395.89
681.573	13385.5
681.922	13305.5
682.27	13267.76
682.618	13293.29
682.966	13287.64
683.314	13269.34
683.661	13260.3
684.009	13200.64
684.357	13143.47
684.705	13106.63
685.053	13150.25
685.4	13129.68
685.748	13025.05
686.095	13008.33
686.443	13041.78
686.79	12984.6
687.138	13047.65
687.485	13004.26
687.832	12939.86
688.18	12929.91
688.527	12840.2
688.874	12737.83
689.221	12761.11
689.568	12757.26
689.915	12747.32
690.262	12707.77
690.609	12587.78
690.956	12579.64
691.303	12525.18
691.65	12524.5
691.997	12435.92
692.344	12412.64
692.69	12403.83
693.037	12379.42
693.383	12285.41
693.73	12355.24
694.077	12199.99
694.423	12258.29
694.769	12098.98
695.116	12144.62
695.462	12157.73
695.808	12052.65
696.155	12063.27
696.501	11996.38
696.847	11978.98
697.193	11819.89
697.539	11965.19
697.885	11833.67
698.231	11713.9
698.577	11828.7
698.923	11756.39
699.269	11647.91
699.614	11577.41
699.96	11549.84
700.306	11565.2
700.651	11487.92
700.997	11407.24
701.342	11437.98
701.688	11413.34
702.033	11392.55
702.379	11303.52
702.724	11284.31
703.069	11296.51
703.415	11132.9
703.76	11148.94
704.105	11148.49
704.45	11119.11
704.795	11017.65
705.14	11045.9
705.485	10962.51
705.83	11023.07
706.175	10965.45
706.52	10878.67
706.865	10894.04
707.209	10817.65
707.554	10766.58
707.899	10837.99
708.243	10749.86
708.588	10745.11
708.932	10594.61
709.277	10608.39
709.621	10676.41
709.966	10524.1
710.31	10623.99
710.654	10444.1
710.998	10448.17
711.342	10521.84
711.687	10468.06
712.031	10374.05
712.375	10405.69
712.719	10349.87
713.063	10389.42
713.407	10356.65
713.75	10300.15
714.094	10265.58
714.438	10231.68
714.782	10237.78
715.125	10187.61
715.469	10207.05
715.812	10115.75
716.156	10095.64
716.499	10081.18
716.843	10118.01
717.186	10119.37
717.53	10119.82
717.873	10127.73
718.216	10047.96
718.559	10031.69
718.902	9962.99
719.246	10025.81
719.589	9940.84
719.932	9933.61
720.275	9907.62
720.617	9900.16
720.96	9870.11
721.303	9887.06
721.646	9954.4
721.989	9818.58
722.331	9883.89
722.674	9844.8
723.016	9847.06
723.359	9870.79
723.701	9805.93
724.044	9772.94
724.386	9779.04
724.729	9800.05
725.071	9776.1
725.413	9784.23
725.755	9805.7
726.097	9746.5
726.439	9706.95
726.782	9714.41
727.124	9734.74
727.465	9667.85
727.807	9712.37
728.149	9687.29
728.491	9689.32
728.833	9730
729.175	9704.46
729.516	9631.7
729.858	9652.49
730.199	9692.03
730.541	9629.89
730.882	9682.32
731.224	9675.54
731.565	9654.75
731.906	9668.76
732.248	9591.47
732.589	9654.75
732.93	9551.92
733.271	9623.79
733.612	9622.88
733.953	9619.94
734.294	9633.5
734.635	9546.27
734.976	9588.53
735.317	9599.38
735.658	9616.33
735.999	9585.37
736.339	9579.72
736.68	9605.48
737.021	9587.63
737.361	9604.8
737.702	9639.15
738.042	9626.72
738.383	9609.1
738.723	9623.79
739.063	9567.06
739.404	9667.85
739.744	9683.67
740.084	9637.57
740.424	9642.32
740.764	9731.35
741.104	9697.46
741.444	9716.44
741.784	9640.06
742.124	9736.33
742.464	9719.6
742.804	9702.88
743.143	9792.14
743.483	9793.05
743.823	9771.13
744.162	9852.26
744.502	9816.55
744.841	9850.67
745.181	9941.97
745.52	9988.52
745.86	9989.88
746.199	9995.53
746.538	10057
746.877	10145.13
747.216	10155.3
747.556	10143.32
747.895	10310.32
748.234	10254.73
748.573	10282.3
748.911	10358.91
749.25	10418.12
749.589	10443.43
749.928	10548.28
750.267	10634.61
750.605	10681.84
750.944	10760.93
751.283	10806.35
751.621	10944.2
751.96	10974.94
752.298	11059
752.636	11178.55
752.975	11231.43
753.313	11312.56
753.651	11471.42
753.989	11522.04
754.327	11589.38
754.666	11707.35
755.004	11908.7
755.342	12026.89
755.679	12096.26
756.017	12258.29
756.355	12432.75
756.693	12529.47
757.031	12656.02
757.368	12748.45
757.706	12865.96
758.044	12972.4
758.381	13199.74
758.719	13333.29
759.056	13501.65
759.394	13608.77
759.731	13737.8
760.068	13921.98
760.405	14062.09
760.743	14143.22
761.08	14350.67
761.417	14445.13
761.754	14617.55
762.091	14789.07
762.428	14940.71
762.765	14981.16
763.102	15211.89
763.438	15281.49
763.775	15519
764.112	15615.04
764.449	15795.6
764.785	15908.82
765.122	16038.99
765.458	16092.99
765.795	16258.19
766.131	16455.92
766.467	16549.03
766.804	16548.58
767.14	16761.9
767.476	16894.78
767.812	16950.37
768.148	17222
768.485	17196.92
768.821	17228.56
769.157	17446.41
769.492	17532.51
769.828	17603.24
770.164	17598.27
770.5	17728.43
770.836	17910.35
771.171	17843.46
771.507	18032.83
771.842	18014.98
772.178	18107.18
772.513	18241.64
772.849	18298.59
773.184	18342.88
773.519	18422.2
773.855	18418.36
774.19	18422.65
774.525	18509.2
774.86	18610.89
775.195	18676.43
775.53	18703.55
775.865	18562.31
776.2	18616.09
776.535	18630.56
776.87	18771.12
777.205	18670.1
777.539	18674.62
777.874	18895.86
778.209	18790.1
778.543	18801.4
778.878	18744.9
779.212	18849.31
779.547	18911.68
779.881	18876.2
780.215	18852.02
780.55	18924.33
780.884	18752.13
781.218	18838.23
781.552	18889.53
781.886	18722.76
782.22	18808.86
782.554	18707.39
782.888	18567.96
783.222	18590.33
783.556	18628.3
783.889	18672.59
784.223	18505.59
784.557	18612.02
784.89	18680.72
785.224	18565.7
785.557	18538.35
785.891	18550.11
786.224	18455.42
786.558	18539.48
786.891	18456.77
787.224	18315.54
787.557	18334.29
787.891	18310.79
788.224	18281.19
788.557	18410.45
788.89	18321.64
789.223	18335.2
789.556	18263.33
789.888	18201.41
790.221	18225.59
790.554	17977.47
790.887	18128.65
791.219	17990.12
791.552	18006.84
791.884	17899.95
792.217	17988.09
792.549	17867.86
792.882	17789.22
793.214	17756.68
793.546	17803.68
793.879	17651.15
794.211	17716.23
794.543	17764.59
794.875	17457.03
795.207	17697.47
795.539	17620.19
795.871	17597.36
796.203	17408.67
796.535	17325.28
796.867	17277.37
797.198	17234.21
797.53	17283.7
797.862	17204.6
798.193	17200.31
798.525	17142.01
798.856	17124.38
799.188	17024.95
799.519	16966.87
799.85	16896.82
800.182	16923.71
800.513	16970.71
800.844	16809.36
801.175	16858.4
801.506	16899.08
801.837	16745.86
802.168	16696.59
802.499	16724.62
802.83	16610.72
803.161	16546.09
803.491	16544.96
803.822	16542.47
804.153	16439.2
804.483	16332.99
804.814	16332.54
805.145	16347.9
805.475	16188.36
805.805	16255.02
806.136	16182.71
806.466	16192.88
806.796	16174.57
807.126	16010.51
807.457	16108.36
807.787	16134.8
808.117	16007.8
808.447	15874.47
808.777	15991.53
809.107	15864.53
809.436	15884.64
809.766	15771.2
810.096	15815.49
810.426	15741.37
810.755	15772.33
811.085	15721.48
811.414	15649.84
811.744	15585.89
812.073	15559.45
812.403	15616.62
812.732	15509.96
813.061	15463.18
813.39	15385.44
813.719	15411.88
814.049	15476.51
814.378	15462.05
814.707	15347.7
815.036	15293.02
815.365	15263.19
815.693	15076.3
816.022	15150.19
816.351	15119.01
816.68	15050.08
817.008	15169.4
817.337	15000.82
817.665	14945
817.994	14890.99
818.322	14974.83
818.651	14851.67
818.979	14795.63
819.307	14850.32
819.636	14826.81
819.964	14845.12
820.292	14827.49
820.62	14879.24
820.948	14706.82
821.276	14827.72
821.604	14758.57
821.932	14724.44
822.259	14763.76
822.587	14765.57
822.915	14658.68
823.243	14795.4
823.57	14722.18
823.898	14614.62
824.225	14592.7
824.553	14692.58
824.88	14684.44
825.207	14713.14
825.535	14676.76
825.862	14742.75
826.189	14639.02
826.516	14783.88
826.843	14760.15
827.17	14821.39
827.497	14714.73
827.824	14750.66
828.151	14799.02
828.478	14749.98
828.805	14784.55
829.131	14703.65
829.458	14712.01
829.785	14569.19
830.111	14632.02
830.438	14778.68
830.764	14755.63
831.09	14787.04
831.417	14690.32
831.743	14750.43
832.069	14718.79
832.395	14658.23
832.722	14678.79
833.048	14658.91
833.374	14652.13
833.7	14556.31
834.026	14598.12
834.351	14611.23
834.677	14555.41
835.003	14609.19
835.329	14585.01
835.654	14501.62
835.98	14533.71
836.306	14526.03
836.631	14406.26
836.956	14536.65
837.282	14477.9
837.607	14414.62
837.932	14335.98
838.258	14411.23
838.583	14341.85
838.908	14296.66
839.233	14347.96
839.558	14341.63
839.883	14227.96
840.208	14251.01
840.533	14251.46
840.858	14099.38
841.182	14218.92
841.507	14137.11
841.832	14074.06
842.156	14079.71
842.481	14037.91
842.805	14069.09
843.13	13989.55
843.454	13956.78
843.778	13976.89
844.103	13936.44
844.427	13835.2
844.751	13825.71
845.075	13801.53
845.399	13786.39
845.723	13708.42
846.047	13705.26
846.371	13623.91
846.695	13634.53
847.019	13446.74
847.343	13406.74
847.666	13402.67
847.99	13334.88
848.313	13326.97
848.637	13243.8
848.96	13265.95
849.284	13163.35
849.607	13062.34
849.931	13027.76
850.254	12956.58
850.577	12866.64
850.9	12862.35
851.223	12782.12
851.546	12745.29
851.869	12680.43
852.192	12709.81
852.515	12590.26
852.838	12511.85
853.161	12587.1
853.483	12521.79
853.806	12441.34
854.129	12374.67
854.451	12345.07
854.774	12310.95
855.096	12324.28
855.419	12273.66
855.741	12227.11
856.063	12172.42
856.385	12110.27
856.708	12092.87
857.03	12009.49
857.352	12039.99
857.674	11998.64
857.996	11996.83
858.318	11867.57
858.64	11918.87
858.961	11877.74
859.283	11895.59
859.605	11728.36
859.926	11782.15
860.248	11735.37
860.57	11720
860.891	11670.06
861.212	11610.85
861.534	11668.25
861.855	11628.71
862.176	11535.6
862.498	11509.61
862.819	11594.36
863.14	11546.22
863.461	11442.04
863.782	11417.41
864.103	11531.08
864.424	11399.56
864.745	11433.91
865.065	11404.76
865.386	11311.43
865.707	11321.37
866.027	11277.08
866.348	11281.82
866.668	11293.8
866.989	11255.83
867.309	11130.64
867.63	11250.86
867.95	11139
868.27	11134.71
868.59	11152.79
868.91	11095.39
869.23	11142.84
869.55	11048.16
869.87	11043.18
870.19	11068.27
870.51	11057.87
870.83	11090.41
871.15	10936.29
871.469	10978.1
871.789	11034.82
872.109	11047.03
872.428	10819.91
872.748	10937.88
873.067	10903.3
873.386	10902.4
873.706	10953.7
874.025	10840.25
874.344	10755.51
874.663	10834.38
874.982	10736.53
875.301	10738.11
875.62	10729.52
875.939	10746.47
876.258	10753.47
876.577	10675.51
876.896	10671.44
877.214	10610.65
877.533	10601.39
877.852	10635.29
878.17	10630.09
878.489	10623.99
878.807	10588.05
879.125	10592.57
879.444	10600.26
879.762	10511.45
880.08	10546.02
880.398	10464.44
880.716	10511.22
881.034	10445.46
881.352	10456.98
881.67	10411.79
881.988	10457.66
882.306	10294.96
882.624	10360.72
882.941	10290.66
883.259	10222.87
883.577	10322.53
883.894	10235.07
884.212	10202.53
884.529	10199.82
884.846	10198.91
885.164	10187.16
885.481	10090.44
885.798	10148.07
886.115	10031.69
886.432	10029.2
886.75	10080.27
887.067	10033.95
887.383	9971.35
887.7	9993.49
888.017	9894.51
888.334	9997.56
888.651	9869.88
888.967	9892.93
889.284	9833.05
889.6	9782.2
889.917	9793.27
890.233	9795.08
890.55	9658.59
890.866	9757.79
891.182	9616.33
891.498	9617.01
891.815	9547.63
892.131	9575.65
892.447	9509.67
892.763	9511.7
893.079	9531.81
893.395	9486.39
893.71	9427.86
894.026	9408.88
894.342	9395.77
894.657	9320.74
894.973	9239.16
895.289	9319.39
895.604	9239.62
895.92	9174.08
896.235	9103.8
896.55	9154.42
896.865	9139.28
897.181	9111.03
897.496	9096.79
897.811	9008.66
898.126	8996.01
898.441	8995.78
898.756	8940.64
899.071	8811.83
899.386	8885.27
899.7	8811.6
900.015	8753.98
900.33	8732.51
900.644	8716.24
900.959	8709.23
901.273	8677.82
901.588	8634.21
901.902	8620.88
902.216	8518.96
902.531	8559.41
902.845	8546.53
903.159	8524.83
903.473	8433.76
903.787	8449.35
904.101	8330.49
904.415	8394.89
904.729	8311.5
905.042	8358.74
905.356	8258.85
905.67	8243.48
905.984	8220.89
906.297	8187.89
906.611	8122.36
906.924	8181.79
907.237	8120.32
907.551	8045.3
907.864	8040.33
908.177	8019.53
908.491	8046.88
908.804	7950.61
909.117	7922.14
909.43	7852.53
909.743	7841.69
910.056	7769.15
910.368	7743.84
910.681	7727.57
910.994	7698.64
911.307	7672.43
911.619	7646.21
911.932	7567.8
912.244	7566.21
912.557	7505.88
912.869	7527.8
913.181	7497.97
913.494	7428.36
913.806	7434.01
914.118	7428.14
914.43	7347.69
914.742	7334.81
915.054	7262.49
915.366	7251.42
915.678	7240.57
915.99	7220.23
916.302	7130.52
916.613	7140.01
916.925	7113.12
917.236	7105.43
917.548	7053.01
917.859	7107.47
918.171	7003.52
918.482	6930.75
918.794	6923.74
919.105	6900.02
919.416	6868.6
919.727	6864.09
920.038	6835.39
920.349	6847.36
920.66	6756.07
920.971	6841.49
921.282	6712.68
921.593	6676.07
921.903	6670.19
922.214	6700.7
922.525	6583.41
922.835	6539.12
923.146	6505.68
923.456	6521.5
923.767	6489.18
924.077	6441.05
924.387	6411.67
924.697	6385
925.008	6411.22
925.318	6399.46
925.628	6380.93
925.938	6331.44
926.248	6301.84
926.558	6228.85
926.867	6255.06
927.177	6229.75
927.487	6194.95
927.796	6159.47
928.106	6121.28
928.416	6105.91
928.725	6123.09
929.034	6001.73
929.344	6046.71
929.653	6010.55
929.962	6008.51
930.271	5940.49
930.581	5893.72
930.89	5860.04
931.199	5895.3
931.508	5872.47
931.817	5832.02
932.125	5832.93
932.434	5819.37
932.743	5736.88
933.051	5711.35
933.36	5672.7
933.669	5647.17
933.977	5671.8
934.286	5668.86
934.594	5625.25
934.902	5550.45
935.21	5590.67
935.519	5551.58
935.827	5557.45
936.135	5519.26
936.443	5470.45
936.751	5432.94
937.059	5473.16
937.367	5434.07
937.674	5440.39
937.982	5416.21
938.29	5394.97
938.597	5330.79
938.905	5269.78
939.213	5288.99
939.52	5256.44
939.827	5284.24
940.135	5187.29
940.442	5171.02
940.749	5184.13
941.056	5200.85
941.363	5149.33
941.67	5121.31
941.977	5076.34
942.284	5093.06
942.591	5065.26
942.898	5011.7
943.205	5002.44
943.511	4991.14
943.818	4982.78
944.125	4923.8
944.431	4926.96
944.738	4911.37
945.044	4888.09
945.35	4877.7
945.657	4823.23
945.963	4780.07
946.269	4772.84
946.575	4777.59
946.881	4678.61
947.187	4748.21
947.493	4636.35
947.799	4694.42
948.105	4641.54
948.41	4665.5
948.716	4636.35
949.022	4617.82
949.327	4587.31
949.633	4511.83
949.938	4537.82
950.244	4538.5
950.549	4470.25
950.854	4488.78
951.16	4458.05
951.465	4422.79
951.77	4436.35
952.075	4401.55
952.38	4355.9
952.685	4362.23
952.99	4321.55
953.294	4317.94
953.599	4313.19
953.904	4305.06
954.209	4264.38
954.513	4269.58
954.818	4224.38
955.122	4233.65
955.426	4149.13
955.731	4167.21
956.035	4139.86
956.339	4168.56
956.643	4173.76
956.948	4124.95
957.252	4106.42
957.556	4055.12
957.86	4031.84
958.163	4032.75
958.467	4032.3
958.771	4001.11
959.075	4008.79
959.378	3958.17
959.682	3954.11
959.985	3984.39
960.289	3956.14
960.592	3882.47
960.896	3858.97
961.199	3881.11
961.502	3859.42
961.805	3843.83
962.108	3794.34
962.411	3807.89
962.714	3781.23
963.017	3790.95
963.32	3776.26
963.623	3745.3
963.926	3769.48
964.228	3754.11
964.531	3703.26
964.833	3716.37
965.136	3690.38
965.438	3640.44
965.741	3650.84
966.043	3637.73
966.345	3607.9
966.648	3601.57
966.95	3578.3
967.252	3571.06
967.554	3536.71
967.856	3519.31
968.158	3478.19
968.46	3517.28
968.761	3461.46
969.063	3452.88
969.365	3491.07
969.666	3445.42
969.968	3410.39
970.269	3419.2
970.571	3425.98
970.872	3367.45
971.174	3349.38
971.475	3360
971.776	3325.87
972.077	3291.07
972.378	3286.55
972.679	3330.62
972.98	3260.79
973.281	3253.11
973.582	3281.35
973.883	3268.7
974.183	3185.99
974.484	3192.77
974.785	3209.04
975.085	3163.17
975.386	3180.34
975.686	3158.19
975.986	3133.79
976.287	3112.77
976.587	3112.55
976.887	3117.06
977.187	3103.96
977.487	3113.9
977.787	3050.85
978.087	3037.52
978.387	3055.6
978.687	3019.44
978.987	2990.29
979.286	2997.07
979.586	3000.46
979.885	2968.37
980.185	2948.48
980.484	2958.2
980.784	2879.11
981.083	2930.4
981.382	2882.95
981.682	2864.19
981.981	2888.14
982.28	2882.27
982.579	2852.21
982.878	2844.3
983.177	2805.21
983.475	2784.87
983.774	2786.45
984.073	2749.17
984.372	2754.81
984.67	2745.1
984.969	2746.45
985.267	2749.39
985.566	2747.58
985.864	2694.25
986.162	2721.14
986.461	2684.31
986.759	2696.51
987.057	2642.73
987.355	2635.95
987.653	2629.85
987.951	2624.65
988.249	2642.95
988.547	2602.5
988.844	2608.38
989.142	2597.08
989.44	2562.96
989.737	2546.46
990.035	2535.39
990.332	2551.66
990.63	2510.98
990.927	2510.75
991.224	2479.57
991.521	2463.07
991.819	2499.68
992.116	2463.75
992.413	2447.93
992.71	2429.4
993.006	2415.61
993.303	2412.45
993.6	2404.54
993.897	2358.21
994.193	2391.89
994.49	2369.97
994.787	2368.84
995.083	2333.58
995.379	2340.59
995.676	2360.7
995.972	2334.03
996.268	2306.69
996.565	2267.14
996.861	2280.48
997.157	2261.72
997.453	2242.29
997.749	2229.63
998.044	2264.66
998.34	2209.74
998.636	2201.38
998.932	2220.14
999.227	2159.58
999.523	2176.75
999.818	2146.92
1000.114	2159.8
1000.409	2196.41
1000.704	2113.93
1001	2121.61
1001.295	2124.32
1001.59	2088.84
1001.885	2096.07
1002.18	2090.2
1002.475	2058.56
1002.77	2032.35
1003.065	2006.59
1003.359	2023.99
1003.654	2020.82
1003.949	1979.92
1004.243	2006.81
1004.538	1994.16
1004.832	1988.96
1005.127	1998.22
1005.421	1972.01
1005.715	1935.63
1006.009	1919.13
1006.304	1897.66
1006.598	1901.05
1006.892	1892.92
1007.186	1865.12
1007.48	1902.41
1007.773	1874.84
1008.067	1865.8
1008.361	1830.09
1008.655	1809.3
1008.948	1834.39
1009.242	1803.65
1009.535	1801.39
1009.829	1824.67
1010.122	1811.56
1010.415	1752.13
1010.708	1759.81
1011.001	1757.55
1011.295	1761.62
1011.588	1744.45
1011.881	1726.37
1012.173	1703.32
1012.466	1710.1
1012.759	1685.46
1013.052	1697.67
1013.344	1676.65
1013.637	1678.46
1013.93	1636.88
1014.222	1658.57
1014.514	1625.35
1014.807	1603.88
1015.099	1602.08
1015.391	1611.79
1015.683	1624.9
1015.976	1627.61
1016.268	1582.87
1016.56	1566.15
1016.851	1572.25
1017.143	1577.9
1017.435	1552.59
1017.727	1522.08
1018.018	1527.05
1018.31	1526.15
1018.602	1492.7
1018.893	1471.91
1019.185	1498.35
1019.476	1473.94
1019.767	1456.54
1020.058	1492.93
1020.35	1456.32
1020.641	1430.78
1020.932	1434.17
1021.223	1422.19
1021.514	1382.42
1021.804	1388.75
1022.095	1387.62
1022.386	1385.36
1022.677	1369.77
1022.967	1361.18
1023.258	1332.03
1023.548	1353.95
1023.839	1329.09
1024.129	1383.33
1024.419	1326.15
1024.709	1285.02
1025	1329.99
1025.29	1293.38
1025.58	1283.21
1025.87	1270.56
1026.16	1281.18
1026.449	1248.64
1026.739	1263.55
1027.029	1257.68
1027.319	1258.13
1027.608	1214.97
1027.898	1250.45
1028.187	1223.56
1028.477	1208.19
1028.766	1186.04
1029.055	1187.17
1029.344	1191.92
1029.634	1184.91
1029.923	1169.09
1030.212	1155.08
1030.501	1148.08
1030.79	1142.2
1031.078	1133.16
1031.367	1112.15
1031.656	1126.38
1031.945	1129.32
1032.233	1107.4
1032.522	1109.43
1032.81	1102.88
1033.099	1116.44
1033.387	1074.63
1033.675	1075.08
1033.963	1053.16
1034.251	1075.54
1034.54	1058.59
1034.828	1049.77
1035.116	1060.4
1035.403	1066.27
1035.691	1035.31
1035.979	1037.35
1036.267	1007.29
1036.554	1012.49
1036.842	999.83
1037.129	1014.3
1037.417	993.05
1037.704	983.56
1037.992	967.06
1038.279	941.53
1038.566	991.7
1038.853	991.7
1039.14	991.7
