Data from hue_150_FLMS001491_00038.txt Node
Date: Tue Feb 07 16:53:58 GMT 2017
User: dcchb
Spectrometer: FLMS00149
Trigger mode: 0
Integration Time (sec): 2.000000E-2
Scans to average: 10
Electric dark correction enabled: true
Nonlinearity correction enabled: false
Boxcar width: 0
XAxis mode: Wavelengths
Number of Pixels in Spectrum: 2048
>>>>>Begin Spectral Data<<<<<
341.393	2.23
341.776	2.23
342.16	2.23
342.543	-65.79
342.927	-60.37
343.31	-71.44
343.693	-62.4
344.077	-72.79
344.46	-51.33
344.843	-54.04
345.226	-41.16
345.61	-33.47
345.993	-31.44
346.376	0.65
346.759	28.9
347.142	42.23
347.525	38.16
347.908	44.49
348.291	63.02
348.674	90.36
349.057	110.25
349.44	127.43
349.823	137.37
350.206	162
350.588	186.86
350.971	194.09
351.354	210.81
351.737	236.8
352.119	250.59
352.502	257.37
352.884	275.9
353.267	280.42
353.65	291.94
354.032	306.63
354.414	319.51
354.797	315.22
355.179	310.47
355.562	319.06
355.944	339.4
356.326	317.03
356.709	309.12
357.091	331.04
357.473	353.63
357.855	323.81
358.238	349.34
358.62	334.2
359.002	336.46
359.384	338.72
359.766	337.14
360.148	328.78
360.53	328.55
360.912	319.06
361.294	333.3
361.676	298.27
362.057	321.09
362.439	347.99
362.821	313.86
363.203	321.55
363.584	330.13
363.966	326.29
364.348	322.9
364.729	314.31
365.111	319.51
365.493	309.79
365.874	310.02
366.256	297.59
366.637	310.7
367.019	330.36
367.4	318.61
367.781	318.83
368.163	296.24
368.544	307.31
368.925	287.65
369.306	315.9
369.688	320.42
370.069	307.76
370.45	297.59
370.831	310.25
371.212	310.7
371.593	317.25
371.974	305.27
372.355	304.37
372.736	319.96
373.117	285.16
373.498	311.38
373.879	312.28
374.26	309.79
374.641	302.56
375.021	319.51
375.402	319.96
375.783	320.19
376.163	330.36
376.544	335.1
376.925	326.74
377.305	324.48
377.686	331.94
378.066	307.31
378.447	332.39
378.827	320.64
379.208	335.56
379.588	346.86
379.968	341.88
380.349	336.23
380.729	329
381.109	330.36
381.489	322.9
381.87	322.45
382.25	333.97
382.63	329.68
383.01	340.98
383.39	345.73
383.77	355.44
384.15	335.33
384.53	361.54
384.91	345.95
385.29	351.37
385.67	355.22
386.049	364.71
386.429	343.01
386.809	345.5
387.189	349.79
387.568	333.75
387.948	343.01
388.328	369.23
388.707	340.53
389.087	353.18
389.466	361.77
389.846	366.74
390.225	349.57
390.605	383.69
390.984	367.87
391.363	388.66
391.743	372.39
392.122	361.54
392.501	372.17
392.881	360.19
393.26	353.41
393.639	375.78
394.018	375.1
394.397	416.01
394.776	378.04
395.155	379.4
395.534	380.53
395.913	389.79
396.292	398.38
396.671	389.57
397.05	382.33
397.429	394.76
397.808	398.83
398.186	384.14
398.565	377.81
398.944	384.37
399.323	397.02
399.701	393.86
400.08	413.97
400.458	429.79
400.837	405.16
401.215	413.07
401.594	420.3
401.972	412.62
402.351	399.51
402.729	412.84
403.107	418.94
403.486	425.05
403.864	397.48
404.242	413.52
404.62	423.01
404.999	428.89
405.377	429.11
405.755	437.93
406.133	426.85
406.511	426.63
406.889	418.72
407.267	435.67
407.645	431.37
408.023	446.29
408.401	439.06
408.779	439.96
409.156	446.97
409.534	458.72
409.912	460.07
410.29	474.76
410.667	462.33
411.045	488.32
411.422	473.18
411.8	487.87
412.178	486.74
412.555	463.24
412.933	487.87
413.31	500.07
413.687	501.88
414.065	493.97
414.442	494.65
414.819	501.43
415.197	497.81
415.574	505.5
415.951	510.92
416.328	525.16
416.705	533.97
417.082	513.86
417.46	520.86
417.837	541.2
418.214	533.07
418.591	522.67
418.967	537.36
419.344	530.35
419.721	537.13
420.098	553.86
420.475	536.68
420.852	556.79
421.228	550.01
421.605	570.13
421.982	543.91
422.358	550.24
422.735	549.11
423.111	564.93
423.488	565.15
423.864	581.2
424.241	595.66
424.617	579.17
424.994	596.57
425.37	589.56
425.746	616.23
426.123	606.96
426.499	599.96
426.875	614.64
427.251	621.65
427.627	629.11
428.003	614.64
428.379	637.92
428.756	639.5
429.132	665.49
429.507	655.1
429.883	650.35
430.259	634.76
430.635	688.09
431.011	681.76
431.387	688.54
431.763	696.45
432.138	686.06
432.514	690.12
432.89	677.92
433.265	727.64
433.641	720.18
434.016	731.25
434.392	728.54
434.767	770.57
435.143	744.13
435.518	759.05
435.894	779.39
436.269	740.74
436.644	760.18
437.02	772.38
437.395	787.97
437.77	780.52
438.145	795.43
438.52	795.43
438.895	830.68
439.271	797.92
439.646	817.13
440.021	829.55
440.395	813.74
440.77	841.31
441.145	822.1
441.52	886.73
441.895	852.6
442.27	857.8
442.645	880.85
443.019	881.98
443.394	866.16
443.769	886.5
444.143	867.07
444.518	901.42
444.892	898.25
445.267	923.11
445.641	924.47
446.016	899.84
446.39	935.09
446.764	939.83
447.139	908.87
447.513	947.97
447.887	950.46
448.262	952.49
448.636	980.74
449.01	953.39
449.384	999.95
449.758	966.5
450.132	1012.37
450.506	978.93
450.88	982.09
451.254	1001.08
451.628	996.33
452.002	1027.52
452.376	1044.92
452.75	1052.15
453.123	1060.73
453.497	1052.15
453.871	1083.33
454.244	1070.45
454.618	1087.63
454.992	1115.87
455.365	1110.45
455.739	1130.56
456.112	1168.08
456.486	1168.08
456.859	1150.9
457.232	1172.14
457.606	1196.32
457.979	1211.92
458.352	1213.27
458.725	1222.31
459.099	1248.53
459.472	1290.33
459.845	1290.56
460.218	1284.68
460.591	1297.11
460.964	1297.34
461.337	1346.15
461.71	1364
462.083	1373.95
462.456	1410.78
462.829	1408.07
463.201	1410.56
463.574	1408.97
463.947	1439.03
464.32	1502.08
464.692	1521.97
465.065	1536.2
465.438	1545.69
465.81	1558.12
466.183	1583.66
466.555	1630.21
466.928	1651.68
467.3	1650.1
467.672	1677.89
468.045	1730.1
468.417	1712.92
468.789	1750.43
469.161	1767.61
469.534	1787.95
469.906	1852.58
470.278	1855.97
470.65	1935.29
471.022	1949.53
471.394	1970.54
471.766	2010.31
472.138	2040.82
472.51	2094.15
472.882	2160.37
473.253	2183.87
473.625	2227.48
473.997	2288.73
474.369	2269.74
474.74	2331.21
475.112	2418.44
475.484	2449.62
475.855	2524.43
476.227	2561.49
476.598	2646.23
476.97	2711.99
477.341	2802.61
477.713	2842.83
478.084	2911.53
478.455	3011.64
478.827	3040.8
479.198	3167.57
479.569	3173
479.94	3273.56
480.311	3365.31
480.682	3460.45
481.053	3573.21
481.424	3708.57
481.795	3772.08
482.166	3864.28
482.537	3937.5
482.908	4040.77
483.279	4135.91
483.65	4244.83
484.021	4381.55
484.391	4441.66
484.762	4561.66
485.133	4679.17
485.503	4821.31
485.874	4925.94
486.244	4980.41
486.615	5190.57
486.985	5336.78
487.356	5421.07
487.726	5516.66
488.097	5679.82
488.467	5835.98
488.837	6016.08
489.207	6103.31
489.578	6251.33
489.948	6383.31
490.318	6473.93
490.688	6558.67
491.058	6748.04
491.428	6873.92
491.798	6988.26
492.168	7233.23
492.538	7290.85
492.908	7446.1
493.278	7647.45
493.648	7632.31
494.017	7879.99
494.387	8027.56
494.757	8114.56
495.126	8207.21
495.496	8370.83
495.866	8417.6
496.235	8590.03
496.605	8717.48
496.974	8820.08
497.344	8900.08
497.713	9114.31
498.082	9208.54
498.452	9249.9
498.821	9404.02
499.19	9492.6
499.559	9665.25
499.928	9785.25
500.298	9895.53
500.667	10007.17
501.036	10038.13
501.405	10040.61
501.774	10181.17
502.143	10358.57
502.512	10318.8
502.88	10512.24
503.249	10462.52
503.618	10586.13
503.987	10695.51
504.356	10769.86
504.724	10854.38
505.093	10891.66
505.462	11012.56
505.83	11093.01
506.199	11226.57
506.567	11378.66
506.936	11382.72
507.304	11490.52
507.672	11548.59
508.041	11531.19
508.409	11639.21
508.777	11758.53
509.145	11824.52
509.514	11811.64
509.882	11987.45
510.25	11895.7
510.618	12039.2
510.986	12015.7
511.354	12155.13
511.722	12290.04
512.09	12387.67
512.458	12414.56
512.826	12454.11
513.193	12538.4
513.561	12458.85
513.929	12626.08
514.297	12677.15
514.664	12711.5
515.032	12781.1
515.4	12774.33
515.767	12826.3
516.135	12838.28
516.502	12808.67
516.869	13049.35
517.237	12961.44
517.604	13062.91
517.972	13127.99
518.339	13118.04
518.706	13108.55
519.073	13136.12
519.44	13194.2
519.808	13300.86
520.175	13256.57
520.542	13412.5
520.909	13443.23
521.276	13353.07
521.643	13475.78
522.009	13503.12
522.376	13524.59
522.743	13590.57
523.11	13696.33
523.477	13773.62
523.843	13738.37
524.21	13803.22
524.577	13792.15
524.943	13856.56
525.31	13928.87
525.676	13947.85
526.043	13947.18
526.409	13996.67
526.776	14044.35
527.142	14023.56
527.508	14070.34
527.874	14201.86
528.241	14205.93
528.607	14088.64
528.973	14288.41
529.339	14150.33
529.705	14296.54
530.071	14201.86
530.437	14303.55
530.803	14356.66
531.169	14364.57
531.535	14225.13
531.901	14236.89
532.267	14226.72
532.632	14238.24
532.998	14247.96
533.364	14288.86
533.73	14228.07
534.095	14273.27
534.461	14254.06
534.826	14155.76
535.192	14243.21
535.557	14261.74
535.923	14126.38
536.288	14229.43
536.653	14163.89
537.019	14160.28
537.384	14129.32
537.749	14137.45
538.114	14122.76
538.479	14088.19
538.845	14066.04
539.21	13982.43
539.575	14036.89
539.94	13903.79
540.305	14061.52
540.67	13897.46
541.034	13941.53
541.399	13839.38
541.764	13806.39
542.129	13793.96
542.494	13757.35
542.858	13726.62
543.223	13778.37
543.587	13679.16
543.952	13699.05
544.316	13647.75
544.681	13577.69
545.045	13656.56
545.41	13606.62
545.774	13551.93
546.138	13488.88
546.503	13437.36
546.867	13427.42
547.231	13513.06
547.595	13436.23
547.959	13327.98
548.324	13323.01
548.688	13315.1
549.052	13333.63
549.416	13260.87
549.779	13249.57
550.143	13259.06
550.507	13224.71
550.871	13146.97
551.235	13065.62
551.599	13177.93
551.962	13136.35
552.326	13128.21
552.689	13114.88
553.053	13052.74
553.417	13031.49
553.78	13052.74
554.143	12991.27
554.507	12951.72
554.87	12996.47
555.234	13083.7
555.597	12949.01
555.96	12898.62
556.323	12963.92
556.686	12905.85
557.05	12929.58
557.413	12949.46
557.776	12827.21
558.139	12927.54
558.502	12893.19
558.865	12835.79
559.228	13000.31
559.59	12954.43
559.953	12968.44
560.316	12917.82
560.679	12935.9
561.041	12920.31
561.404	12927.09
561.767	12943.59
562.129	12899.52
562.492	12978.84
562.854	12949.91
563.217	12920.08
563.579	12968.22
563.941	13025.39
564.304	13022.45
564.666	13002.79
565.028	12999.63
565.39	12992.17
565.753	13077.14
566.115	13099.97
566.477	13050.25
566.839	12993.08
567.201	13151.26
567.563	13064.26
567.925	13163.69
568.287	13174.09
568.648	13135.9
569.01	13188.1
569.372	13251.83
569.734	13134.54
570.095	13170.25
570.457	13289.34
570.819	13238.49
571.18	13213.86
571.542	13342.67
571.903	13334.76
572.265	13277.59
572.626	13323.69
572.987	13287.31
573.349	13379.96
573.71	13311.94
574.071	13405.72
574.432	13361.2
574.794	13429.22
575.155	13418.15
575.516	13294.99
575.877	13416.79
576.238	13397.81
576.599	13491.82
576.96	13371.82
577.32	13380.86
577.681	13408.88
578.042	13399.17
578.403	13449.11
578.763	13435.55
579.124	13432.16
579.485	13482.1
579.845	13511.93
580.206	13492.5
580.566	13457.7
580.927	13500.63
581.287	13570.91
581.648	13475.32
582.008	13507.41
582.368	13493.63
582.728	13477.36
583.089	13429
583.449	13405.04
583.809	13372.05
584.169	13441.88
584.529	13396.91
584.889	13483.69
585.249	13384.25
585.609	13332.73
585.969	13447.98
586.329	13344.25
586.688	13393.52
587.048	13384.03
587.408	13306.29
587.768	13383.12
588.127	13354.87
588.487	13270.13
588.846	13393.52
589.206	13349.9
589.565	13274.65
589.925	13358.26
590.284	13361.88
590.643	13361.2
591.003	13280.75
591.362	13311.71
591.721	13282.33
592.08	13257.7
592.44	13306.29
592.799	13295.44
593.158	13254.99
593.517	13245.27
593.876	13287.31
594.235	13250.02
594.593	13237.36
594.952	13296.12
595.311	13190.13
595.67	13235.33
596.029	13324.14
596.387	13300.86
596.746	13305.84
597.104	13249.34
597.463	13246.63
597.822	13315.78
598.18	13243.24
598.538	13162.79
598.897	13177.25
599.255	13092.06
599.613	13287.53
599.972	13163.02
600.33	13232.62
600.688	13134.54
601.046	13195.11
601.404	13294.54
601.762	13191.49
602.12	13332.95
602.478	13248.66
602.836	13286.18
603.194	13148.33
603.552	13170.92
603.91	13202.79
604.268	13125.95
604.625	13201.43
604.983	13271.26
605.341	13205.95
605.698	13293.63
606.056	13221.09
606.413	13245.95
606.771	13285.27
607.128	13222.9
607.485	13199.62
607.843	13160.53
608.2	13281.43
608.557	13269.91
608.914	13204.6
609.272	13386.74
609.629	13284.59
609.986	13298.61
610.343	13341.77
610.7	13479.62
611.057	13380.18
611.414	13411.14
611.771	13345.38
612.127	13405.95
612.484	13416.79
612.841	13402.33
613.198	13334.76
613.554	13328.89
613.911	13447.3
614.267	13496.34
614.624	13429
614.98	13511.03
615.337	13576.34
615.693	13484.81
616.05	13513.97
616.406	13662.66
616.762	13503.12
617.118	13545.38
617.475	13502.67
617.831	13530.46
618.187	13507.64
618.543	13612.95
618.899	13641.87
619.255	13593.51
619.611	13583.34
619.967	13592.83
620.323	13640.97
620.678	13563.91
621.034	13573.63
621.39	13494.08
621.746	13558.71
622.101	13744.47
622.457	13549.22
622.812	13636.22
623.168	13658.82
623.523	13637.81
623.879	13638.26
624.234	13548.09
624.589	13664.47
624.945	13607.98
625.3	13639.84
625.655	13646.39
626.01	13665.38
626.365	13667.41
626.72	13593.51
627.075	13589.67
627.43	13608.43
627.785	13584.93
628.14	13538.6
628.495	13619.5
628.85	13667.18
629.205	13510.58
629.559	13534.31
629.914	13560.75
630.269	13585.15
630.623	13541.54
630.978	13523.01
631.332	13467.19
631.687	13556.45
632.041	13466.28
632.396	13514.19
632.75	13421.09
633.104	13457.25
633.459	13411.14
633.813	13384.03
634.167	13370.47
634.521	13474.42
634.875	13433.52
635.229	13347.19
635.583	13263.8
635.937	13335.21
636.291	13325.5
636.645	13257.48
636.999	13261.54
637.352	13263.58
637.706	13156.01
638.06	13229.91
638.413	13236.69
638.767	13175.9
639.121	13206.4
639.474	13244.37
639.828	13122.11
640.181	13168.44
640.534	13193.07
640.888	13122.79
641.241	13013.87
641.594	13056.8
641.947	13112.85
642.301	13027.43
642.654	13080.08
643.007	13099.97
643.36	13043.7
643.713	13066.97
644.066	13140.42
644.419	12961.89
644.771	12977.26
645.124	12908.11
645.477	12878.5
645.83	12769.35
646.182	12662.92
646.535	12580.88
646.888	12677.15
647.24	12567.32
647.593	12611.17
647.945	12662.69
648.298	12565.74
648.65	12528.23
649.002	12498.17
649.355	12594.67
649.707	12562.81
650.059	12623.82
650.411	12800.31
650.763	12827.43
651.115	12890.48
651.467	12853.87
651.819	12817.94
652.171	12880.09
652.523	12819.75
652.875	12838.96
653.227	12817.49
653.578	12825.85
653.93	12870.82
654.282	12781.33
654.633	12806.41
654.985	12801.22
655.337	12784.27
655.688	12804.15
656.039	12885.28
656.391	12826.53
656.742	12731.84
657.094	12812.29
657.445	12844.61
657.796	12781.56
658.147	12775.23
658.498	12770.48
658.849	12847.54
659.2	12853.19
659.551	12798.28
659.902	12825.85
660.253	12822.01
660.604	12836.92
660.955	12796.25
661.306	12920.99
661.656	12805.28
662.007	12860.2
662.358	12880.09
662.708	12821.78
663.059	12908.78
663.409	12760.31
663.76	12843.02
664.11	12857.71
664.461	12920.31
664.811	12863.14
665.161	12910.82
665.511	12838.05
665.862	12937.48
666.212	12864.72
666.562	12925.73
666.912	12855
667.262	12836.02
667.612	12847.54
667.962	12889.12
668.312	12906.53
668.662	12975.22
669.011	12830.82
669.361	12819.52
669.711	12826.98
670.06	12877.6
670.41	12863.59
670.76	12772.29
671.109	12899.97
671.459	12903.14
671.808	12847.54
672.157	12784.27
672.507	12812.06
672.856	12718.06
673.205	12768.9
673.554	12868.56
673.904	12728.68
674.253	12773.42
674.602	12729.35
674.951	12573.43
675.3	12470.15
675.649	12630.37
675.998	12702.91
676.346	12607.78
676.695	12725.96
677.044	12594.67
677.393	12666.76
677.741	12632.63
678.09	12618.17
678.438	12625.63
678.787	12598.28
679.135	12559.87
679.484	12524.61
679.832	12598.51
680.181	12513.32
680.529	12511.51
680.877	12487.33
681.225	12438.06
681.573	12534.11
681.922	12432.19
682.27	12420.89
682.618	12318.07
682.966	12408.23
683.314	12403.26
683.661	12334.34
684.009	12251.63
684.357	12204.62
684.705	12213.66
685.053	12289.14
685.4	12201.01
685.748	12104.96
686.095	12108.58
686.443	12082.37
686.79	12105.42
687.138	12103.38
687.485	12124.17
687.832	12049.37
688.18	12051.63
688.527	11956.27
688.874	12030.62
689.221	11888.47
689.568	11838.3
689.915	11900.68
690.262	11787.68
690.609	11825.65
690.956	11709.49
691.303	11702.71
691.65	11682.6
691.997	11655.03
692.344	11544.98
692.69	11562.61
693.037	11551.76
693.383	11448.48
693.73	11446.22
694.077	11391.54
694.423	11347.92
694.769	11320.13
695.116	11307.02
695.462	11360.58
695.808	11227.02
696.155	11260.01
696.501	11132.56
696.847	11130.53
697.193	11024.31
697.539	11018.21
697.885	10965.11
698.231	10906.8
698.577	10981.38
698.923	10899.57
699.269	10936.41
699.614	10757.88
699.96	10741.38
700.306	10792.23
700.651	10720.37
700.997	10634.49
701.342	10663.87
701.688	10651.67
702.033	10618.68
702.379	10532.58
702.724	10518.57
703.069	10550.65
703.415	10420.49
703.76	10480.15
704.105	10407.16
704.45	10375.97
704.795	10262.53
705.14	10286.71
705.485	10182.75
705.83	10212.13
706.175	10158.57
706.52	10130.33
706.865	10061.85
707.209	10077.67
707.554	10035.87
707.899	10087.39
708.243	9963.1
708.588	9932.59
708.932	9934.63
709.277	9868.64
709.621	9854.18
709.966	9826.83
710.31	9826.38
710.654	9707.51
710.998	9739.83
711.342	9796.32
711.687	9690.34
712.031	9730.56
712.375	9701.19
712.719	9660.51
713.063	9604.01
713.407	9670.45
713.75	9553.39
714.094	9555.88
714.438	9587.29
714.782	9620.96
715.125	9560.85
715.469	9576.9
715.812	9510
716.156	9463.45
716.499	9488.08
716.843	9461.42
717.186	9477.01
717.53	9416.9
717.873	9442.66
718.216	9423.23
718.559	9381.65
718.902	9298.94
719.246	9291.93
719.589	9327.86
719.932	9301.2
720.275	9284.7
720.617	9314.08
720.96	9268.43
721.303	9271.14
721.646	9219.84
721.989	9131.94
722.331	9199.96
722.674	9176.23
723.016	9216
723.359	9167.87
723.701	9171.03
724.044	9156.12
724.386	9074.76
724.729	9189.33
725.071	9121.31
725.413	9111.82
725.755	9085.38
726.097	9085.83
726.439	9075.44
726.782	9061.65
727.124	9083.57
727.465	9101.2
727.807	9093.97
728.149	9023.69
728.491	9027.76
728.833	9060.07
729.175	8962.22
729.516	9029.79
729.858	9031.37
730.199	9062.11
730.541	9030.69
730.882	9012.16
731.224	9079.73
731.565	8935.1
731.906	9024.82
732.248	8974.43
732.589	8900.53
732.93	8943.92
733.271	8940.75
733.612	8966.29
733.953	9005.16
734.294	8992.05
734.635	8926.29
734.976	8909.12
735.317	8893.07
735.658	8912.96
735.999	8990.24
736.339	8944.82
736.68	8960.19
737.021	8947.76
737.361	8973.07
737.702	8966.06
738.042	9006.29
738.383	8954.99
738.723	9013.07
739.063	8954.54
739.404	9041.54
739.744	9009.9
740.084	8955.44
740.424	9017.59
740.764	9014.2
741.104	9049
741.444	9064.82
741.784	9056.68
742.124	9102.33
742.464	9105.04
742.804	9106.62
743.143	9092.39
743.483	9186.4
743.823	9131.71
744.162	9116.79
744.502	9196.57
744.841	9146.62
745.181	9315.43
745.52	9332.38
745.86	9336.68
746.199	9376
746.538	9372.15
746.877	9477.01
747.216	9587.52
747.556	9572.6
747.895	9545.03
748.234	9604.46
748.573	9598.82
748.911	9750.45
749.25	9790.9
749.589	9807.62
749.928	9873.16
750.267	9942.54
750.605	9984.79
750.944	10034.51
751.283	10075.41
751.621	10172.81
751.96	10283.32
752.298	10356.76
752.636	10541.39
752.975	10523.76
753.313	10599.24
753.651	10758.56
753.989	10808.73
754.327	10889.4
754.666	10976.86
755.004	11078.32
755.342	11231.99
755.679	11321.93
756.017	11441.93
756.355	11641.93
756.693	11644.64
757.031	11834.24
757.368	11933.44
757.706	12093.89
758.044	12235.58
758.381	12400.55
758.719	12577.27
759.056	12802.8
759.394	12850.03
759.731	12945.85
760.068	13149.23
760.405	13234.43
760.743	13398.26
761.08	13596.22
761.417	13711.02
761.754	13861.3
762.091	13989.66
762.428	14230.33
762.765	14319.14
763.102	14603.2
763.438	14675.07
763.775	14779.24
764.112	14955.96
764.449	15169.74
764.785	15282.28
765.122	15321.6
765.458	15564.76
765.795	15620.13
766.131	15783.29
766.467	15944.41
766.804	16100.57
767.14	16174.69
767.476	16352.76
767.812	16449.48
768.148	16616.03
768.485	16639.99
768.821	16813.77
769.157	16928.11
769.492	17096.7
769.828	17207.2
770.164	17283.59
770.5	17349.35
770.836	17507.76
771.171	17541.66
771.507	17618.72
771.842	17630.47
772.178	17760.86
772.513	17857.58
772.849	17974.19
773.184	17904.81
773.519	18117.24
773.855	18127.86
774.19	18128.76
774.525	18264.35
774.86	18322.43
775.195	18352.48
775.53	18466.15
775.865	18443.55
776.2	18484.01
776.535	18406.49
776.87	18617.56
777.205	18474.29
777.539	18565.59
777.874	18681.51
778.209	18576.66
778.543	18618.69
778.878	18634.51
779.212	18749.99
779.547	18639.03
779.881	18803.77
780.215	18673.15
780.55	18763.09
780.884	18731.91
781.218	18732.13
781.552	18755.41
781.886	18732.81
782.22	18616.21
782.554	18763.77
782.888	18594.96
783.222	18585.25
783.556	18575.3
783.889	18619.6
784.223	18530.56
784.557	18589.09
784.89	18686.94
785.224	18532.14
785.557	18457.57
785.891	18531.69
786.224	18578.01
786.558	18538.47
786.891	18404.91
787.224	18430.45
787.557	18320.39
787.891	18421.41
788.224	18412.14
788.557	18377.12
788.89	18441.52
789.223	18370.11
789.556	18298.47
789.888	18329.66
790.221	18267.51
790.554	18121.3
790.887	18178.93
791.219	18031.36
791.552	18048.76
791.884	18020.06
792.217	17976.9
792.549	18021.42
792.882	17927.64
793.214	17883.57
793.546	17884.47
793.879	17877.02
794.211	17676.12
794.543	17781.43
794.875	17785.94
795.207	17816.23
795.539	17740.3
795.871	17741.2
796.203	17632.73
796.535	17455.78
796.867	17497.82
797.198	17429.8
797.53	17518.61
797.862	17406.97
798.193	17526.52
798.525	17360.19
798.856	17300.08
799.188	17133.31
799.519	17101.67
799.85	16964.72
800.182	16977.83
800.513	17116.58
800.844	16945.97
801.175	17001.11
801.506	17118.62
801.837	16913.88
802.168	16846.76
802.499	16802.24
802.83	16778.74
803.161	16746.2
803.491	16730.38
803.822	16769.93
804.153	16638.86
804.483	16584.39
804.814	16450.16
805.145	16458.3
805.475	16495.81
805.805	16427.79
806.136	16434.57
806.466	16408.58
806.796	16364.29
807.126	16296.04
807.457	16204.29
807.787	16231.41
808.117	16259.21
808.447	16180.11
808.777	16200
809.107	16068.7
809.436	16039.1
809.766	16021.25
810.096	15910.51
810.426	15842.95
810.755	16015.82
811.085	15989.83
811.414	15906.22
811.744	15829.16
812.073	15797.3
812.403	15688.82
812.732	15718.88
813.061	15608.37
813.39	15595.72
813.719	15507.36
814.049	15597.53
814.378	15597.08
814.707	15500.58
815.036	15581.03
815.365	15559.11
815.693	15291.55
816.022	15298.78
816.351	15345.33
816.68	15229.4
817.008	15281.6
817.337	15075.73
817.665	15170.65
817.994	15081.16
818.322	15253.58
818.651	15090.2
818.979	15058.56
819.307	15069.86
819.636	14918.45
819.964	15013.81
820.292	15024.21
820.62	15002.52
820.948	14947.83
821.276	14978.11
821.604	14956.87
821.932	14942.86
822.259	14961.16
822.587	14969.52
822.915	14932.23
823.243	14923.65
823.57	14936.08
823.898	15023.98
824.225	14756.65
824.553	14855.4
824.88	14813.59
825.207	14931.33
825.535	14957.09
825.862	14993.93
826.189	14876.42
826.516	14895.17
826.843	14940.6
827.17	14979.01
827.497	14891.33
827.824	14960.93
828.151	14972.69
828.478	14978.56
828.805	15007.49
829.131	14965.91
829.458	14905.57
829.785	14810.43
830.111	14924.55
830.438	15011.1
830.764	14991.67
831.09	14979.92
831.417	14897.89
831.743	14981.5
832.069	14859.47
832.395	14886.59
832.722	14940.6
833.048	14846.59
833.374	14832.8
833.7	14759.81
834.026	14862.41
834.351	14904.44
834.677	14804.78
835.003	14799.58
835.329	14780.6
835.654	14784.67
835.98	14753.48
836.306	14800.03
836.631	14718.45
836.956	14690.66
837.282	14786.25
837.607	14627.16
837.932	14681.17
838.258	14647.95
838.583	14691.79
838.908	14505.58
839.233	14556.65
839.558	14477.33
839.883	14489.76
840.208	14457.67
840.533	14488.18
840.858	14500.38
841.182	14400.95
841.507	14396.66
841.832	14330.22
842.156	14346.26
842.481	14345.81
842.805	14332.02
843.13	14236.89
843.454	14254.06
843.778	14170.22
844.103	14158.24
844.427	14125.02
844.751	14133.39
845.075	14054.74
845.399	13969.32
845.723	13998.7
846.047	13921.64
846.371	13791.25
846.695	13800.06
847.019	13712.15
847.343	13660.63
847.666	13650.23
847.99	13522.55
848.313	13586.28
848.637	13468.32
848.96	13413.18
849.284	13389.45
849.607	13350.81
849.931	13165.73
850.254	13258.38
850.577	13083.02
850.9	13079.85
851.223	12950.14
851.546	13032.17
851.869	12889.35
852.192	12984.04
852.515	12779.52
852.838	12763.48
853.161	12822.46
853.483	12661.33
853.806	12632.18
854.129	12625.85
854.451	12602.58
854.774	12479.87
855.096	12524.61
855.419	12452.75
855.741	12423.83
856.063	12394.67
856.385	12339.31
856.708	12246.43
857.03	12285.52
857.352	12297.05
857.674	12226.77
857.996	12182.7
858.318	12110.39
858.64	12082.14
858.961	12023.38
859.283	12075.59
859.605	11995.59
859.926	11993.55
860.248	11937.06
860.57	11928.47
860.891	11875.59
861.212	11820.68
861.534	11791.3
861.855	11751.98
862.176	11790.4
862.498	11762.15
862.819	11697.29
863.14	11746.78
863.461	11647.12
863.782	11644.19
864.103	11617.07
864.424	11621.14
864.745	11574.58
865.065	11562.83
865.386	11536.39
865.707	11515.15
866.027	11430.86
866.348	11456.85
866.668	11473.79
866.989	11427.02
867.309	11332.33
867.63	11382.05
867.95	11348.37
868.27	11298.43
868.59	11350.86
868.91	11344.08
869.23	11215.04
869.55	11267.25
869.87	11287.81
870.19	11204.42
870.51	11187.25
870.83	11253.24
871.15	11149.51
871.469	11171.88
871.789	11235.38
872.109	11178.89
872.428	11033.58
872.748	11088.72
873.067	11082.62
873.386	11022.05
873.706	11067.93
874.025	10968.5
874.344	10996.07
874.663	10993.13
874.982	10998.55
875.301	11021.6
875.62	10938.44
875.939	10959.91
876.258	10931.44
876.577	10896.41
876.896	10847.82
877.214	10773.7
877.533	10885.11
877.852	10787.71
878.17	10826.13
878.489	10836.75
878.807	10805.79
879.125	10732.34
879.444	10832.68
879.762	10664.32
880.08	10748.62
880.398	10653.02
880.716	10723.76
881.034	10653.93
881.352	10651.67
881.67	10596.53
881.988	10594.27
882.306	10542.29
882.624	10517.66
882.941	10483.99
883.259	10444.67
883.577	10476.08
883.894	10423.2
884.212	10420.04
884.529	10368.51
884.846	10365.35
885.164	10345.46
885.481	10208.52
885.798	10288.51
886.115	10241.28
886.432	10241.51
886.75	10189.53
887.067	10152.02
887.383	10156.31
887.7	10207.84
888.017	10093.04
888.334	10135.3
888.651	10060.95
888.967	10098.69
889.284	9973.49
889.6	9957.9
889.917	9914.29
890.233	10001.06
890.55	9877.68
890.866	9811.01
891.182	9866.6
891.498	9820.73
891.815	9779.6
892.131	9743.9
892.447	9661.19
892.763	9661.64
893.079	9626.16
893.395	9635.88
893.71	9563.56
894.026	9589.1
894.342	9421.87
894.657	9475.65
894.973	9481.08
895.289	9495.99
895.604	9399.95
895.92	9397.92
896.235	9314.08
896.55	9296
896.865	9284.25
897.181	9225.04
897.496	9257.81
897.811	9227.07
898.126	9167.41
898.441	9152.27
898.756	9090.58
899.071	9034.54
899.386	9095.78
899.7	9007.19
900.015	8953.18
900.33	8906.4
900.644	8896.46
900.959	8912.28
901.273	8898.04
901.588	8868.21
901.902	8772.62
902.216	8710.25
902.531	8726.3
902.845	8714.32
903.159	8663.02
903.473	8574.66
903.787	8569.92
904.101	8542.12
904.415	8512.06
904.729	8477.26
905.042	8464.16
905.356	8396.36
905.67	8375.8
905.984	8418.73
906.297	8349.13
906.611	8257.16
906.924	8258.29
907.237	8237.04
907.551	8216.7
907.864	8185.75
908.177	8141.9
908.491	8065.07
908.804	8041.34
909.117	8005.41
909.43	7932.87
909.743	7952.76
910.056	7899.65
910.368	7891.97
910.681	7826.88
910.994	7825.08
911.307	7821.91
911.619	7742.59
911.932	7792.08
912.244	7702.82
912.557	7695.81
912.869	7711.63
913.181	7594.57
913.494	7515.48
913.806	7595.7
914.118	7464.18
914.43	7496.5
914.742	7449.95
915.054	7393.9
915.366	7403.39
915.678	7358.2
915.99	7327.24
916.302	7275.03
916.613	7263.06
916.925	7233.68
917.236	7228.93
917.548	7184.64
917.859	7185.77
918.171	7150.07
918.482	7137.19
918.794	7131.08
919.105	7084.76
919.416	7003.86
919.727	6985.55
920.038	6979.9
920.349	6899.68
920.66	6883.18
920.971	6868.72
921.282	6917.3
921.593	6833.46
921.903	6772.45
922.214	6794.82
922.525	6712.56
922.835	6741.72
923.146	6708.95
923.456	6667.59
923.767	6609.97
924.077	6629.4
924.387	6598.89
924.697	6518.22
925.008	6513.47
925.318	6521.83
925.628	6501.04
925.938	6429.86
926.248	6382.18
926.558	6400.71
926.867	6386.24
927.177	6343.08
927.487	6275.74
927.796	6244.78
928.106	6290.43
928.416	6224.89
928.725	6211.79
929.034	6151.67
929.344	6143.77
929.653	6105.12
929.962	6046.82
930.271	6014.05
930.581	6026.25
930.89	5959.59
931.199	5936.99
931.508	5922.08
931.817	5953.04
932.125	5896.09
932.434	5893.6
932.743	5829.87
933.051	5829.87
933.36	5805.02
933.669	5739.71
933.977	5808.86
934.286	5827.84
934.594	5737.67
934.902	5708.97
935.21	5746.04
935.519	5696.55
935.827	5647.73
936.135	5654.74
936.443	5561.41
936.751	5525.25
937.059	5532.93
937.367	5530.45
937.674	5541.52
937.982	5453.16
938.29	5406.61
938.597	5427.4
938.905	5401.19
939.213	5354.86
939.52	5304.01
939.827	5315.76
940.135	5328.19
940.442	5289.1
940.749	5253.84
941.056	5282.32
941.363	5159.38
941.67	5241.87
941.977	5113.06
942.284	5119.39
942.591	5153.51
942.898	5116.67
943.205	5083.23
943.511	5053.85
943.818	5068.09
944.125	5005.26
944.431	4979.28
944.738	4963.68
945.044	4973.85
945.35	4914.87
945.657	4910.58
945.963	4912.16
946.269	4819.73
946.575	4869.9
946.881	4797.59
947.187	4817.92
947.493	4770.47
947.799	4764.82
948.105	4744.71
948.41	4713.29
948.716	4701.09
949.022	4702.45
949.327	4705.16
949.633	4614.09
949.938	4605.05
950.244	4642.34
950.549	4539.29
950.854	4582.22
951.16	4549.91
951.465	4531.83
951.77	4547.42
952.075	4485.05
952.38	4488.67
952.685	4446.18
952.99	4433.98
953.294	4379.07
953.599	4396.01
953.904	4367.31
954.209	4333.87
954.513	4367.99
954.818	4327.54
955.122	4302.91
955.426	4269.24
955.731	4223.36
956.035	4271.5
956.339	4203.03
956.643	4208.9
956.948	4125.51
957.252	4194.89
957.556	4157.38
957.86	4082.8
958.163	4127.09
958.467	4093.42
958.771	4081.9
959.075	4115.8
959.378	4070.83
959.682	4014.78
959.985	4024.5
960.289	4034.67
960.592	3992.41
960.896	3951.05
961.199	3947.89
961.502	3921.68
961.805	3930.49
962.108	3928.23
962.411	3869.47
962.714	3877.16
963.017	3866.31
963.32	3835.8
963.623	3809.14
963.926	3802.81
964.228	3787.44
964.531	3761
964.833	3761.23
965.136	3706.77
965.438	3720.55
965.741	3704.73
966.043	3665.41
966.345	3664.28
966.648	3629.25
966.95	3630.16
967.252	3605.98
967.554	3626.77
967.856	3614.34
968.158	3552.65
968.46	3537.73
968.761	3508.35
969.063	3494.8
969.365	3527.11
969.666	3528.01
969.968	3505.64
970.269	3457.28
970.571	3453.67
970.872	3475.59
971.174	3408.92
971.475	3401.92
971.776	3356.49
972.077	3375.48
972.378	3333.67
972.679	3344.74
972.98	3336.16
973.281	3308.36
973.582	3319.21
973.883	3344.52
974.183	3303.16
974.484	3245.99
974.785	3243.28
975.085	3227.01
975.386	3231.75
975.686	3211.19
975.986	3169.38
976.287	3175.26
976.587	3197.18
976.887	3172.54
977.187	3172.54
977.487	3150.4
977.787	3103.17
978.087	3090.29
978.387	3056.84
978.687	3082.83
978.987	2995.6
979.286	3011.42
979.586	3019.1
979.885	3023.62
980.185	3021.59
980.484	2965.09
980.784	2987.24
981.083	2941.36
981.382	2962.15
981.682	2928.93
981.981	2895.94
982.28	2953.57
982.579	2895.04
982.878	2889.39
983.177	2872.21
983.475	2905.66
983.774	2901.14
984.073	2840.8
984.372	2836.28
984.67	2802.16
984.969	2812.1
985.267	2786.79
985.566	2801.93
985.864	2812.33
986.162	2760.58
986.461	2737.98
986.759	2714.7
987.057	2679.9
987.355	2693.91
987.653	2697.08
987.951	2667.7
988.249	2652.11
988.547	2676.74
988.844	2634.93
989.142	2647.13
989.44	2619.34
989.737	2599.23
990.035	2554.71
990.332	2555.38
990.63	2552
990.927	2547.93
991.224	2547.7
991.521	2487.82
991.819	2503.18
992.116	2491.88
992.413	2479.68
992.71	2502.96
993.006	2475.16
993.303	2450.53
993.6	2461.6
993.897	2436.29
994.193	2405.33
994.49	2428.83
994.787	2415.05
995.083	2373.69
995.379	2367.59
995.676	2361.49
995.972	2366.92
996.268	2295.96
996.565	2343.64
996.861	2342.74
997.157	2306.13
997.453	2296.41
997.749	2273.36
998.044	2234.94
998.34	2257.54
998.636	2236.52
998.932	2208.73
999.227	2194.49
999.523	2206.02
999.818	2161.04
1000.114	2198.56
1000.409	2135.06
1000.704	2179.8
1001	2153.81
1001.295	2154.04
1001.59	2131.89
1001.885	2142.06
1002.18	2109.52
1002.475	2063.65
1002.77	2028.62
1003.065	2083.76
1003.359	2092.8
1003.654	2058.9
1003.949	2032.23
1004.243	2045.79
1004.538	2031.33
1004.832	2019.81
1005.127	1987.49
1005.421	1975.51
1005.715	1958.11
1006.009	1952.69
1006.304	1971.22
1006.598	1934.84
1006.892	1950.65
1007.186	1949.07
1007.48	1925.34
1007.773	1902.75
1008.067	1878.34
1008.361	1859.36
1008.655	1853.26
1008.948	1847.61
1009.242	1857.55
1009.535	1823.65
1009.829	1818.91
1010.122	1804.22
1010.415	1773.94
1010.708	1791.11
1011.001	1778
1011.295	1788.17
1011.588	1779.81
1011.881	1761.51
1012.173	1712.7
1012.466	1703.88
1012.759	1706.82
1013.052	1711.34
1013.344	1699.59
1013.637	1657.33
1013.93	1692.58
1014.222	1674.05
1014.514	1629.08
1014.807	1651.45
1015.099	1642.64
1015.391	1612.58
1015.683	1628.86
1015.976	1629.53
1016.268	1607.39
1016.56	1581.85
1016.851	1592.7
1017.143	1581.17
1017.435	1554.28
1017.727	1597.44
1018.018	1553.38
1018.31	1554.51
1018.602	1521.29
1018.893	1505.47
1019.185	1536.2
1019.476	1506.37
1019.767	1498.92
1020.058	1508.41
1020.35	1441.97
1020.641	1474.51
1020.932	1460.05
1021.223	1420.05
1021.514	1450.56
1021.804	1420.73
1022.095	1392.48
1022.386	1388.41
1022.677	1407.62
1022.967	1396.55
1023.258	1352.93
1023.548	1351.8
1023.839	1354.96
1024.129	1346.6
1024.419	1347.96
1024.709	1312.71
1025	1297.34
1025.29	1323.78
1025.58	1309.09
1025.87	1270.9
1026.16	1282.42
1026.449	1272.93
1026.739	1257.11
1027.029	1269.99
1027.319	1254.18
1027.608	1266.61
1027.898	1232.48
1028.187	1252.37
1028.477	1240.62
1028.766	1219.15
1029.055	1171.01
1029.344	1204.46
1029.634	1173.5
1029.923	1200.62
1030.212	1189.54
1030.501	1153.84
1030.79	1141.41
1031.078	1149.09
1031.367	1138.47
1031.656	1134.18
1031.945	1145.7
1032.233	1108.42
1032.522	1109.32
1032.81	1109.55
1033.099	1070
1033.387	1113.84
1033.675	1073.62
1033.963	1061.64
1034.251	1091.92
1034.54	1071.58
1034.828	1054.18
1035.116	1048.31
1035.403	1039.49
1035.691	1057.57
1035.979	1047.18
1036.267	1006.72
1036.554	1012.37
1036.842	1007.63
1037.129	997.91
1037.417	1013.96
1037.704	995.2
1037.992	980.74
1038.279	1033.84
1038.566	973.28
1038.853	973.28
1039.14	973.28
