Data from hue_240_FLMS001491_00074.txt Node
Date: Tue Feb 07 16:35:56 GMT 2017
User: dcchb
Spectrometer: FLMS00149
Trigger mode: 0
Integration Time (sec): 2.000000E-2
Scans to average: 10
Electric dark correction enabled: true
Nonlinearity correction enabled: false
Boxcar width: 0
XAxis mode: Wavelengths
Number of Pixels in Spectrum: 2048
>>>>>Begin Spectral Data<<<<<
341.393	-7.74
341.776	-7.74
342.16	-7.74
342.543	-45.03
342.927	-55.2
343.31	-73.95
343.693	-61.52
344.077	-80.05
344.46	-60.62
344.843	-42.99
345.226	-43.22
345.61	-27.85
345.993	-11.36
346.376	-4.8
346.759	11.69
347.142	17.34
347.525	37.91
347.908	53.73
348.291	65.25
348.674	115.65
349.057	104.8
349.44	123.56
349.823	146.38
350.206	182.76
350.588	199.26
350.971	177.57
351.354	220.05
351.737	235.42
352.119	238.13
352.502	260.95
352.884	275.64
353.267	259.15
353.65	280.61
354.032	285.13
354.414	297.56
354.797	298.01
355.179	326.71
355.562	321.74
355.944	331.23
356.326	334.17
356.709	335.98
357.091	320.61
357.473	331.46
357.855	342.76
358.238	349.99
358.62	319.48
359.002	337.56
359.384	348.63
359.766	329.88
360.148	335.53
360.53	334.62
360.912	335.75
361.294	308.86
361.676	344.34
362.057	328.97
362.439	332.82
362.821	327.39
363.203	323.1
363.584	316.55
363.966	316.32
364.348	321.29
364.729	285.13
365.111	299.14
365.493	323.1
365.874	302.99
366.256	324.23
366.637	334.17
367.019	320.39
367.4	316.77
367.781	306.15
368.163	307.05
368.544	306.83
368.925	289.88
369.306	307.51
369.688	313.83
370.069	291.46
370.45	304.79
370.831	306.15
371.212	290.56
371.593	291.24
371.974	294.4
372.355	310.44
372.736	297.11
373.117	309.99
373.498	301.63
373.879	313.38
374.26	296.88
374.641	313.61
375.021	322.19
375.402	318.13
375.783	310.44
376.163	305.7
376.544	300.95
376.925	313.83
377.305	324.23
377.686	331.91
378.066	319.03
378.447	334.85
378.827	322.42
379.208	317.45
379.588	307.51
379.968	322.42
380.349	329.2
380.729	324.68
381.109	305.7
381.489	330.33
381.87	325.36
382.25	348.63
382.63	325.13
383.01	322.65
383.39	324.91
383.77	334.17
384.15	364.45
384.53	333.04
384.91	343.21
385.29	339.82
385.67	357.22
386.049	353.83
386.429	340.73
386.809	346.6
387.189	338.24
387.568	347.96
387.948	336.21
388.328	360.84
388.707	351.35
389.087	372.14
389.466	344.57
389.846	341.63
390.225	366.94
390.605	371.69
390.984	352.02
391.363	347.28
391.743	351.57
392.122	366.26
392.501	364.68
392.881	368.97
393.26	368.07
393.639	361.52
394.018	357.45
394.397	356.54
394.776	407.84
395.155	372.36
395.534	385.02
395.913	371.23
396.292	406.94
396.671	376.2
397.05	403.55
397.429	385.02
397.808	403.32
398.186	404
398.565	393.61
398.944	397.45
399.323	393.38
399.701	428.41
400.08	392.7
400.458	403.55
400.837	429.31
401.215	413.04
401.594	390.67
401.972	419.14
402.351	408.52
402.729	424.79
403.107	414.4
403.486	425.92
403.864	430.89
404.242	436.77
404.62	454.17
404.999	446.49
405.377	432.47
405.755	432.02
406.133	434.96
406.511	462.98
406.889	457.56
407.267	471.57
407.645	464.11
408.023	456.2
408.401	462.3
408.779	485.81
409.156	483.77
409.534	458.91
409.912	497.11
410.29	474.51
410.667	499.14
411.045	494.85
411.422	497.56
411.8	507.5
412.178	540.49
412.555	542.3
412.933	522.42
413.31	549.53
413.687	548.63
414.065	556.09
414.442	563.54
414.819	562.19
415.197	576.65
415.574	574.17
415.951	586.59
416.328	593.15
416.705	578.01
417.082	596.76
417.46	615.29
417.837	637.67
418.214	613.94
418.591	629.08
418.967	622.98
419.344	633.37
419.721	637.89
420.098	645.35
420.475	664.56
420.852	654.16
421.228	650.1
421.605	681.28
421.982	681.73
422.358	693.26
422.735	710.66
423.111	698
423.488	715.86
423.864	728.96
424.241	763.09
424.617	731.68
424.994	760.15
425.37	757.89
425.746	779.81
426.123	771.22
426.499	775.74
426.875	786.36
427.251	824.33
427.627	820.49
428.003	836.53
428.379	815.74
428.756	861.16
429.132	837.21
429.507	871.33
429.883	864.78
430.259	883.31
430.635	894.38
431.011	906.81
431.387	927.6
431.763	939.35
432.138	939.13
432.514	941.61
432.89	953.82
433.265	989.52
433.641	982.97
434.016	996.98
434.392	1015.51
434.767	1055.73
435.143	1043.98
435.518	1073.81
435.894	1074.94
436.269	1097.99
436.644	1117.88
437.02	1151.33
437.395	1110.87
437.77	1144.55
438.145	1160.36
438.52	1165.79
438.895	1184.77
439.271	1194.71
439.646	1248.05
440.021	1227.48
440.395	1250.98
440.77	1248.5
441.145	1276.07
441.52	1275.84
441.895	1307.48
442.27	1324.65
442.645	1305.22
443.019	1346.57
443.394	1339.8
443.769	1353.35
444.143	1356.29
444.518	1384.77
444.892	1367.14
445.267	1381.83
445.641	1398.78
446.016	1410.3
446.39	1394.03
446.764	1419.12
447.139	1424.31
447.513	1463.18
447.887	1448.72
448.262	1425.89
448.636	1470.64
449.01	1503.41
449.384	1481.03
449.758	1493.46
450.132	1496.85
450.506	1541.15
450.88	1545.44
451.254	1537.08
451.628	1575.95
452.002	1560.13
452.376	1604.42
452.75	1604.42
453.123	1615.27
453.497	1636.06
453.871	1619.56
454.244	1683.52
454.618	1665.21
454.992	1723.97
455.365	1731.65
455.739	1720.8
456.112	1760.8
456.486	1754.02
456.859	1796.51
457.232	1809.39
457.606	1817.52
457.979	1855.71
458.352	1872.44
458.725	1882.61
459.099	1864.08
459.472	1935.03
459.845	1963.51
460.218	1941.14
460.591	1968.48
460.964	1984.75
461.337	2024.98
461.71	2062.49
462.083	2086.22
462.456	2057.06
462.829	2115.59
463.201	2114.01
463.574	2147.23
463.947	2145.65
464.32	2176.16
464.692	2187.46
465.065	2233.56
465.438	2281.01
465.81	2311.75
466.183	2305.65
466.555	2335.7
466.928	2349.94
467.3	2372.76
467.672	2382.71
468.045	2454.34
468.417	2465.42
468.789	2476.04
469.161	2503.61
469.534	2562.59
469.906	2595.81
470.278	2602.81
470.65	2608.46
471.022	2683.71
471.394	2752.87
471.766	2722.13
472.138	2751.96
472.51	2798.06
472.882	2805.07
473.253	2845.07
473.625	2947.44
473.997	2942.92
474.369	2977.04
474.74	3002.58
475.112	3038.96
475.484	3109.01
475.855	3131.84
476.227	3141.33
476.598	3220.88
476.97	3251.38
477.341	3328.44
477.713	3360.53
478.084	3377.26
478.455	3497.7
478.827	3478.72
479.198	3583.58
479.569	3533.18
479.94	3687.53
480.311	3680.52
480.682	3758.71
481.053	3861.08
481.424	3847.3
481.795	3890.01
482.166	3907.86
482.537	4037.58
482.908	4117.12
483.279	4105.6
483.65	4207.06
484.021	4216.1
484.391	4285.48
484.762	4285.48
485.133	4376.78
485.503	4373.84
485.874	4474.63
486.244	4543.1
486.615	4558.02
486.985	4669.2
487.356	4664.23
487.726	4719.37
488.097	4829.87
488.467	4831
488.837	4923.88
489.207	4944.22
489.578	5070.32
489.948	5014.05
490.318	5140.6
490.688	5142.18
491.058	5217.43
491.428	5237.77
491.798	5307.6
492.168	5399.35
492.538	5444.55
492.908	5461.04
493.278	5516.18
493.648	5519.8
494.017	5612.9
494.387	5604.54
494.757	5644.99
495.126	5743.52
495.496	5725.22
495.866	5789.85
496.235	5816.29
496.605	5858.55
496.974	5873.24
497.344	5939.45
497.713	5957.75
498.082	6058.09
498.452	6041.37
498.821	6049.28
499.19	6076.85
499.559	6156.39
499.928	6123.4
500.298	6180.57
500.667	6237.97
501.036	6199.1
501.405	6251.53
501.774	6196.39
502.143	6339.89
502.512	6341.47
502.88	6335.82
503.249	6338.53
503.618	6424.41
503.987	6408.36
504.356	6493.11
504.724	6467.8
505.093	6454.46
505.462	6490.62
505.83	6522.26
506.199	6544.18
506.567	6627.11
506.936	6632.09
507.304	6708.92
507.672	6769.03
508.041	6757.05
508.409	6747.34
508.777	6853.55
509.145	6862.14
509.514	6848.8
509.882	6926.54
510.25	6836.37
510.618	6888.58
510.986	6903.72
511.354	6945.07
511.722	6962.47
512.09	7065.97
512.458	7002.92
512.826	7022.36
513.193	7033.2
513.561	7083.15
513.929	7112.52
514.297	7105.29
514.664	7140.32
515.032	7138.51
515.4	7238.62
515.767	7234.78
516.135	7294.67
516.502	7216.7
516.869	7245.18
517.237	7293.31
517.604	7235.01
517.972	7334.44
518.339	7344.16
518.706	7327.43
519.073	7341.22
519.44	7416.25
519.808	7444.27
520.175	7381.22
520.542	7473.42
520.909	7525.62
521.276	7504.83
521.643	7469.13
522.009	7516.13
522.376	7536.02
522.743	7627.77
523.11	7624.6
523.477	7733.75
523.843	7694.43
524.21	7757.48
524.577	7751.15
524.943	7806.07
525.31	7759.51
525.676	7817.59
526.043	7857.82
526.409	7837.93
526.776	7870.47
527.142	7887.42
527.508	7959.96
527.874	7920.19
528.241	7954.99
528.607	7941.43
528.973	7996.34
529.339	7988.43
529.705	7984.82
530.071	8083.12
530.437	8044.7
530.803	8059.17
531.169	8110.24
531.535	8106.85
531.901	8074.76
532.267	8090.8
532.632	8134.87
532.998	8061.88
533.364	8159.73
533.73	8112.95
534.095	8123.57
534.461	8126.28
534.826	8187.52
535.192	8098.26
535.557	8197.47
535.923	8181.65
536.288	8143.91
536.653	8185.27
537.019	8157.92
537.384	8096.23
537.749	8137.81
538.114	8178.49
538.479	8232.5
538.845	8123.57
539.21	8139.62
539.575	8146.62
539.94	8140.29
540.305	8138.71
540.67	8187.52
541.034	8165.15
541.399	8196.79
541.764	8121.76
542.129	8121.31
542.494	8188.88
542.858	8083.57
543.223	8150.92
543.587	8137.13
543.952	8142.33
544.316	8176.23
544.681	8099.39
545.045	8199.5
545.41	8165.6
545.774	8136
546.138	8117.7
546.503	8077.47
546.867	8114.98
547.231	8113.85
547.595	8129.67
547.959	8176.23
548.324	8084.48
548.688	8083.35
549.052	8038.83
549.416	8091.93
549.779	8100.97
550.143	8076.79
550.507	8149.33
550.871	8072.95
551.235	8062.1
551.599	8166.96
551.962	8090.35
552.326	8137.36
552.689	8132.61
553.053	8063.91
553.417	8053.07
553.78	8185.27
554.143	8056.45
554.507	8107.98
554.87	8131.26
555.234	8113.63
555.597	8108.66
555.96	8148.88
556.323	8164.02
556.686	8137.58
557.05	8197.47
557.413	8116.79
557.776	8204.25
558.139	8163.12
558.502	8205.15
558.865	8226.39
559.228	8229.78
559.59	8257.58
559.953	8293.06
560.316	8273.62
560.679	8230.91
561.041	8301.65
561.404	8250.12
561.767	8296.22
562.129	8328.31
562.492	8317.92
562.854	8326.96
563.217	8376.67
563.579	8386.16
563.941	8364.24
564.304	8401.08
564.666	8458.25
565.028	8457.12
565.39	8521.75
565.753	8492.83
566.115	8505.71
566.477	8565.59
566.839	8583.45
567.201	8583.67
567.563	8560.4
567.925	8643.33
568.287	8615.08
568.648	8675.2
569.01	8692.37
569.372	8731.24
569.734	8651.47
570.095	8733.5
570.457	8756.1
570.819	8806.72
571.18	8730.34
571.542	8860.95
571.903	8806.49
572.265	8862.76
572.626	8809.2
572.987	8824.57
573.349	8875.42
573.71	8900.05
574.071	8975.53
574.432	8984.79
574.794	9053.72
575.155	9013.94
575.516	8925.81
575.877	8979.59
576.238	9022.53
576.599	9078.8
576.96	9058.24
577.32	9100.04
577.681	9125.13
578.042	9144.34
578.403	9165.58
578.763	9145.92
579.124	9139.82
579.485	9236.54
579.845	9228.63
580.206	9194.96
580.566	9182.98
580.927	9258.68
581.287	9325.57
581.648	9321.05
582.008	9317.44
582.368	9355.86
582.728	9350.43
583.089	9381.62
583.449	9392.24
583.809	9356.31
584.169	9392.46
584.529	9406.7
584.889	9484.21
585.249	9446.47
585.609	9413.93
585.969	9450.99
586.329	9395.63
586.688	9454.38
587.048	9513.14
587.408	9509.98
587.768	9543.87
588.127	9483.31
588.487	9464.55
588.846	9552.23
589.206	9506.81
589.565	9489.86
589.925	9567.83
590.284	9530.31
590.643	9531.67
591.003	9594.95
591.362	9644.44
591.721	9539.81
592.08	9590.43
592.44	9596.3
592.799	9608.05
593.158	9566.25
593.517	9608.05
593.876	9643.53
594.235	9623.65
594.593	9652.57
594.952	9669.29
595.311	9676.3
595.67	9638.33
596.029	9691.67
596.387	9717.65
596.746	9706.81
597.104	9710.2
597.463	9658.22
597.822	9670.65
598.18	9636.07
598.538	9674.72
598.897	9737.31
599.255	9640.82
599.613	9784.77
599.972	9748.16
600.33	9766.01
600.688	9768.05
601.046	9801.72
601.404	9804.21
601.762	9775.96
602.12	9806.47
602.478	9793.13
602.836	9832.68
603.194	9736.64
603.552	9780.48
603.91	9770.53
604.268	9845.56
604.625	9763.75
604.983	9843.53
605.341	9800.36
605.698	9894.15
606.056	9857.54
606.413	9846.46
606.771	9872.23
607.128	9875.84
607.485	9804.88
607.843	9825
608.2	9926.69
608.557	9898.67
608.914	9916.52
609.272	9989.74
609.629	9850.98
609.986	9954.48
610.343	9977.99
610.7	9996.06
611.057	9945.44
611.414	9953.35
611.771	10001.49
612.127	10017.99
612.484	10042.84
612.841	10042.62
613.198	10010.3
613.554	9953.58
613.911	10107.93
614.267	10040.13
614.624	10045.33
614.98	10086.91
615.337	10116.06
615.693	10099.56
616.05	10127.59
616.406	10169.62
616.762	10145.67
617.118	10094.14
617.475	10103.18
617.831	10078.55
618.187	10199.22
618.543	10188.83
618.899	10231.76
619.255	10203.07
619.611	10163.97
619.967	10161.03
620.323	10255.72
620.678	10177.08
621.034	10152.22
621.39	10222.5
621.746	10170.52
622.101	10190.64
622.457	10225.44
622.812	10212.1
623.168	10245.78
623.523	10218.66
623.879	10227.7
624.234	10152.9
624.589	10196.06
624.945	10178.43
625.3	10219.56
625.655	10229.28
626.01	10242.39
626.365	10242.84
626.72	10191.54
627.075	10225.21
627.43	10172.11
627.785	10140.69
628.14	10196.74
628.495	10240.35
628.85	10147.47
629.205	10134.37
629.559	10161.94
629.914	10142.28
630.269	10112.22
630.623	10150.86
630.978	10064.09
631.332	10093.46
631.687	10094.14
632.041	10031.77
632.396	10085.78
632.75	10014.37
633.104	10088.72
633.459	10038.1
633.813	9979.79
634.167	10057.98
634.521	9996.97
634.875	10000.36
635.229	10005.1
635.583	9920.13
635.937	9947.48
636.291	9880.14
636.645	9984.99
636.999	9923.07
637.352	9965.78
637.706	9914.26
638.06	9894.15
638.413	9849.63
638.767	9897.76
639.121	9913.81
639.474	9865.9
639.828	9789.52
640.181	9802.4
640.534	9901.15
640.888	9801.49
641.241	9789.97
641.594	9762.4
641.947	9818.22
642.301	9811.44
642.654	9782.29
643.007	9775.73
643.36	9792.91
643.713	9759.91
644.066	9798.1
644.419	9643.08
644.771	9640.14
645.124	9571.67
645.477	9518.79
645.83	9536.19
646.182	9414.16
646.535	9418.9
646.888	9379.13
647.24	9355.86
647.593	9395.85
647.945	9374.16
648.298	9418.68
648.65	9353.37
649.002	9306.37
649.355	9342.75
649.707	9406.02
650.059	9443.31
650.411	9562.4
650.763	9513.14
651.115	9611.67
651.467	9605.11
651.819	9592.46
652.171	9593.36
652.523	9536.64
652.875	9528.51
653.227	9515.4
653.578	9618.45
653.93	9456.87
654.282	9490.99
654.633	9469.98
654.985	9557.88
655.337	9477.89
655.688	9534.83
656.039	9611.22
656.391	9425.46
656.742	9481.05
657.094	9523.08
657.445	9546.81
657.796	9503.65
658.147	9525.79
658.498	9481.05
658.849	9447.38
659.2	9496.19
659.551	9472.24
659.902	9498.45
660.253	9430.2
660.604	9420.71
660.955	9465.91
661.306	9498.22
661.656	9442.86
662.007	9476.98
662.358	9509.75
662.708	9477.21
663.059	9555.62
663.409	9497.09
663.76	9561.05
664.11	9433.59
664.461	9533.48
664.811	9522.63
665.161	9498
665.511	9433.14
665.862	9482.86
666.212	9531.44
666.562	9478.56
666.912	9469.98
667.262	9527.38
667.612	9414.61
667.962	9513.59
668.312	9439.47
668.662	9538.45
669.011	9498.9
669.361	9538.45
669.711	9475.85
670.06	9455.97
670.41	9437.66
670.76	9360.38
671.109	9445.8
671.459	9410.32
671.808	9405.57
672.157	9481.73
672.507	9400.15
672.856	9380.49
673.205	9407.83
673.554	9429.07
673.904	9386.14
674.253	9443.31
674.602	9362.41
674.951	9264.11
675.3	9192.02
675.649	9325.8
675.998	9300.49
676.346	9286.25
676.695	9353.82
677.044	9227.5
677.393	9307.27
677.741	9283.09
678.09	9286.7
678.438	9295.52
678.787	9260.26
679.135	9236.31
679.484	9208.97
679.832	9232.7
680.181	9131
680.529	9243.54
680.877	9150.44
681.225	9189.98
681.573	9239.47
681.922	9084.45
682.27	9075.41
682.618	9159.7
682.966	9089.2
683.314	9119.48
683.661	9119.7
684.009	9082.64
684.357	9032.7
684.705	8992.25
685.053	8952.02
685.4	9007.62
685.748	8898.92
686.095	8888.52
686.443	8873.38
686.79	8866.15
687.138	8878.35
687.485	8855.08
687.832	8833.38
688.18	8794.74
688.527	8854.17
688.874	8803.78
689.221	8770.11
689.568	8719.04
689.915	8694.86
690.262	8696.66
690.609	8603.11
690.956	8656.89
691.303	8654.63
691.65	8584.12
691.997	8592.94
692.344	8526.5
692.69	8475.88
693.037	8515.88
693.383	8434.98
693.73	8433.62
694.077	8391.36
694.423	8364.02
694.769	8345.94
695.116	8306.62
695.462	8342.32
695.808	8314.98
696.155	8301.87
696.501	8286.28
696.847	8178.26
697.193	8187.98
697.539	8187.07
697.885	8116.34
698.231	8159.28
698.577	8095.32
698.923	8108.43
699.269	8046.96
699.614	7968.1
699.96	8025.95
700.306	8022.33
700.651	7904.82
700.997	7889.91
701.342	7872.73
701.688	7845.61
702.033	7841.32
702.379	7803.35
702.724	7814.43
703.069	7836.8
703.415	7710.48
703.76	7698.27
704.105	7688.55
704.45	7707.31
704.795	7557.03
705.14	7625.05
705.485	7636.13
705.83	7489.92
706.175	7536.69
706.52	7542.8
706.865	7475.45
707.209	7445.17
707.554	7467.32
707.899	7465.06
708.243	7410.6
708.588	7403.82
708.932	7371.28
709.277	7365.4
709.621	7318.62
709.966	7293.76
710.31	7349.58
710.654	7277.72
710.998	7241.34
711.342	7317.04
711.687	7229.81
712.031	7218.51
712.375	7207.89
712.719	7194.78
713.063	7213.31
713.407	7187.55
713.75	7193.88
714.094	7167.21
714.438	7144.84
714.782	7123.37
715.125	7158.85
715.469	7148.91
715.812	7099.42
716.156	7046.54
716.499	6999.99
716.843	7044.96
717.186	6966.99
717.53	7062.81
717.873	7018.74
718.216	7013.54
718.559	6995.69
718.902	6891.74
719.246	6950.5
719.589	6974.68
719.932	6913.21
720.275	6939.42
720.617	6925.41
720.96	6879.99
721.303	6881.8
721.646	6903.94
721.989	6807.9
722.331	6921.12
722.674	6853.1
723.016	6861.46
723.359	6856.94
723.701	6893.77
724.044	6804.74
724.386	6751.86
724.729	6869.14
725.071	6814.91
725.413	6822.59
725.755	6808.58
726.097	6743.27
726.439	6697.85
726.782	6712.54
727.124	6766.32
727.465	6738.3
727.807	6738.3
728.149	6747.11
728.491	6722.48
728.833	6736.04
729.175	6739.65
729.516	6682.71
729.858	6734
730.199	6688.13
730.541	6732.42
730.882	6670.28
731.224	6697.39
731.565	6704.4
731.906	6650.62
732.248	6694.91
732.589	6629.37
732.93	6633.89
733.271	6630.96
733.612	6645.19
733.953	6614.68
734.294	6590.05
734.635	6618.3
734.976	6665.98
735.317	6660.33
735.658	6590.5
735.999	6652.65
736.339	6582.6
736.68	6670.05
737.021	6662.59
737.361	6611.75
737.702	6622.37
738.042	6633.22
738.383	6611.52
738.723	6645.64
739.063	6648.58
739.404	6647
739.744	6632.09
740.084	6650.39
740.424	6674.8
740.764	6674.57
741.104	6657.17
741.444	6666.89
741.784	6707.56
742.124	6694.91
742.464	6670.5
742.804	6735.59
743.143	6712.99
743.483	6752.31
743.823	6693.33
744.162	6746.66
744.502	6815.81
744.841	6767.68
745.181	6795.25
745.52	6775.58
745.86	6793.44
746.199	6819.65
746.538	6842.48
746.877	6884.28
747.216	6895.81
747.556	6920.21
747.895	6950.72
748.234	6958.18
748.573	6966.77
748.911	7042.02
749.25	7020.55
749.589	7046.99
749.928	7136.25
750.267	7207.21
750.605	7252.86
750.944	7232.07
751.283	7279.75
751.621	7297.38
751.96	7351.61
752.298	7418.96
752.636	7450.6
752.975	7544.38
753.313	7550.25
753.651	7650.14
753.989	7665.96
754.327	7740.53
754.666	7785.95
755.004	7844.93
755.342	8015.33
755.679	8035.21
756.017	8084.93
756.355	8256.68
756.693	8277.01
757.031	8370.8
757.368	8447.18
757.706	8503
758.044	8633.84
758.381	8701.86
758.719	8840.39
759.056	8910.44
759.394	8969.65
759.731	9028.18
760.068	9077.9
760.405	9194.28
760.743	9262.98
761.08	9380.04
761.417	9474.72
761.754	9569.64
762.091	9662.97
762.428	9744.09
762.765	9818.67
763.102	9950.42
763.438	10036.97
763.775	10067.7
764.112	10130.07
764.449	10331.42
764.785	10320.58
765.122	10381.82
765.458	10448.26
765.795	10606.67
766.131	10663.17
766.467	10705.88
766.804	10820.9
767.14	10844.86
767.476	10942.48
767.812	11051.18
768.148	11154.9
768.485	11138.63
768.821	11224.51
769.157	11239.42
769.492	11375.24
769.828	11337.27
770.164	11387.89
770.5	11410.49
770.836	11554.67
771.171	11631.95
771.507	11592.86
771.842	11592.41
772.178	11657.94
772.513	11664.04
772.849	11735.68
773.184	11783.36
773.519	11827.88
773.855	11831.27
774.19	11850.25
774.525	11868.33
774.86	11865.85
775.195	11959.86
775.53	11997.59
775.865	11959.63
776.2	11974.77
776.535	11912.17
776.87	11992.85
777.205	12018.61
777.539	11996.01
777.874	12075.33
778.209	12029.68
778.543	12011.15
778.878	11985.17
779.212	12004.6
779.547	12019.97
779.881	12031.27
780.215	11990.36
780.55	12058.84
780.884	11979.74
781.218	11959.86
781.552	11969.57
781.886	11980.65
782.22	11901.55
782.554	11982.45
782.888	11983.58
783.222	11877.6
783.556	11799.18
783.889	11807.32
784.223	11846.41
784.557	11849.8
784.89	11849.12
785.224	11855
785.557	11810.25
785.891	11779.52
786.224	11741.1
786.558	11842.8
786.891	11746.98
787.224	11618.4
787.557	11636.7
787.891	11643.25
788.224	11641.9
788.557	11705.4
788.89	11689.13
789.223	11603.03
789.556	11576.36
789.888	11557.15
790.221	11584.27
790.554	11494.1
790.887	11568.45
791.219	11453.43
791.552	11474.67
791.884	11341.79
792.217	11417.04
792.549	11306.99
792.882	11288.69
793.214	11281.68
793.546	11358.97
793.879	11206.65
794.211	11179.08
794.543	11174.34
794.875	11171.85
795.207	11186.54
795.539	11206.2
795.871	11146.09
796.203	11082.14
796.535	11030.84
796.867	10979.09
797.198	10979.32
797.53	10945.64
797.862	10972.99
798.193	10918.75
798.525	10895.48
798.856	10900.67
799.188	10822.71
799.519	10763.95
799.85	10729.83
800.182	10753.56
800.513	10744.52
800.844	10618.2
801.175	10733.67
801.506	10643.51
801.837	10666.33
802.168	10643.96
802.499	10559.21
802.83	10589.04
803.161	10523.73
803.491	10477.63
803.822	10583.39
804.153	10485.54
804.483	10448.48
804.814	10473.79
805.145	10362.61
805.475	10383.63
805.805	10335.26
806.136	10333.91
806.466	10370.29
806.796	10254.82
807.126	10234.93
807.457	10226.34
807.787	10237.19
808.117	10126.91
808.447	10246.23
808.777	10118.1
809.107	10133.01
809.436	10029.96
809.766	10104.08
810.096	10039.23
810.426	9976.4
810.755	10010.08
811.085	10046.23
811.414	9938.67
811.744	9917.42
812.073	9887.59
812.403	9870.19
812.732	9915.16
813.061	9918.78
813.39	9793.58
813.719	9843.3
814.049	9849.85
814.378	9854.37
814.707	9750.65
815.036	9778.9
815.365	9693.47
815.693	9623.42
816.022	9630.88
816.351	9657.54
816.68	9568.05
817.008	9559.24
817.337	9577.54
817.665	9576.19
817.994	9547.94
818.322	9512.91
818.651	9514.27
818.979	9508.17
819.307	9497.32
819.636	9510.65
819.964	9384.33
820.292	9416.42
820.62	9478.11
820.948	9462.52
821.276	9455.97
821.604	9418
821.932	9406.93
822.259	9410.54
822.587	9393.37
822.915	9447.38
823.243	9454.16
823.57	9364.22
823.898	9403.99
824.225	9375.97
824.553	9344.56
824.88	9422.29
825.207	9426.81
825.535	9392.92
825.862	9426.81
826.189	9378.45
826.516	9470.43
826.843	9441.28
827.17	9452.58
827.497	9409.19
827.824	9411.45
828.151	9410.09
828.478	9365.57
828.805	9374.84
829.131	9411.45
829.458	9347.95
829.785	9323.54
830.111	9427.49
830.438	9432.92
830.764	9350.66
831.09	9417.32
831.417	9349.08
831.743	9390.88
832.069	9389.53
832.395	9322.18
832.722	9388.85
833.048	9336.42
833.374	9367.15
833.7	9275.63
834.026	9293.03
834.351	9392.01
834.677	9334.39
835.003	9336.87
835.329	9347.27
835.654	9315.86
835.98	9245.12
836.306	9307.95
836.631	9247.38
836.956	9302.75
837.282	9284.67
837.607	9194.5
837.932	9220.72
838.258	9276.54
838.583	9177.1
838.908	9135.75
839.233	9195.18
839.558	9089.87
839.883	9123.32
840.208	9096.65
840.533	9118.35
840.858	9135.97
841.182	9117.67
841.507	9109.08
841.832	9029.08
842.156	9029.99
842.481	8955.41
842.805	9114.05
843.13	8952.7
843.454	8927.39
843.778	8856.66
844.103	8910.9
844.427	8843.1
844.751	8916.55
845.075	8871.57
845.399	8815.3
845.723	8740.5
846.047	8814.85
846.371	8728.98
846.695	8782.31
847.019	8693.95
847.343	8623.67
847.666	8583.9
847.99	8625.03
848.313	8593.62
848.637	8542.09
848.96	8533.5
849.284	8447.86
849.607	8432.49
849.931	8391.81
850.254	8316.34
850.577	8294.64
850.9	8240.18
851.223	8344.13
851.546	8161.54
851.869	8164.7
852.192	8253.51
852.515	8142.1
852.838	8075.21
853.161	8112.27
853.483	8067.75
853.806	7978.49
854.129	7989.79
854.451	7937.59
854.774	7898.72
855.096	7925.61
855.419	7905.27
855.741	7844.71
856.063	7778.27
856.385	7804.03
856.708	7793.64
857.03	7717.25
857.352	7755.45
857.674	7727.42
857.996	7710.02
858.318	7672.96
858.64	7632.74
858.961	7648.33
859.283	7595.68
859.605	7549.35
859.926	7587.77
860.248	7555.45
860.57	7504.83
860.891	7569.69
861.212	7539.41
861.534	7493.76
861.855	7485.4
862.176	7421.44
862.498	7472.74
862.819	7428.9
863.14	7459.41
863.461	7392.97
863.782	7357.26
864.103	7319.75
864.424	7362.01
864.745	7378.73
865.065	7335.12
865.386	7308.23
865.707	7319.98
866.027	7314.1
866.348	7276.81
866.668	7281.11
866.989	7237.49
867.309	7237.49
867.63	7235.91
867.95	7189.58
868.27	7172.18
868.59	7224.16
868.91	7129.25
869.23	7166.99
869.55	7149.13
869.87	7199.98
870.19	7143.94
870.51	7144.16
870.83	7132.86
871.15	7143.48
871.469	7152.3
871.789	7112.98
872.109	7130.38
872.428	7084.28
872.748	7085.63
873.067	7068.23
873.386	7081.79
873.706	7082.47
874.025	7013.54
874.344	6973.55
874.663	7044.5
874.982	7008.35
875.301	7000.89
875.62	6995.69
875.939	6927.22
876.258	6987.33
876.577	6911.17
876.896	6904.17
877.214	6861.46
877.533	6840.67
877.852	6900.1
878.17	6976.26
878.489	6850.61
878.807	6842.93
879.125	6842.93
879.444	6830.5
879.762	6784.4
880.08	6841.35
880.398	6829.59
880.716	6793.66
881.034	6818.97
881.352	6774
881.67	6760.22
881.988	6741.46
882.306	6693.55
882.624	6724.06
882.941	6694.91
883.259	6652.65
883.577	6661.69
883.894	6673.89
884.212	6657.85
884.529	6621.92
884.846	6607.91
885.164	6625.08
885.481	6510.73
885.798	6561.58
886.115	6568.13
886.432	6526.78
886.75	6454.46
887.067	6522.26
887.383	6439.32
887.7	6468.47
888.017	6420.57
888.334	6482.71
888.651	6439.32
888.967	6400.68
889.284	6338.53
889.6	6329.49
889.917	6310.51
890.233	6350.06
890.55	6324.52
890.866	6308.03
891.182	6280.46
891.498	6291.08
891.815	6276.61
892.131	6227.58
892.447	6196.16
892.763	6186.9
893.079	6142.38
893.395	6130.86
893.71	6141.48
894.026	6120.46
894.342	6098.77
894.657	6074.59
894.973	6088.15
895.289	6084.08
895.604	6024.64
895.92	5978.32
896.235	5945.32
896.55	5908.26
896.865	5963.63
897.181	5965.44
897.496	5936.28
897.811	5939.22
898.126	5935.38
898.441	5856.29
898.756	5880.01
899.071	5816.06
899.386	5802.5
899.7	5734.48
900.015	5733.13
900.33	5696.97
900.644	5669.4
900.959	5723.18
901.273	5647.03
901.588	5675.5
901.902	5607.03
902.216	5611.55
902.531	5577.2
902.845	5587.82
903.159	5550.31
903.473	5521.15
903.787	5506.69
904.101	5480.03
904.415	5469.86
904.729	5487.03
905.042	5395.51
905.356	5433.25
905.67	5379.46
905.984	5338.79
906.297	5380.37
906.611	5391.21
906.924	5327.71
907.237	5264.89
907.551	5334.72
907.864	5290.88
908.177	5256.75
908.491	5265.34
908.804	5188.73
909.117	5186.7
909.43	5169.98
909.743	5127.49
910.056	5137.89
910.368	5087.95
910.681	5081.39
910.994	5052.92
911.307	5068.74
911.619	4981.06
911.932	5044.56
912.244	4993.03
912.557	4987.61
912.869	4972.47
913.181	4918.01
913.494	4924.79
913.806	4849.99
914.118	4826.94
914.43	4805.01
914.742	4803.43
915.054	4863.77
915.366	4821.06
915.678	4773.83
915.99	4747.16
916.302	4728.63
916.613	4681.4
916.925	4719.14
917.236	4688.18
917.548	4662.19
917.859	4722.31
918.171	4644.79
918.482	4638.69
918.794	4644.34
919.105	4625.81
919.416	4548.52
919.727	4506.49
920.038	4566.38
920.349	4548.75
920.66	4472.37
920.971	4453.16
921.282	4463.33
921.593	4399.6
921.903	4438.7
922.214	4403.44
922.525	4452.71
922.835	4399.15
923.146	4353.73
923.456	4372.71
923.767	4308.3
924.077	4342.43
924.387	4243
924.697	4280.28
925.008	4248.65
925.318	4255.88
925.628	4210
925.938	4193.96
926.248	4207.29
926.558	4179.04
926.867	4143.56
927.177	4162.55
927.487	4168.87
927.796	4114.64
928.106	4080.97
928.416	4049.33
928.725	4047.52
929.034	4033.74
929.344	4049.55
929.653	4013.4
929.962	3984.7
930.271	3981.53
930.581	3901.99
930.89	3960.74
931.199	3931.82
931.508	3931.37
931.817	3894.98
932.125	3944.7
932.434	3881.88
932.743	3858.15
933.051	3842.1
933.36	3839.39
933.669	3770.24
933.977	3828.32
934.286	3779.28
934.594	3771.82
934.902	3752.61
935.21	3719.17
935.519	3722.78
935.827	3716.46
936.135	3696.12
936.443	3669.45
936.751	3659.51
937.059	3647.76
937.367	3636.46
937.674	3662.9
937.982	3627.64
938.29	3578.38
938.597	3576.8
938.905	3501.77
939.213	3536.12
939.52	3507.65
939.827	3499.29
940.135	3473.52
940.442	3481.43
940.749	3526.18
941.056	3483.02
941.363	3405.96
941.67	3404.6
941.977	3430.59
942.284	3364.83
942.591	3409.35
942.898	3371.83
943.205	3342
943.511	3354.66
943.818	3347.43
944.125	3304.94
944.431	3300.2
944.738	3295.22
945.044	3257.71
945.35	3276.69
945.657	3221.1
945.963	3239.18
946.269	3217.26
946.575	3202.12
946.881	3157.37
947.187	3166.64
947.493	3151.5
947.799	3137.26
948.105	3139.97
948.41	3144.49
948.716	3102.91
949.022	3102.46
949.327	3099.07
949.633	3048.22
949.938	3085.51
950.244	3090.26
950.549	3034.67
950.854	3041.9
951.16	3023.14
951.465	3015.46
951.77	2991.05
952.075	2944.27
952.38	2960.09
952.685	2993.09
952.99	2925.52
953.294	2933.88
953.599	2935.69
953.904	2890.04
954.209	2903.6
954.513	2874.44
954.818	2899.08
955.122	2841.45
955.426	2871.05
955.731	2806.42
956.035	2825.18
956.339	2820.89
956.643	2810.27
956.948	2803.49
957.252	2735.92
957.556	2774.56
957.86	2765.07
958.163	2754.67
958.467	2736.14
958.771	2722.13
959.075	2728.01
959.378	2722.13
959.682	2696.82
959.985	2699.31
960.289	2680.33
960.592	2671.96
960.896	2643.72
961.199	2616.37
961.502	2625.64
961.805	2620.89
962.108	2616.37
962.411	2612.98
962.714	2561.46
963.017	2603.94
963.32	2591.06
963.623	2550.16
963.926	2540.22
964.228	2543.83
964.531	2509.93
964.833	2497.05
965.136	2453.89
965.438	2493.21
965.741	2463.83
966.043	2494.12
966.345	2460.22
966.648	2493.89
966.95	2460.44
967.252	2413.21
967.554	2437.17
967.856	2402.59
968.158	2401.24
968.46	2381.35
968.761	2362.59
969.063	2366.66
969.365	2378.19
969.666	2347.9
969.968	2351.97
970.269	2323.27
970.571	2369.82
970.872	2344.29
971.174	2300.22
971.475	2278.3
971.776	2299.32
972.077	2287.57
972.378	2290.5
972.679	2237.4
972.98	2253.22
973.281	2230.39
973.582	2233.11
973.883	2234.24
974.183	2196.04
974.484	2191.75
974.785	2201.02
975.085	2205.54
975.386	2176.16
975.686	2179.77
975.986	2149.72
976.287	2167.57
976.587	2143.62
976.887	2137.74
977.187	2140.45
977.487	2100
977.787	2148.81
978.087	2134.12
978.387	2083.5
978.687	2093.67
978.987	2095.03
979.286	2061.13
979.586	2040.34
979.885	2066.56
980.185	2057.29
980.484	2028.59
980.784	2037.63
981.083	2024.3
981.382	2020.68
981.682	1986.56
981.981	2023.85
982.28	1982.49
982.579	1977.29
982.878	1992.43
983.177	1951.76
983.475	1966.9
983.774	1944.53
984.073	1936.16
984.372	1955.15
984.67	1901.14
984.969	1925.32
985.267	1910.18
985.566	1908.14
985.864	1908.14
986.162	1861.82
986.461	1870.85
986.759	1853.45
987.057	1840.57
987.355	1836.05
987.653	1841.48
987.951	1860.23
988.249	1847.8
988.547	1808.94
988.844	1815.49
989.142	1786.56
989.44	1790.63
989.737	1794.92
990.035	1744.3
990.332	1783.63
990.63	1771.65
990.927	1783.63
991.224	1761.48
991.521	1770.07
991.819	1725.55
992.116	1752.67
992.413	1721.25
992.71	1686.9
993.006	1711.54
993.303	1685.1
993.6	1687.36
993.897	1711.31
994.193	1674.02
994.49	1691.2
994.787	1673.8
995.083	1655.27
995.379	1643.97
995.676	1638.77
995.972	1663.63
996.268	1589.96
996.565	1603.97
996.861	1588.15
997.157	1566.91
997.453	1584.76
997.749	1575.72
998.044	1584.99
998.34	1557.42
998.636	1540.24
998.932	1559.9
999.227	1535.27
999.523	1563.52
999.818	1553.12
1000.114	1535.04
1000.409	1526.23
1000.704	1480.58
1001	1489.17
1001.295	1526.01
1001.59	1498.21
1001.885	1483.29
1002.18	1469.74
1002.475	1478.32
1002.77	1466.12
1003.065	1421.6
1003.359	1446.46
1003.654	1425.67
1003.949	1426.8
1004.243	1429.96
1004.538	1412.56
1004.832	1401.94
1005.127	1415.95
1005.421	1393.35
1005.715	1361.94
1006.009	1384.31
1006.304	1366.01
1006.598	1363.52
1006.892	1335.5
1007.186	1331.89
1007.48	1340.47
1007.773	1368.95
1008.067	1340.25
1008.361	1344.77
1008.655	1307.93
1008.948	1292.79
1009.242	1310.42
1009.535	1298.44
1009.829	1285.79
1010.122	1297.99
1010.415	1265.45
1010.708	1259.12
1011.001	1283.75
1011.295	1230.87
1011.588	1256.63
1011.881	1257.76
1012.173	1241.94
1012.466	1234.49
1012.759	1235.62
1013.052	1217.09
1013.344	1236.75
1013.637	1195.39
1013.93	1197.43
1014.222	1184.32
1014.514	1189.06
1014.807	1188.16
1015.099	1180.25
1015.391	1183.42
1015.683	1139.57
1015.976	1147.26
1016.268	1164.21
1016.56	1147.03
1016.851	1134.15
1017.143	1126.92
1017.435	1113.59
1017.727	1104.55
1018.018	1092.8
1018.31	1119.46
1018.602	1104.55
1018.893	1080.37
1019.185	1089.86
1019.476	1088.5
1019.767	1078.11
1020.058	1061.38
1020.35	1066.58
1020.641	1054.61
1020.932	1055.96
1021.223	1018.67
1021.514	1053.7
1021.804	1022.74
1022.095	1033.14
1022.386	1031.1
1022.677	1003.76
1022.967	1004.66
1023.258	1006.24
1023.548	1002.85
1023.839	988.62
1024.129	1006.02
1024.419	981.61
1024.709	979.58
1025	953.36
1025.29	952.23
1025.58	960.37
1025.87	929.64
1026.16	938.45
1026.449	934.83
1026.739	932.35
1027.029	930.31
1027.319	918.56
1027.608	911.78
1027.898	934.38
1028.187	909.75
1028.477	919.02
1028.766	909.07
1029.055	923.08
1029.344	881.5
1029.634	886.93
1029.923	904.55
1030.212	882.18
1030.501	891.67
1030.79	849.41
1031.078	840.83
1031.367	852.35
1031.656	843.54
1031.945	858.68
1032.233	837.89
1032.522	855.97
1032.81	845.57
1033.099	859.36
1033.387	844.44
1033.675	806.93
1033.963	839.24
1034.251	799.7
1034.54	820.26
1034.828	812.35
1035.116	775.74
1035.403	791.79
1035.691	804.67
1035.979	800.15
1036.267	792.47
1036.554	756.08
1036.842	779.13
1037.129	788.4
1037.417	771
1037.704	748.17
1037.992	760.83
1038.279	737.55
1038.566	738.23
1038.853	738.23
1039.14	738.23
