Data from hue_230_FLMS001491_00017.txt Node
Date: Tue Feb 07 16:36:52 GMT 2017
User: dcchb
Spectrometer: FLMS00149
Trigger mode: 0
Integration Time (sec): 2.000000E-2
Scans to average: 10
Electric dark correction enabled: true
Nonlinearity correction enabled: false
Boxcar width: 0
XAxis mode: Wavelengths
Number of Pixels in Spectrum: 2048
>>>>>Begin Spectral Data<<<<<
341.393	-23.18
341.776	-23.18
342.16	-23.18
342.543	-72.44
342.927	-61.82
343.31	-82.38
343.693	-90.75
344.077	-80.13
344.46	-46.23
344.843	-54.81
345.226	-55.27
345.61	-34.25
345.993	-19.34
346.376	-0.81
346.759	27.89
347.142	31.28
347.525	47.33
347.908	62.02
348.291	72.41
348.674	90.72
349.057	132.3
349.44	113.77
349.823	134.56
350.206	140.21
350.588	176.59
350.971	207.1
351.354	214.78
351.737	242.8
352.119	223.14
352.502	252.97
352.884	254.1
353.267	272.86
353.65	278.06
354.032	277.38
354.414	283.26
354.797	285.52
355.179	314.89
355.562	347.21
355.944	334.33
356.326	324.84
356.709	316.93
357.091	332.75
357.473	332.07
357.855	318.06
358.238	339.52
358.62	327.1
359.002	322.8
359.384	345.17
359.766	346.76
360.148	339.75
360.53	325.29
360.912	344.27
361.294	306.98
361.676	316.02
362.057	348.79
362.439	342.91
362.821	330.03
363.203	328
363.584	315.57
363.966	313.99
364.348	302.46
364.729	320.99
365.111	297.94
365.493	302.24
365.874	320.99
366.256	305.4
366.637	306.98
367.019	294.33
367.4	304.5
367.781	299.98
368.163	316.25
368.544	312.18
368.925	302.01
369.306	320.77
369.688	309.47
370.069	297.72
370.45	294.78
370.831	320.77
371.212	300.2
371.593	290.26
371.974	297.72
372.355	285.97
372.736	307.21
373.117	301.11
373.498	287.77
373.879	312.18
374.26	302.01
374.641	313.54
375.021	309.47
375.402	310.15
375.783	320.54
376.163	316.7
376.544	309.47
376.925	303.82
377.305	323.48
377.686	319.64
378.066	315.12
378.447	328.9
378.827	304.5
379.208	325.06
379.588	334.33
379.968	335.01
380.349	302.01
380.729	322.58
381.109	338.4
381.489	313.99
381.87	339.07
382.25	321.9
382.63	320.99
383.01	341.33
383.39	338.62
383.77	339.07
384.15	321.67
384.53	342.69
384.91	338.85
385.29	349.02
385.67	322.8
386.049	331.16
386.429	350.37
386.809	351.73
387.189	360.99
387.568	304.27
387.948	330.49
388.328	364.16
388.707	340.43
389.087	354.44
389.466	354.67
389.846	376.81
390.225	361.9
390.605	359.64
390.984	370.48
391.363	364.84
391.743	368.9
392.122	390.15
392.501	363.71
392.881	378.85
393.26	373.65
393.639	358.28
394.018	359.41
394.397	358.06
394.776	381.56
395.155	382.01
395.534	384.27
395.913	382.01
396.292	402.8
396.671	378.85
397.05	374.33
397.429	395.57
397.808	391.05
398.186	401.67
398.565	380.88
398.944	378.39
399.323	396.47
399.701	403.03
400.08	408.45
400.458	414.78
400.837	393.08
401.215	405.96
401.594	401.67
401.972	419.97
402.351	410.03
402.729	422.46
403.107	423.36
403.486	423.59
403.864	416.81
404.242	421.78
404.62	436.25
404.999	431.27
405.377	441.67
405.755	429.01
406.133	425.85
406.511	449.13
406.889	459.07
407.267	463.36
407.645	457.71
408.023	469.24
408.401	477.15
408.779	489.8
409.156	480.54
409.534	487.09
409.912	503.59
410.29	504.72
410.667	511.72
411.045	515.34
411.422	513.31
411.8	512.18
412.178	512.4
412.555	535.9
412.933	546.53
413.31	539.29
413.687	573.64
414.065	581.78
414.442	570.03
414.819	581.1
415.197	604.6
415.574	600.31
415.951	578.61
416.328	612.74
416.705	599.18
417.082	589.01
417.46	631.49
417.837	630.14
418.214	634.88
418.591	633.98
418.967	652.96
419.344	650.93
419.721	666.3
420.098	678.05
420.475	666.52
420.852	695.67
421.228	727.31
421.605	718.05
421.982	732.06
422.358	694.77
422.735	732.28
423.111	726.18
423.488	748.78
423.864	766.63
424.241	777.25
424.617	792.85
424.994	796.69
425.37	808.67
425.746	811.15
426.123	821.09
426.499	828.78
426.875	860.87
427.251	876.23
427.627	890.24
428.003	884.82
428.379	880.3
428.756	895.22
429.132	924.37
429.507	913.52
429.883	920.3
430.259	950.81
430.635	934.31
431.011	935.44
431.387	956.46
431.763	966.18
432.138	981.77
432.514	1016.57
432.89	1004.14
433.265	1026.29
433.641	1065.61
434.016	1071.94
434.392	1093.4
434.767	1124.82
435.143	1120.07
435.518	1123.69
435.894	1139.05
436.269	1156.23
436.644	1186.96
437.02	1188.77
437.395	1219.73
437.77	1231.03
438.145	1249.11
438.52	1258.14
438.895	1291.36
439.271	1291.14
439.646	1330.91
440.021	1344.47
440.395	1334.98
440.77	1336.56
441.145	1360.06
441.52	1411.81
441.895	1389.21
442.27	1420.17
442.645	1406.39
443.019	1427.86
443.394	1461.98
443.769	1483
444.143	1445.26
444.518	1484.35
444.892	1484.35
445.267	1492.04
445.641	1537.91
446.016	1488.2
446.39	1525.71
446.764	1583.79
447.139	1531.58
447.513	1552.15
447.887	1599.15
448.262	1556.44
448.636	1589.66
449.01	1606.16
449.384	1630.11
449.758	1646.16
450.132	1687.06
450.506	1676.44
450.88	1691.35
451.254	1689.32
451.628	1709.21
452.002	1718.25
452.376	1733.16
452.75	1753.05
453.123	1759.15
453.497	1795.08
453.871	1818.13
454.244	1845.7
454.618	1815.42
454.992	1825.36
455.365	1868.52
455.739	1889.09
456.112	1903.33
456.486	1942.65
456.859	1951.23
457.232	1976.77
457.606	1962.08
457.979	1995.07
458.352	1998.24
458.725	2070.33
459.099	2064.68
459.472	2087.73
459.845	2087.5
460.218	2134.96
460.591	2199.36
460.964	2134.28
461.337	2213.15
461.71	2221.51
462.083	2265.8
462.456	2284.11
462.829	2299.7
463.201	2331.79
463.574	2346.03
463.947	2371.11
464.32	2409.3
464.692	2420.37
465.065	2429.64
465.438	2472.12
465.81	2506.7
466.183	2541.05
466.555	2553.93
466.928	2576.98
467.3	2583.53
467.672	2631.44
468.045	2689.75
468.417	2687.71
468.789	2716.41
469.161	2735.62
469.534	2777.88
469.906	2820.82
470.278	2822.17
470.65	2881.83
471.022	2904.43
471.394	2943.3
471.766	2977.2
472.138	2998.44
472.51	3079.57
472.882	3126.12
473.253	3168.15
473.625	3176.06
473.997	3230.75
474.369	3235.95
474.74	3316.17
475.112	3342.16
475.484	3385.77
475.855	3451.99
476.227	3427.58
476.598	3532.44
476.97	3577.41
477.341	3634.58
477.713	3726.78
478.084	3713
478.455	3803.16
478.827	3792.09
479.198	3917.28
479.569	3900.11
479.94	4058.75
480.311	4046.55
480.682	4150.27
481.053	4151.63
481.424	4250.16
481.795	4312.08
482.166	4327.89
482.537	4351.17
482.908	4463.26
483.279	4478.85
483.65	4582.35
484.021	4604.5
484.391	4720.88
484.762	4737.38
485.133	4769.01
485.503	4846.98
485.874	4876.35
486.244	4929.23
486.615	4990.25
486.985	5072.73
487.356	5144.37
487.726	5171.26
488.097	5289.9
488.467	5288.55
488.837	5413.97
489.207	5408.54
489.578	5484.47
489.948	5508.2
490.318	5629.78
490.688	5625.04
491.058	5697.8
491.428	5776.67
491.798	5761.08
492.168	5909.77
492.538	5929.21
492.908	6011.69
493.278	6074.06
493.648	6021.18
494.017	6045.36
494.387	6149.77
494.757	6142.31
495.126	6277.22
495.496	6235.42
495.866	6298.46
496.235	6288.52
496.605	6339.82
496.974	6409.42
497.344	6462.08
497.713	6516.76
498.082	6507.27
498.452	6565.58
498.821	6621.85
499.19	6631.11
499.559	6632.69
499.928	6671.11
500.298	6721.73
500.667	6814.61
501.036	6729.64
501.405	6839.47
501.774	6815.51
502.143	6843.53
502.512	6821.39
502.88	6930.09
503.249	6940.03
503.618	6983.19
503.987	6926.7
504.356	7014.15
504.724	7020.93
505.093	7021.61
505.462	7028.16
505.83	7091.66
506.199	7105.67
506.567	7238.33
506.936	7178.44
507.304	7272.22
507.672	7292.79
508.041	7302.51
508.409	7279.23
508.777	7298.66
509.145	7317.65
509.514	7377.76
509.882	7399.68
510.25	7396.97
510.618	7436.29
510.986	7442.84
511.354	7507.47
511.722	7520.81
512.09	7600.13
512.458	7551.99
512.826	7629.5
513.193	7597.64
513.561	7595.38
513.929	7681.93
514.297	7734.13
514.664	7732.32
515.032	7685.32
515.4	7747.47
515.767	7802.61
516.135	7797.63
516.502	7746.11
516.869	7889.61
517.237	7804.41
517.604	7801.93
517.972	7872.66
518.339	7869.95
518.706	7866.78
519.073	7919.66
519.44	7875.37
519.808	8024.75
520.175	7895.48
520.542	8041.7
520.909	7987.91
521.276	7997.85
521.643	8019.32
522.009	8025.65
522.376	8122.82
522.743	8122.37
523.11	8175.93
523.477	8180.9
523.843	8197.17
524.21	8259.09
524.577	8218.64
524.943	8223.84
525.31	8300.9
525.676	8264.06
526.043	8316.94
526.409	8342.93
526.776	8401.46
527.142	8315.81
527.508	8301.8
527.874	8452.08
528.241	8451.18
528.607	8350.16
528.973	8414.57
529.339	8443.94
529.705	8452.53
530.071	8497.28
530.437	8458.41
530.803	8453.21
531.169	8502.25
531.535	8489.59
531.901	8462.93
532.267	8470.84
532.632	8534.79
532.998	8505.64
533.364	8460.22
533.73	8509.93
534.095	8485.75
534.461	8536.82
534.826	8559.42
535.192	8506.77
535.557	8610.04
535.923	8579.76
536.288	8507.67
536.653	8548.57
537.019	8553.09
537.384	8527.33
537.749	8496.37
538.114	8537.28
538.479	8445.98
538.845	8446.66
539.21	8471.74
539.575	8442.36
539.94	8455.7
540.305	8438.52
540.67	8473.55
541.034	8452.08
541.399	8405.98
541.764	8444.17
542.129	8480.78
542.494	8397.84
542.858	8372.53
543.223	8331.41
543.587	8449.14
543.952	8362.82
544.316	8436.49
544.681	8351.52
545.045	8382.7
545.41	8370.73
545.774	8371.63
546.138	8301.35
546.503	8336.6
546.867	8264.29
547.231	8336.6
547.595	8337.05
547.959	8265.64
548.324	8236.94
548.688	8248.92
549.052	8191.07
549.416	8214.57
549.779	8287.34
550.143	8276.27
550.507	8278.3
550.871	8308.35
551.235	8183.61
551.599	8243.72
551.962	8175.48
552.326	8219.77
552.689	8239.43
553.053	8173.44
553.417	8203.95
553.78	8245.98
554.143	8157.17
554.507	8194.01
554.87	8171.41
555.234	8176.16
555.597	8127.79
555.96	8199.66
556.323	8159.66
556.686	8157.17
557.05	8197.85
557.413	8167.79
557.776	8158.08
558.139	8159.21
558.502	8209.15
558.865	8194.91
559.228	8188.36
559.59	8215.7
559.953	8148.13
560.316	8250.28
560.679	8272.2
561.041	8271.75
561.404	8352.87
561.767	8238.75
562.129	8265.64
562.492	8345.64
562.854	8323.5
563.217	8254.8
563.579	8335.02
563.941	8360.33
564.304	8366.21
564.666	8397.17
565.028	8410.27
565.39	8424.74
565.753	8423.83
566.115	8462.93
566.477	8477.84
566.839	8477.39
567.201	8461.57
567.563	8534.79
567.925	8566.88
568.287	8591.51
568.648	8571.17
569.01	8577.73
569.372	8628.12
569.734	8603.71
570.095	8637.84
570.457	8738.4
570.819	8664.5
571.18	8682.81
571.542	8689.36
571.903	8693.43
572.265	8754.9
572.626	8731.85
572.987	8739.08
573.349	8723.26
573.71	8775.46
574.071	8805.97
574.432	8824.05
574.794	8899.98
575.155	8847.32
575.516	8921.9
575.877	8901.11
576.238	8938.85
576.599	8953.31
576.96	8931.84
577.32	8952.18
577.681	9036.7
578.042	9013.2
578.403	8995.12
578.763	9007.55
579.124	8979.07
579.485	9069.01
579.845	9128.9
580.206	9143.14
580.566	9149.24
580.927	9185.39
581.287	9146.53
581.648	9129.58
582.008	9207.54
582.368	9159.63
582.728	9280.53
583.089	9285.5
583.449	9187.88
583.809	9229.91
584.169	9247.99
584.529	9260.19
584.889	9353.98
585.249	9291.83
585.609	9204.6
585.969	9286.18
586.329	9336.35
586.688	9300.87
587.048	9341.1
587.408	9307.65
587.768	9304.49
588.127	9324.6
588.487	9384.94
588.846	9428.55
589.206	9404.37
589.565	9297.71
589.925	9415.44
590.284	9392.39
590.643	9451.6
591.003	9466.74
591.362	9438.72
591.721	9427.65
592.08	9480.53
592.44	9514.88
592.799	9461.77
593.158	9487.76
593.517	9459.29
593.876	9511.26
594.235	9513.3
594.593	9467.87
594.952	9557.14
595.311	9496.57
595.67	9587.19
596.029	9636.23
596.387	9545.61
596.746	9581.99
597.104	9543.58
597.463	9609.79
597.822	9586.74
598.18	9561.2
598.538	9594.2
598.897	9637.59
599.255	9556.68
599.613	9693.86
599.972	9623.57
600.33	9667.87
600.688	9671.93
601.046	9719.17
601.404	9743.57
601.762	9663.8
602.12	9701.31
602.478	9739.96
602.836	9716.68
603.194	9640.07
603.552	9632.84
603.91	9632.84
604.268	9789.9
604.625	9708.54
604.983	9730.92
605.341	9706.96
605.698	9764.59
606.056	9749.9
606.413	9693.63
606.771	9815.66
607.128	9776.56
607.485	9756
607.843	9773.4
608.2	9844.81
608.557	9867.18
608.914	9900.18
609.272	9814.76
609.629	9945.15
609.986	9893.4
610.343	9853.4
610.7	9941.53
611.057	9910.57
611.414	9871.93
611.771	9892.04
612.127	9915.09
612.484	9890.23
612.841	9976.79
613.198	9952.15
613.554	9923.91
613.911	9949.22
614.267	9980.63
614.624	9983.57
614.98	9975.88
615.337	10001.64
615.693	9931.36
616.05	10028.31
616.406	10096.56
616.762	9982.89
617.118	10033.96
617.475	10014.07
617.831	10054.07
618.187	10085.48
618.543	10110.12
618.899	10163
619.255	10074.41
619.611	10092.26
619.967	10108.31
620.323	10115.77
620.678	10174.52
621.034	10092.49
621.39	10085.48
621.746	10045.48
622.101	10191.47
622.457	10149.89
622.812	10040.96
623.168	10080.96
623.523	10080.96
623.879	10080.29
624.234	10149.89
624.589	10112.38
624.945	10146.05
625.3	10141.08
625.655	10034.86
626.01	10042.77
626.365	10144.24
626.72	10115.09
627.075	10000.06
627.43	10087.74
627.785	10050.91
628.14	10090.91
628.495	10079.38
628.85	10061.3
629.205	10074.41
629.559	10080.96
629.914	10027.41
630.269	10080.06
630.623	9973.62
630.978	10022.21
631.332	10067.86
631.687	9986.73
632.041	10024.92
632.396	10063.79
632.75	9965.26
633.104	9897.92
633.459	9926.84
633.813	9934.53
634.167	9919.39
634.521	9913.28
634.875	9907.41
635.229	9945.15
635.583	9868.77
635.937	9888.2
636.291	9800.75
636.645	9899.05
636.999	9935.88
637.352	9845.49
637.706	9811.82
638.06	9828.32
638.413	9817.02
638.767	9737.92
639.121	9781.54
639.474	9735.44
639.828	9732.27
640.181	9693.86
640.534	9743.35
640.888	9713.74
641.241	9690.69
641.594	9640.52
641.947	9775.89
642.301	9723.23
642.654	9689.34
643.007	9692.05
643.36	9699.5
643.713	9681.88
644.066	9652.05
644.419	9658.6
644.771	9586.06
645.124	9525.27
645.477	9451.15
645.83	9401.89
646.182	9411.38
646.535	9341.55
646.888	9328.44
647.24	9327.54
647.593	9333.86
647.945	9365.73
648.298	9302.68
648.65	9288.89
649.002	9240.08
649.355	9294.54
649.707	9325.28
650.059	9358.5
650.411	9416.8
650.763	9509.68
651.115	9509.23
651.467	9529.57
651.819	9514.65
652.171	9544.48
652.523	9421.77
652.875	9410.25
653.227	9481.43
653.578	9517.81
653.93	9529.79
654.282	9432.39
654.633	9444.6
654.985	9490.24
655.337	9501.32
655.688	9515.55
656.039	9554.2
656.391	9485.73
656.742	9419.96
657.094	9487.31
657.445	9498.38
657.796	9511.71
658.147	9429.68
658.498	9471.94
658.849	9483.47
659.2	9477.59
659.551	9453.86
659.902	9492.73
660.253	9512.84
660.604	9455.67
660.955	9411.15
661.306	9508.32
661.656	9434.65
662.007	9431.94
662.358	9476.46
662.708	9468.55
663.059	9491.15
663.409	9393.3
663.76	9473.52
664.11	9484.37
664.461	9544.48
664.811	9525.27
665.161	9503.58
665.511	9518.94
665.862	9473.07
666.212	9442.34
666.562	9542.22
666.912	9462
667.262	9422.22
667.612	9469
667.962	9499.51
668.312	9491.83
668.662	9502.45
669.011	9503.13
669.361	9444.6
669.711	9440.75
670.06	9421.09
670.41	9424.03
670.76	9382.45
671.109	9440.3
671.459	9461.09
671.808	9431.26
672.157	9382.23
672.507	9379.06
672.856	9385.84
673.205	9353.75
673.554	9419.29
673.904	9363.69
674.253	9385.39
674.602	9377.25
674.951	9249.35
675.3	9198.5
675.649	9389.23
675.998	9374.77
676.346	9325.05
676.695	9324.6
677.044	9302.68
677.393	9295.45
677.741	9342
678.09	9320.76
678.438	9319.18
678.787	9323.92
679.135	9322.79
679.484	9180.42
679.832	9237.6
680.181	9237.6
680.529	9185.17
680.877	9158.73
681.225	9172.29
681.573	9231.04
681.922	9108.11
682.27	9057.04
682.618	9136.13
682.966	9079.86
683.314	9078.5
683.661	9008.45
684.009	9018.62
684.357	9044.38
684.705	8975
685.053	8960.54
685.4	8968.22
685.748	8916.02
686.095	8886.87
686.443	8897.49
686.79	8857.04
687.138	8953.54
687.485	8885.74
687.832	8898.62
688.18	8843.03
688.527	8742.69
688.874	8771.17
689.221	8780.21
689.568	8731.17
689.915	8729.81
690.262	8668.35
690.609	8657.72
690.956	8669.48
691.303	8689.36
691.65	8599.87
691.997	8563.26
692.344	8552.64
692.69	8529.37
693.037	8533.89
693.383	8453.89
693.73	8478.07
694.077	8432.19
694.423	8423.61
694.769	8388.8
695.116	8361.91
695.462	8297.28
695.808	8321.46
696.155	8341.35
696.501	8206.89
696.847	8231.75
697.193	8167.79
697.539	8225.65
697.885	8148.36
698.231	8160.11
698.577	8123.05
698.923	8004.18
699.269	8025.65
699.614	8036.95
699.96	7989.27
700.306	8002.6
700.651	7930.29
700.997	7885.32
701.342	7872.21
701.688	7843.96
702.033	7831.31
702.379	7746.56
702.724	7748.82
703.069	7766.45
703.415	7668.6
703.76	7696.39
704.105	7645.55
704.45	7657.52
704.795	7613.01
705.14	7604.19
705.485	7537.75
705.83	7530.75
706.175	7566.45
706.52	7528.94
706.865	7512.9
707.209	7468.15
707.554	7430.86
707.899	7459.79
708.243	7388.83
708.588	7387.48
708.932	7309.96
709.277	7360.36
709.621	7293.69
709.966	7293.01
710.31	7266.57
710.654	7193.81
710.998	7236.74
711.342	7215.28
711.687	7233.13
712.031	7168.05
712.375	7203.75
712.719	7126.01
713.063	7118.1
713.407	7195.84
713.75	7158.55
714.094	7126.47
714.438	7087.14
714.782	7081.27
715.125	7109.52
715.469	7083.98
715.812	7003.98
716.156	6954.04
716.499	6948.84
716.843	7032.23
717.186	6986.81
717.53	6943.42
717.873	6996.75
718.216	6917.43
718.559	6900.03
718.902	6862.07
719.246	6963.53
719.589	6880.82
719.932	6866.58
720.275	6832.91
720.617	6867.94
720.96	6828.62
721.303	6810.32
721.646	6858
721.989	6839.02
722.331	6846.92
722.674	6775.74
723.016	6849.18
723.359	6789.52
723.701	6823.87
724.044	6795.4
724.386	6738.68
724.729	6776.64
725.071	6758.34
725.413	6744.55
725.755	6764.44
726.097	6713.59
726.439	6758.34
726.782	6673.82
727.124	6726.02
727.465	6744.78
727.807	6738.9
728.149	6716.08
728.491	6733.03
728.833	6699.58
729.175	6681.96
729.516	6695.97
729.858	6672.47
730.199	6635.86
730.541	6650.09
730.882	6667.95
731.224	6712.46
731.565	6604.22
731.906	6721.96
732.248	6695.29
732.589	6605.57
732.93	6640.83
733.271	6636.31
733.612	6640.38
733.953	6692.13
734.294	6708.85
734.635	6656.87
734.976	6640.83
735.317	6580.26
735.658	6636.31
735.999	6654.84
736.339	6602.41
736.68	6665.46
737.021	6659.81
737.361	6568.51
737.702	6681.96
738.042	6686.7
738.383	6677.89
738.723	6715.63
739.063	6675.86
739.404	6722.86
739.744	6672.47
740.084	6688.74
740.424	6748.17
740.764	6680.38
741.104	6740.71
741.444	6762.63
741.784	6700.71
742.124	6739.13
742.464	6773.93
742.804	6721.05
743.143	6707.95
743.483	6797.66
743.823	6751.11
744.162	6765.8
744.502	6869.97
744.841	6841.95
745.181	6885.57
745.52	6869.75
745.86	6897.09
746.199	6946.58
746.538	6936.87
746.877	7008.5
747.216	7037.88
747.556	7026.13
747.895	7076.97
748.234	7098.9
748.573	7125.79
748.911	7139.35
749.25	7227.93
749.589	7254.37
749.928	7255.5
750.267	7360.36
750.605	7382.05
750.944	7461.37
751.283	7432.9
751.621	7562.39
751.96	7508.15
752.298	7672.67
752.636	7688.94
752.975	7842.83
753.313	7831.31
753.651	7945.65
753.989	8046.67
754.327	8044.86
754.666	8144.07
755.004	8217.51
755.342	8322.82
755.679	8379.54
756.017	8466.99
756.355	8564.85
756.693	8661.79
757.031	8832.18
757.368	8852.3
757.706	8999.64
758.044	9028.79
758.381	9217.71
758.719	9291.38
759.056	9443.47
759.394	9438.27
759.731	9566.63
760.068	9747.19
760.405	9769.11
760.743	9965.03
761.08	10096.1
761.417	10115.99
761.754	10319.6
762.091	10385.36
762.428	10529.54
762.765	10608.18
763.102	10775.86
763.438	10840.49
763.775	10902.19
764.112	11090.65
764.449	11214.72
764.785	11277.09
765.122	11350.99
765.458	11455.16
765.795	11541.26
766.131	11670.07
766.467	11770.86
766.804	11825.78
767.14	11917.07
767.476	12096.05
767.812	12125.88
768.148	12270.28
768.485	12275.93
768.821	12466.89
769.157	12423.95
769.492	12470.73
769.828	12562.03
770.164	12663.95
770.5	12742.81
770.836	12769.48
771.171	12861
771.507	13008.34
771.842	12914.56
772.178	13044.95
772.513	13081.34
772.849	13184.84
773.184	13206.76
773.519	13254.89
773.855	13245.63
774.19	13304.38
774.525	13351.39
774.86	13435.45
775.195	13419.41
775.53	13406.98
775.865	13430.71
776.2	13434.1
776.535	13382.35
776.87	13448.78
777.205	13499.63
777.539	13472.74
777.874	13573.98
778.209	13550.93
778.543	13592.96
778.878	13540.31
779.212	13639.51
779.547	13484.49
779.881	13723.35
780.215	13608.78
780.55	13658.5
780.884	13633.19
781.218	13690.81
781.552	13667.54
781.886	13641.1
782.22	13654.88
782.554	13609.91
782.888	13462.8
783.222	13539.86
783.556	13519.97
783.889	13536.69
784.223	13462.34
784.557	13463.25
784.89	13501.66
785.224	13388.67
785.557	13370.82
785.891	13474.09
786.224	13397.03
786.558	13395.9
786.891	13353.42
787.224	13277.94
787.557	13339.86
787.891	13317.26
788.224	13341.89
788.557	13243.82
788.89	13338.51
789.223	13327.88
789.556	13165.18
789.888	13145.74
790.221	13126.31
790.554	13183.26
790.887	13159.07
791.219	13049.47
791.552	13102.81
791.884	13074.33
792.217	12993.88
792.549	13005.86
792.882	12917.05
793.214	12864.39
793.546	12906.2
793.879	12839.31
794.211	12767.22
794.543	12861.46
794.875	12857.16
795.207	12819.65
795.539	12766.09
795.871	12816.71
796.203	12639.31
796.535	12665.53
796.867	12507.79
797.198	12639.54
797.53	12574.68
797.862	12504.63
798.193	12549.6
798.525	12449.94
798.856	12460.79
799.188	12371.98
799.519	12343.73
799.85	12248.14
800.182	12343.73
800.513	12321.36
800.844	12194.81
801.175	12243.84
801.506	12167.01
801.837	12194.58
802.168	12143.73
802.499	12100.57
802.83	12125.43
803.161	12102.15
803.491	12009.73
803.822	12052.89
804.153	12014.92
804.483	11924.08
804.814	11908.49
805.145	11882.27
805.475	11942.84
805.805	11825.32
806.136	11832.56
806.466	11847.92
806.796	11753.01
807.126	11717.08
807.457	11684.54
807.787	11717.53
808.117	11680.24
808.447	11582.17
808.777	11665.1
809.107	11640.7
809.436	11518.21
809.766	11500.81
810.096	11437.99
810.426	11453.81
810.755	11493.13
811.085	11421.95
811.414	11427.6
811.744	11393.47
812.073	11341.95
812.403	11442.74
812.732	11309.86
813.061	11261.27
813.39	11206.58
813.719	11188.05
814.049	11236.41
814.378	11303.08
814.707	11066.7
815.036	11201.39
815.365	11078
815.693	11006.14
816.022	11032.58
816.351	11040.49
816.68	10984.44
817.008	11010.2
817.337	10947.83
817.665	10896.31
817.994	10927.72
818.322	10951
818.651	10833.26
818.979	10855.63
819.307	10875.29
819.636	10759.36
819.964	10714.39
820.292	10861.51
820.62	10791.45
820.948	10818.57
821.276	10767.27
821.604	10763.43
821.932	10747.16
822.259	10833.03
822.587	10780.83
822.915	10766.37
823.243	10776.09
823.57	10734.73
823.898	10758.69
824.225	10693.38
824.553	10772.25
824.88	10654.28
825.207	10716.43
825.535	10680.5
825.862	10755.3
826.189	10670.33
826.516	10809.98
826.843	10758.46
827.17	10719.59
827.497	10864.67
827.824	10734.73
828.151	10841.62
828.478	10851.56
828.805	10838.68
829.131	10766.82
829.458	10775.63
829.785	10719.59
830.111	10682.53
830.438	10803.43
830.764	10751.45
831.09	10854.05
831.417	10726.6
831.743	10807.5
832.069	10718.01
832.395	10735.64
832.722	10751
833.048	10714.17
833.374	10740.61
833.7	10593.04
834.026	10659.25
834.351	10711.68
834.677	10689.08
835.003	10739.03
835.329	10713.49
835.654	10669.65
835.98	10595.53
836.306	10621.51
836.631	10563.44
836.956	10642.76
837.282	10671.23
837.607	10528.41
837.932	10557.34
838.258	10500.39
838.583	10507.85
838.908	10472.59
839.233	10487.51
839.558	10469.43
839.883	10458.13
840.208	10393.27
840.533	10401.18
840.858	10425.81
841.182	10447.51
841.507	10382.2
841.832	10292.94
842.156	10299.72
842.481	10316.21
842.805	10261.98
843.13	10254.97
843.454	10269.43
843.778	10249.77
844.103	10179.94
844.427	10179.27
844.751	10136.1
845.075	10151.24
845.399	10122.32
845.723	9925.49
846.047	10084.58
846.371	10028.99
846.695	9986.28
847.019	9919.39
847.343	9871.7
847.666	9842.1
847.99	9800.75
848.313	9741.31
848.637	9738.6
848.96	9740.41
849.284	9710.58
849.607	9650.47
849.931	9604.59
850.254	9571.37
850.577	9519.17
850.9	9445.73
851.223	9404.15
851.546	9412.51
851.869	9306.29
852.192	9364.6
852.515	9373.86
852.838	9236.47
853.161	9227.65
853.483	9215.45
853.806	9145.4
854.129	9186.52
854.451	9026.3
854.774	9057.94
855.096	9049.58
855.419	9032.4
855.741	8965.74
856.063	8963.25
856.385	8876.7
856.708	8899.3
857.03	8838.51
857.352	8874.89
857.674	8869.24
857.996	8803.71
858.318	8769.13
858.64	8727.55
858.961	8735.46
859.283	8715.58
859.605	8652.75
859.926	8653.2
860.248	8673.32
860.57	8535.24
860.891	8680.32
861.212	8620.44
861.534	8511.74
861.855	8521.23
862.176	8506.09
862.498	8479.2
862.819	8491.18
863.14	8519.2
863.461	8455.24
863.782	8440.55
864.103	8453.66
864.424	8357.85
864.745	8379.31
865.065	8304.97
865.386	8299.54
865.707	8335.02
866.027	8384.96
866.348	8369.82
866.668	8268.58
866.989	8300.45
867.309	8286.21
867.63	8275.14
867.95	8305.87
868.27	8208.7
868.59	8216.38
868.91	8235.36
869.23	8203.72
869.55	8198.3
869.87	8250.5
870.19	8210.5
870.51	8200.56
870.83	8148.59
871.15	8144.97
871.469	8157.85
871.789	8143.84
872.109	8122.37
872.428	8071.3
872.748	8116.04
873.067	8047.8
873.386	8071.53
873.706	8036.05
874.025	7977.74
874.344	8009.83
874.663	8040.34
874.982	8010.74
875.301	8008.25
875.62	7986.78
875.939	7950.17
876.258	7926.67
876.577	7893.22
876.896	7912.89
877.214	7878.76
877.533	7873.34
877.852	7793.57
878.17	7880.57
878.489	7840.57
878.807	7809.39
879.125	7853
879.444	7750.63
879.762	7753.79
880.08	7804.19
880.398	7742.04
880.716	7776.62
881.034	7714.25
881.352	7692.78
881.67	7674.25
881.988	7672.21
882.306	7667.02
882.624	7693.68
882.941	7637.86
883.259	7577.98
883.577	7615.72
883.894	7564.87
884.212	7596.28
884.529	7562.39
884.846	7531.2
885.164	7466.12
885.481	7495.27
885.798	7487.81
886.115	7435.84
886.432	7444.42
886.75	7398.77
887.067	7396.51
887.383	7408.27
887.7	7430.64
888.017	7395.16
888.334	7306.12
888.651	7352
888.967	7264.99
889.284	7316.52
889.6	7302.96
889.917	7251.89
890.233	7199.91
890.55	7226.35
890.866	7188.84
891.182	7110.65
891.498	7145.67
891.815	7123.75
892.131	7105.45
892.447	7029.29
892.763	7006.47
893.079	7023.64
893.395	7015.73
893.71	7023.64
894.026	6941.84
894.342	6971.67
894.657	6905.45
894.973	6854.16
895.289	6856.87
895.604	6892.57
895.92	6837.43
896.235	6803.54
896.55	6721.5
896.865	6757.44
897.181	6767.83
897.496	6771.67
897.811	6706.14
898.126	6651.9
898.441	6618.46
898.756	6681.96
899.071	6616.2
899.386	6617.1
899.7	6535.75
900.015	6525.58
900.33	6479.93
900.644	6526.03
900.959	6460.04
901.273	6440.83
901.588	6450.78
901.902	6395.41
902.216	6424.34
902.531	6390.67
902.845	6315.87
903.159	6292.81
903.473	6306.6
903.787	6256.66
904.101	6213.27
904.415	6195.64
904.729	6214.4
905.042	6189.99
905.356	6174.4
905.67	6142.08
905.984	6136.89
906.297	6098.47
906.611	6054.4
906.924	6044.01
907.237	6044.91
907.551	5923.78
907.864	6005.82
908.177	5976.66
908.491	5964.91
908.804	5894.63
909.117	5863.22
909.43	5810.57
909.743	5819.61
910.056	5809.66
910.368	5793.84
910.681	5731.93
910.994	5736.45
911.307	5808.99
911.619	5680.18
911.932	5706.39
912.244	5615.32
912.557	5606.73
912.869	5584.36
913.181	5610.8
913.494	5559.73
913.806	5541.42
914.118	5579.39
914.43	5502.78
914.742	5496.68
915.054	5457.58
915.366	5463.46
915.678	5399.73
915.99	5331.03
916.302	5331.26
916.613	5328.77
916.925	5310.92
917.236	5309.34
917.548	5256.46
917.859	5289.9
918.171	5238.61
918.482	5237.25
918.794	5191.15
919.105	5167.19
919.416	5169.45
919.727	5181.88
920.038	5117.25
920.349	5090.13
920.66	5054.43
920.971	5122.45
921.282	5072.96
921.593	4999.74
921.903	5013.98
922.214	4973.53
922.525	4949.35
922.835	4910.25
923.146	4908.22
923.456	4929.23
923.767	4897.37
924.077	4926.3
924.387	4837.03
924.697	4848.11
925.008	4809.69
925.318	4798.39
925.628	4763.59
925.938	4751.61
926.248	4729.47
926.558	4712.97
926.867	4694.44
927.177	4650.15
927.487	4638.17
927.796	4592.75
928.106	4613.76
928.416	4629.13
928.725	4594.33
929.034	4534.67
929.344	4615.8
929.653	4559.75
929.962	4523.14
930.271	4537.61
930.581	4489.7
930.89	4492.64
931.199	4449.25
931.508	4420.77
931.817	4436.59
932.125	4366.31
932.434	4383.26
932.743	4363.6
933.051	4294.45
933.36	4314.11
933.669	4303.94
933.977	4305.3
934.286	4270.04
934.594	4261.68
934.902	4210.84
935.21	4201.57
935.519	4234.34
935.827	4226.43
936.135	4152.98
936.443	4154.79
936.751	4144.4
937.059	4123.83
937.367	4112.53
937.674	4085.64
937.982	4089.71
938.29	4107.79
938.597	4037.05
938.905	3969.94
939.213	3986.89
939.52	3987.56
939.827	4014.46
940.135	3938.53
940.442	3934.91
940.749	3902.37
941.056	3912.54
941.363	3903.95
941.67	3872.54
941.977	3891.3
942.284	3803.16
942.591	3814.91
942.898	3785.54
943.205	3771.75
943.511	3728.14
943.818	3760.68
944.125	3734.92
944.431	3714.35
944.738	3722.26
945.044	3695.59
945.35	3684.3
945.657	3675.93
945.963	3660.34
946.269	3601.59
946.575	3600.68
946.881	3616.27
947.187	3607.46
947.493	3552.1
947.799	3546.9
948.105	3582.15
948.41	3487.92
948.716	3501.02
949.022	3501.93
949.327	3507.58
949.633	3433.68
949.938	3460.57
950.244	3423.74
950.549	3426.9
950.854	3382.83
951.16	3433.91
951.465	3363.63
951.77	3354.59
952.075	3312.78
952.38	3338.54
952.685	3332.89
952.99	3312.1
953.294	3287.92
953.599	3263.52
953.904	3256.96
954.209	3258.54
954.513	3239.56
954.818	3224.87
955.122	3187.81
955.426	3181.71
955.731	3189.39
956.035	3189.39
956.339	3183.74
956.643	3183.52
956.948	3103.97
957.252	3113.24
957.556	3119.56
957.86	3068.27
958.163	3077.08
958.467	3068.27
958.771	3079.34
959.075	3080.47
959.378	3059.45
959.682	3025.78
959.985	2974.48
960.289	2983.3
960.592	2974.94
960.896	2982.62
961.199	2974.03
961.502	2996.18
961.805	2947.59
962.108	2904.88
962.411	2940.36
962.714	2924.54
963.017	2855.39
963.32	2867.37
963.623	2849.29
963.926	2868.27
964.228	2812
964.531	2831.21
964.833	2831.66
965.136	2787.14
965.438	2777.65
965.741	2826.01
966.043	2771.78
966.345	2741.5
966.648	2757.77
966.95	2727.94
967.252	2695.85
967.554	2701.5
967.856	2686.81
968.158	2697.43
968.46	2642.97
968.761	2653.59
969.063	2634.38
969.365	2647.26
969.666	2634.83
969.968	2585.12
970.269	2590.09
970.571	2595.51
970.872	2589.64
971.174	2610.2
971.475	2570.43
971.776	2558.22
972.077	2547.15
972.378	2554.83
972.679	2522.97
972.98	2528.39
973.281	2490.43
973.582	2521.16
973.883	2478.23
974.183	2465.8
974.484	2464.21
974.785	2470.77
975.085	2457.21
975.386	2445.46
975.686	2442.75
975.986	2462.63
976.287	2422.86
976.587	2410.88
976.887	2373.14
977.187	2376.08
977.487	2327.72
977.787	2340.6
978.087	2321.17
978.387	2321.17
978.687	2308.96
978.987	2289.98
979.286	2271.23
979.586	2312.58
979.885	2274.16
980.185	2256.76
980.484	2255.41
980.784	2253.37
981.083	2243.2
981.382	2253.37
981.682	2206.59
981.981	2219.48
982.28	2243.66
982.579	2204.33
982.878	2199.82
983.177	2167.05
983.475	2171.34
983.774	2150.32
984.073	2163.66
984.372	2133.38
984.67	2115.98
984.969	2112.36
985.267	2119.82
985.566	2105.81
985.864	2115.98
986.162	2090.44
986.461	2087.28
986.759	2084.56
987.057	2056.32
987.355	2046.15
987.653	2018.58
987.951	2040.5
988.249	2033.27
988.547	2002.53
988.844	1986.71
989.142	1971.12
989.44	1969.99
989.737	1960.05
990.035	1967.96
990.332	1955.08
990.63	1965.47
990.927	1921.86
991.224	1929.54
991.521	1944.68
991.819	1888.41
992.116	1914.85
992.413	1884.8
992.71	1900.61
993.006	1880.73
993.303	1882.76
993.6	1876.89
993.897	1858.58
994.193	1869.43
994.49	1840.95
994.787	1833.95
995.083	1813.16
995.379	1822.88
995.676	1827.62
995.972	1810.67
996.268	1817.45
996.565	1761.86
996.861	1757.34
997.157	1785.81
997.453	1764.57
997.749	1744.91
998.044	1752.37
998.34	1740.17
998.636	1703.33
998.932	1717.34
999.227	1704.91
999.523	1692.03
999.818	1692.94
1000.114	1654.07
1000.409	1668.76
1000.704	1670.34
1001	1651.81
1001.295	1645.03
1001.59	1668.53
1001.885	1621.75
1002.18	1641.19
1002.475	1627.4
1002.77	1606.84
1003.065	1579.04
1003.359	1585.59
1003.654	1580.17
1003.949	1585.59
1004.243	1583.11
1004.538	1550.79
1004.832	1570.23
1005.127	1558.93
1005.421	1519.83
1005.715	1558.48
1006.009	1521.87
1006.304	1520.51
1006.598	1492.71
1006.892	1485.03
1007.186	1475.31
1007.48	1468.53
1007.773	1485.94
1008.067	1461.76
1008.361	1444.81
1008.655	1428.99
1008.948	1452.26
1009.242	1435.54
1009.535	1406.84
1009.829	1410.46
1010.122	1416.11
1010.415	1388.76
1010.708	1404.13
1011.001	1365.49
1011.295	1384.47
1011.588	1395.99
1011.881	1386.96
1012.173	1360.52
1012.466	1338.37
1012.759	1350.35
1013.052	1348.99
1013.344	1334.53
1013.637	1316.67
1013.93	1305.6
1014.222	1294.53
1014.514	1302.21
1014.807	1261.31
1015.099	1323.91
1015.391	1275.09
1015.683	1275.77
1015.976	1264.25
1016.268	1243.68
1016.56	1237.58
1016.851	1250.69
1017.143	1249.78
1017.435	1241.2
1017.727	1228.77
1018.018	1198.71
1018.31	1215.66
1018.602	1219.05
1018.893	1191.71
1019.185	1173.4
1019.476	1191.71
1019.767	1194.42
1020.058	1193.97
1020.35	1165.72
1020.641	1151.03
1020.932	1130.92
1021.223	1145.38
1021.514	1120.52
1021.804	1105.15
1022.095	1127.3
1022.386	1095.66
1022.677	1103.57
1022.967	1114.42
1023.258	1089.34
1023.548	1076.91
1023.839	1095.21
1024.129	1080.52
1024.419	1043.69
1024.709	1040.75
1025	1046.63
1025.29	1035.78
1025.58	1025.83
1025.87	1047.53
1026.16	1034.65
1026.449	1020.41
1026.739	1017.25
1027.029	1026.96
1027.319	992.39
1027.608	1006.17
1027.898	1012.73
1028.187	999.85
1028.477	984.48
1028.766	967.76
1029.055	977.47
1029.344	973.41
1029.634	952.84
1029.923	964.59
1030.212	951.71
1030.501	947.64
1030.79	915.56
1031.078	874.88
1031.367	923.01
1031.656	910.13
1031.945	896.8
1032.233	889.12
1032.522	887.99
1032.81	899.06
1033.099	909.91
1033.387	895.89
1033.675	887.76
1033.963	883.01
1034.251	903.8
1034.54	846.86
1034.828	866.06
1035.116	866.74
1035.403	858.61
1035.691	848.21
1035.979	829
1036.267	817.48
1036.554	834.43
1036.842	819.29
1037.129	835.11
1037.417	814.09
1037.704	789.91
1037.992	792.39
1038.279	801.66
1038.566	782
1038.853	782
1039.14	782
