Data from hue_38_FLMS001491_00094.txt Node
Date: Tue Feb 07 17:32:14 GMT 2017
User: dcchb
Spectrometer: FLMS00149
Trigger mode: 0
Integration Time (sec): 2.000000E-2
Scans to average: 10
Electric dark correction enabled: true
Nonlinearity correction enabled: false
Boxcar width: 0
XAxis mode: Wavelengths
Number of Pixels in Spectrum: 2048
>>>>>Begin Spectral Data<<<<<
341.393	-8.94
341.776	-8.94
342.16	-8.94
342.543	-59.33
342.927	-45.78
343.31	-57.53
343.693	-79.9
344.077	-46.91
344.46	-68.37
344.843	-51.2
345.226	-37.41
345.61	-15.49
345.993	-30.41
346.376	1.45
346.759	1.45
347.142	18.4
347.525	41
347.908	38.29
348.291	68.57
348.674	86.42
349.057	131.62
349.44	126.42
349.823	164.61
350.206	173.88
350.588	199.42
350.971	213.88
351.354	251.84
351.737	220.43
352.119	246.42
352.502	258.62
352.884	276.48
353.267	290.26
353.65	307.66
354.032	304.05
354.414	301.79
354.797	324.84
355.179	337.27
355.562	339.75
355.944	341.78
356.326	339.07
356.709	339.75
357.091	338.17
357.473	344.04
357.855	333.88
358.238	355.57
358.62	364.38
359.002	359.41
359.384	356.93
359.766	337.27
360.148	348.56
360.53	341.11
360.912	353.76
361.294	330.26
361.676	340.65
362.057	337.27
362.439	315.8
362.821	335.91
363.203	330.71
363.584	335.91
363.966	338.85
364.348	337.27
364.729	335.23
365.111	314.89
365.493	327.1
365.874	337.94
366.256	337.94
366.637	296.14
367.019	323.03
367.4	311.05
367.781	305.4
368.163	325.74
368.544	335.23
368.925	309.47
369.306	336.81
369.688	323.25
370.069	327.55
370.45	322.35
370.831	327.55
371.212	308.34
371.593	306.98
371.974	321.9
372.355	337.72
372.736	325.51
373.117	318.73
373.498	317.15
373.879	330.03
374.26	314.44
374.641	321.67
375.021	308.34
375.402	326.19
375.783	330.03
376.163	360.32
376.544	351.05
376.925	323.71
377.305	344.27
377.686	346.3
378.066	340.43
378.447	358.28
378.827	321.67
379.208	339.07
379.588	345.85
379.968	332.52
380.349	329.13
380.729	350.6
381.109	353.31
381.489	341.11
381.87	338.62
382.25	359.19
382.63	340.88
383.01	363.25
383.39	352.86
383.77	352.41
384.15	363.48
384.53	347.43
384.91	351.5
385.29	348.79
385.67	356.7
386.049	361.67
386.429	335.68
386.809	375.91
387.189	358.06
387.568	361.45
387.948	353.54
388.328	369.13
388.707	372.29
389.087	371.16
389.466	374.1
389.846	370.71
390.225	378.85
390.605	376.36
390.984	382.46
391.363	394.66
391.743	377.26
392.122	374.78
392.501	370.71
392.881	394.89
393.26	383.59
393.639	382.91
394.018	377.49
394.397	392.4
394.776	392.63
395.155	368.9
395.534	397.6
395.913	395.79
396.292	407.77
396.671	395.57
397.05	400.77
397.429	388.56
397.808	414.78
398.186	411.39
398.565	410.26
398.944	407.09
399.323	400.31
399.701	398.51
400.08	429.69
400.458	419.75
400.837	408.45
401.215	417.94
401.594	415.46
401.972	403.93
402.351	408.22
402.729	413.65
403.107	437.15
403.486	439.18
403.864	433.08
404.242	440.99
404.62	434.66
404.999	422.69
405.377	454.1
405.755	437.6
406.133	438.96
406.511	454.32
406.889	450.03
407.267	414.78
407.645	452.06
408.023	455.91
408.401	457.26
408.779	456.81
409.156	437.38
409.534	431.5
409.912	480.54
410.29	477.15
410.667	473.76
411.045	483.02
411.422	466.08
411.8	489.13
412.178	494.78
412.555	492.29
412.933	499.75
413.31	511.5
413.687	473.98
414.065	491.39
414.442	517.37
414.819	519.86
415.197	521.67
415.574	513.98
415.951	524.15
416.328	533.64
416.705	538.62
417.082	541.1
417.46	548.56
417.837	539.52
418.214	532.06
418.591	552.63
418.967	532.51
419.344	561.89
419.721	548.33
420.098	569.35
420.475	551.72
420.852	547.66
421.228	565.06
421.605	567.99
421.982	553.76
422.358	569.58
422.735	565.28
423.111	604.38
423.488	586.52
423.864	586.3
424.241	580.42
424.617	592.63
424.994	589.91
425.37	608.44
425.746	600.99
426.123	610.03
426.499	614.55
426.875	633.08
427.251	618.84
427.627	630.36
428.003	638.73
428.379	626.07
428.756	622.46
429.132	655
429.507	649.57
429.883	644.38
430.259	669.01
430.635	659.29
431.011	680.53
431.387	715.33
431.763	699.74
432.138	683.47
432.514	706.29
432.89	709.68
433.265	709.46
433.641	735.22
434.016	714.66
434.392	716.92
434.767	726.41
435.143	750.14
435.518	734.54
435.894	746.07
436.269	760.76
436.644	763.24
437.02	773.86
437.395	772.28
437.77	794.88
438.145	782.45
438.52	801.66
438.895	798.27
439.271	805.73
439.646	796.01
440.021	814.54
440.395	811.38
440.77	810.7
441.145	840.53
441.52	817.25
441.895	825.16
442.27	854.99
442.645	838.95
443.019	845.27
443.394	862.45
443.769	871.26
444.143	865.16
444.518	844.37
444.892	886.4
445.267	893.18
445.641	903.13
446.016	917.81
446.39	923.69
446.764	908.32
447.139	930.24
447.513	920.75
447.887	945.61
448.262	946.74
448.636	913.52
449.01	929.34
449.384	946.51
449.758	957.14
450.132	949
450.506	966.63
450.88	948.1
451.254	976.8
451.628	974.54
452.002	997.13
452.376	1006.85
452.75	981.54
453.123	1023.8
453.497	1024.48
453.871	1046.17
454.244	1046.4
454.618	1031.94
454.992	1065.38
455.365	1076.68
455.739	1104.25
456.112	1103.35
456.486	1088.43
456.859	1127.98
457.232	1149.67
457.606	1131.82
457.979	1141.76
458.352	1166.62
458.725	1164.81
459.099	1170.01
459.472	1199.62
459.845	1226.73
460.218	1232.16
460.591	1269.67
460.964	1250.69
461.337	1276.68
461.71	1306.05
462.083	1277.13
462.456	1306.05
462.829	1296.34
463.201	1323.91
463.574	1339.05
463.947	1372.94
464.32	1395.54
464.692	1423.11
465.065	1413.4
465.438	1449.1
465.81	1474.64
466.183	1485.71
466.555	1498.82
466.928	1503.56
467.3	1522.32
467.672	1565.93
468.045	1598.47
468.417	1587.85
468.789	1624.24
469.161	1642.32
469.534	1677.79
469.906	1675.54
470.278	1708.53
470.65	1720.05
471.022	1773.61
471.394	1802.09
471.766	1838.47
472.138	1860.84
472.51	1906.04
472.882	1917.11
473.253	1948.97
473.625	2034.85
473.997	2046.82
474.369	2084.34
474.74	2088.86
475.112	2176.54
475.484	2178.35
475.855	2255.86
476.227	2286.37
476.598	2350.09
476.97	2377.66
477.341	2429.19
477.713	2494.27
478.084	2496.76
478.455	2600.71
478.827	2672.57
479.198	2769.52
479.569	2771.78
479.94	2878.89
480.311	2949.4
480.682	3016.29
481.053	3094.03
481.424	3169.51
481.795	3182.16
482.166	3308.71
482.537	3335.15
482.908	3430.97
483.279	3517.52
483.65	3603.39
484.021	3719.32
484.391	3740.79
484.762	3838.87
485.133	3929.49
485.503	4016.04
485.874	4152.08
486.244	4191.63
486.615	4305.52
486.985	4387.78
487.356	4514.78
487.726	4565.4
488.097	4741.22
488.467	4801.55
488.837	4905.05
489.207	4980.53
489.578	5145.95
489.948	5233.18
490.318	5412.16
490.688	5422.33
491.058	5539.39
491.428	5600.18
491.798	5767.18
492.168	5917.91
492.538	5958.13
492.908	6063.89
493.278	6187.73
493.648	6232.03
494.017	6399.7
494.387	6465.69
494.757	6568.97
495.126	6695.97
495.496	6735.97
495.866	6826.81
496.235	6904.1
496.605	7065.68
496.974	7126.24
497.344	7228.84
497.713	7297.76
498.082	7444.65
498.452	7526.45
498.821	7591.76
499.19	7621.14
499.559	7798.09
499.928	7839.21
500.298	7880.12
500.667	8056.61
501.036	8149.04
501.405	8194.46
501.774	8298.41
502.143	8334.12
502.512	8402.82
502.88	8474.45
503.249	8561.23
503.618	8622.92
503.987	8729.81
504.356	8817.04
504.724	8952.63
505.093	8958.51
505.462	9030.37
505.83	9077.37
506.199	9220.65
506.567	9284.37
506.936	9329.12
507.304	9464.26
507.672	9570.69
508.041	9616.12
508.409	9720.3
508.777	9787.19
509.145	9907.63
509.514	9962.77
509.882	10038.03
510.25	9930.23
510.618	10107.18
510.986	10148.53
511.354	10228.98
511.722	10351.69
512.09	10391.01
512.458	10423.1
512.826	10487.51
513.193	10591.68
513.561	10651.34
513.929	10650.44
514.297	10803.66
514.664	10950.55
515.032	10958.68
515.4	11082.97
515.767	11134.27
516.135	11143.99
516.502	11099.47
516.869	11261.05
517.237	11368.61
517.604	11376.52
517.972	11455.39
518.339	11601.38
518.706	11515.28
519.073	11631.43
519.44	11699
519.808	11894.25
520.175	11820.81
520.542	12021.03
520.909	12029.16
521.276	12044.75
521.643	12177.18
522.009	12255.14
522.376	12359.32
522.743	12406.78
523.11	12509.83
523.477	12635.02
523.843	12625.76
524.21	12845.64
524.577	12944.84
524.943	12951.17
525.31	12934.67
525.676	13185.51
526.043	13082.47
526.409	13206.31
526.776	13322.46
527.142	13343.02
527.508	13427.32
527.874	13574.88
528.241	13657.37
528.607	13677.03
528.973	13830.24
529.339	13851.03
529.705	14013.29
530.071	14123.8
530.437	14197.01
530.803	14271.14
531.169	14264.58
531.535	14358.82
531.901	14406.05
532.267	14444.69
532.632	14472.49
532.998	14545.93
533.364	14693.72
533.73	14721.97
534.095	14853.49
534.461	14849.65
534.826	14921.51
535.192	15011.68
535.557	15064.79
535.923	15142.3
536.288	15263.88
536.653	15247.16
537.019	15296.65
537.384	15321.73
537.749	15454.83
538.114	15449.18
538.479	15438.79
538.845	15603.76
539.21	15564.89
539.575	15685.79
539.94	15765.11
540.305	15801.72
540.67	15757.88
541.034	15940.02
541.399	15926.23
541.764	16086.23
542.129	15972.56
542.494	16130.07
542.858	16219.33
543.223	16373.23
543.587	16485.77
543.952	16393.34
544.316	16371.42
544.681	16463.39
545.045	16570.96
545.41	16717.63
545.774	16748.13
546.138	16737.29
546.503	16790.39
546.867	16857.51
547.231	17010.5
547.595	16941.57
547.959	17061.57
548.324	17039.88
548.688	17092.53
549.052	17196.71
549.416	17167.11
549.779	17323.94
550.143	17355.8
550.507	17483.71
550.871	17481.22
551.235	17493.42
551.599	17589.47
551.962	17677.6
552.326	17719.18
552.689	17824.71
553.053	17772.51
553.417	17758.5
553.78	18039.62
554.143	18013.41
554.507	18108.78
554.87	18158.94
555.234	18269.9
555.597	18212.95
555.96	18302.44
556.323	18468.09
556.686	18425.15
557.05	18577.46
557.413	18532.94
557.776	18640.29
558.139	18735.2
558.502	18750.34
558.865	18822.43
559.228	18856.55
559.59	18994.63
559.953	18984.91
560.316	19230.33
560.679	19128.18
561.041	19282.53
561.404	19353.49
561.767	19487.95
562.129	19472.36
562.492	19691.56
562.854	19592.58
563.217	19610.43
563.579	19715.74
563.941	19835.51
564.304	20022.62
564.666	19947.15
565.028	20103.98
565.39	20120.7
565.753	20251.54
566.115	20288.6
566.477	20376.74
566.839	20412.44
567.201	20533.8
567.563	20561.82
567.925	20793.22
568.287	20699.89
568.648	20775.15
569.01	20906.22
569.372	21025.99
569.734	20975.14
570.095	21106.21
570.457	21210.61
570.819	21362.25
571.18	21411.97
571.542	21505.07
571.903	21543.49
572.265	21608.34
572.626	21729.92
572.987	21667.55
573.349	21786.42
573.71	21998.16
574.071	22087.2
574.432	22155.9
574.794	22294.43
575.155	22354.77
575.516	22372.84
575.877	22546.4
576.238	22673.4
576.599	22778.03
576.96	22972.38
577.32	23010.12
577.681	23158.36
578.042	23284.01
578.403	23416.88
578.763	23441.29
579.124	23669.08
579.485	24002.63
579.845	24090.99
580.206	24099.35
580.566	24203.3
580.927	24337.09
581.287	24638.77
581.648	24617.76
582.008	24808.94
582.368	25008.71
582.728	25295.25
583.089	25276.04
583.449	25459.99
583.809	25564.17
584.169	25728.01
584.529	25881.45
584.889	26331.16
585.249	26319.63
585.609	26465.84
585.969	26803.01
586.329	26883.23
586.688	27097.01
587.048	27374.52
587.408	27438.25
587.768	27704.23
588.127	27810.67
588.487	28045.24
588.846	28510.08
589.206	28548.95
589.565	28722.28
589.925	29136.28
590.284	29217.86
590.643	29491.07
591.003	29720
591.362	29958.18
591.721	30060.55
592.08	30274.33
592.44	30437.72
592.799	30584.38
593.158	30813.53
593.517	31092.84
593.876	31361.31
594.235	31309.78
594.593	31579.83
594.952	32006.04
595.311	31979.6
595.67	32229.76
596.029	32643.08
596.387	32793.59
596.746	33051.66
597.104	32921.72
597.463	33248.26
597.822	33604.19
598.18	33730.06
598.538	33792.88
598.897	34079.65
599.255	34120.11
599.613	34703.14
599.972	34542.02
600.33	34742.46
600.688	34912.4
601.046	35225.61
601.404	35288.21
601.762	35482.33
602.12	35938.81
602.478	35845.94
602.836	36127.51
603.194	36143.1
603.552	36395.75
603.91	36393.27
604.268	36699.02
604.625	36597.55
604.983	37008.84
605.341	37012.68
605.698	37374.48
606.056	37412.9
606.413	37605.21
606.771	37858.31
607.128	37921.59
607.485	37819.44
607.843	38071.19
608.2	38322.93
608.557	38487.9
608.914	38390.5
609.272	38775.12
609.629	38841.79
609.986	39016.7
610.343	38938.51
610.7	39388.89
611.057	39250.37
611.414	39368.56
611.771	39557.7
612.127	39775.55
612.484	39842.67
612.841	39985.26
613.198	39972.61
613.554	40108.65
613.911	40428.64
614.267	40480.16
614.624	40390.45
614.98	40593.38
615.337	40857.1
615.693	40849.87
616.05	40851.68
616.406	41055.06
616.762	41178.23
617.118	41298.45
617.475	41405.34
617.831	41492.79
618.187	41602.17
618.543	41582.73
618.899	41839.22
619.255	41785.67
619.611	41961.48
619.967	42064.3
620.323	42069.28
620.678	42025.43
621.034	42020.01
621.39	42170.74
621.746	42307.01
622.101	42663.16
622.457	42331.19
622.812	42550.39
623.168	42614.8
623.523	42667
623.879	42906.09
624.234	42497.74
624.589	42695.02
624.945	42845.98
625.3	43004.84
625.655	42789.26
626.01	42896.82
626.365	43026.31
626.72	42943.6
627.075	43047.33
627.43	43078.06
627.785	43116.03
628.14	43099.53
628.495	43115.35
628.85	43200.09
629.205	42989.7
629.559	43257.49
629.914	43071.28
630.269	43207.78
630.623	43157.83
630.978	43044.16
631.332	43174.33
631.687	43428.79
632.041	43159.87
632.396	43329.81
632.75	43049.59
633.104	43125.97
633.459	43049.36
633.813	43050.72
634.167	43212.52
634.521	43208.91
634.875	43218.17
635.229	43321.9
635.583	42979.76
635.937	43073.32
636.291	43041.68
636.645	43071.73
636.999	43064.96
637.352	43104.5
637.706	42854.79
638.06	43157.83
638.413	42986.54
638.767	42839.42
639.121	42928.91
639.474	42774.57
639.828	42831.74
640.181	42882.81
640.534	42751.29
640.888	42797.84
641.241	42629.03
641.594	42693.67
641.947	42832.87
642.301	42688.92
642.654	42801.23
643.007	42744.06
643.36	42624.74
643.713	42601.92
644.066	42814.11
644.419	42460
644.771	42251.19
645.124	41999.67
645.477	41841.48
645.83	41647.37
646.182	41555.84
646.535	41516.07
646.888	41467.48
647.24	41283.76
647.593	41540.48
647.945	41340.71
648.298	41276.75
648.65	41247.15
649.002	41078.79
649.355	41270.43
649.707	41298.9
650.059	41340.93
650.411	41921.93
650.763	41825.89
651.115	42189.05
651.467	42082.38
651.819	42191.31
652.171	42079.44
652.523	41963.06
652.875	42026.34
653.227	41887.81
653.578	42224.3
653.93	41979.33
654.282	41935.95
654.633	41817.08
654.985	41935.95
655.337	41745.67
655.688	41839
656.039	42039.22
656.391	41674.26
656.742	41811.88
657.094	41737.98
657.445	41855.27
657.796	41775.05
658.147	41808.72
658.498	41726.23
658.849	41760.81
659.2	41544.54
659.551	41518.56
659.902	41851.65
660.253	41724.43
660.604	41750.64
660.955	41541.83
661.306	41684.65
661.656	41718.1
662.007	41758.55
662.358	41669.29
662.708	41589.74
663.059	41713.58
663.409	41537.09
663.76	41639.68
664.11	41581.6
664.461	41703.18
664.811	41635.16
665.161	41510.87
665.511	41444.88
665.862	41558.78
666.212	41658.21
666.562	41640.13
666.912	41559.23
667.262	41510.87
667.612	41486.24
667.962	41529.18
668.312	41514.04
668.662	41698.89
669.011	41593.36
669.361	41531.89
669.711	41432.68
670.06	41411.21
670.41	41467.71
670.76	41414.15
671.109	41429.97
671.459	41387.94
671.808	41388.62
672.157	41558.78
672.507	41193.82
672.856	41200.82
673.205	41375.73
673.554	41407.6
673.904	41299.58
674.253	41486.69
674.602	41310.43
674.951	40835.41
675.3	40672.02
675.649	41207.15
675.998	41100.71
676.346	41205.8
676.695	41332.12
677.044	40924.22
677.393	41208.73
677.741	41144.1
678.09	41093.93
678.438	40891
678.787	40940.04
679.135	40954.05
679.484	40668.86
679.832	41049.64
680.181	40635.87
680.529	40754.73
680.877	40715.64
681.225	40577.34
681.573	40712.25
681.922	40528.75
682.27	40397.91
682.618	40470.22
682.966	40359.26
683.314	40378.7
683.661	40234.75
684.009	40057.58
684.357	40089.89
684.705	40143.22
685.053	40173.05
685.4	40013.74
685.748	39818.26
686.095	39904.36
686.443	39630.7
686.79	39591.83
687.138	39729.22
687.485	39756.34
687.832	39566.74
688.18	39490.81
688.527	39390.48
688.874	39318.39
689.221	39168.56
689.568	39199.52
689.915	39133.31
690.262	39232.06
690.609	39065.06
690.956	38885.86
691.303	38830.49
691.65	38710.49
691.997	38806.08
692.344	38395.93
692.69	38470.05
693.037	38532.87
693.383	38226.66
693.73	38259.88
694.077	38103.05
694.423	38038.19
694.769	37925.88
695.116	37753.91
695.462	37700.8
695.808	37661.48
696.155	37767.24
696.501	37419.23
696.847	37564.99
697.193	37257.42
697.539	37292.23
697.885	37174.26
698.231	36941.05
698.577	36975.4
698.923	36968.62
699.269	36838
699.614	36565.47
699.96	36602.53
700.306	36608.18
700.651	36412.7
700.997	36264.46
701.342	36357.79
701.688	36186.49
702.033	36060.39
702.379	36115.99
702.724	35834.64
703.069	35999.15
703.415	35593.97
703.76	35667.86
704.105	35679.39
704.45	35662.89
704.795	35498.6
705.14	35322.79
705.485	35378.6
705.83	35109.46
706.175	35119.85
706.52	35134.32
706.865	35008.67
707.209	34812.06
707.554	34750.6
707.899	34799.64
708.243	34734.78
708.588	34680.99
708.932	34439.19
709.277	34386.99
709.621	34372.98
709.966	34253.44
710.31	34337.73
710.654	33959.88
710.998	34054.12
711.342	34025.19
711.687	33825.2
712.031	33853.22
712.375	33808.02
712.719	33766.67
713.063	33632.43
713.407	33717.86
713.75	33575.49
714.094	33502.04
714.438	33373.01
714.782	33336.85
715.125	33278.09
715.469	33272.9
715.812	33034.48
716.156	32914.71
716.499	32989.06
716.843	32973.7
717.186	32720.14
717.53	32953.58
717.873	32796.3
718.216	32683.31
718.559	32735.74
718.902	32388.85
719.246	32561.28
719.589	32516.76
719.932	32336.88
720.275	32302.53
720.617	32382.98
720.96	32197.22
721.303	32205.58
721.646	32194.51
721.989	32037.45
722.331	32118.8
722.674	31997
723.016	32151.57
723.359	31839.94
723.701	32004.91
724.044	31737.8
724.386	31650.34
724.729	31851.46
725.071	31640.85
725.413	31727.17
725.755	31519.72
726.097	31553.85
726.439	31335.77
726.782	31308.88
727.124	31602.43
727.465	31313.4
727.807	31352.95
728.149	31246.06
728.491	31056.68
728.833	31276.56
729.175	31044.93
729.516	30980.08
729.858	30964.03
730.199	30935.56
730.541	30894.2
730.882	30891.72
731.224	30923.13
731.565	30633.42
731.906	30792.06
732.248	30719.74
732.589	30628.45
732.93	30534.21
733.271	30555
733.612	30422.8
733.953	30438.85
734.294	30436.81
734.635	30303.93
734.976	30377.61
735.317	30298.96
735.658	30156.59
735.999	30232.75
736.339	30051.06
736.68	30135.13
737.021	29945.53
737.361	29904.4
737.702	29991.4
738.042	29999.99
738.383	29839.09
738.723	29950.05
739.063	29804.29
739.404	29801.35
739.744	29650.17
740.084	29550.28
740.424	29779.2
740.764	29639.09
741.104	29700.33
741.444	29505.54
741.784	29538.76
742.124	29453.56
742.464	29415.37
742.804	29353.23
743.143	29323.4
743.483	29409.95
743.823	29122.95
744.162	29110.29
744.502	29235.94
744.841	29061.93
745.181	29223.96
745.52	29016.29
745.86	29102.16
746.199	29043.85
746.538	29082.05
746.877	29095.38
747.216	28979.22
747.556	28894.93
747.895	28817.65
748.234	28861.71
748.573	28854.71
748.911	28646.58
749.25	28670.76
749.589	28520.25
749.928	28496.07
750.267	28532.68
750.605	28427.15
750.944	28344.44
751.283	28362.29
751.621	28311.67
751.96	28282.97
752.298	28185.8
752.636	28148.96
752.975	28121.17
753.313	28110.77
753.651	28043.2
753.989	27908.52
754.327	27895.18
754.666	27753.72
755.004	27878.01
755.342	27836.2
755.679	27831.46
756.017	27601.86
756.355	27669.88
756.693	27552.37
757.031	27617.68
757.368	27383.56
757.706	27322.77
758.044	27292.71
758.381	27346.72
758.719	27303.11
759.056	27229.67
759.394	27072.16
759.731	26902.44
760.068	26702.45
760.405	26745.38
760.743	26680.3
761.08	26837.13
761.417	26676.01
761.754	26621.09
762.091	26596.46
762.428	26413.42
762.765	26215.91
763.102	26260.43
763.438	26168.22
763.775	26074.67
764.112	26111.5
764.449	26049.36
764.785	25995.8
765.122	25850.94
765.458	25703.15
765.795	25648.24
766.131	25580.44
766.467	25520.78
766.804	25415.93
767.14	25192.66
767.476	25335.48
767.812	25224.07
768.148	25238.31
768.485	25060
768.821	24868.15
769.157	24926.22
769.492	24866.79
769.828	24761.71
770.164	24531.43
770.5	24563.52
770.836	24587.02
771.171	24302.74
771.507	24324.43
771.842	24128.05
772.178	24117.88
772.513	24052.35
772.849	24073.36
773.184	23943.2
773.519	23808.74
773.855	23787.5
774.19	23711.79
774.525	23572.59
774.86	23648.97
775.195	23521.74
775.53	23348.41
775.865	23253.27
776.2	23093.28
776.535	23026.84
776.87	22917.01
777.205	22920.17
777.539	22748.43
777.874	22908.2
778.209	22611.93
778.543	22518.15
778.878	22524.03
779.212	22462.79
779.547	22327.42
779.881	22391.15
780.215	22210.81
780.55	22239.06
780.884	22093.76
781.218	22053.76
781.552	21978.96
781.886	21818.73
782.22	21800.2
782.554	21641.11
782.888	21447.9
783.222	21276.38
783.556	21280.67
783.889	21243.38
784.223	21141.46
784.557	21112.54
784.89	21243.61
785.224	20965.88
785.557	20915.03
785.891	20846.56
786.224	20854.92
786.558	20776.73
786.891	20650.18
787.224	20566.56
787.557	20438.88
787.891	20402.27
788.224	20361.82
788.557	20446.11
788.89	20250.41
789.223	20336.29
789.556	20123.64
789.888	20172.22
790.221	20052.9
790.554	19953.25
790.887	19808.39
791.219	19855.4
791.552	19715.29
791.884	19553.71
792.217	19603.2
792.549	19435.07
792.882	19305.13
793.214	19271.91
793.546	19257.45
793.879	19132.48
794.211	19115.98
794.543	19127.51
794.875	19062.2
795.207	19038.69
795.539	18949.43
795.871	18841.86
796.203	18788.98
796.535	18589.89
796.867	18572.27
797.198	18685.94
797.53	18550.8
797.862	18379.95
798.193	18500.63
798.525	18338.37
798.856	18408.2
799.188	18225.16
799.519	18153.07
799.85	18003.02
800.182	18081.21
800.513	18158.94
800.844	17881.89
801.175	18014.77
801.506	17902.23
801.837	17832.4
802.168	17751.95
802.499	17832.62
802.83	17681.22
803.161	17642.57
803.491	17536.36
803.822	17562.57
804.153	17459.98
804.483	17339.08
804.814	17159.42
805.145	17261.57
805.475	17202.13
805.805	17165.52
806.136	17200.55
806.466	17153.09
806.796	17083.72
807.126	16899.09
807.457	16921.69
807.787	16940.9
808.117	16730.73
808.447	16803.95
808.777	16829.26
809.107	16729.15
809.436	16641.47
809.766	16682.37
810.096	16472.43
810.426	16476.28
810.755	16489.16
811.085	16465.65
811.414	16464.98
811.744	16243.29
812.073	16245.77
812.403	16289.61
812.732	16109.73
813.061	16133.46
813.39	16114.7
813.719	16094.14
814.049	16152.22
814.378	16063.18
814.707	15868.83
815.036	15909.06
815.365	15773.7
815.693	15666.13
816.022	15808.72
816.351	15719.91
816.68	15575.73
817.008	15659.57
817.337	15534.83
817.665	15478.56
817.994	15515.17
818.322	15488.73
818.651	15426.81
818.979	15355.85
819.307	15450.09
819.636	15410.99
819.964	15237.21
820.292	15293.71
820.62	15232.01
820.948	15288.28
821.276	15204.22
821.604	15237.89
821.932	15148.63
822.259	15266.82
822.587	15146.82
822.915	15127.84
823.243	15242.86
823.57	15131.23
823.898	15189.08
824.225	15116.31
824.553	15130.1
824.88	15094.17
825.207	15127.84
825.535	15109.53
825.862	15254.84
826.189	15163.09
826.516	15145.46
826.843	15225.69
827.17	15184.78
827.497	15210.32
827.824	15208.51
828.151	15205.8
828.478	15128.97
828.805	15200.83
829.131	15134.84
829.458	15093.94
829.785	15047.39
830.111	15044
830.438	15149.76
830.764	15078.57
831.09	15107.05
831.417	15017.78
831.743	15107.5
832.069	15046.26
832.395	15035.64
832.722	15073.15
833.048	14916.77
833.374	14971.68
833.7	14933.04
834.026	15031.12
834.351	14937.79
834.677	14917.67
835.003	14991.12
835.329	14950.21
835.654	14904.79
835.98	14843.78
836.306	14834.29
836.631	14780.28
836.956	14928.52
837.282	14865.02
837.607	14787.96
837.932	14662.54
838.258	14734.63
838.583	14614.63
838.908	14636.78
839.233	14554.29
839.558	14643.78
839.883	14554.07
840.208	14510.45
840.533	14547.96
840.858	14522.43
841.182	14436.56
841.507	14409.89
841.832	14389.1
842.156	14403.34
842.481	14403.79
842.805	14333.28
843.13	14347.97
843.454	14277.69
843.778	14232.94
844.103	14237.01
844.427	14048.77
844.751	14091.25
845.075	14090.58
845.399	14060.29
845.723	13989.34
846.047	14025.27
846.371	13838.15
846.695	13897.59
847.019	13797.02
847.343	13779.4
847.666	13644.26
847.99	13634.32
848.313	13554.09
848.637	13518.84
848.96	13506.86
849.284	13422.57
849.607	13371.5
849.931	13341.67
850.254	13155.46
850.577	13120.88
850.9	13075.69
851.223	12969.25
851.546	13016.25
851.869	12933.09
852.192	12969.93
852.515	12838.63
852.838	12687.67
853.161	12834.11
853.483	12695.36
853.806	12676.15
854.129	12551.86
854.451	12644.06
854.774	12519.09
855.096	12448.36
855.419	12447.68
855.741	12362.71
856.063	12339.44
856.385	12339.89
856.708	12273.45
857.03	12203.17
857.352	12250.4
857.674	12230.29
857.996	12134.47
858.318	12081.82
858.64	12096.96
858.961	12054.02
859.283	11983.51
859.605	11957.98
859.926	11992.33
860.248	11953.23
860.57	11802.5
860.891	11876.85
861.212	11813.57
861.534	11760.69
861.855	11683.41
862.176	11760.02
862.498	11773.35
862.819	11710.3
863.14	11600.92
863.461	11611.54
863.782	11671.2
864.103	11622.39
864.424	11618.55
864.745	11572.68
865.065	11553.02
865.386	11458.55
865.707	11508.72
866.027	11461.27
866.348	11493.13
866.668	11464.66
866.989	11355.73
867.309	11347.82
867.63	11335.62
867.95	11400.48
868.27	11302.17
868.59	11267.15
868.91	11307.6
869.23	11227.83
869.55	11202.74
869.87	11213.82
870.19	11181.95
870.51	11271.89
870.83	11098.56
871.15	11126.13
871.469	11101.73
871.789	11171.1
872.109	11074.16
872.428	11079.81
872.748	11199.35
873.067	11041.39
873.386	11070.09
873.706	10975.18
874.025	10997.32
874.344	10945.35
874.663	10952.13
874.982	10966.82
875.301	10901.73
875.62	10879.36
875.939	10839.59
876.258	10847.72
876.577	10743.77
876.896	10838.23
877.214	10766.37
877.533	10811.79
877.852	10788.29
878.17	10742.42
878.489	10747.39
878.807	10727.05
879.125	10741.74
879.444	10701.29
879.762	10658.35
880.08	10663.32
880.398	10650.67
880.716	10660.84
881.034	10615.86
881.352	10595.75
881.67	10475.53
881.988	10570.22
882.306	10513.27
882.624	10525.25
882.941	10452.71
883.259	10402.54
883.577	10340.39
883.894	10406.83
884.212	10315.99
884.529	10340.17
884.846	10280.05
885.164	10204.35
885.481	10229.43
885.798	10248.87
886.115	10130.91
886.432	10184.92
886.75	10066.05
887.067	10140.85
887.383	10158.7
887.7	10096.1
888.017	10065.6
888.334	10045.03
888.651	10064.24
888.967	10068.76
889.284	9837.58
889.6	9882.55
889.917	9807.52
890.233	9842.78
890.55	9831.48
890.866	9886.39
891.182	9815.89
891.498	9739.96
891.815	9698.37
892.131	9737.92
892.447	9652.05
892.763	9594.65
893.079	9570.92
893.395	9533.41
893.71	9480.08
894.026	9498.38
894.342	9514.2
894.657	9431.72
894.973	9453.41
895.289	9478.27
895.604	9400.53
895.92	9353.75
896.235	9313.98
896.55	9272.4
896.865	9235.34
897.181	9224.26
897.496	9241.66
897.811	9156.47
898.126	9176.81
898.441	9184.04
898.756	9079.86
899.071	9086.41
899.386	9031.73
899.7	8964.38
900.015	8976.13
900.33	8878.96
900.644	8847.32
900.959	8881.22
901.273	8852.3
901.588	8778.85
901.902	8785.86
902.216	8671.51
902.531	8668.12
902.845	8695.01
903.159	8621.34
903.473	8532.76
903.787	8566.43
904.101	8523.72
904.415	8547.9
904.729	8500.21
905.042	8472.87
905.356	8413.89
905.67	8483.94
905.984	8413.21
906.297	8330.95
906.611	8228.58
906.924	8307.45
907.237	8236.49
907.551	8215.25
907.864	8233.78
908.177	8153.33
908.491	8107.46
908.804	8014.13
909.117	7997.85
909.43	7992.43
909.743	7922.83
910.056	7948.59
910.368	7912.66
910.681	7832.21
910.994	7901.13
911.307	7820.91
911.619	7715.6
911.932	7804.64
912.244	7650.52
912.557	7665.66
912.869	7656.17
913.181	7592.67
913.494	7620.92
913.806	7574.36
914.118	7526
914.43	7482.39
914.742	7507.47
915.054	7410.3
915.366	7418.66
915.678	7421.6
915.99	7325.78
916.302	7266.35
916.613	7283.75
916.925	7218.67
917.236	7222.51
917.548	7184.09
917.859	7161.27
918.171	7146.8
918.482	7132.34
918.794	7016.86
919.105	7061.38
919.416	6968.96
919.727	6955.85
920.038	6936.19
920.349	6929.41
920.66	6871.56
920.971	6915.62
921.282	6846.47
921.593	6793.82
921.903	6762.63
922.214	6710.2
922.525	6747.72
922.835	6624.78
923.146	6688.96
923.456	6628.85
923.767	6662.3
924.077	6589.53
924.387	6533.71
924.697	6569.19
925.008	6492.13
925.318	6476.31
925.628	6491.68
925.938	6420.04
926.248	6368.74
926.558	6338.69
926.867	6331.46
927.177	6275.64
927.487	6274.28
927.796	6243.55
928.106	6228.64
928.416	6180.05
928.725	6206.04
929.034	6149.54
929.344	6123.55
929.653	6086.49
929.962	6023.22
930.271	6039.49
930.581	6034.97
930.89	5981.64
931.199	5954.29
931.508	5946.84
931.817	5924.46
932.125	5903.9
932.434	5852.15
932.743	5802.43
933.051	5804.01
933.36	5818.7
933.669	5729.44
933.977	5705.49
934.286	5662.77
934.594	5703.45
934.902	5647.63
935.21	5644.7
935.519	5627.3
935.827	5618.71
936.135	5576.68
936.443	5534.42
936.751	5535.77
937.059	5509.78
937.367	5495.32
937.674	5518.37
937.982	5451.25
938.29	5389.56
938.597	5419.17
938.905	5295.78
939.213	5326.96
939.52	5312.28
939.827	5317.25
940.135	5296.46
940.442	5280.41
940.749	5253.07
941.056	5225.05
941.363	5191.37
941.67	5140.98
941.977	5152.73
942.284	5117.25
942.591	5084.94
942.898	5046.75
943.205	5064.37
943.511	5054.43
943.818	5009.01
944.125	4997.03
944.431	4939.18
944.738	4939.18
945.044	4908.22
945.35	4875.45
945.657	4844.49
945.963	4842.01
946.269	4853.76
946.575	4810.37
946.881	4776.02
947.187	4762.91
947.493	4708
947.799	4772.63
948.105	4694.44
948.41	4683.14
948.716	4683.14
949.022	4618.06
949.327	4638.85
949.633	4626.87
949.938	4592.29
950.244	4585.74
950.549	4546.42
950.854	4517.27
951.16	4517.27
951.465	4473.2
951.77	4456.93
952.075	4416.48
952.38	4404.05
952.685	4400.44
952.99	4362.24
953.294	4375.13
953.599	4334.22
953.904	4325.63
954.209	4332.19
954.513	4264.39
954.818	4268.91
955.122	4289.93
955.426	4265.98
955.731	4217.16
956.035	4222.13
956.339	4169.93
956.643	4198.18
956.948	4141.01
957.252	4091.52
957.556	4063.49
957.86	4042.93
958.163	4087
958.467	4109.82
958.771	4086.55
959.075	4025.08
959.378	4001.12
959.682	4040.44
959.985	3974.46
960.289	3984.17
960.592	3936.04
960.896	3955.02
961.199	3914.12
961.502	3891.97
961.805	3861.24
962.108	3854.46
962.411	3853.1
962.714	3825.31
963.017	3792.09
963.32	3828.02
963.623	3774.46
963.926	3739.66
964.228	3747.12
964.531	3729.94
964.833	3714.13
965.136	3656.95
965.438	3663.73
965.741	3667.12
966.043	3651.98
966.345	3642.71
966.648	3622.38
966.95	3609.5
967.252	3609.72
967.554	3554.58
967.856	3565.88
968.158	3519.55
968.46	3530.4
968.761	3530.63
969.063	3505.77
969.365	3490.63
969.666	3463.74
969.968	3442.27
970.269	3440.01
970.571	3428.48
970.872	3387.81
971.174	3379.9
971.475	3391.2
971.776	3351.42
972.077	3364.08
972.378	3320.92
972.679	3326.34
972.98	3326.57
973.281	3351.65
973.582	3320.46
973.883	3280.69
974.183	3269.84
974.484	3245.21
974.785	3236.17
975.085	3214.48
975.386	3230.07
975.686	3176.51
975.986	3162.28
976.287	3165.44
976.587	3107.81
976.887	3091.77
977.187	3094.48
977.487	3116.85
977.787	3070.53
978.087	3067.14
978.387	3049.96
978.687	3011.77
978.987	3036.4
979.286	2972.22
979.586	2973.35
979.885	2981.94
980.185	2952.11
980.484	2942.39
980.784	2921.83
981.083	2930.64
981.382	2922.06
981.682	2918.89
981.981	2920.25
982.28	2863.07
982.579	2856.07
982.878	2882.06
983.177	2833.7
983.475	2800.7
983.774	2819.69
984.073	2804.77
984.372	2746.92
984.67	2776.52
984.969	2768.16
985.267	2735.62
985.566	2752.34
985.864	2706.69
986.162	2697.66
986.461	2690.65
986.759	2662.18
987.057	2673.93
987.355	2670.99
987.653	2632.8
987.951	2636.64
988.249	2631.89
988.547	2606.36
988.844	2624.66
989.142	2615.85
989.44	2596.64
989.737	2558.9
990.035	2563.65
990.332	2534.5
990.63	2542.18
990.927	2530.43
991.224	2533.82
991.521	2499.69
991.819	2492.91
992.116	2485.01
992.413	2471.22
992.71	2443.65
993.006	2446.14
993.303	2435.29
993.6	2412.69
993.897	2419.02
994.193	2420.15
994.49	2409.08
994.787	2349.42
995.083	2349.42
995.379	2369.3
995.676	2351.68
995.972	2329.53
996.268	2291.11
996.565	2314.16
996.861	2287.04
997.157	2288.17
997.453	2303.77
997.749	2284.78
998.044	2236.65
998.34	2229.87
998.636	2192.36
998.932	2247.05
999.227	2243.88
999.523	2209.08
999.818	2174.05
1000.114	2186.26
1000.409	2153.04
1000.704	2122.08
1001	2122.3
1001.295	2121.4
1001.59	2108.52
1001.885	2159.82
1002.18	2076.2
1002.475	2057.67
1002.77	2053.15
1003.065	2026.49
1003.359	2020.16
1003.654	2034.4
1003.949	2028.75
1004.243	2038.24
1004.538	2003.44
1004.832	1958.92
1005.127	2001.4
1005.421	1972.7
1005.715	1947.39
1006.009	1962.31
1006.304	1898.35
1006.598	1935.87
1006.892	1927.96
1007.186	1898.13
1007.48	1910.56
1007.773	1901.74
1008.067	1891.35
1008.361	1861.52
1008.655	1866.49
1008.948	1841.41
1009.242	1828.53
1009.535	1786.49
1009.829	1834.85
1010.122	1796.66
1010.415	1779.26
1010.708	1792.37
1011.001	1758.24
1011.295	1724.35
1011.588	1770.9
1011.881	1705.59
1012.173	1729.77
1012.466	1721.64
1012.759	1705.36
1013.052	1721.18
1013.344	1690.68
1013.637	1683.67
1013.93	1675.31
1014.222	1665.82
1014.514	1629.66
1014.807	1623.11
1015.099	1645.03
1015.391	1622.2
1015.683	1641.86
1015.976	1608.87
1016.268	1596.89
1016.56	1565.71
1016.851	1573.62
1017.143	1568.65
1017.435	1535.65
1017.727	1544.01
1018.018	1568.42
1018.31	1545.82
1018.602	1520.28
1018.893	1512.15
1019.185	1482.09
1019.476	1507.18
1019.767	1505.14
1020.058	1479.61
1020.35	1442.32
1020.641	1432.6
1020.932	1444.58
1021.223	1429.67
1021.514	1411.36
1021.804	1419.72
1022.095	1419.27
1022.386	1387.86
1022.677	1391.47
1022.967	1377.24
1023.258	1351.7
1023.548	1371.36
1023.839	1362.32
1024.129	1354.19
1024.419	1317.58
1024.709	1328.43
1025	1321.19
1025.29	1307.64
1025.58	1297.92
1025.87	1320.97
1026.16	1275.09
1026.449	1276.9
1026.739	1273.29
1027.029	1252.04
1027.319	1248.88
1027.608	1238.71
1027.898	1236.9
1028.187	1234.64
1028.477	1210.24
1028.766	1205.26
1029.055	1209.56
1029.344	1198.49
1029.634	1180.86
1029.923	1167.07
1030.212	1183.57
1030.501	1154.42
1030.79	1168.2
1031.078	1164.14
1031.367	1159.62
1031.656	1137.92
1031.945	1138.15
1032.233	1113.29
1032.522	1125.27
1032.81	1090.24
1033.099	1105.15
1033.387	1108.09
1033.675	1098.15
1033.963	1068.55
1034.251	1080.3
1034.54	1050.92
1034.828	1028.09
1035.116	1074.65
1035.403	1042.78
1035.691	1024.48
1035.979	1024.03
1036.267	1030.35
1036.554	1013.63
1036.842	1012.05
1037.129	1028.32
1037.417	996.46
1037.704	989
1037.992	978.38
1038.279	989
1038.566	970.47
1038.853	970.47
1039.14	970.47
