Data from hue_210_FLMS001491_00006.txt Node
Date: Tue Feb 07 16:40:41 GMT 2017
User: dcchb
Spectrometer: FLMS00149
Trigger mode: 0
Integration Time (sec): 2.000000E-2
Scans to average: 10
Electric dark correction enabled: true
Nonlinearity correction enabled: false
Boxcar width: 0
XAxis mode: Wavelengths
Number of Pixels in Spectrum: 2048
>>>>>Begin Spectral Data<<<<<
341.393	-5.34
341.776	-5.34
342.16	-5.34
342.543	-51.44
342.927	-55.96
343.31	-56.86
343.693	-72
344.077	-69.29
344.46	-75.62
344.843	-51.89
345.226	-46.92
345.61	-19.12
345.993	-29.07
346.376	-15.51
346.759	25.85
347.142	42.34
347.525	27.88
347.908	42.8
348.291	75.11
348.674	106.07
349.057	116.24
349.44	122.12
349.823	144.49
350.206	193.98
350.588	204.15
350.971	212.51
351.354	226.29
351.737	230.14
352.119	241.66
352.502	246.18
352.884	252.06
353.267	299.06
353.65	316.69
354.032	301.55
354.414	298.16
354.797	294.09
355.179	317.59
355.562	315.1
355.944	303.35
356.326	324.37
356.709	325.73
357.091	344.48
357.473	325.73
357.855	343.13
358.238	336.35
358.62	337.25
359.002	321.21
359.384	337.93
359.766	330.7
360.148	335.22
360.53	326.63
360.912	343.13
361.294	330.7
361.676	331.38
362.057	333.64
362.439	318.95
362.821	318.27
363.203	331.38
363.584	319.85
363.966	339.28
364.348	332.96
364.729	315.1
365.111	323.01
365.493	317.36
365.874	312.84
366.256	325.27
366.637	323.24
367.019	309
367.4	290.02
367.781	310.81
368.163	318.49
368.544	307.87
368.925	305.61
369.306	320.3
369.688	317.36
370.069	325.27
370.45	298.38
370.831	313.3
371.212	296.57
371.593	312.39
371.974	306.97
372.355	301.77
372.736	311.26
373.117	333.41
373.498	306.97
373.879	323.01
374.26	334.99
374.641	323.69
375.021	302.45
375.402	314.88
375.783	344.03
376.163	329.79
376.544	354.43
376.925	324.37
377.305	319.4
377.686	314.2
378.066	320.08
378.447	312.62
378.827	333.41
379.208	321.43
379.588	321.66
379.968	325.05
380.349	349.45
380.729	332.51
381.109	322.56
381.489	331.15
381.87	316.23
382.25	349
382.63	346.97
383.01	339.51
383.39	338.38
383.77	337.03
384.15	343.58
384.53	332.96
384.91	323.47
385.29	359.17
385.67	344.03
386.049	358.49
386.429	363.69
386.809	344.03
387.189	349.68
387.568	345.84
387.948	362.56
388.328	362.79
388.707	344.48
389.087	344.03
389.466	360.08
389.846	359.62
390.225	374.76
390.605	349.68
390.984	349.45
391.363	360.08
391.743	392.62
392.122	391.94
392.501	391.03
392.881	375.22
393.26	383.8
393.639	394.42
394.018	378.61
394.397	385.84
394.776	383.35
395.155	389.23
395.534	388.1
395.913	396.68
396.292	403.24
396.671	433.52
397.05	397.81
397.429	385.16
397.808	391.49
398.186	405.72
398.565	408.21
398.944	399.62
399.323	403.92
399.701	410.7
400.08	418.15
400.458	409.57
400.837	437.81
401.215	411.15
401.594	421.32
401.972	431.94
402.351	411.6
402.729	454.99
403.107	436.46
403.486	450.92
403.864	436.23
404.242	439.17
404.62	451.15
404.999	457.25
405.377	444.14
405.755	464.25
406.133	478.72
406.511	462.22
406.889	472.84
407.267	486.85
407.645	482.78
408.023	482.11
408.401	499.51
408.779	490.24
409.156	509
409.534	506.96
409.912	530.69
410.29	534.31
410.667	539.28
411.045	563.91
411.422	571.37
411.8	578.6
412.178	576.57
412.555	581.31
412.933	600.07
413.31	591.93
413.687	595.78
414.065	619.73
414.442	629.45
414.819	625.15
415.197	631.48
415.574	673.51
415.951	668.77
416.328	669.67
416.705	676.23
417.082	685.04
417.46	682.78
417.837	730.24
418.214	698.15
418.591	729.56
418.967	721.65
419.344	732.49
419.721	766.17
420.098	764.81
420.475	762.1
420.852	779.27
421.228	795.77
421.605	821.76
421.982	788.31
422.358	827.41
422.735	857.01
423.111	864.69
423.488	876.45
423.864	874.86
424.241	897.91
424.617	884.36
424.994	928.87
425.37	941.53
425.746	963.22
426.123	977.91
426.499	983.11
426.875	984.69
427.251	1002.09
427.627	1038.25
428.003	1052.26
428.379	1034.41
428.756	1075.99
429.132	1061.75
429.507	1101.75
429.883	1095.2
430.259	1112.82
430.635	1133.16
431.011	1132.26
431.387	1162.99
431.763	1180.84
432.138	1208.41
432.514	1220.17
432.89	1224.69
433.265	1270.79
433.641	1284.34
434.016	1297.45
434.392	1317.79
434.767	1356.89
435.143	1352.59
435.518	1392.82
435.894	1407.05
436.269	1465.13
436.644	1470.1
437.02	1500.84
437.395	1524.11
437.77	1562.53
438.145	1570.44
438.52	1587.39
438.895	1618.8
439.271	1620.83
439.646	1698.57
440.021	1664
440.395	1698.35
440.77	1720.49
441.145	1714.84
441.52	1792.13
441.895	1775.86
442.27	1816.99
442.645	1816.08
443.019	1877.78
443.394	1864.89
443.769	1862.18
444.143	1856.31
444.518	1918.23
444.892	1933.59
445.267	1929.3
445.641	1961.39
446.016	1960.03
446.39	1999.58
446.764	1996.87
447.139	2022.4
447.513	2058.11
447.887	2059.24
448.262	2026.7
448.636	2066.25
449.01	2115.51
449.384	2116.87
449.758	2139.46
450.132	2166.13
450.506	2188.05
450.88	2193.02
451.254	2185.11
451.628	2233.25
452.002	2253.13
452.376	2261.95
452.75	2298.78
453.123	2319.12
453.497	2358.21
453.871	2363.19
454.244	2421.04
454.618	2398.89
454.992	2437.31
455.365	2468.27
455.739	2484.77
456.112	2510.75
456.486	2555.27
456.859	2583.97
457.232	2608.15
457.606	2613.12
457.979	2669.85
458.352	2716.4
458.725	2694.48
459.099	2742.84
459.472	2795.04
459.845	2800.01
460.218	2881.82
460.591	2863.29
460.964	2849.73
461.337	2975.37
461.71	2987.12
462.083	2976.96
462.456	3045.65
462.829	3038.65
463.201	3105.09
463.574	3098.08
463.947	3157.97
464.32	3216.05
464.692	3223.73
465.065	3279.77
465.438	3320.45
465.81	3375.82
466.183	3367.23
466.555	3438.41
466.928	3426.44
467.3	3466.89
467.672	3565.19
468.045	3615.58
468.417	3600.67
468.789	3617.16
469.161	3640.22
469.534	3741.46
469.906	3792.98
470.278	3803.6
470.65	3849.7
471.022	3893.77
471.394	3998.4
471.766	4035.68
472.138	4094.44
472.51	4189.58
472.882	4151.84
473.253	4204.95
473.625	4272.51
473.997	4339.18
474.369	4391.16
474.74	4442.91
475.112	4494.88
475.484	4569.68
475.855	4669.57
476.227	4660.08
476.598	4803.57
476.97	4799.05
477.341	4918.15
477.713	4961.54
478.084	4986.62
478.455	5101.19
478.827	5131.93
479.198	5277.23
479.569	5273.62
479.94	5435.65
480.311	5435.42
480.682	5589.09
481.053	5631.58
481.424	5744.79
481.795	5756.09
482.166	5841.51
482.537	5961.96
482.908	6046.48
483.279	6079.7
483.65	6126.03
484.021	6296.19
484.391	6379.35
484.762	6356.75
485.133	6458.9
485.503	6524.21
485.874	6650.98
486.244	6658.44
486.615	6810.3
486.985	6869.51
487.356	6940.47
487.726	7008.94
488.097	7123.51
488.467	7104.53
488.837	7321.02
489.207	7305.43
489.578	7422.94
489.948	7444.63
490.318	7605.99
490.688	7627.23
491.058	7708.13
491.428	7828.13
491.798	7830.84
492.168	7945.86
492.538	7998.52
492.908	8117.61
493.278	8136.82
493.648	8186.31
494.017	8282.35
494.387	8319.64
494.757	8340.2
495.126	8414.55
495.496	8470.37
495.866	8526.19
496.235	8542.23
496.605	8585.62
496.974	8673.08
497.344	8689.35
497.713	8729.12
498.082	8803.7
498.452	8807.99
498.821	8897.03
499.19	8833.3
499.559	8989
499.928	8997.59
500.298	8994.2
500.667	9072.39
501.036	9073.52
501.405	9132.73
501.774	9164.82
502.143	9193.74
502.512	9298.6
502.88	9294.08
503.249	9277.81
503.618	9276
503.987	9322.1
504.356	9355.54
504.724	9428.99
505.093	9419.5
505.462	9406.17
505.83	9521.87
506.199	9546.95
506.567	9580.62
506.936	9616.33
507.304	9633.96
507.672	9661.98
508.041	9644.35
508.409	9725.03
508.777	9788.08
509.145	9798.7
509.514	9766.83
509.882	9840.96
510.25	9814.06
510.618	9853.84
510.986	9865.14
511.354	9851.13
511.722	9882.31
512.09	9929.77
512.458	9947.39
512.826	9961.18
513.193	10005.47
513.561	9958.69
513.929	10057.45
514.297	10056.32
514.664	10094.73
515.032	10071.68
515.4	10140.61
515.767	10137.22
516.135	10123.21
516.502	10008.18
516.869	10222.64
517.237	10202.08
517.604	10132.47
517.972	10226.26
518.339	10234.84
518.706	10175.86
519.073	10183.09
519.44	10207.27
519.808	10259.7
520.175	10181.51
520.542	10343.77
520.909	10347.61
521.276	10239.14
521.643	10349.19
522.009	10361.39
522.376	10359.36
522.743	10350.1
523.11	10346.71
523.477	10418.12
523.843	10415.18
524.21	10463.54
524.577	10502.41
524.943	10451.79
525.31	10532.46
525.676	10529.07
526.043	10518.68
526.409	10536.08
526.776	10640.71
527.142	10494.5
527.508	10554.38
527.874	10596.64
528.241	10609.75
528.607	10531.79
528.973	10607.04
529.339	10548.73
529.705	10602.29
530.071	10553.71
530.437	10565.23
530.803	10668.73
531.169	10644.55
531.535	10534.05
531.901	10572.46
532.267	10460.15
532.632	10546.47
532.998	10521.39
533.364	10536.08
533.73	10510.99
534.095	10540.82
534.461	10450.43
534.826	10510.99
535.192	10459.7
535.557	10464.22
535.923	10461.5
536.288	10398.91
536.653	10456.31
537.019	10366.37
537.384	10285.01
537.749	10266.48
538.114	10287.72
538.479	10260.38
538.845	10249.31
539.21	10216.31
539.575	10185.13
539.94	10114.17
540.305	10155.75
540.67	10100.38
541.034	10067.16
541.399	10072.59
541.764	10041.63
542.129	10031.01
542.494	10013.15
542.858	9963.21
543.223	9859.03
543.587	9959.82
543.952	9833.27
544.316	9909.2
544.681	9793.95
545.045	9769.09
545.41	9811.8
545.774	9728.64
546.138	9775.19
546.503	9667.85
546.867	9661.75
547.231	9701.52
547.595	9680.96
547.959	9618.81
548.324	9502.21
548.688	9545.82
549.052	9508.54
549.416	9495.88
549.779	9477.8
550.143	9441.64
550.507	9403.91
550.871	9367.75
551.235	9431.93
551.599	9324.13
551.962	9420.63
552.326	9238.26
552.689	9343.12
553.053	9203.01
553.417	9130.01
553.78	9303.12
554.143	9193.29
554.507	9307.18
554.87	9162.78
555.234	9282.55
555.597	9198.49
555.96	9208.88
556.323	9154.19
556.686	9109
557.05	9129.79
557.413	9129.34
557.776	9078.04
558.139	9121.2
558.502	9033.29
558.865	9069.45
559.228	9017.02
559.59	9088.89
559.953	9049.79
560.316	9151.26
560.679	9129.79
561.041	9067.64
561.404	9038.27
561.767	9085.27
562.129	9038.72
562.492	9053.86
562.854	9027.87
563.217	9080.75
563.579	9050.47
563.941	9029.45
564.304	9042.11
564.666	9149.67
565.028	9088.21
565.39	9102.67
565.753	9137.25
566.115	9143.35
566.477	9139.05
566.839	9065.61
567.201	9114.2
567.563	9181.76
567.925	9188.77
568.287	9138.38
568.648	9165.72
569.01	9196
569.372	9181.31
569.734	9183.35
570.095	9164.14
570.457	9277.35
570.819	9266.73
571.18	9261.76
571.542	9285.04
571.903	9331.59
572.265	9295.89
572.626	9266.06
572.987	9249.11
573.349	9276.23
573.71	9288.65
574.071	9278.48
574.432	9348.77
574.794	9362.78
575.155	9355.54
575.516	9334.75
575.877	9373.62
576.238	9290.01
576.599	9407.52
576.96	9422.21
577.32	9445.71
577.681	9456.11
578.042	9428.76
578.403	9416.11
578.763	9432.83
579.124	9452.04
579.485	9480.51
579.845	9525.94
580.206	9489.33
580.566	9447.52
580.927	9558.48
581.287	9558.48
581.648	9507.63
582.008	9661.75
582.368	9578.36
582.728	9558.25
583.089	9592.83
583.449	9571.36
583.809	9589.89
584.169	9650.45
584.529	9560.51
584.889	9655.2
585.249	9531.36
585.609	9577.01
585.969	9672.37
586.329	9622.66
586.688	9686.84
587.048	9673.28
587.408	9597.8
587.768	9627.85
588.127	9629.89
588.487	9671.69
588.846	9697.46
589.206	9668.98
589.565	9673.95
589.925	9720.73
590.284	9709.66
590.643	9741.3
591.003	9708.98
591.362	9736.55
591.721	9719.15
592.08	9748.3
592.44	9805.93
592.799	9739.72
593.158	9779.49
593.517	9780.84
593.876	9707.4
594.235	9779.71
594.593	9755.76
594.952	9824.46
595.311	9691.13
595.67	9749.66
596.029	9841.63
596.387	9848.64
596.746	9876.44
597.104	9817.45
597.463	9709.21
597.822	9839.15
598.18	9744.01
598.538	9813.16
598.897	9838.02
599.255	9739.26
599.613	9861.52
599.972	9811.8
600.33	9806.15
600.688	9846.83
601.046	9847.96
601.404	9840.05
601.762	9850.9
602.12	9890.67
602.478	9810.22
602.836	9877.34
603.194	9813.61
603.552	9897.9
603.91	9814.52
604.268	9878.47
604.625	9845.93
604.983	9867.17
605.341	9893.38
605.698	9881.63
606.056	9929.54
606.413	9880.05
606.771	9938.13
607.128	9884.34
607.485	9878.7
607.843	9908.07
608.2	9898.58
608.557	9960.27
608.914	9938.35
609.272	9942.42
609.629	10021.52
609.986	9995.08
610.343	9964.12
610.7	10099.93
611.057	9966.6
611.414	9969.99
611.771	10003.44
612.127	10022.65
612.484	10054.06
612.841	10029.43
613.198	9979.48
613.554	9986.26
613.911	10027.39
614.267	10028.52
614.624	10087.96
614.98	10058.58
615.337	10134.96
615.693	10131.57
616.05	10079.59
616.406	10123.43
616.762	10093.38
617.118	10055.87
617.475	10060.16
617.831	10118.46
618.187	10127.28
618.543	10103.1
618.899	10149.87
619.255	10118.24
619.611	10102.19
619.967	10195.52
620.323	10168.86
620.678	10238.23
621.034	10145.13
621.39	10149.87
621.746	10165.47
622.101	10242.75
622.457	10115.52
622.812	10208.63
623.168	10206.6
623.523	10194.39
623.879	10225.58
624.234	10124.34
624.589	10226.48
624.945	10127.95
625.3	10159.82
625.655	10166.37
626.01	10125.92
626.365	10200.95
626.72	10206.14
627.075	10141.29
627.43	10162.98
627.785	10182.42
628.14	10167.5
628.495	10182.87
628.85	10113.94
629.205	10116.43
629.559	10113.27
629.914	10068.07
630.269	10086.6
630.623	10110.78
630.978	10049.09
631.332	10088.63
631.687	10077.79
632.041	10019.71
632.396	10053.15
632.75	9983.55
633.104	10066.94
633.459	9974.06
633.813	9940.84
634.167	9921.18
634.521	10031.01
634.875	9980.84
635.229	9954.63
635.583	9932.7
635.937	9959.14
636.291	9940.61
636.645	9909.2
636.999	9816.32
637.352	9834.4
637.706	9858.13
638.06	9892.71
638.413	9868.07
638.767	9758.92
639.121	9802.54
639.474	9778.36
639.828	9805.48
640.181	9734.74
640.534	9766.38
640.888	9796.66
641.241	9674.86
641.594	9722.99
641.947	9703.56
642.301	9667.18
642.654	9715.76
643.007	9715.08
643.36	9696.33
643.713	9674.41
644.066	9645.93
644.419	9727.74
644.771	9584.92
645.124	9541.53
645.477	9575.88
645.83	9475.99
646.182	9393.06
646.535	9372.72
646.888	9399.84
647.24	9319.39
647.593	9372.04
647.945	9300.63
648.298	9311.7
648.65	9299.05
649.002	9306.73
649.355	9407.3
649.707	9309.67
650.059	9414.98
650.411	9489.1
650.763	9445.03
651.115	9559.38
651.467	9557.12
651.819	9563.68
652.171	9482.55
652.523	9513.96
652.875	9515.77
653.227	9443.45
653.578	9545.14
653.93	9539.95
654.282	9500.63
654.633	9456.33
654.985	9508.99
655.337	9455.88
655.688	9525.94
656.039	9540.62
656.391	9488.87
656.742	9572.94
657.094	9581.98
657.445	9547.18
657.796	9561.64
658.147	9575.88
658.498	9507.41
658.849	9498.37
659.2	9552.6
659.551	9539.95
659.902	9561.87
660.253	9572.49
660.604	9544.69
660.955	9545.37
661.306	9595.31
661.656	9567.06
662.007	9672.82
662.358	9619.04
662.708	9546.73
663.059	9590.79
663.409	9489.1
663.76	9549.66
664.11	9631.47
664.461	9631.02
664.811	9595.54
665.161	9572.26
665.511	9561.42
665.862	9617.68
666.212	9590.79
666.562	9593.05
666.912	9543.56
667.262	9592.6
667.612	9700.85
667.962	9565.03
668.312	9584.69
668.662	9630.34
669.011	9589.21
669.361	9565.26
669.711	9534.75
670.06	9612.26
670.41	9558.25
670.76	9541.75
671.109	9586.5
671.459	9505.15
671.808	9515.77
672.157	9545.6
672.507	9396.22
672.856	9437.58
673.205	9485.49
673.554	9505.37
673.904	9505.82
674.253	9512.15
674.602	9466.95
674.951	9379.27
675.3	9320.29
675.649	9558.03
675.998	9494.75
676.346	9452.49
676.695	9507.86
677.044	9377.92
677.393	9378.14
677.741	9446.16
678.09	9390.35
678.438	9450.46
678.787	9402.32
679.135	9403.45
679.484	9287.3
679.832	9330.69
680.181	9267.64
680.529	9343.57
680.877	9225.15
681.225	9220.86
681.573	9275.77
681.922	9248.2
682.27	9234.19
682.618	9192.61
682.966	9150.35
683.314	9144.03
683.661	9174.76
684.009	9130.47
684.357	9105.38
684.705	9061.32
685.053	9008.89
685.4	9141.31
685.748	9025.16
686.095	9009.11
686.443	8972.5
686.79	8942.67
687.138	8937.25
687.485	8984.93
687.832	8958.27
688.18	8963.69
688.527	8808.67
688.874	8831.26
689.221	8756.46
689.568	8743.36
689.915	8695.22
690.262	8776.8
690.609	8698.39
690.956	8721.89
691.303	8702
691.65	8637.6
691.997	8612.06
692.344	8539.97
692.69	8587.88
693.037	8547.88
693.383	8532.29
693.73	8494.1
694.077	8463.82
694.423	8471.95
694.769	8357.83
695.116	8366.19
695.462	8367.55
695.808	8241.9
696.155	8351.5
696.501	8193.77
696.847	8203.48
697.193	8201.23
697.539	8242.58
697.885	8181.56
698.231	8151.51
698.577	8180.66
698.923	8080.1
699.269	8045.3
699.614	8022.02
699.96	7924.62
700.306	7996.71
700.651	7901.35
700.997	7881.91
701.342	7835.13
701.688	7868.35
702.033	7819.77
702.379	7847.79
702.724	7743.61
703.069	7756.26
703.415	7669.26
703.76	7707.23
704.105	7612.77
704.45	7645.08
704.795	7605.99
705.14	7606.21
705.485	7602.37
705.83	7586.33
706.175	7499.55
706.52	7529.6
706.865	7442.6
707.209	7450.74
707.554	7410.06
707.899	7391.75
708.243	7399.66
708.588	7375.48
708.932	7314.02
709.277	7342.26
709.621	7327.58
709.966	7277.63
710.31	7306.11
710.654	7233.11
710.998	7231.08
711.342	7267.01
711.687	7163.06
712.031	7159.9
712.375	7089.62
712.719	7164.42
713.063	7102.95
713.407	7154.02
713.75	7087.81
714.094	7128.94
714.438	7083.74
714.782	7029.96
715.125	7032.89
715.469	7021.14
715.812	6979.34
716.156	6978.66
716.499	6935.04
716.843	6996.96
717.186	6932.78
717.53	7006.23
717.873	6956.74
718.216	6898.43
718.559	6917.42
718.902	6884.2
719.246	6916.51
719.589	6869.28
719.932	6838.1
720.275	6864.54
720.617	6822.96
720.96	6826.8
721.303	6848.49
721.646	6819.57
721.989	6749.06
722.331	6814.82
722.674	6837.65
723.016	6812.79
723.359	6808.04
723.701	6784.54
724.044	6735.5
724.386	6748.38
724.729	6781.6
725.071	6759.91
725.413	6747.48
725.755	6719.91
726.097	6722.39
726.439	6664.54
726.782	6706.8
727.124	6727.82
727.465	6717.2
727.807	6687.37
728.149	6733.69
728.491	6632.23
728.833	6697.08
729.175	6617.09
729.516	6652.57
729.858	6686.24
730.199	6700.47
730.541	6655.28
730.882	6657.54
731.224	6635.62
731.565	6607.37
731.906	6629.51
732.248	6645.56
732.589	6614.6
732.93	6628.16
733.271	6618.44
733.612	6632.68
733.953	6650.98
734.294	6617.76
734.635	6639.46
734.976	6680.81
735.317	6592.45
735.658	6619.12
735.999	6634.94
736.339	6718.33
736.68	6685.11
737.021	6695.5
737.361	6639.01
737.702	6660.93
738.042	6700.93
738.383	6678.55
738.723	6674.49
739.063	6676.07
739.404	6727.14
739.744	6727.59
740.084	6742.51
740.424	6733.02
740.764	6766.46
741.104	6830.19
741.444	6748.61
741.784	6750.87
742.124	6774.6
742.464	6818.44
742.804	6803.97
743.143	6863.63
743.483	6830.41
743.823	6854.37
744.162	6831.54
744.502	6876.74
744.841	6919.45
745.181	6994.93
745.52	6976.62
745.86	7029.73
746.199	7032.22
746.538	7108.6
746.877	7154.02
747.216	7174.81
747.556	7158.77
747.895	7206.67
748.234	7271.31
748.573	7311.98
748.911	7371.87
749.25	7431.53
749.589	7409.16
749.928	7550.39
750.267	7570.28
750.605	7685.31
750.944	7719.88
751.283	7835.58
751.621	7883.72
751.96	7945.41
752.298	8051.85
752.636	8135.24
752.975	8224.95
753.313	8305.86
753.651	8433.54
753.989	8531.84
754.327	8606.86
754.666	8646.86
755.004	8829.23
755.342	9059.51
755.679	9041.43
756.017	9235.1
756.355	9425.6
756.693	9465.82
757.031	9629.66
757.368	9749.88
757.706	9886.38
758.044	10056.77
758.381	10247.5
758.719	10413.82
759.056	10581.95
759.394	10674.61
759.731	10810.87
760.068	11093.8
760.405	11142.16
760.743	11334.93
761.08	11591.19
761.417	11653.11
761.754	11823.5
762.091	12026.89
762.428	12208.13
762.765	12408.12
763.102	12622.58
763.438	12743.25
763.775	12874.32
764.112	13103.02
764.449	13302.79
764.785	13358.15
765.122	13579.16
765.458	13668.88
765.795	13922.43
766.131	14018.7
766.467	14264.12
766.804	14356.77
767.14	14496.2
767.476	14691.9
767.812	14773.26
768.148	15028.62
768.485	15076.52
768.821	15208.5
769.157	15380.02
769.492	15504.76
769.828	15653.91
770.164	15689.39
770.5	15861.81
770.836	16086.44
771.171	16125.08
771.507	16165.54
771.842	16270.39
772.178	16403.95
772.513	16549.48
772.849	16572.3
773.184	16737.05
773.519	16846.87
773.855	16855.23
774.19	17015.68
774.525	16980.66
774.86	17213.87
775.195	17307.88
775.53	17223.59
775.865	17227.2
776.2	17349.23
776.535	17471.94
776.87	17482.79
777.205	17631.03
777.539	17568.66
777.874	17709.9
778.209	17660.64
778.543	17765.49
778.878	17791.26
779.212	17870.8
779.547	17739.73
779.881	17914.42
780.215	17908.77
780.55	18011.81
780.884	17924.59
781.218	17976.56
781.552	18012.04
781.886	18021.31
782.22	17969.1
782.554	18030.12
782.888	17913.51
783.222	17930.23
783.556	17922.55
783.889	17948.77
784.223	17888.2
784.557	17918.94
784.89	17997.35
785.224	17882.78
785.557	17939.73
785.891	17873.29
786.224	17897.02
786.558	17920.52
786.891	17865.38
787.224	17765.72
787.557	17859.5
787.891	17817.47
788.224	17813.18
788.557	17863.12
788.89	17811.37
789.223	17955.77
789.556	17770.69
789.888	17828.77
790.221	17726.85
790.554	17631.26
790.887	17634.88
791.219	17595.55
791.552	17589.68
791.884	17600.07
792.217	17514.43
792.549	17563.01
792.882	17486.63
793.214	17376.58
793.546	17417.71
793.879	17416.8
794.211	17253.19
794.543	17372.06
794.875	17333.41
795.207	17347.88
795.539	17350.14
795.871	17307.2
796.203	17187.2
796.535	17058.39
796.867	17118.05
797.198	17124.83
797.53	17139.75
797.862	16883.93
798.193	17057.72
798.525	16856.82
798.856	16960.54
799.188	16813.2
799.519	16728.91
799.85	16688.91
800.182	16734.56
800.513	16722.81
800.844	16610.95
801.175	16769.14
801.506	16717.39
801.837	16500.89
802.168	16487.11
802.499	16518.75
802.83	16426.09
803.161	16424.51
803.491	16387.68
803.822	16460.44
804.153	16407.11
804.483	16130.28
804.814	16213.44
805.145	16147.91
805.475	16230.39
805.805	16175.93
806.136	16222.26
806.466	16159.66
806.796	16047.12
807.126	15995.14
807.457	16005.09
807.787	16030.17
808.117	15959.67
808.447	15855.71
808.777	15882.15
809.107	15738.65
809.436	15854.13
809.766	15803.29
810.096	15710.63
810.426	15636.06
810.755	15754.25
811.085	15618.21
811.414	15643.29
811.744	15521.71
812.073	15538.89
812.403	15484.65
812.732	15502.28
813.061	15459.11
813.39	15366.69
813.719	15250.08
814.049	15390.87
814.378	15312.9
814.707	15283.75
815.036	15290.76
815.365	15245.56
815.693	15097.77
816.022	15121.72
816.351	15052.34
816.68	15024.55
817.008	15008.73
817.337	14881.5
817.665	14937.77
817.994	14946.81
818.322	15048.05
818.651	14890.99
818.979	14830.2
819.307	14970.31
819.636	14969.18
819.964	14737.32
820.292	14850.99
820.62	14799.24
820.948	14800.6
821.276	14837.21
821.604	14877.43
821.932	14769.19
822.259	14828.4
822.587	14813.25
822.915	14742.07
823.243	14821.39
823.57	14785.46
823.898	14824.55
824.225	14754.95
824.553	14768.96
824.88	14792.46
825.207	14778.91
825.535	14652.58
825.862	14772.35
826.189	14724.67
826.516	14804.67
826.843	14877.43
827.17	14760.6
827.497	14768.51
827.824	14868.39
828.151	14845.8
828.478	14821.62
828.805	14850.32
829.131	14818.9
829.458	14843.76
829.785	14728.74
830.111	14849.86
830.438	14830.2
830.764	14822.07
831.09	14847.83
831.417	14846.25
831.743	14778.68
832.069	14829.98
832.395	14730.54
832.722	14821.62
833.048	14708.17
833.374	14825.46
833.7	14653.48
834.026	14688.29
834.351	14731.67
834.677	14692.13
835.003	14722.41
835.329	14730.77
835.654	14628.63
835.98	14633.37
836.306	14623.2
836.631	14547.95
836.956	14678.57
837.282	14592.02
837.607	14619.81
837.932	14526.03
838.258	14509.31
838.583	14477.67
838.908	14359.48
839.233	14518.8
839.558	14344.57
839.883	14405.58
840.208	14323.55
840.533	14283.1
840.858	14343.66
841.182	14328.75
841.507	14215.08
841.832	14293.27
842.156	14242.2
842.481	14183.67
842.805	14192.48
843.13	14116.32
843.454	14092.37
843.778	14112.03
844.103	14000.62
844.427	13982.99
844.751	14031.81
845.075	13952.03
845.399	13984.8
845.723	13873.39
846.047	13869.78
846.371	13772.83
846.695	13777.12
847.019	13689.67
847.343	13573.97
847.666	13524.7
847.99	13476.34
848.313	13532.16
848.637	13326.51
848.96	13274.09
849.284	13283.58
849.607	13209.91
849.931	13202.9
850.254	13072.96
850.577	12995.45
850.9	12962.91
851.223	12981.89
851.546	12920.87
851.869	12748.9
852.192	12870.48
852.515	12755.46
852.838	12689.24
853.161	12682.69
853.483	12571.51
853.806	12553.43
854.129	12514.33
854.451	12487.44
854.774	12441.11
855.096	12406.09
855.419	12376.03
855.741	12285.64
856.063	12292.42
856.385	12297.61
856.708	12202.25
857.03	12173.1
857.352	12183.27
857.674	12127.9
857.996	12049.49
858.318	11944.4
858.64	11992.09
858.961	11957.51
859.283	11943.05
859.605	11898.98
859.926	11910.28
860.248	11791.19
860.57	11856.95
860.891	11830.06
861.212	11724.3
861.534	11686.11
861.855	11687.24
862.176	11714.8
862.498	11656.5
862.819	11647.69
863.14	11634.81
863.461	11590.97
863.782	11546.22
864.103	11583.96
864.424	11558.2
864.745	11603.62
865.065	11468.48
865.386	11395.27
865.707	11396.62
866.027	11458.09
866.348	11457.86
866.668	11343.97
866.989	11332.89
867.309	11221.48
867.63	11332.22
867.95	11308.04
868.27	11235.5
868.59	11314.59
868.91	11236.4
869.23	11218.77
869.55	11199.11
869.87	11198.21
870.19	11151.88
870.51	11176.74
870.83	11138.1
871.15	11094.26
871.469	11139.9
871.789	11093.58
872.109	11092.9
872.428	11041.38
872.748	10998.67
873.067	11029.85
873.386	11005.22
873.706	10977.2
874.025	10935.84
874.344	10888.84
874.663	10952.11
874.982	10906.01
875.301	10908.72
875.62	10908.27
875.939	10777.43
876.258	10852.23
876.577	10813.13
876.896	10796.41
877.214	10719.35
877.533	10733.59
877.852	10752.8
878.17	10760.71
878.489	10700.14
878.807	10706.02
879.125	10666.47
879.444	10667.37
879.762	10602.74
880.08	10642.74
880.398	10513.25
880.716	10613.37
881.034	10540.82
881.352	10500.83
881.67	10505.8
881.988	10445.46
882.306	10401.62
882.624	10426.93
882.941	10412.24
883.259	10382.18
883.577	10401.39
883.894	10328.4
884.212	10343.32
884.529	10291.34
884.846	10286.14
885.164	10302.41
885.481	10176.99
885.798	10184.45
886.115	10131.57
886.432	10114.4
886.75	10081.85
887.067	10169.99
887.383	10093.83
887.7	10086.37
888.017	10031.69
888.334	10043.44
888.651	10014.28
888.967	10021.97
889.284	9950.33
889.6	9942.2
889.917	9812.93
890.233	9806.83
890.55	9868.53
890.866	9817.91
891.182	9713.73
891.498	9776.78
891.815	9784.91
892.131	9683.22
892.447	9603.9
892.763	9682.54
893.079	9609.32
893.395	9574.75
893.71	9544.69
894.026	9540.17
894.342	9480.74
894.657	9450.23
894.973	9405.94
895.289	9376.34
895.604	9288.2
895.92	9285.49
896.235	9249.56
896.55	9273.74
896.865	9250.24
897.181	9230.35
897.496	9206.62
897.811	9115.33
898.126	9107.19
898.441	9027.19
898.756	9016.8
899.071	8990.81
899.386	8938.83
899.7	8921.21
900.015	8882.79
900.33	8771.61
900.644	8793.53
900.959	8819.74
901.273	8755.56
901.588	8686.41
901.902	8693.64
902.216	8700.42
902.531	8619.75
902.845	8577.71
903.159	8527.09
903.473	8487.55
903.787	8450.03
904.101	8444.38
904.415	8471.95
904.729	8469.24
905.042	8343.14
905.356	8352.86
905.67	8317.15
905.984	8274.9
906.297	8233.31
906.611	8198.51
906.924	8147.67
907.237	8144.05
907.551	8153.77
907.864	8156.93
908.177	8107.67
908.491	8008.46
908.804	8031.96
909.117	7932.98
909.43	7849.6
909.743	7782.25
910.056	7795.81
910.368	7793.1
910.681	7794
910.994	7803.27
911.307	7724.85
911.619	7691.41
911.932	7672.2
912.244	7605.53
912.557	7590.17
912.869	7542.94
913.181	7516.5
913.494	7555.82
913.806	7453.22
914.118	7371.87
914.43	7448.02
914.742	7413.45
915.054	7321.25
915.366	7350.63
915.678	7284.19
915.99	7245.77
916.302	7217.75
916.613	7144.98
916.925	7177.07
917.236	7122.16
917.548	7101.82
917.859	7124.64
918.171	7070.18
918.482	7024.53
918.794	6968.49
919.105	6934.59
919.416	6904.31
919.727	6894.37
920.038	6896.63
920.349	6851.43
920.66	6839.45
920.971	6818.89
921.282	6727.82
921.593	6751.09
921.903	6684.2
922.214	6718.33
922.525	6672.9
922.835	6614.15
923.146	6582.51
923.456	6573.92
923.767	6554.04
924.077	6521.27
924.387	6473.81
924.697	6458.67
925.008	6436.53
925.318	6434.27
925.628	6371.22
925.938	6342.06
926.248	6363.76
926.558	6283.31
926.867	6288.73
927.177	6248.51
927.487	6294.38
927.796	6208.74
928.106	6173.26
928.416	6121.28
928.725	6218.23
929.034	6100.72
929.344	6082.64
929.653	6074.95
929.962	6016.88
930.271	6002.19
930.581	5937.1
930.89	5931
931.199	5902.08
931.508	5933.94
931.817	5893.49
932.125	5884.45
932.434	5910.66
932.743	5782.98
933.051	5725.13
933.36	5769.2
933.669	5725.13
933.977	5749.09
934.286	5750.67
934.594	5655.53
934.902	5707.73
935.21	5576.89
935.519	5577.79
935.827	5618.24
936.135	5579.83
936.443	5527.62
936.751	5484.91
937.059	5448.98
937.367	5478.36
937.674	5467.06
937.982	5430.68
938.29	5387.97
938.597	5429.55
938.905	5359.94
939.213	5297.35
939.52	5277.46
939.827	5295.99
940.135	5253.73
940.442	5279.49
940.749	5262.32
941.056	5233.39
941.363	5177.35
941.67	5194.75
941.977	5093.06
942.284	5081.08
942.591	5056.22
942.898	5062.32
943.205	5062.55
943.511	4995.21
943.818	4986.85
944.125	4967.64
944.431	4972.84
944.738	4987.75
945.044	4955.89
945.35	4853.74
945.657	4877.02
945.963	4769
946.269	4850.35
946.575	4838.15
946.881	4822.33
947.187	4767.64
947.493	4769
947.799	4724.93
948.105	4711.37
948.41	4723.8
948.716	4725.61
949.022	4676.12
949.327	4651.94
949.633	4574.43
949.938	4629.57
950.244	4556.35
950.549	4548.21
950.854	4511.6
951.16	4555.22
951.465	4505.28
951.77	4494.43
952.075	4491.94
952.38	4408.1
952.685	4433.19
952.99	4354.09
953.294	4375.11
953.599	4349.35
953.904	4343.47
954.209	4291.95
954.513	4317.49
954.818	4270.03
955.122	4244.04
955.426	4267.77
955.731	4250.37
956.035	4244.49
956.339	4191.84
956.643	4182.12
956.948	4191.84
957.252	4137.38
957.556	4112.07
957.86	4146.64
958.163	4079.53
958.467	4113.87
958.771	4083.59
959.075	4024.39
959.378	4030.49
959.682	4004.05
959.985	3989.58
960.289	3984.39
960.592	3962.69
960.896	3923.6
961.199	3915.24
961.502	3903.94
961.805	3874.33
962.108	3822.36
962.411	3838.85
962.714	3763.15
963.017	3765.86
963.32	3839.08
963.623	3748.46
963.926	3790.04
964.228	3756.82
964.531	3712.53
964.833	3743.26
965.136	3710.27
965.438	3671.17
965.741	3662.81
966.043	3645.41
966.345	3668.69
966.648	3641.12
966.95	3636.6
967.252	3586.66
967.554	3574.68
967.856	3604.96
968.158	3550.27
968.46	3535.81
968.761	3493.1
969.063	3522.25
969.365	3475.25
969.666	3496.04
969.968	3430.28
970.269	3477.28
970.571	3406.77
970.872	3437.73
971.174	3423.5
971.475	3373.78
971.776	3373.1
972.077	3344.4
972.378	3382.59
972.679	3320.9
972.98	3340.79
973.281	3316.16
973.582	3305.08
973.883	3285.2
974.183	3282.71
974.484	3220.34
974.785	3235.48
975.085	3227.12
975.386	3209.27
975.686	3196.84
975.986	3206.33
976.287	3148.7
976.587	3122.49
976.887	3158.65
977.187	3096.73
977.487	3095.82
977.787	3098.76
978.087	3045.43
978.387	3053.56
978.687	3045.43
978.987	3038.87
979.286	3018.99
979.586	3046.78
979.885	2982.61
980.185	2964.07
980.484	2954.58
980.784	2936.05
981.083	2961.59
981.382	2942.38
981.682	2936.5
981.981	2924.98
982.28	2925.88
982.579	2872.33
982.878	2894.47
983.177	2833.23
983.475	2837.3
983.774	2817.64
984.073	2781.48
984.372	2788.49
984.67	2791.65
984.969	2775.38
985.267	2733.12
985.566	2745.55
985.864	2760.46
986.162	2734.02
986.461	2727.02
986.759	2700.8
987.057	2673.91
987.355	2698.32
987.653	2633.01
987.951	2663.07
988.249	2648.15
988.547	2611.09
988.844	2620.81
989.142	2611.54
989.44	2586.46
989.737	2550.98
990.035	2544.88
990.332	2552.33
990.63	2536.74
990.927	2495.39
991.224	2526.35
991.521	2514.59
991.819	2497.87
992.116	2444.31
992.413	2487.25
992.71	2476.86
993.006	2431.66
993.303	2428.04
993.6	2417.2
993.897	2407.48
994.193	2414.03
994.49	2406.8
994.787	2383.75
995.083	2375.39
995.379	2339.68
995.676	2343.07
995.972	2340.59
996.268	2307.14
996.565	2302.17
996.861	2259.69
997.157	2291.78
997.453	2285.9
997.749	2255.62
998.044	2249.07
998.34	2235.73
998.636	2178.33
998.932	2209.07
999.227	2201.38
999.523	2199.8
999.818	2187.6
1000.114	2132.91
1000.409	2115.51
1000.704	2155.06
1001	2134.72
1001.295	2148.95
1001.59	2137.2
1001.885	2129.07
1002.18	2113.48
1002.475	2064.66
1002.77	2077.77
1003.065	2002.07
1003.359	2042.97
1003.654	2013.59
1003.949	2007.26
1004.243	2029.41
1004.538	2022.86
1004.832	2002.74
1005.127	1953.03
1005.421	1976.3
1005.715	1929.53
1006.009	1954.16
1006.304	1970.88
1006.598	1936.08
1006.892	1914.84
1007.186	1902.86
1007.48	1904.67
1007.773	1894.72
1008.067	1881.39
1008.361	1836.19
1008.655	1856.99
1008.948	1858.34
1009.242	1811.79
1009.535	1786.93
1009.829	1783.99
1010.122	1788.51
1010.415	1779.25
1010.708	1761.39
1011.001	1768.85
1011.295	1729.3
1011.588	1716.65
1011.881	1729.76
1012.173	1717.1
1012.466	1684.33
1012.759	1692.24
1013.052	1685.24
1013.344	1683.2
1013.637	1679.36
1013.93	1677.55
1014.222	1656.76
1014.514	1630.1
1014.807	1642.75
1015.099	1605.69
1015.391	1622.19
1015.683	1600.49
1015.976	1582.87
1016.268	1581.74
1016.56	1578.57
1016.851	1553.94
1017.143	1556.65
1017.435	1532.02
1017.727	1527.5
1018.018	1543.55
1018.31	1516.2
1018.602	1520.04
1018.893	1505.81
1019.185	1468.07
1019.476	1471.46
1019.767	1474.17
1020.058	1455.64
1020.35	1452.25
1020.641	1424
1020.932	1429.65
1021.223	1389.43
1021.514	1419.71
1021.804	1400.05
1022.095	1407.28
1022.386	1391.01
1022.677	1349.88
1022.967	1357.56
1023.258	1343.33
1023.548	1364.34
1023.839	1343.33
1024.129	1324.57
1024.419	1301.29
1024.709	1326.15
1025	1302.88
1025.29	1291.58
1025.58	1279.83
1025.87	1305.14
1026.16	1252.03
1026.449	1297.9
1026.739	1255.42
1027.029	1243.89
1027.319	1223.33
1027.608	1228.53
1027.898	1225.14
1028.187	1242.76
1028.477	1245.48
1028.766	1212.03
1029.055	1173.39
1029.344	1205.93
1029.634	1173.61
1029.923	1186.04
1030.212	1194.86
1030.501	1150.56
1030.79	1133.39
1031.078	1155.76
1031.367	1114.63
1031.656	1097.68
1031.945	1124.35
1032.233	1115.99
1032.522	1113.05
1032.81	1113.28
1033.099	1101.52
1033.387	1089.77
1033.675	1077.12
1033.963	1056.1
1034.251	1078.25
1034.54	1040.96
1034.828	1057.46
1035.116	1040.51
1035.403	1069.21
1035.691	1057.46
1035.979	998.93
1036.267	1010.23
1036.554	1011.36
1036.842	1005.71
1037.129	1014.07
1037.417	981.53
1037.704	980.62
1037.992	968.19
1038.279	981.53
1038.566	978.14
1038.853	978.14
1039.14	978.14
