Data from hue_170_FLMS001491_00078.txt Node
Date: Tue Feb 07 16:49:11 GMT 2017
User: dcchb
Spectrometer: FLMS00149
Trigger mode: 0
Integration Time (sec): 2.000000E-2
Scans to average: 10
Electric dark correction enabled: true
Nonlinearity correction enabled: false
Boxcar width: 0
XAxis mode: Wavelengths
Number of Pixels in Spectrum: 2048
>>>>>Begin Spectral Data<<<<<
341.393	-14.65
341.776	-14.65
342.16	-14.65
342.543	-68.66
342.927	-73.63
343.31	-63.91
343.693	-68.2
344.077	-51.71
344.46	-61.2
344.843	-38.15
345.226	-44.02
345.61	-38.6
345.993	-18.26
346.376	-4.25
346.759	-2.9
347.142	35.3
347.525	21.06
347.908	60.38
348.291	82.75
348.674	93.37
349.057	98.34
349.44	134.73
349.823	156.65
350.206	156.87
350.588	203.65
350.971	213.6
351.354	210.43
351.737	268.74
352.119	244.56
352.502	268.28
352.884	277.1
353.267	277.78
353.65	285.23
354.032	314.61
354.414	299.24
354.797	306.93
355.179	302.41
355.562	330.2
355.944	328.62
356.326	347.6
356.709	332.69
357.091	347.15
357.473	347.6
357.855	339.47
358.238	353.93
358.62	318
359.002	348.28
359.384	348.51
359.766	341.05
360.148	316.87
360.53	342.41
360.912	331.33
361.294	329.3
361.676	321.62
362.057	327.49
362.439	345.8
362.821	344.21
363.203	315.51
363.584	317.32
363.966	308.51
364.348	345.34
364.729	313.25
365.111	310.32
365.493	334.04
365.874	336.76
366.256	321.39
366.637	309.64
367.019	313.48
367.4	311.22
367.781	310.54
368.163	303.76
368.544	302.63
368.925	296.76
369.306	288.62
369.688	282.75
370.069	297.89
370.45	318
370.831	319.81
371.212	331.79
371.593	312.58
371.974	311.9
372.355	306.47
372.736	300.15
373.117	316.42
373.498	325.46
373.879	300.6
374.26	303.76
374.641	297.21
375.021	313.71
375.402	305.35
375.783	303.09
376.163	318.68
376.544	327.94
376.925	321.39
377.305	321.16
377.686	319.81
378.066	331.79
378.447	322.97
378.827	334.95
379.208	331.33
379.588	325.91
379.968	328.62
380.349	319.36
380.729	312.35
381.109	306.7
381.489	328.62
381.87	313.25
382.25	304.67
382.63	333.14
383.01	349.64
383.39	349.41
383.77	351.9
384.15	340.37
384.53	350.77
384.91	326.81
385.29	344.21
385.67	342.86
386.049	364.78
386.429	347.15
386.809	339.02
387.189	351.9
387.568	345.34
387.948	347.83
388.328	352.58
388.707	333.82
389.087	337.21
389.466	359.13
389.846	339.69
390.225	343.08
390.605	350.09
390.984	362.97
391.363	337.43
391.743	358.45
392.122	347.38
392.501	383.08
392.881	360.26
393.26	359.58
393.639	375.85
394.018	361.84
394.397	363.42
394.776	370.88
395.155	374.5
395.534	374.04
395.913	362.52
396.292	389.41
396.671	385.34
397.05	370.88
397.429	398
397.808	381.73
398.186	392.35
398.565	367.04
398.944	388.28
399.323	382.18
399.701	395.29
400.08	383.99
400.458	389.86
400.837	402.74
401.215	396.42
401.594	408.62
401.972	404.1
402.351	385.79
402.729	391.67
403.107	404.55
403.486	407.26
403.864	411.11
404.242	426.92
404.62	383.76
404.999	415.85
405.377	415.62
405.755	442.97
406.133	419.92
406.511	419.69
406.889	437.77
407.267	437.77
407.645	428.28
408.023	444.1
408.401	445.45
408.779	432.12
409.156	453.14
409.534	463.98
409.912	444.55
410.29	455.17
410.667	458.11
411.045	461.27
411.422	475.96
411.8	478
412.178	485
412.555	491.55
412.933	475.51
413.31	480.26
413.687	501.72
414.065	495.4
414.442	492.68
414.819	506.24
415.197	510.99
415.574	518.67
415.951	513.93
416.328	522.97
416.705	534.72
417.082	527.26
417.46	542.4
417.837	546.02
418.214	562.06
418.591	565.68
418.967	556.41
419.344	554.6
419.721	550.08
420.098	573.13
420.475	557.09
420.852	588.73
421.228	589.63
421.605	578.33
421.982	605.9
422.358	610.2
422.735	627.14
423.111	612.46
423.488	623.53
423.864	633.92
424.241	664.88
424.617	649.74
424.994	630.31
425.37	644.77
425.746	637.31
426.123	662.17
426.499	668.05
426.875	703.98
427.251	710.08
427.627	679.12
428.003	691.32
428.379	697.88
428.756	718.44
429.132	701.72
429.507	714.37
429.883	717.31
430.259	738.55
430.635	742.85
431.011	760.7
431.387	756.41
431.763	778.1
432.138	782.39
432.514	760.7
432.89	786.46
433.265	819.91
433.641	842.73
434.016	820.13
434.392	814.26
434.767	850.42
435.143	873.01
435.518	819.91
435.894	851.32
436.269	888.15
436.644	885.89
437.02	921.6
437.395	915.27
437.77	906.91
438.145	946.68
438.52	950.3
438.895	957.76
439.271	953.69
439.646	994.59
440.021	993.46
440.395	983.97
440.77	981.49
441.145	994.59
441.52	1035.5
441.895	1034.82
442.27	1037.98
442.645	1047.92
443.019	1046.79
443.394	1094.7
443.769	1067.36
444.143	1063.52
444.518	1092.67
444.892	1091.09
445.267	1125.21
445.641	1114.59
446.016	1102.16
446.39	1134.25
446.764	1098.09
447.139	1144.19
447.513	1139.67
447.887	1139
448.262	1165.21
448.636	1146.68
449.01	1206.34
449.384	1181.25
449.758	1217.19
450.132	1226.22
450.506	1204.53
450.88	1248.15
451.254	1231.42
451.628	1240.91
452.002	1256.51
452.376	1283.17
452.75	1269.39
453.123	1296.51
453.497	1353
453.871	1310.97
454.244	1346.22
454.618	1351.87
454.992	1353.45
455.365	1388.48
455.739	1418.76
456.112	1412.21
456.486	1429.38
456.859	1449.27
457.232	1482.94
457.606	1489.95
457.979	1500.57
458.352	1533.56
458.725	1527.01
459.099	1553.67
459.472	1592.54
459.845	1592.54
460.218	1610.62
460.591	1607.91
460.964	1660.56
461.337	1702.37
461.71	1695.59
462.083	1761.35
462.456	1737.85
462.829	1732.65
463.201	1770.84
463.574	1776.49
463.947	1831.41
464.32	1878.41
464.692	1865.98
465.065	1927
465.438	1928.81
465.81	1940.33
466.183	1967.22
466.555	2041.12
466.928	2073.66
467.3	2060.33
467.672	2078.86
468.045	2136.03
468.417	2168.57
468.789	2187.1
469.161	2209.02
469.534	2258.97
469.906	2330.38
470.278	2347.55
470.65	2351.39
471.022	2418.06
471.394	2481.33
471.766	2505.06
472.138	2545.29
472.51	2626.87
472.882	2642.68
473.253	2706.64
473.625	2755.9
473.997	2794.77
474.369	2861.44
474.74	2885.62
475.112	2962.68
475.484	3044.93
475.855	3091.71
476.227	3132.62
476.598	3225.49
476.97	3344.36
477.341	3412.61
477.713	3427.75
478.084	3490.57
478.455	3618.7
478.827	3625.48
479.198	3775.76
479.569	3835.42
479.94	3924.91
480.311	3985.25
480.682	4144.57
481.053	4251
481.424	4358.35
481.795	4420.04
482.166	4493.26
482.537	4614.38
482.908	4724.89
483.279	4762.18
483.65	4911.1
484.021	5020.02
484.391	5175.5
484.762	5181.6
485.133	5288.49
485.503	5399
485.874	5549.5
486.244	5641.7
486.615	5799.66
486.985	5909.72
487.356	6065.87
487.726	6153.33
488.097	6267.67
488.467	6381.57
488.837	6520.55
489.207	6639.64
489.578	6805.06
489.948	6859.75
490.318	6987.88
490.688	7040.54
491.058	7244.37
491.428	7334.99
491.798	7466.74
492.168	7664.02
492.538	7705.83
492.908	7838.71
493.278	7942.88
493.648	8001.87
494.017	8184.69
494.387	8174.06
494.757	8397.79
495.126	8516.43
495.496	8505.36
495.866	8640.95
496.235	8734.73
496.605	8833.93
496.974	8975.4
497.344	9119.35
497.713	9155.06
498.082	9240.7
498.452	9258.33
498.821	9319.12
499.19	9414.94
499.559	9544.2
499.928	9650.86
500.298	9749.62
500.667	9774.02
501.036	9754.36
501.405	9941.02
501.774	9940.12
502.143	10015.37
502.512	10110.29
502.88	10241.58
503.249	10265.08
503.618	10255.14
503.987	10338.3
504.356	10346.44
504.724	10426.89
505.093	10504.17
505.462	10483.38
505.83	10590.72
506.199	10643.38
506.567	10769.25
506.936	10734.22
507.304	10842.02
507.672	10869.14
508.041	10946.2
508.409	11022.35
508.777	11087.43
509.145	11145.96
509.514	11134.89
509.882	11190.03
510.25	11211.27
510.618	11260.54
510.986	11302.34
511.354	11351.38
511.722	11392.51
512.09	11485.39
512.458	11456.46
512.826	11511.6
513.193	11590.25
513.561	11539.63
513.929	11584.6
514.297	11692.84
514.664	11676.8
515.032	11689.9
515.4	11807.87
515.767	11799.05
516.135	11863.69
516.502	11703.69
516.869	11851.48
517.237	11879.05
517.604	11862.33
517.972	11983
518.339	11940.75
518.706	11972.16
519.073	11939.84
519.44	12025.04
519.808	12041.76
520.175	11934.64
520.542	12147.75
520.909	12150.91
521.276	12059.84
521.643	12122.21
522.009	12226.84
522.376	12251.02
522.743	12256.22
523.11	12225.26
523.477	12326.27
523.843	12387.29
524.21	12352.94
524.577	12457.34
524.943	12365.37
525.31	12387.97
525.676	12468.87
526.043	12492.82
526.409	12474.06
526.776	12556.55
527.142	12475.42
527.508	12529.66
527.874	12602.65
528.241	12606.94
528.607	12532.37
528.973	12578.92
529.339	12439.04
529.705	12672.48
530.071	12547.06
530.437	12585.47
530.803	12535.08
531.169	12589.32
531.535	12541.41
531.901	12566.04
532.267	12474.97
532.632	12467.06
532.998	12509.77
533.364	12543.22
533.73	12503.44
534.095	12502.31
534.461	12503.44
534.826	12442.65
535.192	12370.11
535.557	12418.25
535.923	12319.27
536.288	12411.02
536.653	12345.48
537.019	12243.56
537.384	12178.93
537.749	12219.38
538.114	12193.39
538.479	12151.14
538.845	12171.93
539.21	12066.39
539.575	12065.49
539.94	12023
540.305	12046.73
540.67	11898.71
541.034	11987.3
541.399	11863.69
541.764	11791.14
542.129	11851.71
542.494	11762.9
542.858	11773.97
543.223	11663.69
543.587	11721.99
543.952	11627.31
544.316	11623.01
544.681	11548.67
545.045	11587.76
545.41	11559.29
545.774	11471.38
546.138	11428.44
546.503	11368.56
546.867	11336.24
547.231	11274.32
547.595	11282.23
547.959	11241.55
548.324	11243.81
548.688	11159.97
549.052	11159.07
549.416	11161.33
549.779	11071.39
550.143	11015.35
550.507	10994.1
550.871	11099.41
551.235	10910.04
551.599	10905.74
551.962	10908
552.326	10872.98
552.689	10896.71
553.053	10711.4
553.417	10746.88
553.78	10812.87
554.143	10696.48
554.507	10711.17
554.87	10694
555.234	10698.97
555.597	10641.12
555.96	10634.57
556.323	10662.13
556.686	10526.09
557.05	10614.68
557.413	10543.72
557.776	10508.69
558.139	10613.1
558.502	10531.74
558.865	10457.17
559.228	10531.29
559.59	10514.34
559.953	10434.34
560.316	10474.34
560.679	10421.92
561.041	10515.02
561.404	10453.1
561.767	10432.99
562.129	10391.63
562.492	10398.41
562.854	10414.68
563.217	10327.23
563.579	10378.53
563.941	10418.98
564.304	10424.4
564.666	10425.76
565.028	10438.19
565.39	10435.93
565.753	10481.35
566.115	10476.83
566.477	10428.02
566.839	10481.57
567.201	10476.6
567.563	10467.34
567.925	10529.26
568.287	10389.37
568.648	10396.38
569.01	10440.22
569.372	10513.21
569.734	10460.11
570.095	10462.14
570.457	10566.09
570.819	10519.77
571.18	10498.52
571.542	10523.61
571.903	10474.57
572.265	10519.09
572.626	10566.32
572.987	10525.19
573.349	10506.21
573.71	10520.44
574.071	10523.83
574.432	10572.65
574.794	10614.23
575.155	10542.82
575.516	10487.9
575.877	10568.13
576.238	10576.04
576.599	10571.06
576.96	10585.98
577.32	10512.31
577.681	10534.45
578.042	10547.79
578.403	10660.1
578.763	10478.86
579.124	10565.41
579.485	10567.9
579.845	10647.45
580.206	10581.23
580.566	10605.64
580.927	10659.2
581.287	10601.57
581.648	10587.11
582.008	10548.47
582.368	10570.16
582.728	10542.82
583.089	10504.17
583.449	10553.66
583.809	10523.16
584.169	10612.42
584.529	10438.19
584.889	10577.62
585.249	10494.68
585.609	10365.87
585.969	10430.28
586.329	10388.02
586.688	10503.72
587.048	10417.85
587.408	10397.96
587.768	10469.82
588.127	10476.6
588.487	10347.57
588.846	10439.99
589.206	10342.82
589.565	10360.9
589.925	10388.02
590.284	10348.02
590.643	10351.86
591.003	10400.67
591.362	10352.99
591.721	10333.1
592.08	10301.01
592.44	10333.56
592.799	10362.03
593.158	10392.31
593.517	10333.78
593.876	10298.53
594.235	10259.21
594.593	10295.82
594.952	10323.61
595.311	10240.23
595.67	10269.6
596.029	10328.81
596.387	10311.86
596.746	10307.12
597.104	10219.89
597.463	10212.43
597.822	10279.55
598.18	10306.44
598.538	10294.91
598.897	10263.73
599.255	10176.95
599.613	10292.43
599.972	10225.99
600.33	10213.11
600.688	10179.21
601.046	10215.37
601.404	10253.11
601.762	10287
602.12	10194.35
602.478	10229.83
602.836	10322.71
603.194	10197.74
603.552	10229.83
603.91	10191.19
604.268	10197.97
604.625	10188.25
604.983	10251.52
605.341	10121.36
605.698	10231.19
606.056	10202.03
606.413	10190.73
606.771	10256.04
607.128	10200.23
607.485	10207.01
607.843	10207.01
608.2	10224.41
608.557	10291.07
608.914	10249.04
609.272	10250.85
609.629	10259.89
609.986	10261.24
610.343	10278.87
610.7	10358.19
611.057	10244.97
611.414	10288.59
611.771	10359.54
612.127	10293.33
612.484	10314.8
612.841	10362.93
613.198	10248.59
613.554	10336.04
613.911	10305.99
614.267	10294.23
614.624	10327
614.98	10341.92
615.337	10408.36
615.693	10374.23
616.05	10336.27
616.406	10447.68
616.762	10347.79
617.118	10412.2
617.475	10345.99
617.831	10403.84
618.187	10444.97
618.543	10496.72
618.899	10454.46
619.255	10427.11
619.611	10380.33
619.967	10473.44
620.323	10507.34
620.678	10453.78
621.034	10451.29
621.39	10393.89
621.746	10415.59
622.101	10522.7
622.457	10488.81
622.812	10457.39
623.168	10474.57
623.523	10434.8
623.879	10504.85
624.234	10475.7
624.589	10511.63
624.945	10495.13
625.3	10515.47
625.655	10444.06
626.01	10479.99
626.365	10418.53
626.72	10501.01
627.075	10456.94
627.43	10355.7
627.785	10367.23
628.14	10416.27
628.495	10406.77
628.85	10459.88
629.205	10343.73
629.559	10423.05
629.914	10364.06
630.269	10371.3
630.623	10309.6
630.978	10370.62
631.332	10312.31
631.687	10380.33
632.041	10321.8
632.396	10350.05
632.75	10270.73
633.104	10373.1
633.459	10307.34
633.813	10323.61
634.167	10303.27
634.521	10294.46
634.875	10308.92
635.229	10378.98
635.583	10181.92
635.937	10228.02
636.291	10257.4
636.645	10218.08
636.999	10211.53
637.352	10203.16
637.706	10177.85
638.06	10216.27
638.413	10120
638.767	10113.9
639.121	10200.68
639.474	10092.66
639.828	10063.51
640.181	10115.71
640.534	10079.55
640.888	10112.09
641.241	10044.3
641.594	10057.63
641.947	10065.09
642.301	10049.27
642.654	10036.61
643.007	10019.44
643.36	10028.25
643.713	10039.55
644.066	10074.81
644.419	10034.13
644.771	10001.36
645.124	9868.26
645.477	9795.94
645.83	9716.17
646.182	9712.78
646.535	9681.37
646.888	9724.31
647.24	9639.34
647.593	9736.51
647.945	9729.5
648.298	9700.58
648.65	9619
649.002	9617.87
649.355	9684.53
649.707	9732.22
650.059	9708.26
650.411	9900.57
650.763	9886.79
651.115	9931.31
651.467	9925.43
651.819	9907.8
652.171	9948.26
652.523	9934.92
652.875	9860.12
653.227	9875.49
653.578	9886.34
653.93	9900.8
654.282	9885.21
654.633	9876.84
654.985	9904.19
655.337	9921.59
655.688	9934.02
656.039	9909.61
656.391	9904.87
656.742	9926.11
657.094	9983.73
657.445	9976.5
657.796	9849.73
658.147	9934.7
658.498	9866.9
658.849	9921.82
659.2	9930.63
659.551	9858.09
659.902	9970.18
660.253	9921.59
660.604	9898.31
660.955	9941.93
661.306	9935.83
661.656	9958.2
662.007	9937.63
662.358	9958.2
662.708	9953
663.059	9954.81
663.409	9911.87
663.76	9987.58
664.11	10024.64
664.461	10023.51
664.811	10036.39
665.161	9988.25
665.511	10003.85
665.862	9982.38
666.212	10070.96
666.562	10065.99
666.912	9980.8
667.262	9955.26
667.612	9940.57
667.962	10068.48
668.312	10014.24
668.662	10015.82
669.011	9981.02
669.361	9933.11
669.711	9984.19
670.06	9985.99
670.41	9967.01
670.76	9929.27
671.109	9983.28
671.459	9946.22
671.808	9967.01
672.157	9923.85
672.507	9842.95
672.856	9895.15
673.205	9891.99
673.554	9910.97
673.904	9944.19
674.253	9963.85
674.602	9944.41
674.951	9845.21
675.3	9693.12
675.649	9883.62
675.998	9818.77
676.346	9797.52
676.695	9807.02
677.044	9775.38
677.393	9834.81
677.741	9866.45
678.09	9800.91
678.438	9758.2
678.787	9743.06
679.135	9800.01
679.484	9726.11
679.832	9778.99
680.181	9663.29
680.529	9706
680.877	9744.19
681.225	9608.6
681.573	9694.02
681.922	9659.9
682.27	9573.58
682.618	9604.31
682.966	9571.32
683.314	9632.11
683.661	9556.63
684.009	9526.57
684.357	9531.77
684.705	9437.08
685.053	9485.67
685.4	9470.3
685.748	9365.9
686.095	9396.18
686.443	9352.56
686.79	9372.9
687.138	9348.95
687.485	9345.56
687.832	9355.95
688.18	9374.94
688.527	9293.81
688.874	9272.11
689.221	9198.22
689.568	9227.6
689.915	9130.88
690.262	9181.5
690.609	9164.55
690.956	9085.23
691.303	9082.52
691.65	9052.91
691.997	9051.56
692.344	9008.39
692.69	8994.38
693.037	9005.46
693.383	8877.32
693.73	8886.14
694.077	8847.49
694.423	8807.27
694.769	8839.81
695.116	8735.86
695.462	8734.5
695.808	8683.88
696.155	8733.6
696.501	8648.18
696.847	8603.21
697.193	8590.32
697.539	8604.34
697.885	8559.82
698.231	8499.48
698.577	8492.93
698.923	8468.52
699.269	8478.92
699.614	8325.02
699.96	8321.63
700.306	8365.7
700.651	8263.78
700.997	8252.48
701.342	8267.62
701.688	8191.69
702.033	8144.01
702.379	8184.91
702.724	8103.33
703.069	8080.28
703.415	8072.15
703.76	7962.32
704.105	7989.44
704.45	8013.62
704.795	7959.16
705.14	7950.12
705.485	7885.94
705.83	7904.02
706.175	7779.05
706.52	7829.44
706.865	7805.26
707.209	7767.75
707.554	7773.4
707.899	7825.6
708.243	7743.34
708.588	7661.31
708.932	7644.14
709.277	7674.19
709.621	7643.68
709.966	7567.75
710.31	7569.33
710.654	7579.05
710.998	7491.6
711.342	7579.96
711.687	7535.66
712.031	7467.19
712.375	7455.21
712.719	7478.72
713.063	7446.4
713.407	7450.24
713.75	7419.28
714.094	7405.5
714.438	7370.47
714.782	7340.87
715.125	7314.65
715.469	7349.91
715.812	7278.04
716.156	7236.01
716.499	7290.47
716.843	7290.25
717.186	7163.7
717.53	7239.17
717.873	7248.21
718.216	7197.14
718.559	7183.81
718.902	7162.11
719.246	7174.54
719.589	7156.92
719.932	7112.62
720.275	7125.73
720.617	7073.3
720.96	7152.85
721.303	7121.89
721.646	7139.06
721.989	7106.52
722.331	7144.94
722.674	7164.6
723.016	7071.27
723.359	7139.74
723.701	7103.13
724.044	7101.1
724.386	7002.8
724.729	7029.46
725.071	7046.41
725.413	7050.7
725.755	7120.31
726.097	6962.35
726.439	6994.43
726.782	6940.88
727.124	7068.56
727.465	6981.78
727.807	7010.48
728.149	7000.08
728.491	6986.07
728.833	6961.89
729.175	6962.35
729.516	6991.72
729.858	6958.96
730.199	6981.78
730.541	6974.77
730.882	6905.85
731.224	6978.84
731.565	6955.79
731.906	6935.91
732.248	6940.42
732.589	6920.09
732.93	6981.1
733.271	6959.41
733.612	6961.67
733.953	6928
734.294	6938.17
734.635	6960.31
734.976	6996.92
735.317	6911.95
735.658	6995.79
735.999	6909.47
736.339	7040.08
736.68	7020.2
737.021	7001.67
737.361	6965.96
737.702	7032.17
738.042	7021.55
738.383	7057.26
738.723	7064.49
739.063	7027.65
739.404	7067.2
739.744	7011.84
740.084	7052.96
740.424	7072.85
740.764	7116.69
741.104	7145.17
741.444	7125.96
741.784	7085.96
742.124	7128.44
742.464	7153.98
742.804	7160.98
743.143	7193.75
743.483	7247.54
743.823	7195.11
744.162	7251.38
744.502	7245.05
744.841	7337.25
745.181	7317.14
745.52	7301.09
745.86	7370.7
746.199	7448.21
746.538	7467.64
746.877	7513.97
747.216	7567.53
747.556	7626.51
747.895	7636.23
748.234	7696.56
748.573	7724.59
748.911	7760.52
749.25	7804.58
749.589	7872.38
749.928	7922.55
750.267	8007.52
750.605	8099.49
750.944	8172.03
751.283	8190.34
751.621	8343.1
751.96	8428.52
752.298	8492.7
752.636	8649.53
752.975	8634.84
753.313	8746.93
753.651	8945.34
753.989	8906.7
754.327	8990.54
754.666	9188.95
755.004	9363.64
755.342	9469.85
755.679	9548.94
756.017	9651.31
756.355	9847.92
756.693	9946.45
757.031	10101.47
757.368	10183.96
757.706	10308.47
758.044	10492.65
758.381	10596.37
758.719	10758.86
759.056	10857.61
759.394	11085.17
759.731	11129.69
760.068	11364.26
760.405	11569.23
760.743	11698.04
761.08	11869.79
761.417	11963.34
761.754	12234.3
762.091	12330.57
762.428	12486.95
762.765	12581.63
763.102	12906.14
763.438	13023.2
763.775	13128.96
764.112	13398.33
764.449	13475.85
764.785	13661.38
765.122	13820.24
765.458	13813.69
765.795	14023.85
766.131	14166.22
766.467	14323.51
766.804	14400.34
767.14	14577.06
767.476	14708.81
767.812	14868.8
768.148	15061.57
768.485	15133.88
768.821	15121.9
769.157	15307.89
769.492	15483.25
769.828	15622.46
770.164	15572.29
770.5	15717.37
770.836	15856.12
771.171	15976.57
771.507	16077.81
771.842	16109.68
772.178	16298.82
772.513	16368.2
772.849	16473.96
773.184	16504.92
773.519	16640.73
773.855	16583.56
774.19	16686.61
774.525	16874.17
774.86	16834.18
775.195	16948.52
775.53	17034.17
775.865	16888.86
776.2	16978.58
776.535	17007.05
776.87	16972.7
777.205	17110.33
777.539	17123.66
777.874	17262.41
778.209	17243.88
778.543	17207.95
778.878	17230.1
779.212	17307.16
779.547	17258.8
779.881	17396.42
780.215	17280.94
780.55	17346.03
780.884	17286.37
781.218	17387.83
781.552	17484.33
781.886	17404.56
782.22	17375.18
782.554	17353.94
782.888	17323.43
783.222	17253.83
783.556	17409.08
783.889	17206.37
784.223	17273.03
784.557	17249.53
784.89	17327.04
785.224	17265.58
785.557	17240.94
785.891	17296.99
786.224	17160.95
786.558	17210.89
786.891	17156.88
787.224	17190.1
787.557	17165.69
787.891	17195.52
788.224	17240.49
788.557	17156.88
788.89	17215.41
789.223	17155.07
789.556	17004.34
789.888	17003.21
790.221	16980.16
790.554	16927.28
790.887	16872.82
791.219	16881.86
791.552	16918.24
791.884	16826.72
792.217	16822.65
792.549	16837.34
792.882	16624.69
793.214	16658.36
793.546	16760.96
793.879	16558.93
794.211	16456.56
794.543	16662.43
794.875	16600.28
795.207	16533.62
795.539	16506.95
795.871	16511.02
796.203	16387.41
796.535	16351.7
796.867	16305.38
797.198	16286.39
797.53	16179.5
797.862	16205.94
798.193	16363.23
798.525	16159.84
798.856	16143.35
799.188	16030.36
799.519	15947.65
799.85	15865.39
800.182	15939.06
800.513	15909
800.844	15814.32
801.175	15979.51
801.506	15899.06
801.837	15849.12
802.168	15805.05
802.499	15761.66
802.83	15734.32
803.161	15692.06
803.491	15768.89
803.822	15719.18
804.153	15602.8
804.483	15482.8
804.814	15405.74
805.145	15386.76
805.475	15415.23
805.805	15284.39
806.136	15451.61
806.466	15427.21
806.796	15311.05
807.126	15242.13
807.457	15201
807.787	15147.44
808.117	15121.45
808.447	14993.77
808.777	15036.94
809.107	15064.96
809.436	15018.86
809.766	15060.44
810.096	14928.01
810.426	14917.62
810.755	14837.62
811.085	14818.86
811.414	14858.63
811.744	14752.2
812.073	14789.48
812.403	14759.88
812.732	14608.7
813.061	14664.29
813.39	14613.22
813.719	14637.62
814.049	14599.88
814.378	14549.94
814.707	14510.62
815.036	14545.2
815.365	14447.57
815.693	14271.08
816.022	14465.42
816.351	14373.9
816.68	14348.37
817.008	14302.04
817.337	14208.03
817.665	14236.96
817.994	14275.37
818.322	14219.56
818.651	14130.07
818.979	14127.58
819.307	14172.33
819.636	14166.22
819.964	14083.97
820.292	14137.98
820.62	14147.24
820.948	13994.7
821.276	14070.41
821.604	13956.29
821.932	14050.29
822.259	14062.05
822.587	13968.26
822.915	13919.68
823.243	14078.99
823.57	13950.86
823.898	14038.09
824.225	14006.23
824.553	13982.95
824.88	13966.91
825.207	14055.27
825.535	13973.23
825.862	14095.26
826.189	14015.49
826.516	14126.45
826.843	14032.67
827.17	14102.04
827.497	14041.26
827.824	14094.14
828.151	14005.78
828.478	13975.04
828.805	14094.36
829.131	14005.1
829.458	14028.83
829.785	13923.97
830.111	14024.08
830.438	14087.58
830.764	14054.14
831.09	14031.31
831.417	14035.83
831.743	14016.85
832.069	14043.74
832.395	13981.37
832.722	13970.07
833.048	14002.84
833.374	13954.93
833.7	13893.01
834.026	13947.92
834.351	13903.18
834.677	13916.29
835.003	13994.25
835.329	13946.79
835.654	13924.87
835.98	13801.04
836.306	13843.07
836.631	13816.18
836.956	13881.26
837.282	13801.71
837.607	13817.53
837.932	13811.66
838.258	13851.88
838.583	13768.04
838.908	13707.48
839.233	13658.21
839.558	13694.37
839.883	13679.91
840.208	13531.66
840.533	13510.42
840.858	13617.54
841.182	13534.83
841.507	13525.79
841.832	13466.58
842.156	13414.6
842.481	13459.8
842.805	13427.94
843.13	13422.74
843.454	13442.17
843.778	13300.26
844.103	13283.53
844.427	13308.84
844.751	13253.48
845.075	13173.48
845.399	13187.94
845.723	13172.35
846.047	13136.19
846.371	13016.42
846.695	13044.67
847.019	12911.34
847.343	12920.83
847.666	12766.71
847.99	12811.91
848.313	12735.07
848.637	12618.02
848.96	12615.3
849.284	12556.1
849.607	12484.23
849.931	12522.88
850.254	12406.5
850.577	12322.88
850.9	12287.85
851.223	12284.92
851.546	12282.66
851.869	12151.36
852.192	12212.83
852.515	12039.27
852.838	11936.23
853.161	12031.14
853.483	11980.52
853.806	11883.35
854.129	11823.69
854.451	11827.3
854.774	11746.17
855.096	11728.1
855.419	11714.08
855.741	11688.77
856.063	11592.05
856.385	11607.42
856.708	11525.62
857.03	11470.25
857.352	11548.21
857.674	11526.52
857.996	11409.46
858.318	11312.74
858.64	11428.89
858.961	11387.31
859.283	11239.29
859.605	11307.09
859.926	11281.55
860.248	11229.13
860.57	11147.32
860.891	11239.52
861.212	11171.73
861.534	11066.87
861.855	11073.42
862.176	11017.83
862.498	11074.78
862.819	11103.03
863.14	10983.71
863.461	10999.53
863.782	10934.44
864.103	10977.61
864.424	10892.86
864.745	10943.03
865.065	10851.51
865.386	10820.55
865.707	10833.2
866.027	10849.47
866.348	10848.8
866.668	10866.88
866.989	10781.68
867.309	10701
867.63	10753.43
867.95	10762.25
868.27	10652.42
868.59	10711.17
868.91	10609.25
869.23	10634.57
869.55	10564.06
869.87	10606.54
870.19	10555.47
870.51	10550.05
870.83	10534.91
871.15	10497.62
871.469	10489.26
871.789	10551.18
872.109	10463.5
872.428	10396.15
872.748	10470.73
873.067	10522.48
873.386	10474.57
873.706	10452.87
874.025	10404.29
874.344	10349.6
874.663	10322.93
874.982	10280.45
875.301	10323.61
875.62	10325.87
875.939	10300.56
876.258	10288.81
876.577	10207.46
876.896	10228.02
877.214	10230.28
877.533	10182.83
877.852	10131.08
878.17	10172.43
878.489	10163.16
878.807	10156.61
879.125	10153.67
879.444	10125.88
879.762	10141.7
880.08	10029.84
880.398	10041.13
880.716	10080.46
881.034	9987.8
881.352	10018.99
881.67	9934.02
881.988	9960.91
882.306	9868.03
882.624	9857.64
882.941	9865.32
883.259	9795.94
883.577	9873.23
883.894	9752.33
884.212	9844.08
884.529	9774.02
884.846	9756.85
885.164	9739
885.481	9669.17
885.798	9704.87
886.115	9617.64
886.432	9644.76
886.75	9624.2
887.067	9627.81
887.383	9541.26
887.7	9608.15
888.017	9505.33
888.334	9488.61
888.651	9483.18
888.967	9416.97
889.284	9472.79
889.6	9442.96
889.917	9331.1
890.233	9359.12
890.55	9252
890.866	9277.09
891.182	9250.65
891.498	9265.56
891.815	9162.29
892.131	9145.34
892.447	9193.02
892.763	9121.61
893.079	9148.5
893.395	9062.4
893.71	9051.78
894.026	8994.38
894.342	9009.52
894.657	8985.79
894.973	8891.56
895.289	8869.19
895.604	8903.09
895.92	8756.65
896.235	8819.7
896.55	8768.17
896.865	8740.15
897.181	8725.91
897.496	8762.07
897.811	8691.57
898.126	8646.59
898.441	8579.25
898.756	8597.78
899.071	8539.03
899.386	8541.06
899.7	8425.13
900.015	8406.6
900.33	8366.83
900.644	8410.44
900.959	8363.21
901.273	8285.02
901.588	8268.75
901.902	8265.81
902.216	8202.99
902.531	8256.1
902.845	8144.24
903.159	8088.64
903.473	8123.9
903.787	8084.58
904.101	8033.05
904.415	8051.58
904.729	7972.49
905.042	7960.74
905.356	7905.6
905.67	7913.73
905.984	7891.36
906.297	7872.15
906.611	7757.13
906.924	7811.81
907.237	7805.71
907.551	7760.97
907.864	7750.35
908.177	7717.81
908.491	7694.98
908.804	7570.24
909.117	7536.34
909.43	7493.63
909.743	7467.87
910.056	7457.93
910.368	7433.29
910.681	7399.17
910.994	7349.45
911.307	7330.02
911.619	7304.71
911.932	7319.17
912.244	7262.22
912.557	7220.64
912.869	7165.28
913.181	7175.9
913.494	7169.35
913.806	7077.37
914.118	7059.29
914.43	7050.93
914.742	7059.74
915.054	6951.05
915.366	6963.02
915.678	6875.12
915.99	6965.96
916.302	6841.67
916.613	6814.1
916.925	6843.03
917.236	6842.57
917.548	6737.49
917.859	6689.13
918.171	6729.13
918.482	6607.33
918.794	6617.72
919.105	6645.74
919.416	6591.06
919.727	6567.78
920.038	6582.02
920.349	6475.13
920.66	6471.96
920.971	6512.41
921.282	6501.57
921.593	6438.29
921.903	6434.9
922.214	6334.57
922.525	6364.39
922.835	6320.33
923.146	6260.44
923.456	6297.28
923.767	6182.03
924.077	6239.43
924.387	6189.48
924.697	6151.97
925.008	6105.64
925.318	6098.41
925.628	6120.11
925.938	6037.17
926.248	6078.53
926.558	6038.98
926.867	6006.21
927.177	5996.49
927.487	5991.75
927.796	5898.64
928.106	5901.58
928.416	5848.25
928.725	5878.98
929.034	5822.04
929.344	5847.8
929.653	5833.79
929.962	5726.9
930.271	5714.92
930.581	5685.77
930.89	5694.58
931.199	5687.35
931.508	5687.35
931.817	5638.31
932.125	5613.68
932.434	5629.5
932.743	5487.58
933.051	5498.65
933.36	5456.4
933.669	5460.01
933.977	5423.85
934.286	5429.73
934.594	5400.13
934.902	5340.92
935.21	5311.32
935.519	5374.14
935.827	5307.93
936.135	5274.93
936.443	5243.29
936.751	5232.22
937.059	5270.86
937.367	5180.25
937.674	5188.83
937.982	5187.25
938.29	5112
938.597	5136.4
938.905	5119.46
939.213	5032.68
939.52	5052.34
939.827	5042.4
940.135	5029.06
940.442	5017.31
940.749	4978.67
941.056	4978.44
941.363	4904.55
941.67	4905.9
941.977	4874.04
942.284	4910.87
942.591	4848.73
942.898	4833.59
943.205	4833.59
943.511	4763.08
943.818	4772.35
944.125	4705.68
944.431	4766.47
944.738	4676.08
945.044	4717.21
945.35	4688.28
945.657	4615.51
945.963	4577.32
946.269	4589.3
946.575	4577.32
946.881	4542.75
947.187	4542.97
947.493	4521.96
947.799	4493.94
948.105	4482.86
948.41	4429.76
948.716	4443.32
949.022	4437.89
949.327	4448.96
949.633	4376.2
949.938	4391.34
950.244	4351.79
950.549	4354.05
950.854	4316.31
951.16	4280.38
951.465	4263.43
951.77	4262.3
952.075	4266.14
952.38	4240.38
952.685	4197.22
952.99	4197.45
953.294	4188.63
953.599	4161.51
953.904	4138.92
954.209	4047.17
954.513	4096.21
954.818	4059.6
955.122	4044.68
955.426	4040.16
955.731	4044.91
956.035	3992.03
956.339	3986.15
956.643	3961.52
956.948	3940.73
957.252	3979.6
957.556	3961.52
957.86	3935.76
958.163	3870.9
958.467	3843.78
958.771	3851.92
959.075	3876.55
959.378	3784.35
959.682	3815.08
959.985	3823.44
960.289	3802.43
960.592	3784.12
960.896	3734.63
961.199	3735.31
961.502	3747.06
961.805	3676.1
962.108	3637.46
962.411	3679.72
962.714	3610.12
963.017	3632.72
963.32	3640.4
963.623	3585.26
963.926	3654.86
964.228	3572.83
964.531	3551.14
964.833	3592.04
965.136	3523.79
965.438	3491.7
965.741	3532.38
966.043	3458.71
966.345	3442.44
966.648	3466.39
966.95	3439.05
967.252	3414.87
967.554	3402.21
967.856	3379.16
968.158	3386.17
968.46	3375.09
968.761	3357.47
969.063	3358.15
969.365	3325.15
969.666	3297.36
969.968	3293.97
970.269	3288.09
970.571	3287.64
970.872	3251.26
971.174	3228.66
971.475	3214.42
971.776	3206.96
972.077	3178.49
972.378	3157.02
972.679	3182.33
972.98	3146.17
973.281	3135.78
973.582	3148.66
973.883	3099.17
974.183	3113.18
974.484	3066.4
974.785	3078.61
975.085	3063.92
975.386	3087.42
975.686	3046.29
975.986	2989.57
976.287	3002
976.587	2981.21
976.887	2974.43
977.187	2972.85
977.487	2933.07
977.787	2934.88
978.087	2950.02
978.387	2891.27
978.687	2912.51
978.987	2890.81
979.286	2885.62
979.586	2883.81
979.885	2811.72
980.185	2865.73
980.484	2799.97
980.784	2854.66
981.083	2801.78
981.382	2787.99
981.682	2764.26
981.981	2757.26
982.28	2750.93
982.579	2760.42
982.878	2728.11
983.177	2703.7
983.475	2689.92
983.774	2644.72
984.073	2696.69
984.372	2655.57
984.67	2668.22
984.969	2628.45
985.267	2658.73
985.566	2639.97
985.864	2608.56
986.162	2632.52
986.461	2597.94
986.759	2572.18
987.057	2559.75
987.355	2535.57
987.653	2528.56
987.951	2518.17
988.249	2518.85
988.547	2484.27
988.844	2484.5
989.142	2536.25
989.44	2430.03
989.737	2448.57
990.035	2458.73
990.332	2463.48
990.63	2409.24
990.927	2403.14
991.224	2385.52
991.521	2413.09
991.819	2380.09
992.116	2354.56
992.413	2348.46
992.71	2370.6
993.006	2328.12
993.303	2345.52
993.6	2339.42
993.897	2303.26
994.193	2284.95
994.49	2263.03
994.787	2238.18
995.083	2253.54
995.379	2232.07
995.676	2254.67
995.972	2216.03
996.268	2256.93
996.565	2211.28
996.861	2180.78
997.157	2214.67
997.453	2162.25
997.749	2177.39
998.044	2120.89
998.34	2136.48
998.636	2136.71
998.932	2119.76
999.227	2097.16
999.523	2079.31
999.818	2072.08
1000.114	2059.65
1000.409	2051.51
1000.704	2042.02
1001	2071.85
1001.295	2022.59
1001.59	2018.75
1001.885	2021.01
1002.18	1994.79
1002.475	1992.76
1002.77	1995.92
1003.065	2004.51
1003.359	1967.45
1003.654	1944.62
1003.949	1930.16
1004.243	1955.02
1004.538	1918.86
1004.832	1887
1005.127	1887.45
1005.421	1863.72
1005.715	1849.49
1006.009	1872.99
1006.304	1863.72
1006.598	1819.2
1006.892	1807.23
1007.186	1825.76
1007.48	1838.19
1007.773	1803.38
1008.067	1789.6
1008.361	1784.18
1008.655	1781.92
1008.948	1752.09
1009.242	1744.86
1009.535	1734.01
1009.829	1744.63
1010.122	1701.01
1010.415	1710.96
1010.708	1715.48
1011.001	1678.64
1011.295	1691.98
1011.588	1667.57
1011.881	1663.73
1012.173	1645.2
1012.466	1628.47
1012.759	1602.26
1013.052	1632.99
1013.344	1618.3
1013.637	1607.68
1013.93	1581.47
1014.222	1569.49
1014.514	1577.4
1014.807	1577.18
1015.099	1560
1015.391	1564.3
1015.683	1546.67
1015.976	1541.24
1016.268	1486.33
1016.56	1508.7
1016.851	1505.99
1017.143	1481.36
1017.435	1498.53
1017.727	1452.66
1018.018	1484.75
1018.31	1471.64
1018.602	1468.7
1018.893	1465.09
1019.185	1407.91
1019.476	1428.25
1019.767	1425.77
1020.058	1396.62
1020.35	1397.07
1020.641	1386.67
1020.932	1379.89
1021.223	1363.4
1021.514	1361.81
1021.804	1336.5
1022.095	1358.42
1022.386	1341.7
1022.677	1327.69
1022.967	1330.63
1023.258	1283.17
1023.548	1288.14
1023.839	1305.09
1024.129	1268.71
1024.419	1297.41
1024.709	1262.61
1025	1261.25
1025.29	1267.13
1025.58	1241.59
1025.87	1231.87
1026.16	1238.88
1026.449	1212.21
1026.739	1168.37
1027.029	1218.77
1027.319	1216.73
1027.608	1205.21
1027.898	1188.26
1028.187	1152.1
1028.477	1159.33
1028.766	1164.53
1029.055	1157.3
1029.344	1151.88
1029.634	1120.24
1029.923	1124.31
1030.212	1120.69
1030.501	1119.11
1030.79	1095.38
1031.078	1099.22
1031.367	1083.18
1031.656	1073.91
1031.945	1070.07
1032.233	1068.04
1032.522	1069.62
1032.81	1066.23
1033.099	1067.81
1033.387	1034.37
1033.675	1010.19
1033.963	1013.58
1034.251	1037.98
1034.54	1017.87
1034.828	1009.96
1035.116	1038.43
1035.403	1015.83
1035.691	993.24
1035.979	979.45
1036.267	973.58
1036.554	964.54
1036.842	976.51
1037.129	983.97
1037.417	959.34
1037.704	961.15
1037.992	926.8
1038.279	948.04
1038.566	943.97
1038.853	943.97
1039.14	943.97
