Data from hue_240_FLMS001491_00094.txt Node
Date: Tue Feb 07 16:36:12 GMT 2017
User: dcchb
Spectrometer: FLMS00149
Trigger mode: 0
Integration Time (sec): 2.000000E-2
Scans to average: 10
Electric dark correction enabled: true
Nonlinearity correction enabled: false
Boxcar width: 0
XAxis mode: Wavelengths
Number of Pixels in Spectrum: 2048
>>>>>Begin Spectral Data<<<<<
341.393	-20.99
341.776	-20.99
342.16	-20.99
342.543	-58.05
342.927	-51.27
343.31	-70.03
343.693	-80.87
344.077	-53.98
344.46	-65.28
344.843	-52.17
345.226	-14.89
345.61	-43.36
345.993	-17.15
346.376	-18.73
346.759	13.36
347.142	0.93
347.525	52
347.908	61.27
348.291	79.35
348.674	100.59
349.057	108.95
349.44	125.22
349.823	150.08
350.206	159.35
350.588	179.23
350.971	200.93
351.354	231.89
351.737	233.24
352.119	249.51
352.502	252.9
352.884	269.4
353.267	285.67
353.65	292
354.032	286.57
354.414	310.98
354.797	318.66
355.179	320.92
355.562	313.92
355.944	322.73
356.326	336.97
356.709	320.92
357.091	314.6
357.473	341.71
357.855	334.03
358.238	347.14
358.62	357.08
359.002	351.21
359.384	318.66
359.766	332.22
360.148	331.32
360.53	348.04
360.912	336.74
361.294	322.96
361.676	339.68
362.057	341.71
362.439	329.74
362.821	333.35
363.203	322.96
363.584	322.05
363.966	329.96
364.348	313.47
364.729	325.44
365.111	293.35
365.493	310.3
365.874	330.87
366.256	294.03
366.637	316.63
367.019	317.99
367.4	303.07
367.781	307.14
368.163	300.36
368.544	327.93
368.925	287.25
369.306	311.21
369.688	315.5
370.069	306.01
370.45	303.98
370.831	309.85
371.212	297.2
371.593	304.2
371.974	302.17
372.355	323.18
372.736	313.47
373.117	327.25
373.498	313.47
373.879	290.42
374.26	303.52
374.641	301.94
375.021	300.81
375.402	324.09
375.783	321.6
376.163	334.26
376.544	326.57
376.925	342.84
377.305	298.55
377.686	312.56
378.066	316.4
378.447	320.47
378.827	322.51
379.208	325.44
379.588	325.9
379.968	324.09
380.349	342.39
380.729	328.16
381.109	337.19
381.489	325.9
381.87	352.11
382.25	328.38
382.63	336.29
383.01	326.8
383.39	355.05
383.77	343.07
384.15	337.65
384.53	350.08
384.91	334.03
385.29	342.84
385.67	347.82
386.049	350.98
386.429	346.23
386.809	352.11
387.189	351.88
387.568	350.53
387.948	342.84
388.328	371.54
388.707	357.53
389.087	364.99
389.466	367.7
389.846	353.92
390.225	371.32
390.605	348.49
390.984	374.48
391.363	372.22
391.743	355.95
392.122	377.19
392.501	370.87
392.881	372.67
393.26	393.01
393.639	387.81
394.018	396.63
394.397	378.32
394.776	386.01
395.155	367.02
395.534	374.93
395.913	390.98
396.292	374.26
396.671	392.33
397.05	377.42
397.429	378.55
397.808	406.8
398.186	391.66
398.565	411.54
398.944	394.59
399.323	410.41
399.701	398.44
400.08	409.96
400.458	413.8
400.837	430.07
401.215	402.96
401.594	409.73
401.972	415.38
402.351	424.2
402.729	412.67
403.107	433.24
403.486	428.94
403.864	454.25
404.242	449.96
404.62	429.17
404.999	433.46
405.377	446.8
405.755	446.57
406.133	454.03
406.511	431.2
406.889	473.46
407.267	468.49
407.645	470.98
408.023	464.87
408.401	491.09
408.779	475.95
409.156	496.06
409.534	492.22
409.912	487.93
410.29	507.13
410.667	534.03
411.045	517.53
411.422	517.08
411.8	526.57
412.178	516.4
412.555	530.41
412.933	535.16
413.31	551.65
413.687	555.72
414.065	550.97
414.442	567.24
414.819	557.3
415.197	574.93
415.574	591.88
415.951	607.24
416.328	578.77
416.705	619.9
417.082	621.71
417.46	606.34
417.837	644.98
418.214	622.84
418.591	630.07
418.967	628.26
419.344	654.02
419.721	641.14
420.098	656.73
420.475	666.68
420.852	680.69
421.228	670.52
421.605	678.2
421.982	707.58
422.358	695.83
422.735	712.33
423.111	728.14
423.488	721.14
423.864	742.61
424.241	738.54
424.617	769.27
424.994	777.18
425.37	788.48
425.746	773.57
426.123	774.25
426.499	808.59
426.875	800.01
427.251	830.97
427.627	836.84
428.003	806.33
428.379	854.02
428.756	848.59
429.132	859.21
429.507	873.68
429.883	868.71
430.259	876.84
430.635	916.39
431.011	891.3
431.387	929.27
431.763	932.66
432.138	959.33
432.514	954.81
432.89	971.75
433.265	971.75
433.641	997.06
434.016	995.71
434.392	1034.13
434.767	1050.4
435.143	1077.97
435.518	1074.8
435.894	1119.09
436.269	1086.33
436.644	1112.99
437.02	1119.32
437.395	1130.62
437.77	1171.97
438.145	1184.18
438.52	1210.62
438.895	1183.73
439.271	1222.37
439.646	1248.58
440.021	1277.06
440.395	1241.13
440.77	1258.3
441.145	1265.53
441.52	1293.55
441.895	1294.01
442.27	1320.45
442.645	1335.36
443.019	1332.65
443.394	1352.54
443.769	1340.33
444.143	1348.47
444.518	1391.63
444.892	1354.57
445.267	1392.08
445.641	1385.98
446.016	1397.51
446.39	1430.95
446.764	1441.57
447.139	1450.61
447.513	1439.09
447.887	1478.63
448.262	1472.53
448.636	1485.19
449.01	1496.94
449.384	1527.22
449.758	1514.34
450.132	1545.98
450.506	1523.6
450.88	1559.76
451.254	1568.35
451.628	1565.86
452.002	1563.15
452.376	1602.47
452.75	1633.88
453.123	1639.76
453.497	1675.01
453.871	1654.22
454.244	1688.8
454.618	1694.22
454.992	1733.09
455.365	1734.22
455.739	1745.29
456.112	1776.03
456.486	1836.82
456.859	1809.92
457.232	1842.24
457.606	1801.79
457.979	1880.66
458.352	1892.86
458.725	1899.87
459.099	1937.15
459.472	1938.51
459.845	1983.25
460.218	1992.29
460.591	2004.95
460.964	2043.82
461.337	2071.84
461.71	2078.17
462.083	2109.58
462.456	2136.92
462.829	2131.95
463.201	2166.3
463.574	2190.71
463.947	2211.72
464.32	2240.2
464.692	2254.21
465.065	2273.19
465.438	2303.24
465.81	2300.08
466.183	2339.4
466.555	2397.93
466.928	2406.52
467.3	2384.37
467.672	2463.47
468.045	2498.49
468.417	2498.72
468.789	2549.79
469.161	2537.14
469.534	2571.03
469.906	2664.59
470.278	2639.05
470.65	2661.88
471.022	2679.05
471.394	2738.49
471.766	2794.31
472.138	2799.95
472.51	2841.99
472.882	2895.32
473.253	2954.3
473.625	3005.15
473.997	3032.26
474.369	3045.37
474.74	3050.34
475.112	3114.07
475.484	3178.7
475.855	3192.94
476.227	3211.24
476.598	3318.59
476.97	3351.13
477.341	3406.04
477.713	3429.32
478.084	3447.85
478.455	3517.68
478.827	3571.69
479.198	3711.8
479.569	3644
479.94	3767.84
480.311	3788.4
480.682	3823.43
481.053	3913.15
481.424	3994.05
481.795	3984.33
482.166	4057.55
482.537	4099.36
482.908	4183.65
483.279	4212.57
483.65	4312.01
484.021	4356.52
484.391	4381.61
484.762	4413.47
485.133	4430.87
485.503	4527.14
485.874	4606.23
486.244	4671.32
486.615	4703.86
486.985	4782.5
487.356	4867.47
487.726	4828.83
488.097	4947.92
488.467	4969.84
488.837	5034.25
489.207	5132.55
489.578	5116.96
489.948	5213.22
490.318	5231.53
490.688	5286.44
491.058	5342.49
491.428	5367.34
491.798	5461.13
492.168	5528.47
492.538	5604.63
492.908	5597.17
493.278	5649.6
493.648	5748.8
494.017	5765.3
494.387	5789.93
494.757	5855.02
495.126	5871.74
495.496	5921
495.866	5907.67
496.235	5982.47
496.605	6022.02
496.974	6064.5
497.344	6069.93
497.713	6161.22
498.082	6134.78
498.452	6252.75
498.821	6244.16
499.19	6254.55
499.559	6318.51
499.928	6398.96
500.298	6383.59
500.667	6400.99
501.036	6435.79
501.405	6449.8
501.774	6428.56
502.143	6556.47
502.512	6537.26
502.88	6562.34
503.249	6530.03
503.618	6613.87
503.987	6640.76
504.356	6668.55
504.724	6673.3
505.093	6729.12
505.462	6774.54
505.83	6796.46
506.199	6841.88
506.567	6939.05
506.936	6830.13
507.304	6950.58
507.672	6991.48
508.041	6950.81
508.409	7026.74
508.777	7017.24
509.145	7086.85
509.514	7018.6
509.882	7148.99
510.25	7073.51
510.618	7162.78
510.986	7143.57
511.354	7199.84
511.722	7272.61
512.09	7238.71
512.458	7299.27
512.826	7302.89
513.193	7385.14
513.561	7355.32
513.929	7341.3
514.297	7463.33
514.664	7460.4
515.032	7485.03
515.4	7520.28
515.767	7506.5
516.135	7506.5
516.502	7480.51
516.869	7598.25
517.237	7610.9
517.604	7576.55
517.972	7639.6
518.339	7677.57
518.706	7697.23
519.073	7730.67
519.44	7735.42
519.808	7769.99
520.175	7771.12
520.542	7805.25
520.909	7859.03
521.276	7828.75
521.643	7921.4
522.009	7901.52
522.376	7962.98
522.743	7952.81
523.11	8050.21
523.477	8005.92
523.843	8052.02
524.21	8074.39
524.577	8151
524.943	8105.35
525.31	8118.91
525.676	8173.82
526.043	8200.94
526.409	8214.95
526.776	8285.69
527.142	8247.04
527.508	8275.74
527.874	8296.99
528.241	8320.26
528.607	8351.45
528.973	8338.11
529.339	8367.72
529.705	8432.57
530.071	8468.73
530.437	8486.36
530.803	8432.8
531.169	8441.16
531.535	8459.24
531.901	8419.24
532.267	8468.96
532.632	8461.95
532.998	8508.51
533.364	8545.79
533.73	8535.4
534.095	8623.08
534.461	8520.03
534.826	8596.41
535.192	8581.72
535.557	8611.33
535.923	8594.38
536.288	8577.2
536.653	8642.06
537.019	8535.62
537.384	8580.82
537.749	8554.83
538.114	8560.48
538.479	8552.57
538.845	8605.9
539.21	8539.24
539.575	8588.95
539.94	8537.43
540.305	8578.79
540.67	8503.08
541.034	8537.66
541.399	8631.44
541.764	8568.84
542.129	8549.86
542.494	8659.91
542.858	8592.57
543.223	8637.54
543.587	8588.5
543.952	8577.88
544.316	8531.56
544.681	8535.62
545.045	8591.21
545.41	8547.37
545.774	8566.36
546.138	8569.07
546.503	8569.75
546.867	8508.96
547.231	8581.72
547.595	8529.52
547.959	8588.73
548.324	8535.4
548.688	8545.57
549.052	8486.13
549.416	8592.8
549.779	8584.66
550.143	8564.1
550.507	8563.64
550.871	8606.81
551.235	8604.32
551.599	8515.74
551.962	8552.12
552.326	8499.69
552.689	8579.92
553.053	8510.99
553.417	8589.86
553.78	8672.12
554.143	8548.28
554.507	8608.62
554.87	8584.44
555.234	8573.14
555.597	8583.08
555.96	8674.15
556.323	8615.39
556.686	8581.05
557.05	8605.68
557.413	8633.7
557.776	8626.69
558.139	8601.84
558.502	8639.35
558.865	8639.58
559.228	8736.75
559.59	8720.93
559.953	8790.98
560.316	8838.21
560.679	8751.21
561.041	8803.19
561.404	8789.85
561.767	8852
562.129	8788.5
562.492	8866.69
562.854	8838.44
563.217	8851.55
563.579	8852.68
563.941	8920.92
564.304	8968.38
564.666	8981.49
565.028	8992.33
565.39	8941.71
565.753	9000.24
566.115	9037.08
566.477	9070.98
566.839	9090.41
567.201	9141.48
567.563	9161.37
567.925	9217.19
568.287	9180.8
568.648	9171.54
569.01	9210.41
569.372	9322.04
569.734	9209.05
570.095	9296.96
570.457	9318.88
570.819	9340.12
571.18	9282.5
571.542	9397.52
571.903	9422.15
572.265	9455.6
572.626	9399.33
572.987	9473
573.349	9496.5
573.71	9541.02
574.071	9466.22
574.432	9560.68
574.794	9543.28
575.155	9589.61
575.516	9607.23
575.877	9602.49
576.238	9647.01
576.599	9630.06
576.96	9707.57
577.32	9671.19
577.681	9785.76
578.042	9733.56
578.403	9724.74
578.763	9797.06
579.124	9805.65
579.485	9838.19
579.845	9875.02
580.206	9776.72
580.566	9840.45
580.927	9839.77
581.287	9870.5
581.648	9857.85
582.008	9918.64
582.368	9857.62
582.728	9880.67
583.089	9910.05
583.449	9944.85
583.809	9915.93
584.169	10022.14
584.529	9937.39
584.889	9969.48
585.249	10041.35
585.609	10009.71
585.969	10142.59
586.329	10026.43
586.688	10009.48
587.048	10074.34
587.408	10027.56
587.768	10019.2
588.127	10040.22
588.487	10083.6
588.846	10059.65
589.206	10063.49
589.565	10119.08
589.925	10189.59
590.284	10108.24
590.643	10163.38
591.003	10117.05
591.362	10174
591.721	10194.34
592.08	10192.98
592.44	10181
592.799	10155.24
593.158	10136.26
593.517	10222.81
593.876	10212.87
594.235	10173.55
594.593	10180.1
594.952	10160.89
595.311	10176.48
595.67	10257.84
596.029	10213.09
596.387	10263.49
596.746	10251.51
597.104	10165.64
597.463	10215.8
597.822	10328.8
598.18	10270.27
598.538	10238.63
598.897	10323.37
599.255	10200.89
599.613	10302.13
599.972	10305.07
600.33	10331.51
600.688	10282.7
601.046	10336.03
601.404	10322.92
601.762	10301.68
602.12	10336.93
602.478	10379.87
602.836	10417.61
603.194	10332.41
603.552	10310.49
603.91	10298.97
604.268	10359.53
604.625	10402.24
604.983	10347.55
605.341	10311.62
605.698	10389.13
606.056	10418.74
606.413	10389.81
606.771	10425.29
607.128	10435.46
607.485	10400.66
607.843	10371.28
608.2	10481.33
608.557	10465.06
608.914	10477.49
609.272	10519.3
609.629	10466.87
609.986	10542.8
610.343	10504.38
610.7	10560.2
611.057	10536.02
611.414	10467.55
611.771	10529.47
612.127	10555.46
612.484	10577.6
612.841	10660.99
613.198	10544.16
613.554	10588.45
613.911	10608.11
614.267	10639.52
614.624	10604.27
614.98	10694.21
615.337	10722.68
615.693	10632.52
616.05	10692.18
616.406	10721.1
616.762	10625.96
617.118	10712.74
617.475	10682.91
617.831	10727.88
618.187	10713.19
618.543	10758.16
618.899	10806.3
619.255	10755.9
619.611	10715.9
619.967	10793.64
620.323	10768.56
620.678	10696.47
621.034	10761.55
621.39	10715.45
621.746	10694.66
622.101	10813.53
622.457	10718.16
622.812	10781.21
623.168	10783.7
623.523	10764.49
623.879	10850.36
624.234	10740.54
624.589	10866.18
624.945	10805.62
625.3	10830.03
625.655	10820.08
626.01	10770.59
626.365	10801.55
626.72	10808.33
627.075	10755.45
627.43	10713.87
627.785	10708.67
628.14	10725.4
628.495	10837.48
628.85	10804.94
629.205	10698.05
629.559	10753.42
629.914	10685.62
630.269	10698.28
630.623	10627.09
630.978	10652.63
631.332	10655.57
631.687	10644.04
632.041	10642.91
632.396	10711.84
632.75	10625.06
633.104	10600.2
633.459	10605.63
633.813	10557.04
634.167	10608.34
634.521	10505.74
634.875	10577.38
635.229	10518.4
635.583	10556.13
635.937	10516.36
636.291	10444.05
636.645	10520.66
636.999	10500.09
637.352	10542.35
637.706	10424.84
638.06	10459.87
638.413	10393.43
638.767	10372.86
639.121	10464.84
639.474	10385.29
639.828	10314.79
640.181	10402.92
640.534	10287.89
640.888	10330.6
641.241	10318.18
641.594	10313.43
641.947	10250.38
642.301	10332.64
642.654	10371.05
643.007	10281.11
643.36	10309.81
643.713	10258.06
644.066	10230.27
644.419	10229.82
644.771	10192.98
645.124	10100.55
645.477	10126.09
645.83	10037.5
646.182	9944.17
646.535	9907.79
646.888	9934
647.24	9846.77
647.593	9940.11
647.945	9867.57
648.298	9894.46
648.65	9840.9
649.002	9801.35
649.355	9846.1
649.707	9878.64
650.059	9851.75
650.411	10052.19
650.763	10076.37
651.115	10092.42
651.467	10011.29
651.819	10098.75
652.171	10095.36
652.523	10048.35
652.875	10079.54
653.227	9963.61
653.578	10068.69
653.93	10088.12
654.282	10003.61
654.633	10028.47
654.985	10033.21
655.337	10025.53
655.688	10048.35
656.039	10043.61
656.391	10034.11
656.742	9974
657.094	9983.27
657.445	10082.93
657.796	10016.04
658.147	10018.07
658.498	10011.06
658.849	10005.19
659.2	9982.14
659.551	9932.87
659.902	10044.96
660.253	10003.16
660.604	10007.9
660.955	10002.48
661.306	9974.23
661.656	10013.1
662.007	10000.67
662.358	9933.55
662.708	9986.66
663.059	10044.51
663.409	9961.12
663.76	9962.48
664.11	9975.13
664.461	10009.71
664.811	10019.2
665.161	10010.84
665.511	9951.18
665.862	9942.59
666.212	9979.2
666.562	9973.78
666.912	9958.18
667.262	9982.82
667.612	10005.87
667.962	9955.92
668.312	9984.62
668.662	10071.85
669.011	9943.95
669.361	9916.15
669.711	9994.57
670.06	9924.06
670.41	9918.41
670.76	9991.4
671.109	9954.34
671.459	9958.18
671.808	9947.79
672.157	10002.93
672.507	9830.73
672.856	9860.79
673.205	9856.04
673.554	9956.83
673.904	9847.23
674.253	9948.47
674.602	9841.58
674.951	9755.93
675.3	9712.99
675.649	9881.58
675.998	9858.53
676.346	9823.72
676.695	9827.57
677.044	9739.89
677.393	9793.44
677.741	9719.77
678.09	9830.5
678.438	9802.03
678.787	9788.02
679.135	9737.4
679.484	9757.06
679.832	9764.74
680.181	9642.03
680.529	9697.4
680.877	9623.5
681.225	9648.81
681.573	9675.48
681.922	9643.16
682.27	9562.94
682.618	9581.47
682.966	9549.83
683.314	9595.26
683.661	9483.85
684.009	9520.91
684.357	9494.02
684.705	9475.49
685.053	9553
685.4	9455.15
685.748	9435.26
686.095	9434.58
686.443	9368.14
686.79	9332.44
687.138	9363.4
687.485	9371.08
687.832	9343.74
688.18	9269.62
688.527	9254.47
688.874	9275.94
689.221	9242.72
689.568	9179.9
689.915	9135.38
690.262	9215.38
690.609	9158.21
690.956	9084.08
691.303	9049.51
691.65	9044.54
691.997	8999.79
692.344	9000.92
692.69	8979.45
693.037	8961.37
693.383	8901.72
693.73	8920.7
694.077	8836.41
694.423	8820.14
694.769	8756.41
695.116	8750.98
695.462	8788.72
695.808	8660.59
696.155	8774.71
696.501	8668.95
696.847	8656.07
697.193	8658.56
697.539	8646.35
697.885	8530.88
698.231	8466.47
698.577	8472.12
698.923	8524.78
699.269	8456.3
699.614	8433.7
699.96	8421.05
700.306	8380.15
700.651	8372.46
700.997	8365.01
701.342	8345.35
701.688	8266.03
702.033	8232.58
702.379	8219.93
702.724	8176.76
703.069	8251.11
703.415	8083.21
703.76	8121.4
704.105	8128.85
704.45	8052.92
704.795	8007.73
705.14	8044.34
705.485	8047.5
705.83	7999.14
706.175	8013.83
706.52	7967.28
706.865	7954.62
707.209	7958.46
707.554	7881.85
707.899	7953.27
708.243	7888.63
708.588	7840.95
708.932	7788.98
709.277	7777.9
709.621	7764.57
709.966	7718.24
710.31	7729.99
710.654	7704.46
710.998	7673.05
711.342	7679.37
711.687	7615.2
712.031	7584.69
712.375	7527.51
712.719	7576.1
713.063	7596.44
713.407	7608.64
713.75	7559.6
714.094	7557.34
714.438	7443.45
714.782	7482.77
715.125	7449.1
715.469	7445.03
715.812	7502.66
716.156	7381.08
716.499	7386.95
716.843	7377.69
717.186	7330.23
717.53	7454.75
717.873	7378.14
718.216	7293.62
718.559	7360.06
718.902	7303.11
719.246	7333.62
719.589	7340.85
719.932	7273.74
720.275	7321.87
720.617	7257.46
720.96	7307.86
721.303	7252.72
721.646	7239.16
721.989	7255.88
722.331	7238.93
722.674	7218.82
723.016	7195.32
723.359	7199.16
723.701	7218.37
724.044	7179.5
724.386	7133.4
724.729	7174.08
725.071	7126.39
725.413	7094.76
725.755	7178.82
726.097	7146.06
726.439	7087.98
726.782	7083.23
727.124	7067.41
727.465	7106.06
727.807	7130.91
728.149	7044.36
728.491	7038.94
728.833	7046.4
729.175	7030.35
729.516	7030.13
729.858	6986.51
730.199	7041.43
730.541	7004.36
730.882	7015.66
731.224	7002.1
731.565	7011.6
731.906	6958.04
732.248	7080.75
732.589	6986.96
732.93	6913.29
733.271	6954.87
733.612	6976.57
733.953	6954.65
734.294	7024.02
734.635	6959.62
734.976	6963.69
735.317	6953.52
735.658	6971.82
735.999	6973.4
736.339	6966.85
736.68	6995.78
737.021	6988.77
737.361	6946.74
737.702	6983.8
738.042	7010.24
738.383	6917.81
738.723	6986.29
739.063	6929.34
739.404	6946.74
739.744	6964.14
740.084	6955.33
740.424	6970.92
740.764	6961.65
741.104	7037.36
741.444	6963.91
741.784	6994.87
742.124	6931.82
742.464	7032.84
742.804	7023.8
743.143	7027.41
743.483	6992.39
743.823	6988.32
744.162	7047.75
744.502	7075.32
744.841	7004.14
745.181	7122.1
745.52	7145.15
745.86	7166.17
746.199	7121.65
746.538	7120.07
746.877	7216.34
747.216	7225.83
747.556	7224.25
747.895	7235.09
748.234	7250.46
748.573	7318.71
748.911	7259.95
749.25	7378.82
749.589	7358.03
749.928	7428.53
750.267	7485.71
750.605	7512.15
750.944	7531.13
751.283	7541.98
751.621	7610
751.96	7584.01
752.298	7718.02
752.636	7753.5
752.975	7791.46
753.313	7852.93
753.651	7929.09
753.989	7924.79
754.327	8080.04
754.666	8040.95
755.004	8221.28
755.342	8215.41
755.679	8308.96
756.017	8401.84
756.355	8504.44
756.693	8520.26
757.031	8580.82
757.368	8659.01
757.706	8767.71
758.044	8817.65
758.381	8902.17
758.719	8950.3
759.056	9113.91
759.394	9170.18
759.731	9279.33
760.068	9330.4
760.405	9413.34
760.743	9432.55
761.08	9529.27
761.417	9621.7
761.754	9745.31
762.091	9841.13
762.428	9918.64
762.765	9940.56
763.102	10083.6
763.438	10199.53
763.775	10265.97
764.112	10391.17
764.449	10461
764.785	10568.56
765.122	10595.46
765.458	10567.66
765.795	10684.72
766.131	10771.5
766.467	10858.5
766.804	10864.15
767.14	10959.06
767.476	11049.91
767.812	11088.78
768.148	11177.36
768.485	11236.57
768.821	11152.05
769.157	11323.8
769.492	11340.07
769.828	11463.91
770.164	11357.7
770.5	11438.37
770.836	11464.13
771.171	11560.18
771.507	11565.37
771.842	11528.31
772.178	11608.76
772.513	11650.12
772.849	11740.96
773.184	11730.57
773.519	11785.03
773.855	11790
774.19	11800.62
774.525	11824.12
774.86	11867.74
775.195	11925.82
775.53	11852.15
775.865	11935.76
776.2	11987.28
776.535	11900.51
776.87	11941.18
777.205	11909.09
777.539	11924.91
777.874	11993.84
778.209	11964.91
778.543	11959.71
778.878	11934.86
779.212	11908.19
779.547	11890.34
779.881	11962.65
780.215	11872.26
780.55	12039.03
780.884	11953.61
781.218	11945.93
781.552	11980.5
781.886	11937.34
782.22	11844.46
782.554	11791.58
782.888	11808.76
783.222	11799.49
783.556	11801.07
783.889	11738.7
784.223	11735.99
784.557	11769.44
784.89	11839.04
785.224	11685.14
785.557	11720.85
785.891	11715.65
786.224	11691.02
786.558	11690.57
786.891	11623.68
787.224	11547.75
787.557	11568.99
787.891	11525.37
788.224	11589.1
788.557	11548.88
788.89	11539.16
789.223	11517.69
789.556	11474.08
789.888	11415.1
790.221	11470.01
790.554	11380.97
790.887	11362.22
791.219	11372.16
791.552	11292.39
791.884	11237.92
792.217	11332.39
792.549	11271.14
792.882	11187.53
793.214	11195.89
793.546	11116.35
793.879	11164.71
794.211	11142.33
794.543	11096.91
794.875	11097.82
795.207	11146.85
795.539	11092.62
795.871	11099.4
796.203	10951.6
796.535	10884.49
796.867	10976.01
797.198	10857.6
797.53	10935.33
797.862	10863.7
798.193	10834.32
798.525	10821.89
798.856	10819.4
799.188	10667.54
799.519	10690.59
799.85	10601.56
800.182	10671.39
800.513	10633.65
800.844	10545.74
801.175	10637.49
801.506	10556.59
801.837	10521.11
802.168	10490.83
802.499	10484.5
802.83	10447.21
803.161	10423.71
803.491	10488.11
803.822	10411.05
804.153	10367.89
804.483	10241.79
804.814	10244.73
805.145	10275.46
805.475	10310.27
805.805	10191.62
806.136	10209.25
806.466	10127.9
806.796	10156.15
807.126	10111.63
807.457	10122.25
807.787	10141
808.117	10001.57
808.447	10062.81
808.777	10063.04
809.107	10037.28
809.436	9989.82
809.766	9921.58
810.096	9909.37
810.426	9908.47
810.755	9972.87
811.085	9836.38
811.414	9852.42
811.744	9787.12
812.073	9804.74
812.403	9742.6
812.732	9698.3
813.061	9747.12
813.39	9689.72
813.719	9628.7
814.049	9666.67
814.378	9712.09
814.707	9673.9
815.036	9624.18
815.365	9646.33
815.693	9492.21
816.022	9539.21
816.351	9447.24
816.68	9458.31
817.008	9508.7
817.337	9374.02
817.665	9373.57
817.994	9377.86
818.322	9439.78
818.651	9265.55
818.979	9332.44
819.307	9384.87
819.636	9337.41
819.964	9264.42
820.292	9315.94
820.62	9321.59
820.948	9278.65
821.276	9347.35
821.604	9268.94
821.932	9274.59
822.259	9285.89
822.587	9284.76
822.915	9218.99
823.243	9332.44
823.57	9222.84
823.898	9258.77
824.225	9278.43
824.553	9214.48
824.88	9251.31
825.207	9266.68
825.535	9268.94
825.862	9305.77
826.189	9320.01
826.516	9246.34
826.843	9310.74
827.17	9358.43
827.497	9273.91
827.824	9335.6
828.151	9338.54
828.478	9306
828.805	9287.92
829.131	9322.49
829.458	9253.34
829.785	9204.53
830.111	9233.91
830.438	9303.51
830.764	9263.29
831.09	9319.78
831.417	9259.45
831.743	9270.74
832.069	9239.11
832.395	9245.21
832.722	9282.04
833.048	9282.95
833.374	9270.52
833.7	9193.68
834.026	9230.29
834.351	9263.74
834.677	9197.3
835.003	9275.49
835.329	9168.83
835.654	9152.56
835.98	9156.4
836.306	9177.19
836.631	9133.35
836.956	9244.53
837.282	9165.66
837.607	9094.25
837.932	9164.31
838.258	9090.64
838.583	9068.72
838.908	9022.62
839.233	9119.34
839.558	9023.52
839.883	9009.28
840.208	8973.58
840.533	8987.14
840.858	9054.71
841.182	8955.27
841.507	8976.29
841.832	8913.47
842.156	8890.87
842.481	8857.87
842.805	8868.72
843.13	8829.17
843.454	8835.05
843.778	8802.96
844.103	8748.05
844.427	8705.79
844.751	8822.4
845.075	8765
845.399	8690.65
845.723	8647.03
846.047	8726.58
846.371	8564.77
846.695	8609.29
847.019	8618.56
847.343	8511.44
847.666	8472.57
847.99	8463.99
848.313	8465.34
848.637	8361.16
848.96	8342.41
849.284	8374.5
849.607	8271.68
849.931	8263.99
850.254	8243.88
850.577	8222.64
850.9	8086.6
851.223	8204.56
851.546	8075.52
851.869	8091.34
852.192	8077.1
852.515	8015.18
852.838	7989.2
853.161	7999.59
853.483	7922.53
853.806	7938.35
854.129	7925.92
854.451	7874.85
854.774	7749.88
855.096	7807.05
855.419	7770.45
855.741	7766.15
856.063	7720.73
856.385	7710.79
856.708	7704.46
857.03	7678.92
857.352	7692.71
857.674	7602.99
857.996	7659.49
858.318	7552.6
858.64	7523.9
858.961	7574.07
859.283	7439.15
859.605	7464.69
859.926	7475.76
860.248	7433.51
860.57	7447.74
860.891	7496.78
861.212	7365.03
861.534	7378.82
861.855	7358.25
862.176	7362.77
862.498	7356.44
862.819	7366.39
863.14	7306.73
863.461	7318.48
863.782	7292.04
864.103	7312.38
864.424	7314.41
864.745	7250.91
865.065	7254.75
865.386	7238.93
865.707	7168.43
866.027	7223.57
866.348	7211.36
866.668	7160.74
866.989	7125.72
867.309	7104.02
867.63	7151.93
867.95	7162.78
868.27	7046.17
868.59	7086.4
868.91	7104.93
869.23	7096.11
869.55	7045.27
869.87	7097.02
870.19	7140.41
870.51	7106.96
870.83	7097.24
871.15	7020.86
871.469	7000.75
871.789	7047.75
872.109	7024.02
872.428	6961.88
872.748	6958.04
873.067	6987.19
873.386	7016.11
873.706	6950.13
874.025	6945.83
874.344	6940.86
874.663	6980.64
874.982	6889.56
875.301	6874.65
875.62	6885.5
875.939	6818.61
876.258	6825.61
876.577	6792.39
876.896	6810.24
877.214	6774.77
877.533	6796.23
877.852	6830.13
878.17	6784.93
878.489	6785.61
878.807	6747.42
879.125	6746.29
879.444	6751.26
879.762	6741.55
880.08	6750.13
880.398	6708.33
880.716	6752.39
881.034	6684.6
881.352	6660.19
881.67	6655.22
881.988	6684.15
882.306	6660.19
882.624	6600.53
882.941	6536.13
883.259	6568.9
883.577	6572.74
883.894	6579.74
884.212	6568.9
884.529	6577.03
884.846	6520.31
885.164	6466.3
885.481	6450.48
885.798	6477.82
886.115	6459.52
886.432	6486.41
886.75	6460.65
887.067	6432.85
887.383	6381.1
887.7	6440.76
888.017	6357.15
888.334	6387.66
888.651	6368
888.967	6374.32
889.284	6289.81
889.6	6306.98
889.917	6320.31
890.233	6273.99
890.55	6254.33
890.866	6288.68
891.182	6218.85
891.498	6151.28
891.815	6192.41
892.131	6151.05
892.447	6138.85
892.763	6164.61
893.079	6085.97
893.395	6086.2
893.71	6073.77
894.026	5994.67
894.342	6056.59
894.657	5999.64
894.973	5987.22
895.289	5968.68
895.604	6045.29
895.92	5933.21
896.235	5874.68
896.55	5918.29
896.865	5912.19
897.181	5855.47
897.496	5806.88
897.811	5848.69
898.126	5804.4
898.441	5760.1
898.756	5770.5
899.071	5723.49
899.386	5763.94
899.7	5659.99
900.015	5645.76
900.33	5595.36
900.644	5634.46
900.959	5694.12
901.273	5634.68
901.588	5619.99
901.902	5588.58
902.216	5546.1
902.531	5524.18
902.845	5539.32
903.159	5510.17
903.473	5456.38
903.787	5454.35
904.101	5449.38
904.415	5419.55
904.729	5443.05
905.042	5363.73
905.356	5377.51
905.67	5336.61
905.984	5357.4
906.297	5337.29
906.611	5246.9
906.924	5277.4
907.237	5265.2
907.551	5247.8
907.864	5207.35
908.177	5190.63
908.491	5205.54
908.804	5199.44
909.117	5121.02
909.43	5113.34
909.743	5131.87
910.056	5112.66
910.368	5051.42
910.681	5029.73
910.994	5014.13
911.307	4970.75
911.619	4995.38
911.932	5015.49
912.244	4933.46
912.557	4958.54
912.869	4910.86
913.181	4919.9
913.494	4883.52
913.806	4840.8
914.118	4852.78
914.43	4814.59
914.742	4787.92
915.054	4820.01
915.366	4755.61
915.678	4713.58
915.99	4683.52
916.302	4703.86
916.613	4684.2
916.925	4674.71
917.236	4647.36
917.548	4598.1
917.859	4579.57
918.171	4599.68
918.482	4613.47
918.794	4544.32
919.105	4514.26
919.416	4483.98
919.727	4510.64
920.038	4457.54
920.349	4424.54
920.66	4436.75
920.971	4457.31
921.282	4402.17
921.593	4359.01
921.903	4376.41
922.214	4301.84
922.525	4284.21
922.835	4288.96
923.146	4300.03
923.456	4256.87
923.767	4257.54
924.077	4237.43
924.387	4251.22
924.697	4220.93
925.008	4201.5
925.318	4188.62
925.628	4169.64
925.938	4180.48
926.248	4121.05
926.558	4121.05
926.867	4103.88
927.177	4109.3
927.487	4054.16
927.796	4027.94
928.106	4051
928.416	4029.98
928.725	4003.31
929.034	3945.91
929.344	3987.72
929.653	3979.13
929.962	3962.64
930.271	3921.28
930.581	3896.42
930.89	3875.63
931.199	3917.67
931.508	3891.23
931.817	3896.42
932.125	3834.5
932.434	3834.05
932.743	3778.46
933.051	3799.7
933.36	3797.44
933.669	3792.47
933.977	3756.99
934.286	3738.91
934.594	3699.14
934.902	3712.7
935.21	3677.22
935.519	3705.69
935.827	3660.5
936.135	3608.52
936.443	3636.99
936.751	3599.26
937.059	3613.72
937.367	3611.91
937.674	3619.82
937.982	3620.05
938.29	3569.2
938.597	3544.57
938.905	3515.64
939.213	3499.6
939.52	3494.85
939.827	3487.17
940.135	3468.19
940.442	3436.55
940.749	3454.4
941.056	3445.81
941.363	3415.98
941.67	3411.24
941.977	3384.35
942.284	3331.01
942.591	3368.08
942.898	3345.7
943.205	3344.35
943.511	3328.75
943.818	3296.21
944.125	3309.77
944.431	3268.64
944.738	3308.19
945.044	3205.82
945.35	3233.39
945.657	3192.49
945.963	3193.39
946.269	3194.75
946.575	3174.86
946.881	3163.79
947.187	3178.93
947.493	3159.72
947.799	3124.47
948.105	3090.12
948.41	3084.69
948.716	3107.52
949.022	3024.81
949.327	3054.86
949.633	3083.34
949.938	3023.23
950.244	3044.24
950.549	2990.68
950.854	2978.93
951.16	2995.88
951.465	2987.52
951.77	2962.89
952.075	2932.15
952.38	2953.4
952.685	2931.93
952.99	2922.44
953.294	2914.98
953.599	2886.73
953.904	2880.63
954.209	2871.37
954.513	2800.18
954.818	2872.72
955.122	2838.6
955.426	2802.21
955.731	2805.83
956.035	2795.21
956.339	2793.18
956.643	2788.66
956.948	2764.25
957.252	2737.36
957.556	2749.11
957.86	2733.29
958.163	2724.7
958.467	2697.81
958.771	2699.39
959.075	2666.17
959.378	2634.08
959.682	2683.8
959.985	2652.84
960.289	2645.61
960.592	2641.31
960.896	2613.29
961.199	2611.94
961.502	2601.99
961.805	2603.35
962.108	2569.9
962.411	2580.07
962.714	2580.53
963.017	2548.44
963.32	2544.82
963.623	2554.09
963.926	2506.63
964.228	2527.42
964.531	2494.43
964.833	2531.26
965.136	2471.38
965.438	2444.03
965.741	2493.07
966.043	2446.74
966.345	2446.97
966.648	2465.95
966.95	2436.57
967.252	2411.49
967.554	2377.37
967.856	2393.19
968.158	2354.54
968.46	2345.96
968.761	2355.9
969.063	2357.48
969.365	2358.84
969.666	2373.3
969.968	2313.87
970.269	2309.12
970.571	2328.55
970.872	2277.48
971.174	2296.24
971.475	2288.78
971.776	2303.02
972.077	2253.98
972.378	2250.36
972.679	2245.39
972.98	2248.56
973.281	2243.36
973.582	2183.47
973.883	2198.84
974.183	2218.05
974.484	2169.69
974.785	2170.14
975.085	2182.12
975.386	2214.66
975.686	2152.29
975.986	2126.07
976.287	2148.22
976.587	2116.13
976.887	2114.1
977.187	2110.03
977.487	2119.75
977.787	2082.69
978.087	2100.54
978.387	2102.57
978.687	2103.02
978.987	2033.2
979.286	2061.89
979.586	2061.22
979.885	2035.68
980.185	2018.28
980.484	2018.28
980.784	2026.42
981.083	1990.94
981.382	2009.47
981.682	2007.21
981.981	1953.42
982.28	1994.55
982.579	1934.21
982.878	1960.88
983.177	1937.38
983.475	1949.36
983.774	1929.02
984.073	1930.15
984.372	1913.2
984.67	1889.47
984.969	1894.44
985.267	1890.83
985.566	1891.28
985.864	1861
986.162	1855.8
986.461	1863.03
986.759	1841.34
987.057	1835.23
987.355	1819.64
987.653	1809.7
987.951	1845.4
988.249	1791.62
988.547	1801.79
988.844	1787.78
989.142	1794.33
989.44	1764.05
989.737	1752.75
990.035	1717.05
990.332	1757.72
990.63	1741.23
990.927	1727.67
991.224	1741.9
991.521	1713.66
991.819	1729.7
992.116	1709.14
992.413	1696.48
992.71	1670.04
993.006	1698.51
993.303	1651.06
993.6	1678.18
993.897	1674.33
994.193	1684.73
994.49	1627.1
994.787	1655.35
995.083	1619.42
995.379	1619.42
995.676	1672.98
995.972	1601.79
996.268	1599.99
996.565	1594.79
996.861	1568.12
997.157	1589.14
997.453	1558.41
997.749	1574.45
998.044	1588.46
998.34	1550.27
998.636	1550.27
998.932	1544.62
999.227	1529.25
999.523	1521.34
999.818	1543.49
1000.114	1533.32
1000.409	1486.99
1000.704	1469.37
1001	1490.38
1001.295	1492.19
1001.59	1454.45
1001.885	1479.99
1002.18	1501.23
1002.475	1417.17
1002.77	1439.76
1003.065	1435.24
1003.359	1450.39
1003.654	1412.19
1003.949	1408.8
1004.243	1404.06
1004.538	1390.27
1004.832	1401.8
1005.127	1398.86
1005.421	1390.05
1005.715	1372.2
1006.009	1366.09
1006.304	1355.47
1006.598	1387.34
1006.892	1376.04
1007.186	1359.77
1007.48	1344.4
1007.773	1334.68
1008.067	1316.83
1008.361	1317.28
1008.655	1328.13
1008.948	1316.15
1009.242	1311.86
1009.535	1284.29
1009.829	1262.37
1010.122	1261.24
1010.415	1268.24
1010.708	1283.16
1011.001	1284.51
1011.295	1283.61
1011.588	1230.28
1011.881	1223.05
1012.173	1214.46
1012.466	1236.15
1012.759	1204.06
1013.052	1209.49
1013.344	1200.67
1013.637	1185.08
1013.93	1199.77
1014.222	1216.72
1014.514	1198.41
1014.807	1181.69
1015.099	1163.84
1015.391	1160.68
1015.683	1113.9
1015.976	1161.35
1016.268	1125.2
1016.56	1141.02
1016.851	1119.09
1017.143	1101.24
1017.435	1098.3
1017.727	1124.74
1018.018	1103.05
1018.31	1101.24
1018.602	1075.93
1018.893	1071.86
1019.185	1094.91
1019.476	1092.2
1019.767	1068.93
1020.058	1079.1
1020.35	1053.56
1020.641	1042.71
1020.932	1039.55
1021.223	1044.75
1021.514	1040.23
1021.804	1020.57
1022.095	1031.64
1022.386	1016.05
1022.677	1004.3
1022.967	984.64
1023.258	989.38
1023.548	994.13
1023.839	1006.1
1024.129	955.03
1024.419	962.49
1024.709	950.06
1025	940.79
1025.29	947.57
1025.58	961.13
1025.87	957.52
1026.16	941.92
1026.449	945.31
1026.739	924.3
1027.029	937.63
1027.319	914.81
1027.608	911.19
1027.898	903.06
1028.187	915.03
1028.477	886.56
1028.766	886.33
1029.055	872.1
1029.344	885.2
1029.634	856.28
1029.923	856.5
1030.212	868.71
1030.501	852.21
1030.79	855.82
1031.078	852.66
1031.367	841.59
1031.656	858.08
1031.945	850.63
1032.233	830.06
1032.522	858.31
1032.81	829.61
1033.099	823.51
1033.387	827.13
1033.675	803.17
1033.963	819.22
1034.251	826.22
1034.54	795.49
1034.828	792.78
1035.116	781.7
1035.403	797.07
1035.691	800.23
1035.979	782.38
1036.267	771.08
1036.554	785.54
1036.842	755.94
1037.129	784.19
1037.417	742.61
1037.704	753
1037.992	764.98
1038.279	728.14
1038.566	733.57
1038.853	733.57
1039.14	733.57
