Data from hue_40_FLMS001491_81.txt Node
Date: Mon Feb 06 15:08:40 GMT 2017
User: dcchb
Spectrometer: FLMS00149
Trigger mode: 0
Integration Time (sec): 2.000000E-2
Scans to average: 10
Electric dark correction enabled: true
Nonlinearity correction enabled: false
Boxcar width: 0
XAxis mode: Wavelengths
Number of Pixels in Spectrum: 2048
>>>>>Begin Spectral Data<<<<<
341.393	-23.86
341.776	-23.86
342.16	-23.86
342.543	-78.54
342.927	-67.92
343.31	-75.38
343.693	-97.53
344.077	-75.61
344.46	-46.91
344.843	-48.71
345.226	-34.25
345.61	-14.36
345.993	-18.66
346.376	3.26
346.759	-2.16
347.142	34.45
347.525	63.37
347.908	62.47
348.291	78.51
348.674	75.35
349.057	96.14
349.44	125.29
349.823	161
350.206	166.65
350.588	186.31
350.971	188.34
351.354	229.02
351.737	248.68
352.119	244.84
352.502	241.67
352.884	265.18
353.267	270.15
353.65	294.33
354.032	307.66
354.414	320.99
354.797	312.18
355.179	323.03
355.562	330.94
355.944	324.84
356.326	329.81
356.709	344.5
357.091	323.71
357.473	360.77
357.855	339.52
358.238	347.66
358.62	347.43
359.002	351.5
359.384	330.49
359.766	346.98
360.148	348.79
360.53	334.33
360.912	324.84
361.294	328.23
361.676	347.43
362.057	349.02
362.439	345.17
362.821	339.52
363.203	324.16
363.584	344.27
363.966	347.89
364.348	311.28
364.729	328
365.111	323.93
365.493	336.81
365.874	329.58
366.256	336.14
366.637	293.65
367.019	320.09
367.4	326.42
367.781	318.96
368.163	324.84
368.544	323.03
368.925	342.69
369.306	316.25
369.688	334.1
370.069	334.33
370.45	314.21
370.831	324.16
371.212	314.21
371.593	314.44
371.974	321.22
372.355	336.36
372.736	321.9
373.117	308.11
373.498	324.38
373.879	330.03
374.26	325.06
374.641	324.38
375.021	331.39
375.402	338.4
375.783	331.39
376.163	334.33
376.544	314.67
376.925	329.13
377.305	318.28
377.686	324.38
378.066	347.66
378.447	313.31
378.827	323.71
379.208	346.53
379.588	325.51
379.968	334.1
380.349	314.21
380.729	337.49
381.109	336.81
381.489	340.2
381.87	306.08
382.25	342.46
382.63	362.58
383.01	348.79
383.39	359.19
383.77	353.08
384.15	360.77
384.53	357.15
384.91	357.15
385.29	365.06
385.67	369.35
386.049	363.93
386.429	356.47
386.809	372.29
387.189	363.93
387.568	354.89
387.948	353.76
388.328	368.68
388.707	378.39
389.087	377.49
389.466	401.67
389.846	350.82
390.225	368.45
390.605	368.45
390.984	354.89
391.363	361.67
391.743	367.32
392.122	368.68
392.501	374.78
392.881	380.2
393.26	390.37
393.639	377.49
394.018	388.56
394.397	392.18
394.776	387.21
395.155	390.15
395.534	377.72
395.913	410.03
396.292	376.81
396.671	387.89
397.05	376.81
397.429	377.94
397.808	393.99
398.186	389.92
398.565	400.31
398.944	381.11
399.323	417.04
399.701	393.99
400.08	427.21
400.458	401.44
400.837	389.92
401.215	391.05
401.594	411.16
401.972	411.61
402.351	391.05
402.729	408.9
403.107	410.48
403.486	432.18
403.864	419.3
404.242	399.64
404.62	423.59
404.999	430.82
405.377	411.84
405.755	426.75
406.133	429.47
406.511	442.35
406.889	441.67
407.267	426.3
407.645	453.19
408.023	456.36
408.401	433.76
408.779	440.77
409.156	469.01
409.534	465.85
409.912	439.41
410.29	461.78
410.667	461.33
411.045	455.45
411.422	466.53
411.8	480.31
412.178	463.59
412.555	468.11
412.933	464.95
413.31	470.14
413.687	473.53
414.065	483.48
414.442	493.87
414.819	480.09
415.197	501.1
415.574	499.29
415.951	511.5
416.328	502.23
416.705	516.24
417.082	492.29
417.46	503.81
417.837	531.84
418.214	525.96
418.591	512.85
418.967	533.19
419.344	523.93
419.721	521.22
420.098	540.42
420.475	540.88
420.852	524.38
421.228	535.45
421.605	533.42
421.982	534.55
422.358	552.63
422.735	555.56
423.111	559.63
423.488	545.85
423.864	563.02
424.241	582.23
424.617	568.67
424.994	560.54
425.37	595.79
425.746	582.23
426.123	582.23
426.499	582.68
426.875	601.89
427.251	591.95
427.627	600.76
428.003	600.76
428.379	608.22
428.756	617.03
429.132	602.79
429.507	619.97
429.883	637.37
430.259	659.06
430.635	634.88
431.011	635.79
431.387	650.93
431.763	656.58
432.138	643.25
432.514	654.32
432.89	690.25
433.265	692.06
433.641	685.05
434.016	681.89
434.392	699.52
434.767	703.58
435.143	690.7
435.518	708.78
435.894	718.05
436.269	698.84
436.644	723.92
437.02	725.28
437.395	754.88
437.77	741.1
438.145	751.94
438.52	754.43
438.895	765.05
439.271	769.34
439.646	796.24
440.021	765.95
440.395	782.45
440.77	787.42
441.145	794.2
441.52	780.42
441.895	800.3
442.27	790.59
442.645	801.89
443.019	794.43
443.394	802.79
443.769	810.02
444.143	816.57
444.518	836.91
444.892	836.69
445.267	831.49
445.641	854.99
446.016	849.12
446.39	828.78
446.764	878.95
447.139	852.28
447.513	861.09
447.887	853.41
448.262	853.18
448.636	876.69
449.01	885.05
449.384	909
449.758	912.17
450.132	914.43
450.506	897.48
450.88	917.14
451.254	916.46
451.628	916.01
452.002	921.88
452.376	944.93
452.75	944.71
453.123	959.4
453.497	995.55
453.871	982.9
454.244	1002.56
454.618	985.61
454.992	1000.98
455.365	975.21
455.739	1014.76
456.112	1010.69
456.486	1042.11
456.859	1036
457.232	1063.35
457.606	1053.63
457.979	1115.55
458.352	1085.04
458.725	1106.51
459.099	1122.1
459.472	1138.15
459.845	1124.36
460.218	1154.87
460.591	1135.21
460.964	1166.17
461.337	1193.97
461.71	1197.58
462.083	1209.56
462.456	1230.35
462.829	1212.5
463.201	1268.09
463.574	1264.25
463.947	1285.94
464.32	1282.78
464.692	1304.7
465.065	1322.32
465.438	1350.12
465.81	1377.69
466.183	1380.18
466.555	1399.16
466.928	1405.49
467.3	1433.28
467.672	1421.53
468.045	1466.73
468.417	1472.6
468.789	1498.82
469.161	1538.59
469.534	1507.4
469.906	1579.49
470.278	1595.76
470.65	1609.1
471.022	1654.52
471.394	1696.78
471.766	1706.49
472.138	1718.47
472.51	1773.16
472.882	1802.54
473.253	1853.61
473.625	1892.25
473.997	1926.83
474.369	1914.4
474.74	1934.51
475.112	2005.92
475.484	2020.84
475.855	2085.47
476.227	2091.8
476.598	2178.35
476.97	2236.2
477.341	2260.6
477.713	2286.82
478.084	2325.91
478.455	2411.79
478.827	2434.16
479.198	2550.31
479.569	2564.55
479.94	2674.83
480.311	2709.63
480.682	2836.41
481.053	2882.28
481.424	2948.95
481.795	2988.95
482.166	3061.49
482.537	3136.74
482.908	3215.83
483.279	3268.94
483.65	3379.45
484.021	3491.76
484.391	3578.08
484.762	3555.26
485.133	3687.69
485.503	3809.26
485.874	3861.92
486.244	3953.44
486.615	4084.51
486.985	4164.74
487.356	4251.29
487.726	4318.4
488.097	4417.61
488.467	4477.27
488.837	4616.02
489.207	4718.84
489.578	4866.41
489.948	4898.5
490.318	5074.32
490.688	5136.69
491.058	5232.28
491.428	5330.35
491.798	5470.46
492.168	5634.75
492.538	5653.96
492.908	5784.58
493.278	5923.56
493.648	5950.22
494.017	6082.2
494.387	6221.18
494.757	6240.61
495.126	6414.17
495.496	6424.11
495.866	6529.64
496.235	6639.47
496.605	6746.81
496.974	6941.39
497.344	7022.74
497.713	7038.78
498.082	7188.38
498.452	7322.39
498.821	7358.32
499.19	7413.69
499.559	7518.09
499.928	7613.91
500.298	7739.1
500.667	7799.89
501.036	7852.77
501.405	7956.27
501.774	7983.17
502.143	8189.71
502.512	8144.07
502.88	8304.06
503.249	8372.31
503.618	8461.12
503.987	8523.72
504.356	8585.18
504.724	8736.82
505.093	8721
505.462	8800.09
505.83	8858.4
506.199	8954.89
506.567	9167.99
506.936	9106.07
507.304	9289.8
507.672	9293.64
508.041	9401.89
508.409	9498.83
508.777	9591.71
509.145	9608.43
509.514	9658.6
509.882	9820.86
510.25	9856.56
510.618	9975.88
510.986	9980.63
511.354	10093.62
511.722	10177.46
512.09	10248.19
512.458	10270.34
512.826	10373.39
513.193	10403.44
513.561	10464
513.929	10579.93
514.297	10699.93
514.664	10759.36
515.032	10822.19
515.4	10854.73
515.767	11021.5
516.135	11022.63
516.502	10943.54
516.869	11185.34
517.237	11243.87
517.604	11273.93
517.972	11308.5
518.339	11378.1
518.706	11433.24
519.073	11512.11
519.44	11560.02
519.808	11797.98
520.175	11763.63
520.542	11874.36
520.909	11907.58
521.276	11943.74
521.643	12158.42
522.009	12093.11
522.376	12234.13
522.743	12326.1
523.11	12425.31
523.477	12527.23
523.843	12607
524.21	12709.37
524.577	12779.42
524.943	12891.51
525.31	12884.73
525.676	13046.76
526.043	13103.48
526.409	13140.77
526.776	13357.49
527.142	13358.84
527.508	13393.65
527.874	13455.34
528.241	13559.52
528.607	13603.36
528.973	13770.58
529.339	13762.9
529.705	13953.63
530.071	13975.78
530.437	14042.22
530.803	14126.06
531.169	14306.84
531.535	14227.07
531.901	14288.54
532.267	14359.95
532.632	14515.65
532.998	14560.17
533.364	14630
533.73	14672.71
534.095	14787.73
534.461	14861.63
534.826	14867.96
535.192	14930.55
535.557	14998.12
535.923	15000.83
536.288	15161.06
536.653	15191.79
537.019	15197.44
537.384	15194.5
537.749	15417.32
538.114	15406.02
538.479	15483.76
538.845	15531.44
539.21	15531.44
539.575	15568.73
539.94	15702.74
540.305	15838.33
540.67	15737.54
541.034	15784.77
541.399	15968.94
541.764	16024.08
542.129	16044.42
542.494	16080.58
542.858	16126.91
543.223	16144.53
543.587	16250.75
543.952	16342.04
544.316	16391.76
544.681	16314.25
545.045	16425.66
545.41	16633.56
545.774	16586.1
546.138	16647.8
546.503	16681.02
546.867	16714.24
547.231	16833.1
547.595	16920.11
547.959	16939.09
548.324	17071.51
548.688	17012.08
549.052	17110.16
549.416	17076.94
549.779	17241
550.143	17274.67
550.507	17407.32
550.871	17422.01
551.235	17457.27
551.599	17596.02
551.962	17519.86
552.326	17697.49
552.689	17751.5
553.053	17664.95
553.417	17721.89
553.78	18031.26
554.143	17866.3
554.507	18022
554.87	18037.59
555.234	18271.48
555.597	18121.43
555.96	18206.17
556.323	18296.57
556.686	18315.1
557.05	18477.81
557.413	18578.37
557.776	18558.71
558.139	18760.51
558.502	18715.31
558.865	18805.03
559.228	18862.65
559.59	18988.53
559.953	18920.73
560.316	19152.14
560.679	19193.49
561.041	19274.85
561.404	19268.97
561.767	19373.83
562.129	19412.92
562.492	19513.03
562.854	19635.51
563.217	19562.07
563.579	19583.09
563.941	19793.7
564.304	19890.65
564.666	19972.46
565.028	20069.4
565.39	20086.8
565.753	20136.74
566.115	20315.95
566.477	20213.13
566.839	20427.81
567.201	20572.89
567.563	20521.14
567.925	20626.22
568.287	20686.56
568.648	20720.46
569.01	20898.08
569.372	21054.46
569.734	20962.49
570.095	21132.2
570.457	21202.93
570.819	21268.01
571.18	21266.66
571.542	21412.64
571.903	21522.02
572.265	21554.56
572.626	21718.85
572.987	21819.86
573.349	21823.03
573.71	21929.01
574.071	21945.28
574.432	22118.39
574.794	22281.77
575.155	22308.21
575.516	22238.61
575.877	22509.56
576.238	22416.23
576.599	22678.6
576.96	22777.35
577.32	22934.86
577.681	23071.58
578.042	23083.56
578.403	23312.03
578.763	23414.4
579.124	23348.19
579.485	23684.67
579.845	23707.27
580.206	23889.41
580.566	23870.21
580.927	23973.48
581.287	24292.12
581.648	24312.91
582.008	24563.07
582.368	24663.86
582.728	24807.13
583.089	25038.76
583.449	24992.21
583.809	25292.32
584.169	25422.93
584.529	25467
584.889	25882.81
585.249	25829.48
585.609	25962.81
585.969	26270.59
586.329	26413.42
586.688	26672.39
587.048	26739.73
587.408	26817.47
587.768	27146.73
588.127	27167.29
588.487	27307.4
588.846	27826.94
589.206	27680.95
589.565	27959.59
589.925	28129.08
590.284	28298.11
590.643	28506.92
591.003	28808.83
591.362	29040.24
591.721	29136.96
592.08	29229.39
592.44	29503.05
592.799	29578.98
593.158	29821.24
593.517	29810.61
593.876	30110.27
594.235	30382.8
594.593	30463.7
594.952	30687.88
595.311	30624.6
595.67	31057.36
596.029	31352.72
596.387	31492.83
596.746	31570.12
597.104	31723.11
597.463	31868.41
597.822	32095.07
598.18	32053.95
598.538	32213.72
598.897	32606.93
599.255	32411.68
599.613	33072.45
599.972	32937.09
600.33	33091.88
600.688	33140.24
601.046	33383.63
601.404	33675.15
601.762	33654.81
602.12	33969.83
602.478	34193.78
602.836	34286.43
603.194	34243.49
603.552	34450.72
603.91	34296.37
604.268	34702.24
604.625	34489.59
604.983	34931.16
605.341	34896.58
605.698	35184.71
606.056	35321.43
606.413	35266.29
606.771	35522.78
607.128	35869.44
607.485	35551.03
607.843	35784.47
608.2	36069.88
608.557	36149.88
608.914	36211.8
609.272	36378.8
609.629	36568.18
609.986	36825.12
610.343	36701.51
610.7	37038.67
611.057	36968.62
611.414	37073.93
611.771	37122.96
612.127	37348.5
612.484	37350.76
612.841	37651.99
613.198	37510.3
613.554	37626.45
613.911	37938.08
614.267	37933.79
614.624	37878.65
614.98	37995.94
615.337	38249.26
615.693	38152.99
616.05	38379.2
616.406	38454
616.762	38581.68
617.118	38495.36
617.475	38544.17
617.831	38728.35
618.187	38860.77
618.543	38892.41
618.899	39122.23
619.255	39177.15
619.611	39131.73
619.967	39299.4
620.323	39297.14
620.678	39298.05
621.034	39263.02
621.39	39314.09
621.746	39488.1
622.101	39776.45
622.457	39552.28
622.812	39695.1
623.168	39781.88
623.523	39741.2
623.879	39942.33
624.234	39638.6
624.589	39853.97
624.945	39976.22
625.3	39872.95
625.655	40092.15
626.01	40033.85
626.365	40102.1
626.72	40030.68
627.075	40152.94
627.43	39951.59
627.785	39978.03
628.14	40123.34
628.495	40124.92
628.85	40071.36
629.205	40023
629.559	40235.43
629.914	40124.92
630.269	40302.09
630.623	40040.85
630.978	40118.14
631.332	40151.13
631.687	40382.54
632.041	40209.89
632.396	40131.93
632.75	40147.97
633.104	40195.65
633.459	39915.21
633.813	40032.94
634.167	39983.45
634.521	40034.98
634.875	40162.21
635.229	39941.87
635.583	39905.49
635.937	39902.78
636.291	39821.42
636.645	39844.47
636.999	39798.15
637.352	39921.76
637.706	39679.96
638.06	39861.2
638.413	39659.17
638.767	39700.52
639.121	39802.67
639.474	39438.84
639.828	39715.44
640.181	39753.63
640.534	39573.07
640.888	39618.04
641.241	39370.36
641.594	39461.66
641.947	39778.04
642.301	39471.83
642.654	39625.05
643.007	39523.81
643.36	39429.12
643.713	39459.17
644.066	39515.44
644.419	39298.73
644.771	39072.07
645.124	38755.01
645.477	38582.36
645.83	38465.53
646.182	38387.11
646.535	38211.52
646.888	38286.1
647.24	38080
647.593	38292.2
647.945	38198.42
648.298	37988.03
648.65	37976.5
649.002	37818.54
649.355	37940.34
649.707	37910.74
650.059	38055.6
650.411	38522.93
650.763	38703.26
651.115	38978.51
651.467	38896.93
651.819	38786.42
652.171	38606.99
652.523	38746.2
652.875	38663.94
653.227	38519.09
653.578	38833.2
653.93	38623.49
654.282	38457.84
654.633	38439.99
654.985	38479.09
655.337	38708.69
655.688	38483.83
656.039	38577.62
656.391	38461.01
656.742	38435.7
657.094	38528.8
657.445	38581.23
657.796	38448.35
658.147	38345.98
658.498	38352.54
658.849	38516.83
659.2	38457.84
659.551	38230.73
659.902	38433.66
660.253	38281.58
660.604	38522.7
660.955	38277.06
661.306	38379.65
661.656	38361.12
662.007	38321.35
662.358	38294.91
662.708	38299.2
663.059	38354.12
663.409	38107.35
663.76	38302.59
664.11	38189.6
664.461	38337.17
664.811	38133.11
665.161	38217.17
665.511	38144.41
665.862	38045.65
666.212	38245.65
666.562	38244.07
666.912	38122.03
667.262	38117.97
667.612	38088.36
667.962	38153.45
668.312	38020.12
668.662	38261.69
669.011	38106.44
669.361	38122.94
669.711	37856.5
670.06	38037.97
670.41	37706.9
670.76	37892.89
671.109	38072.54
671.459	38034.81
671.808	37915.71
672.157	37935.37
672.507	37727.24
672.856	37699.22
673.205	37910.51
673.554	37955.26
673.904	37755.72
674.253	38023.05
674.602	37797.3
674.951	37256.97
675.3	37191.89
675.649	37736.51
675.998	37598.21
676.346	37638.88
676.695	37734.47
677.044	37463.97
677.393	37609.51
677.741	37611.77
678.09	37574.25
678.438	37466.68
678.787	37522.28
679.135	37507.81
679.484	37239.35
679.832	37531.32
680.181	37136.75
680.529	37330.42
680.877	37251.77
681.225	37211.32
681.573	37327.25
681.922	37056.98
682.27	37022.4
682.618	36913.48
682.966	36925.46
683.314	36993.02
683.661	36841.84
684.009	36687.72
684.357	36638.23
684.705	36516.43
685.053	36549.87
685.4	36493.15
685.748	36269.2
686.095	36385.36
686.443	36285.02
686.79	36221.75
687.138	36327.51
687.485	36187.4
687.832	36090.22
688.18	36244.12
688.527	35934.97
688.874	35866.5
689.221	35785.6
689.568	35790.57
689.915	35871.92
690.262	35603.68
690.609	35639.16
690.956	35611.59
691.303	35461.77
691.65	35317.36
691.997	35397.81
692.344	35096.35
692.69	35089.12
693.037	35183.58
693.383	34847.77
693.73	34997.37
694.077	34673.99
694.423	34789.92
694.769	34652.97
695.116	34571.62
695.462	34484.84
695.808	34390.61
696.155	34446.65
696.501	34133.66
696.847	34115.81
697.193	33912.88
697.539	34013.89
697.885	33794.01
698.231	33722.38
698.577	33724.18
698.923	33647.8
699.269	33534.81
699.614	33306.12
699.96	33264.76
700.306	33287.13
700.651	33061.6
700.997	32988.84
701.342	33025.9
701.688	32955.62
702.033	32937.31
702.379	32847.37
702.724	32803.76
703.069	32945.45
703.415	32442.64
703.76	32535.29
704.105	32494.39
704.45	32280.15
704.795	32114.73
705.14	32095.3
705.485	32037.9
705.83	32029.99
706.175	32054.17
706.52	31785.48
706.865	31714.75
707.209	31710.68
707.554	31766.5
707.899	31688.53
708.243	31425.94
708.588	31511.13
708.932	31269.56
709.277	31364.25
709.621	31209.45
709.966	31171.03
710.31	31091.03
710.654	30832.51
710.998	30983.69
711.342	30939.62
711.687	30878.16
712.031	30653.3
712.375	30550.71
712.719	30582.12
713.063	30532.86
713.407	30645.17
713.75	30494.44
714.094	30441.33
714.438	30355.01
714.782	30301.45
715.125	30196.59
715.469	30149.59
715.812	29955.7
716.156	30017.61
716.499	29846.77
716.843	29991.17
717.186	29744.85
717.53	29923.61
717.873	29859.2
718.216	29876.6
718.559	29663.05
718.902	29482.49
719.246	29571.07
719.589	29571.52
719.932	29320.01
720.275	29320.23
720.617	29332.66
720.96	29294.02
721.303	29206.79
721.646	29158.2
721.989	29010.18
722.331	29085.21
722.674	29014.03
723.016	29019.9
723.359	28706.91
723.701	28984.87
724.044	28734.03
724.386	28553.47
724.729	28759.57
725.071	28803.64
725.413	28684.32
725.755	28661.49
726.097	28536.3
726.439	28336.53
726.782	28305.12
727.124	28549.4
727.465	28216.76
727.807	28373.82
728.149	28264.67
728.491	28216.76
728.833	28221.96
729.175	28151.45
729.516	28107.16
729.858	28043.88
730.199	28027.61
730.541	28054.05
730.882	28037.55
731.224	28059.02
731.565	27753.04
731.906	27862.87
732.248	27777.45
732.589	27772.7
732.93	27646.38
733.271	27600.05
733.612	27692.93
733.953	27638.24
734.294	27501.3
734.635	27540.84
734.976	27510.11
735.317	27396.21
735.658	27333.84
735.999	27418.36
736.339	27320.28
736.68	27333.17
737.021	27218.82
737.361	27092.49
737.702	27297.23
738.042	27159.61
738.383	27030.57
738.723	27073.29
739.063	26956
739.404	27019.95
739.744	26886.4
740.084	26928.66
740.424	26845.72
740.764	26774.08
741.104	26859.96
741.444	26593.07
741.784	26556.69
742.124	26694.99
742.464	26713.52
742.804	26619.06
743.143	26431.27
743.483	26586.74
743.823	26341.33
744.162	26298.16
744.502	26280.09
744.841	26214.32
745.181	26447.31
745.52	26256.81
745.86	26250.93
746.199	26191.5
746.538	26158.96
746.877	26226.3
747.216	26142.24
747.556	26115.57
747.895	26124.16
748.234	25889.14
748.573	25991.51
748.911	25848.68
749.25	25904.73
749.589	25729.37
749.928	25732.76
750.267	25840.1
750.605	25666.32
750.944	25743.15
751.283	25506.77
751.621	25574.12
751.96	25459.77
752.298	25469.49
752.636	25479.43
752.975	25343.16
753.313	25215.03
753.651	25205.54
753.989	25208.48
754.327	25170.06
754.666	24896.39
755.004	24991.31
755.342	25082.6
755.679	25020.23
756.017	24910.63
756.355	24873.57
756.693	24808.03
757.031	24787.02
757.368	24662.5
757.706	24657.3
758.044	24577.08
758.381	24547.02
758.719	24456.86
759.056	24485.56
759.394	24259.12
759.731	24228.61
760.068	24239.01
760.405	24110.43
760.743	23986.13
761.08	24072.91
761.417	23863.65
761.754	23996.3
762.091	23853.26
762.428	23679.02
762.765	23450.33
763.102	23613.72
763.438	23431.8
763.775	23388.41
764.112	23406.04
764.449	23489.2
764.785	23263.89
765.122	23165.59
765.458	23099.15
765.795	23023.67
766.131	23037.69
766.467	22913.39
766.804	22675.89
767.14	22773.96
767.476	22705.49
767.812	22590.92
768.148	22617.36
768.485	22427.98
768.821	22430.92
769.157	22298.72
769.492	22326.97
769.828	22275.22
770.164	22015.57
770.5	22006.07
770.836	21975.79
771.171	21881.33
771.507	21856.25
771.842	21629.13
772.178	21674.56
772.513	21572.19
772.849	21574.9
773.184	21344.62
773.519	21399.99
773.855	21337.16
774.19	21218.07
774.525	21102.37
774.86	21225.53
775.195	21137.4
775.53	20929.72
775.865	20894.24
776.2	20800.23
776.535	20621.25
776.87	20703.74
777.205	20598.43
777.539	20436.17
777.874	20431.88
778.209	20326.8
778.543	20416.96
778.878	20060.59
779.212	20185.56
779.547	20042.51
779.881	20054.71
780.215	19915.73
780.55	19920.25
780.884	19729.07
781.218	19735.4
781.552	19710.09
781.886	19545.8
782.22	19551.45
782.554	19472.58
782.888	19227.39
783.222	19193.04
783.556	19094.51
783.889	19092.93
784.223	18886.38
784.557	18982.65
784.89	19054.51
785.224	18849.32
785.557	18751.02
785.891	18711.47
786.224	18650.46
786.558	18591.7
786.891	18489.56
787.224	18419.73
787.557	18384.47
787.891	18275.32
788.224	18187.64
788.557	18181.09
788.89	18198.72
789.223	18217.02
789.556	18032.39
789.888	17905.16
790.221	17933.19
790.554	17737.26
790.887	17687.77
791.219	17739.29
791.552	17658.39
791.884	17531.39
792.217	17499.98
792.549	17476.48
792.882	17315.8
793.214	17373.43
793.546	17311.51
793.879	17191.06
794.211	17068.35
794.543	17104.73
794.875	16981.8
795.207	17097.28
795.539	16937.05
795.871	16991.97
796.203	16785.19
796.535	16700.9
796.867	16647.12
797.198	16594.46
797.53	16660.68
797.862	16527.8
798.193	16548.59
798.525	16572.09
798.856	16493.68
799.188	16327.13
799.519	16218.88
799.85	16142.95
800.182	16154.02
800.513	16163.06
800.844	15934.82
801.175	16118.32
801.506	15964.2
801.837	15907.03
802.168	15912.67
802.499	15848.04
802.83	15771.21
803.161	15709.06
803.491	15658.9
803.822	15700.48
804.153	15584.1
804.483	15480.14
804.814	15415.51
805.145	15472.91
805.475	15437.89
805.805	15361.28
806.136	15320.83
806.466	15293.03
806.796	15282.41
807.126	15132.13
807.457	15089.19
807.787	15129.64
808.117	15122.41
808.447	15039.03
808.777	15003.77
809.107	14924
809.436	14921.51
809.766	14937.33
810.096	14834.06
810.426	14776.21
810.755	14784.79
811.085	14717.9
811.414	14729.2
811.744	14624.35
812.073	14544.8
812.403	14558.13
812.732	14510.45
813.061	14490.34
813.39	14354.98
813.719	14338.7
814.049	14417.8
814.378	14283.11
814.707	14234.07
815.036	14261.64
815.365	14169.22
815.693	14012.61
816.022	14026.4
816.351	14055.55
816.68	13901.88
817.008	14027.98
817.337	13847.64
817.665	13761.09
817.994	13832.5
818.322	13867.08
818.651	13766.29
818.979	13695.33
819.307	13744.14
819.636	13690.13
819.964	13602.23
820.292	13755.22
820.62	13661.66
820.948	13648.78
821.276	13652.62
821.604	13622.57
821.932	13528.33
822.259	13614.2
822.587	13622.11
822.915	13571.95
823.243	13559.52
823.57	13535.11
823.898	13551.15
824.225	13513.42
824.553	13548.44
824.88	13563.58
825.207	13497.15
825.535	13531.72
825.862	13573.08
826.189	13493.53
826.516	13562
826.843	13569.01
827.17	13585.05
827.497	13565.84
827.824	13609.01
828.151	13654.66
828.478	13531.72
828.805	13542.34
829.131	13469.58
829.458	13542.57
829.785	13421.44
830.111	13406.75
830.438	13542.57
830.764	13565.84
831.09	13445.85
831.417	13430.03
831.743	13508.44
832.069	13442.01
832.395	13449.91
832.722	13483.36
833.048	13412.85
833.374	13391.16
833.7	13347.32
834.026	13394.32
834.351	13403.59
834.677	13312.74
835.003	13393.65
835.329	13356.81
835.654	13381.89
835.98	13245.85
836.306	13279.3
836.631	13174.22
836.956	13263.48
837.282	13232.52
837.607	13167.89
837.932	13103.94
838.258	13127.44
838.583	13096.48
838.908	13069.36
839.233	13087.21
839.558	13093.77
839.883	12983.71
840.208	12971.51
840.533	12981.68
840.858	12991.62
841.182	12952.75
841.507	12870.27
841.832	12863.94
842.156	12860.78
842.481	12848.57
842.805	12832.98
843.13	12768.35
843.454	12736.49
843.778	12685.87
844.103	12654
844.427	12609.48
844.751	12641.35
845.075	12552.76
845.399	12552.09
845.723	12500.34
846.047	12450.39
846.371	12368.36
846.695	12368.36
847.019	12359.55
847.343	12266.22
847.666	12274.8
847.99	12156.16
848.313	12166.11
848.637	12049.95
848.96	12038.65
849.284	12004.3
849.607	11967.02
849.931	11916.17
850.254	11814.48
850.577	11762.28
850.9	11723.18
851.223	11636.63
851.546	11591.43
851.869	11536.52
852.192	11612.67
852.515	11460.36
852.838	11409.74
853.161	11416.3
853.483	11354.83
853.806	11294.94
854.129	11288.62
854.451	11183.76
854.774	11178.34
855.096	11139.02
855.419	11131.56
855.741	11104.44
856.063	11073.48
856.385	11045.01
856.708	11029.87
857.03	10949.64
857.352	10993.48
857.674	10875.07
857.996	10900.38
858.318	10795.3
858.64	10806.82
858.961	10789.65
859.283	10728.63
859.605	10647.28
859.926	10712.59
860.248	10642.98
860.57	10573.83
860.891	10648.63
861.212	10628.52
861.534	10495.64
861.855	10505.81
862.176	10576.32
862.498	10525.02
862.819	10464
863.14	10468.3
863.461	10401.63
863.782	10426.72
864.103	10383.78
864.424	10418.13
864.745	10375.42
865.065	10367.06
865.386	10323.44
865.707	10340.39
866.027	10252.71
866.348	10266.04
866.668	10242.77
866.989	10199.6
867.309	10115.09
867.63	10125.48
867.95	10198.7
868.27	10197.12
868.59	10143.33
868.91	10096.33
869.23	10063.11
869.55	9972.94
869.87	10057.24
870.19	10071.92
870.51	10021.3
870.83	10048.2
871.15	9906.96
871.469	9997.12
871.789	9951.02
872.109	9988.76
872.428	9875.09
872.748	9856.11
873.067	9873.96
873.386	9916.9
873.706	9857.69
874.025	9914.41
874.344	9808.43
874.663	9826.28
874.982	9771.37
875.301	9771.59
875.62	9770.24
875.939	9669.9
876.258	9738.15
876.577	9649.34
876.896	9731.37
877.214	9633.74
877.533	9690.47
877.852	9659.73
878.17	9609.56
878.489	9732.72
878.807	9600.07
879.125	9534.54
879.444	9589.68
879.762	9539.06
880.08	9506.97
880.398	9498.15
880.716	9510.81
881.034	9476.91
881.352	9454.99
881.67	9454.31
881.988	9447.99
882.306	9378.84
882.624	9385.84
882.941	9393.3
883.259	9404.37
883.577	9344.94
883.894	9212.29
884.212	9276.01
884.529	9197.37
884.846	9142.91
885.164	9232.4
885.481	9144.27
885.798	9210.03
886.115	9120.09
886.432	9120.31
886.75	9163.93
887.067	9050.48
887.383	9018.17
887.7	9066.08
888.017	8998.28
888.334	8971.16
888.651	8967.32
888.967	8961.45
889.284	8876.25
889.6	8908.79
889.917	8826.76
890.233	8870.37
890.55	8786.76
890.866	8830.6
891.182	8781.56
891.498	8761.45
891.815	8727.1
892.131	8654.33
892.447	8665.63
892.763	8590.16
893.079	8592.87
893.395	8573.21
893.71	8516.71
894.026	8523.04
894.342	8528.46
894.657	8491.63
894.973	8431.06
895.289	8471.06
895.604	8449.59
895.92	8358.3
896.235	8339.99
896.55	8362.82
896.865	8323.27
897.181	8236.04
897.496	8264.97
897.811	8216.83
898.126	8228.13
898.441	8199.88
898.756	8188.58
899.071	8061.81
899.386	8119.43
899.7	8082.37
900.015	8011.41
900.33	7935.71
900.644	7990.4
900.959	7965.99
901.273	7971.19
901.588	7878.76
901.902	7864.75
902.216	7831.08
902.531	7752.89
902.845	7748.82
903.159	7679.67
903.473	7712.66
903.787	7683.96
904.101	7617.3
904.415	7589.96
904.729	7573.23
905.042	7553.35
905.356	7525.55
905.67	7499.56
905.984	7474.48
906.297	7450.52
906.611	7421.15
906.924	7433.58
907.237	7324.65
907.551	7366.68
907.864	7303.41
908.177	7286.69
908.491	7236.29
908.804	7278.78
909.117	7200.59
909.43	7171.89
909.743	7146.13
910.056	7109.29
910.368	7066.35
910.681	7047.6
910.994	7029.74
911.307	6977.09
911.619	6933.48
911.932	6981.16
912.244	6875.85
912.557	6896.87
912.869	6855.96
913.181	6781.62
913.494	6773.25
913.806	6797.66
914.118	6701.39
914.43	6658
914.742	6703.88
915.054	6677.66
915.366	6611.45
915.678	6580.72
915.99	6605.57
916.302	6546.37
916.613	6489.42
916.925	6510.89
917.236	6502.07
917.548	6448.52
917.859	6366.26
918.171	6460.49
918.482	6378.69
918.794	6377.33
919.105	6315.19
919.416	6356.32
919.727	6295.3
920.038	6279.26
920.349	6205.13
920.66	6175.98
920.971	6191.57
921.282	6202.65
921.593	6133.72
921.903	6106.15
922.214	6008.75
922.525	6002.2
922.835	6003.1
923.146	5963.11
923.456	5934.63
923.767	5934.41
924.077	5891.24
924.387	5815.54
924.697	5895.31
925.008	5850.57
925.318	5873.84
925.628	5819.61
925.938	5751.81
926.248	5773.51
926.558	5703.45
926.867	5676.33
927.177	5648.31
927.487	5595.66
927.796	5592.95
928.106	5590.46
928.416	5605.83
928.725	5625.04
929.034	5500.75
929.344	5571.25
929.653	5505.26
929.962	5373.29
930.271	5454.87
930.581	5396.79
930.89	5364.25
931.199	5331.03
931.508	5363.57
931.817	5296
932.125	5299.17
932.434	5282.22
932.743	5223.01
933.051	5217.36
933.36	5228.21
933.669	5150.92
933.977	5119.29
934.286	5126.29
934.594	5131.72
934.902	5074.09
935.21	5060.76
935.519	5063.69
935.827	5059.4
936.135	5022.79
936.443	4969.69
936.751	4924.04
937.059	4980.31
937.367	4927.2
937.674	4943.02
937.982	4853.98
938.29	4823.93
938.597	4852.63
938.905	4809.01
939.213	4799.75
939.52	4703.7
939.827	4781.22
940.135	4748
940.442	4718.17
940.749	4749.13
941.056	4700.99
941.363	4612.86
941.67	4600.43
941.977	4593.2
942.284	4575.35
942.591	4527.89
942.898	4542.13
943.205	4551.17
943.511	4510.71
943.818	4520.88
944.125	4460.32
944.431	4471.17
944.738	4450.6
945.044	4350.72
945.35	4391.17
945.657	4391.85
945.963	4355.69
946.269	4324.96
946.575	4330.83
946.881	4272.08
947.187	4288.57
947.493	4273.21
947.799	4291.74
948.105	4216.71
948.41	4210.84
948.716	4205.64
949.022	4143.49
949.327	4206.99
949.633	4163.38
949.938	4145.53
950.244	4145.75
950.549	4124.96
950.854	4057.62
951.16	4033.89
951.465	4018.07
951.77	4060.56
952.075	4025.98
952.38	3982.14
952.685	4011.52
952.99	3966.55
953.294	3923.84
953.599	3889.04
953.904	3877.06
954.209	3837.29
954.513	3819.21
954.818	3878.64
955.122	3845.2
955.426	3792.54
955.731	3817.63
956.035	3787.57
956.339	3755.03
956.643	3740.57
956.948	3728.81
957.252	3740.34
957.556	3744.63
957.86	3709.38
958.163	3666.44
958.467	3663.28
958.771	3613.56
959.075	3647.46
959.378	3604.52
959.682	3583.73
959.985	3569.5
960.289	3588.93
960.592	3566.78
960.896	3561.14
961.199	3530.4
961.502	3531.76
961.805	3466.67
962.108	3442.04
962.411	3480.46
962.714	3424.19
963.017	3413.57
963.32	3446.34
963.623	3425.77
963.926	3344.19
964.228	3387.35
964.531	3334.93
964.833	3364.08
965.136	3316.85
965.438	3333.12
965.741	3312.78
966.043	3263.97
966.345	3277.07
966.648	3243.4
966.95	3218.09
967.252	3231.65
967.554	3199.56
967.856	3213.57
968.158	3160.69
968.46	3158.66
968.761	3141.26
969.063	3131.32
969.365	3141.03
969.666	3102.16
969.968	3083.86
970.269	3107.36
970.571	3066.68
970.872	3072.56
971.174	3042.5
971.475	3012.22
971.776	3034.82
972.077	2986.46
972.378	3012
972.679	3040.7
972.98	3007.25
973.281	2971.32
973.582	2960.47
973.883	2955.95
974.183	2919.12
974.484	2903.75
974.785	2882.96
975.085	2895.84
975.386	2897.42
975.686	2819.69
975.986	2859.01
976.287	2808.61
976.587	2793.02
976.887	2802.29
977.187	2797.31
977.487	2811.55
977.787	2767.48
978.087	2748.5
978.387	2722.74
978.687	2744.21
978.987	2731.78
979.286	2727.48
979.586	2712.12
979.885	2687.26
980.185	2659.92
980.484	2677.54
980.784	2679.8
981.083	2644.1
981.382	2639.13
981.682	2601.61
981.981	2609.52
982.28	2557.09
982.579	2575.4
982.878	2602.52
983.177	2542.18
983.475	2583.08
983.774	2534.5
984.073	2511.45
984.372	2525.46
984.67	2492.91
984.969	2485.01
985.267	2466.02
985.566	2493.37
985.864	2436.64
986.162	2435.97
986.461	2466.47
986.759	2392.8
987.057	2419.02
987.355	2405.46
987.653	2399.81
987.951	2367.72
988.249	2391.67
988.547	2380.15
988.844	2363.88
989.142	2319.81
989.44	2362.52
989.737	2306.25
990.035	2322.98
990.332	2301.96
990.63	2314.39
990.927	2271.68
991.224	2269.19
991.521	2260.38
991.819	2231.45
992.116	2248.4
992.413	2244.33
992.71	2217.44
993.006	2209.76
993.303	2238.46
993.6	2179.02
993.897	2190.55
994.193	2192.13
994.49	2157.33
994.787	2176.31
995.083	2116.65
995.379	2142.87
995.676	2098.8
995.972	2092.47
996.268	2109.42
996.565	2083.43
996.861	2074.85
997.157	2065.36
997.453	2080.04
997.749	2057.45
998.044	2050.67
998.34	2026.94
998.636	2028.29
998.932	2007.73
999.227	2001.18
999.523	1966.15
999.818	1991.68
1000.114	1987.62
1000.409	1945.36
1000.704	1955.3
1001	1946.04
1001.295	1917.34
1001.59	1893.16
1001.885	1918.01
1002.18	1917.34
1002.475	1877.11
1002.77	1891.35
1003.065	1876.89
1003.359	1877.34
1003.654	1856.32
1003.949	1843.67
1004.243	1841.86
1004.538	1836.89
1004.832	1830.11
1005.127	1798.92
1005.421	1783.33
1005.715	1780.62
1006.009	1767.74
1006.304	1766.38
1006.598	1756.21
1006.892	1721.41
1007.186	1733.84
1007.48	1736.78
1007.773	1723.22
1008.067	1696.33
1008.361	1673.05
1008.655	1703.33
1008.948	1657.46
1009.242	1698.36
1009.535	1649.32
1009.829	1664.69
1010.122	1621.3
1010.415	1627.17
1010.708	1637.12
1011.001	1598.47
1011.295	1617.91
1011.588	1585.82
1011.881	1591.02
1012.173	1584.69
1012.466	1564.13
1012.759	1564.35
1013.052	1537.01
1013.344	1516.44
1013.637	1516.67
1013.93	1542.88
1014.222	1490.91
1014.514	1502.21
1014.807	1520.74
1015.099	1482.77
1015.391	1521.19
1015.683	1504.01
1015.976	1453.62
1016.268	1444.35
1016.56	1437.8
1016.851	1447.52
1017.143	1466.05
1017.435	1441.87
1017.727	1433.73
1018.018	1387.18
1018.31	1422.89
1018.602	1390.8
1018.893	1367.07
1019.185	1392.83
1019.476	1374.53
1019.767	1340.18
1020.058	1333.4
1020.35	1313.74
1020.641	1338.82
1020.932	1300.18
1021.223	1322.32
1021.514	1315.54
1021.804	1285.71
1022.095	1260.86
1022.386	1271.48
1022.677	1273.06
1022.967	1286.84
1023.258	1248.43
1023.548	1256.79
1023.839	1247.75
1024.129	1252.95
1024.419	1219.05
1024.709	1213.85
1025	1230.12
1025.29	1191.48
1025.58	1183.34
1025.87	1194.87
1026.16	1174.31
1026.449	1175.21
1026.739	1158.49
1027.029	1157.81
1027.319	1159.39
1027.608	1135.21
1027.898	1137.24
1028.187	1146.06
1028.477	1122.56
1028.766	1130.01
1029.055	1120.3
1029.344	1109.67
1029.634	1088.66
1029.923	1114.87
1030.212	1078.94
1030.501	1069.68
1030.79	1054.99
1031.078	1069.68
1031.367	1038.26
1031.656	1051.14
1031.945	1035.55
1032.233	1033.97
1032.522	1032.16
1032.81	1012.28
1033.099	1010.69
1033.387	1001.2
1033.675	1007.3
1033.963	1003.01
1034.251	984.03
1034.54	961.88
1034.828	968.89
1035.116	984.71
1035.403	952.16
1035.691	939.74
1035.979	933.86
1036.267	954.42
1036.554	935.89
1036.842	937.25
1037.129	942.9
1037.417	946.51
1037.704	949.68
1037.992	894.99
1038.279	896.8
1038.566	888.66
1038.853	888.66
1039.14	888.66
