Data from hue_50_FLMS001491_8.txt Node
Date: Mon Feb 06 15:09:30 GMT 2017
User: dcchb
Spectrometer: FLMS00149
Trigger mode: 0
Integration Time (sec): 2.000000E-2
Scans to average: 10
Electric dark correction enabled: true
Nonlinearity correction enabled: false
Boxcar width: 0
XAxis mode: Wavelengths
Number of Pixels in Spectrum: 2048
>>>>>Begin Spectral Data<<<<<
341.393	1.2
341.776	1.2
342.16	1.2
342.543	-56.2
342.927	-62.53
343.31	-79.7
343.693	-79.93
344.077	-64.79
344.46	-45.13
344.843	-42.19
345.226	-43.09
345.61	-33.37
345.993	1.43
346.376	-29.31
346.759	-0.38
347.142	29.9
347.525	43.91
347.908	74.19
348.291	53.63
348.674	98.6
349.057	116.23
349.44	135.66
349.823	126.62
350.206	169.78
350.588	178.37
350.971	221.08
351.354	210.46
351.737	235.32
352.119	257.92
352.502	244.13
352.884	271.48
353.267	290.46
353.65	292.49
354.032	289.33
354.414	300.4
354.797	320.74
355.179	326.39
355.562	312.83
355.944	335.43
356.326	326.39
356.709	320.29
357.091	329.1
357.473	341.3
357.855	323.45
358.238	325.49
358.62	339.27
359.002	333.4
359.384	337.24
359.766	346.73
360.148	333.62
360.53	334.75
360.912	350.57
361.294	339.04
361.676	342.21
362.057	339.04
362.439	337.91
362.821	341.3
363.203	316.67
363.584	330.01
363.966	323.9
364.348	325.71
364.729	345.82
365.111	333.85
365.493	311.93
365.874	337.69
366.256	300.63
366.637	305.6
367.019	311.25
367.4	309.22
367.781	320.97
368.163	318.93
368.544	306.28
368.925	319.38
369.306	311.25
369.688	309.67
370.069	318.93
370.45	293.17
370.831	316.67
371.212	329.55
371.593	300.4
371.974	315.32
372.355	317.58
372.736	306.96
373.117	334.98
373.498	316.45
373.879	322.1
374.26	300.18
374.641	305.37
375.021	323.68
375.402	309.44
375.783	300.18
376.163	325.49
376.544	336.78
376.925	337.91
377.305	332.49
377.686	322.32
378.066	312.6
378.447	333.62
378.827	306.96
379.208	332.94
379.588	327.52
379.968	329.1
380.349	344.02
380.729	326.62
381.109	337.01
381.489	344.24
381.87	326.62
382.25	340.17
382.63	348.54
383.01	337.01
383.39	329.78
383.77	333.85
384.15	351.02
384.53	335.88
384.91	349.21
385.29	330.68
385.67	340.63
386.049	349.44
386.429	339.95
386.809	356.45
387.189	343.56
387.568	356.67
387.948	352.38
388.328	357.12
388.707	354.64
389.087	356.67
389.466	372.26
389.846	345.6
390.225	379.27
390.605	339.95
390.984	367.74
391.363	352.6
391.743	359.84
392.122	369.55
392.501	364.81
392.881	381.3
393.26	372.49
393.639	360.74
394.018	350.12
394.397	374.52
394.776	371.36
395.155	365.71
395.534	368.42
395.913	372.49
396.292	389.66
396.671	376.11
397.05	362.32
397.429	377.69
397.808	376.33
398.186	381.53
398.565	366.16
398.944	364.13
399.323	385.15
399.701	391.02
400.08	388.31
400.458	361.19
400.837	367.07
401.215	396.67
401.594	376.33
401.972	377.46
402.351	393.28
402.729	379.04
403.107	378.14
403.486	384.92
403.864	390.34
404.242	397.57
404.62	391.47
404.999	414.07
405.377	394.41
405.755	413.39
406.133	373.62
406.511	412.04
406.889	387.18
407.267	404.13
407.645	391.92
408.023	438.03
408.401	387.63
408.779	423.11
409.156	425.37
409.534	398.03
409.912	427.4
410.29	430.34
410.667	453.17
411.045	424.01
411.422	405.71
411.8	416.1
412.178	439.38
412.555	405.94
412.933	426.95
413.31	421.08
413.687	449.78
414.065	457.69
414.442	454.52
414.819	446.16
415.197	444.35
415.574	454.07
415.951	463.56
416.328	465.37
416.705	461.75
417.082	477.8
417.46	489.1
417.837	491.36
418.214	481.64
418.591	469.21
418.967	488.65
419.344	451.36
419.721	472.15
420.098	480.96
420.475	479.61
420.852	483
421.228	504.01
421.605	485.26
421.982	500.85
422.358	514.86
422.735	498.14
423.111	495.42
423.488	521.86
423.864	510.79
424.241	506.05
424.617	505.14
424.994	527.51
425.37	523.22
425.746	533.62
426.123	526.84
426.499	527.29
426.875	527.06
427.251	520.73
427.627	543.33
428.003	537.23
428.379	549.66
428.756	549.89
429.132	555.54
429.507	547.4
429.883	550.79
430.259	561.64
430.635	568.64
431.011	578.36
431.387	580.85
431.763	568.87
432.138	580.85
432.514	595.08
432.89	576.33
433.265	607.06
433.641	609.32
434.016	602.09
434.392	589.21
434.767	604.8
435.143	623.11
435.518	608.64
435.894	610.9
436.269	625.36
436.644	641.41
437.02	637.12
437.395	641.64
437.77	645.93
438.145	661.3
438.52	657
438.895	654.06
439.271	662.2
439.646	675.99
440.021	695.87
440.395	691.35
440.77	678.7
441.145	675.99
441.52	688.41
441.895	681.41
442.27	713.72
442.645	684.12
443.019	697.45
443.394	697.23
443.769	727.74
444.143	695.87
444.518	708.3
444.892	708.98
445.267	713.72
445.641	720.5
446.016	740.39
446.39	750.11
446.764	721.86
447.139	731.8
447.513	710.11
447.887	734.97
448.262	755.08
448.636	751.01
449.01	755.76
449.384	755.3
449.758	762.76
450.132	766.6
450.506	761.86
450.88	756.89
451.254	780.39
451.628	800.73
452.002	787.17
452.376	779.03
452.75	809.77
453.123	825.59
453.497	827.85
453.871	836.21
454.244	838.24
454.618	829.2
454.992	847.51
455.365	842.53
455.739	851.8
456.112	877.34
456.486	898.8
456.859	881.18
457.232	878.24
457.606	907.84
457.979	890.44
458.352	896.32
458.725	911.46
459.099	937.9
459.472	957.56
459.845	965.47
460.218	960.95
460.591	951.01
460.964	983.55
461.337	1018.35
461.71	996.2
462.083	1013.15
462.456	1023.32
462.829	1026.94
463.201	1062.19
463.574	1054.28
463.947	1082.53
464.32	1067.61
464.692	1110.32
465.065	1108.74
465.438	1113.71
465.81	1155.29
466.183	1162.3
466.555	1190.1
466.928	1185.12
467.3	1172.47
467.672	1225.12
468.045	1233.26
468.417	1252.92
468.789	1258.57
469.161	1272.81
469.534	1309.87
469.906	1336.08
470.278	1360.26
470.65	1386.7
471.022	1367.27
471.394	1425.8
471.766	1433.93
472.138	1472.57
472.51	1496.98
472.882	1551.67
473.253	1569.29
473.625	1581.95
473.997	1624.21
474.369	1659.01
474.74	1661.04
475.112	1731.55
475.484	1753.47
475.855	1786.92
476.227	1845.22
476.598	1910.98
476.97	1917.31
477.341	1976.74
477.713	2025.33
478.084	2078.43
478.455	2137.19
478.827	2149.62
479.198	2233.23
479.569	2286.56
479.94	2387.58
480.311	2422.15
480.682	2478.42
481.053	2607.69
481.424	2669.83
481.795	2798.19
482.166	2807.45
482.537	2906.89
482.908	2962.7
483.279	3040.22
483.65	3097.39
484.021	3201.12
484.391	3319.08
484.762	3391.39
485.133	3462.35
485.503	3531.28
485.874	3662.8
486.244	3747.54
486.615	3889.23
486.985	3947.99
487.356	4096.46
487.726	4170.58
488.097	4353.63
488.467	4426.17
488.837	4530.8
489.207	4614.19
489.578	4719.04
489.948	4923.11
490.318	5021.86
490.688	5064.57
491.058	5217.56
491.428	5398.35
491.798	5414.39
492.168	5609.19
492.538	5698
492.908	5822.06
493.278	6016.18
493.648	6060.25
494.017	6188.16
494.387	6317.64
494.757	6437.87
495.126	6608.71
495.496	6740.68
495.866	6865.2
496.235	6948.81
496.605	7091.18
496.974	7170.96
497.344	7327.56
497.713	7402.81
498.082	7518.07
498.452	7672.64
498.821	7826.53
499.19	7827.44
499.559	8021.1
499.928	8169.8
500.298	8308.33
500.667	8418.38
501.036	8492.05
501.405	8681.2
501.774	8655.89
502.143	8816.11
502.512	8936.33
502.88	9061.75
503.249	9148.08
503.618	9256.32
503.987	9375.87
504.356	9482.99
504.724	9629.42
505.093	9638.46
505.462	9729.08
505.83	9956.19
506.199	10011.11
506.567	10137.88
506.936	10193.02
507.304	10343.98
507.672	10444.99
508.041	10542.39
508.409	10658.32
508.777	10741.94
509.145	10896.51
509.514	10989.61
509.882	11054.47
510.25	11165.88
510.618	11223.96
510.986	11314.12
511.354	11478.41
511.722	11579.88
512.09	11686.09
512.458	11741.23
512.826	11839.53
513.193	11941.9
513.561	12069.58
513.929	12157.49
514.297	12352.51
514.664	12444.72
515.032	12475.22
515.4	12640.42
515.767	12697.36
516.135	12794.31
516.502	12738.04
516.869	13057.35
517.237	13132.61
517.604	13055.55
517.972	13253.28
518.339	13302.77
518.706	13373.5
519.073	13560.17
519.44	13551.13
519.808	13801.97
520.175	13721.74
520.542	14020.72
520.909	13976.88
521.276	14078.8
521.643	14273.37
522.009	14375.06
522.376	14405.34
522.743	14496.86
523.11	14713.81
523.477	14779.34
523.843	14907.7
524.21	15003.52
524.577	15215.04
524.943	15352.21
525.31	15354.47
525.676	15516.27
526.043	15462.49
526.409	15680.34
526.776	15853.89
527.142	15921.91
527.508	16011.18
527.874	16174.11
528.241	16269.25
528.607	16300.21
528.973	16507.66
529.339	16453.88
529.705	16575.45
530.071	16749.01
530.437	16869.91
530.803	16996.01
531.169	17043.46
531.535	16986.06
531.901	17092.95
532.267	17161.65
532.632	17341.54
532.998	17491.81
533.364	17516.22
533.73	17592.15
534.095	17671.92
534.461	17776.33
534.826	17882.99
535.192	17926.6
535.557	18114.4
535.923	18020.16
536.288	18229.42
536.653	18257.9
537.019	18259.93
537.384	18301.74
537.749	18506.25
538.114	18438.46
538.479	18551.22
538.845	18726.58
539.21	18613.59
539.575	18729.97
539.94	18737.43
540.305	18888.39
540.67	18811.55
541.034	19038.44
541.399	19059.23
541.764	19171.77
542.129	19229.17
542.494	19221.94
542.858	19328.6
543.223	19394.59
543.587	19511.87
543.952	19502.16
544.316	19626.67
544.681	19620.57
545.045	19742.15
545.41	19752.77
545.774	19923.39
546.138	19922.71
546.503	19952.54
546.867	19968.13
547.231	20108.24
547.595	20181.46
547.959	20254.45
548.324	20261.68
548.688	20398.4
549.052	20427.1
549.416	20537.38
549.779	20488.57
550.143	20587.1
550.507	20687.44
550.871	20782.8
551.235	20742.12
551.599	21062.34
551.962	21077.03
552.326	21079.97
552.689	21136.46
553.053	21163.81
553.417	21067.54
553.78	21418.26
554.143	21382.79
554.507	21433.18
554.87	21499.17
555.234	21838.37
555.597	21630.46
555.96	21726.28
556.323	21829.33
556.686	21875.2
557.05	22047.85
557.413	22120.17
557.776	22175.08
558.139	22388.18
558.502	22253.95
558.865	22399.93
559.228	22658.01
559.59	22596.31
559.953	22746.14
560.316	22937.09
560.679	22974.83
561.041	23085.57
561.404	23159.91
561.767	23231.32
562.129	23241.27
562.492	23466.12
562.854	23352.22
563.217	23519.45
563.579	23558.1
563.941	23720.8
564.304	23772.55
564.666	23962.6
565.028	24056.61
565.39	24159.21
565.753	24227.46
566.115	24340.67
566.477	24342.48
566.839	24575.47
567.201	24724.84
567.563	24636.94
567.925	24901.56
568.287	24791.06
568.648	24918.51
569.01	24984.72
569.372	25233.76
569.734	25205.51
570.095	25401.66
570.457	25426.07
570.819	25563.92
571.18	25595.56
571.542	25688.66
571.903	25802.56
572.265	25836.23
572.626	25890.01
572.987	26019.73
573.349	26143.79
573.71	26165.26
574.071	26293.84
574.432	26325.93
574.794	26596.43
575.155	26555.3
575.516	26575.42
575.877	26677.56
576.238	26748.52
576.599	26964.33
576.96	27063.77
577.32	27077.55
577.681	27117.1
578.042	27314.38
578.403	27344.21
578.763	27347.15
579.124	27551.44
579.485	27626.46
579.845	27743.97
580.206	27802.5
580.566	27818.32
580.927	27956.17
581.287	28056.96
581.648	28055.38
582.008	28230.51
582.368	28328.82
582.728	28427.35
583.089	28465.99
583.449	28531.75
583.809	28765.64
584.169	28802.25
584.529	28855.13
584.889	29266.87
585.249	29060.1
585.609	29145.97
585.969	29397.49
586.329	29227.78
586.688	29490.82
587.048	29504.15
587.408	29568.33
587.768	29787.31
588.127	29726.97
588.487	29823.69
588.846	30036.12
589.206	29972.62
589.565	30091.71
589.925	30310.23
590.284	30274.3
590.643	30463.9
591.003	30599.94
591.362	30723.33
591.721	30801.75
592.08	30934.4
592.44	31145.24
592.799	31178.46
593.158	31184.11
593.517	31212.13
593.876	31331.68
594.235	31385.91
594.593	31549.98
594.952	31731.67
595.311	31663.64
595.67	31828.39
596.029	32123.97
596.387	32078.78
596.746	32192.9
597.104	32108.83
597.463	32238.32
597.822	32425.21
598.18	32471.31
598.538	32546.79
598.897	32783.39
599.255	32366
599.613	33079.65
599.972	32989.03
600.33	32967.57
600.688	32970.28
601.046	33115.81
601.404	33252.98
601.762	33221.34
602.12	33542.01
602.478	33610.26
602.836	33665.63
603.194	33505.4
603.552	33641.22
603.91	33689.58
604.268	33764.83
604.625	33675.8
604.983	33996.24
605.341	33933.64
605.698	34164.14
606.056	34243.69
606.413	34338.83
606.771	34509.67
607.128	34505.83
607.485	34346.74
607.843	34635.09
608.2	34685.71
608.557	34896.78
608.914	34765.94
609.272	35075.53
609.629	35089.09
609.986	35153.5
610.343	35113.05
610.7	35437.78
611.057	35406.15
611.414	35387.39
611.771	35591.9
612.127	35659.25
612.484	35573.6
612.841	35883.65
613.198	35670.32
613.554	35785.12
613.911	35966.36
614.267	36080.7
614.624	35960.48
614.98	36134.71
615.337	36295.39
615.693	36248.84
616.05	36274.82
616.406	36598.43
616.762	36401.6
617.118	36453.58
617.475	36494.25
617.831	36736.96
618.187	36598.43
618.543	36695.38
618.899	36984.41
619.255	36925.2
619.611	37052.66
619.967	36950.96
620.323	37168.36
620.678	37091.75
621.034	36953
621.39	37103.28
621.746	37101.02
622.101	37463.04
622.457	37097.4
622.812	37268.92
623.168	37445.87
623.523	37405.64
623.879	37494.23
624.234	37326.77
624.589	37426.43
624.945	37475.47
625.3	37574.45
625.655	37571.96
626.01	37616.03
626.365	37643.37
626.72	37602.02
627.075	37593.21
627.43	37701.45
627.785	37637.95
628.14	37585.97
628.495	37721.79
628.85	37587.1
629.205	37577.84
629.559	37787.78
629.914	37602.47
630.269	37681.34
630.623	37764.73
630.978	37568.8
631.332	37751.85
631.687	37838.4
632.041	37782.35
632.396	37728.34
632.75	37601.57
633.104	37679.98
633.459	37537.16
633.813	37571.96
634.167	37597.95
634.521	37508.91
634.875	37618.74
635.229	37580.33
635.583	37446.09
635.937	37475.24
636.291	37390.27
636.645	37325.42
636.999	37424.62
637.352	37580.55
637.706	37358.18
638.06	37421.01
638.413	37353.66
638.767	37214.69
639.121	37403.83
639.474	37094.24
639.828	37225.98
640.181	37271.41
640.534	37447.22
640.888	37223.27
641.241	37110.51
641.594	37097.63
641.947	37215.14
642.301	37215.59
642.654	37036.61
643.007	37120.45
643.36	37079.32
643.713	37032.54
644.066	37223.27
644.419	36910.74
644.771	36710.97
645.124	36331.77
645.477	36283.18
645.83	36001.84
646.182	35923.19
646.535	35765.23
646.888	35924.55
647.24	35582.41
647.593	35856.75
647.945	35976.53
648.298	35658.79
648.65	35683.65
649.002	35546.71
649.355	35786.47
649.707	35698.12
650.059	35798.68
650.411	36133.81
650.763	36226.69
651.115	36717.98
651.467	36489.51
651.819	36465.78
652.171	36320.47
652.523	36265.11
652.875	36379
653.227	36148.95
653.578	36391.43
653.93	36406.8
654.282	36215.16
654.633	36173.58
654.985	36187.59
655.337	36165.22
655.688	36142.85
656.039	36463.29
656.391	36080.48
656.742	36042.51
657.094	36207.71
657.445	36290.19
657.796	36167.93
658.147	36053.59
658.498	35897.66
658.849	36245.45
659.2	35958
659.551	35881.61
659.902	36114.6
660.253	36115.05
660.604	36098.56
660.955	35820.82
661.306	36094.71
661.656	35978.56
662.007	36017.43
662.358	35863.08
662.708	35959.35
663.059	36075.73
663.409	35785.34
663.76	36053.81
664.11	36031.44
664.461	36080.93
664.811	35877.77
665.161	35832.8
665.511	35923.42
665.862	35914.15
666.212	36015.62
666.562	36001.61
666.912	35959.58
667.262	35811.33
667.612	35816.76
667.962	35901.27
668.312	35801.62
668.662	35961.16
669.011	35703.54
669.361	35777.89
669.711	35857.21
670.06	35686.14
670.41	35639.59
670.76	35602.3
671.109	35759.13
671.459	35762.75
671.808	35622.64
672.157	35686.82
672.507	35475.52
672.856	35487.27
673.205	35537.89
673.554	35711.45
673.904	35529.31
674.253	35658.34
674.602	35626.48
674.951	35081.18
675.3	34990.34
675.649	35432.81
675.998	35385.13
676.346	35503.09
676.695	35588.06
677.044	35268.97
677.393	35387.16
677.741	35518.01
678.09	35312.14
678.438	35203.21
678.787	35300.16
679.135	35193.04
679.484	35095.19
679.832	35194.17
680.181	34985.59
680.529	35102.65
680.877	35003.22
681.225	35040.51
681.573	35204.12
681.922	34925.48
682.27	34847.52
682.618	34854.52
682.966	34738.14
683.314	34821.53
683.661	34772.26
684.009	34611.36
684.357	34482.1
684.705	34588.54
685.053	34346.51
685.4	34415.44
685.748	34251.6
686.095	34302.9
686.443	34251.83
686.79	34144.48
687.138	34313.29
687.485	34071.27
687.832	34085.05
688.18	33956.47
688.527	33897.26
688.874	33744.95
689.221	33799.63
689.568	33692.29
689.915	33538.17
690.262	33674.44
690.609	33513.99
690.956	33488.23
691.303	33384.05
691.65	33181.35
691.997	33266.99
692.344	33089.6
692.69	33095.25
693.037	33135.24
693.383	32700.91
693.73	32931.41
694.077	32617.07
694.423	32780.23
694.769	32645.54
695.116	32590.17
695.462	32376.85
695.808	32410.29
696.155	32433.12
696.501	32274.7
696.847	32116.74
697.193	31989.96
697.539	32032.45
697.885	31784.09
698.231	31856.18
698.577	31693.02
698.923	31643.76
699.269	31563.53
699.614	31491.45
699.96	31307.5
700.306	31339.59
700.651	31302.07
700.997	31306.37
701.342	31200.83
701.688	31111.34
702.033	30965.36
702.379	30943.66
702.724	30798.58
703.069	30929.2
703.415	30539.61
703.76	30571.24
704.105	30613.95
704.45	30550.45
704.795	30314.08
705.14	30215.77
705.485	30193.63
705.83	30204.93
706.175	30203.57
706.52	30071.37
706.865	29985.95
707.209	29946.85
707.554	29891.26
707.899	29906.4
708.243	29763.81
708.588	29713.87
708.932	29559.97
709.277	29603.36
709.621	29524.49
709.966	29192.98
710.31	29442.46
710.654	29202.92
710.998	29197.95
711.342	29099.42
711.687	29070.72
712.031	28927.67
712.375	28835.02
712.719	28858.07
713.063	28831.18
713.407	28889.93
713.75	28786.66
714.094	28666.66
714.438	28659.88
714.782	28621.24
715.125	28494.91
715.469	28563.84
715.812	28374.01
716.156	28307.35
716.499	28195.71
716.843	28306.22
717.186	28150.29
717.53	28437.29
717.873	28167.92
718.216	28082.72
718.559	27965.89
718.902	27742.62
719.246	27872.11
719.589	27867.36
719.932	27619.68
720.275	27748.27
720.617	27552.57
720.96	27637.08
721.303	27677.99
721.646	27637.31
721.989	27466.02
722.331	27517.99
722.674	27341.27
723.016	27496.52
723.359	27408.16
723.701	27386.47
724.044	27133.59
724.386	27124.33
724.729	27266.92
725.071	27143.99
725.413	27233.25
725.755	27057.66
726.097	26916.88
726.439	26908.74
726.782	26805.24
727.124	26901.06
727.465	26849.99
727.807	26778.12
728.149	26707.84
728.491	26715.07
728.833	26756.2
729.175	26495.87
729.516	26425.36
729.858	26456.32
730.199	26497
730.541	26348.53
730.882	26375.42
731.224	26433.27
731.565	26313.05
731.906	26219.04
732.248	26343.56
732.589	26082.55
732.93	26117.35
733.271	26144.02
733.612	26175.43
733.953	26160.29
734.294	26005.94
734.635	26050.01
734.976	26122.77
735.317	25805.49
735.658	25753.74
735.999	25817.92
736.339	25776.79
736.68	25824.48
737.021	25786.06
737.361	25678.72
737.702	25740.18
738.042	25548.78
738.383	25568.66
738.723	25633.75
739.063	25444.6
739.404	25581.77
739.744	25416.13
740.084	25388.78
740.424	25444.37
740.764	25308.56
741.104	25366.86
741.444	25222.46
741.784	25190.14
742.124	25263.81
742.464	25055.68
742.804	25045.97
743.143	25026.53
743.483	25013.88
743.823	24960.09
744.162	24955.12
744.502	25021.56
744.841	24773.66
745.181	24973.2
745.52	24653.43
745.86	24871.51
746.199	24851.62
746.538	24701.12
746.877	24833.77
747.216	24805.07
747.556	24777.95
747.895	24523.27
748.234	24569.37
748.573	24463.83
748.911	24362.37
749.25	24424.74
749.589	24298.64
749.928	24300.45
750.267	24365.08
750.605	24278.3
750.944	24205.76
751.283	24216.83
751.621	24189.27
751.96	24044.18
752.298	24127.57
752.636	24099.32
752.975	23947.24
753.313	23871.31
753.651	23911.76
753.989	23831.53
754.327	23793.57
754.666	23495.5
755.004	23716.06
755.342	23705.21
755.679	23664.31
756.017	23467.02
756.355	23563.74
756.693	23424.09
757.031	23564.87
757.368	23337.31
757.706	23280.81
758.044	23217.09
758.381	23219.12
758.719	23158.33
759.056	23101.84
759.394	23010.77
759.731	22876.98
760.068	22896.64
760.405	22847.61
760.743	22752.01
761.08	22681.96
761.417	22661.62
761.754	22522.42
762.091	22508.86
762.428	22470.21
762.765	22218.02
763.102	22283.55
763.438	22198.36
763.775	22148.19
764.112	22095.08
764.449	21991.58
764.785	22006.27
765.122	21780.74
765.458	21749.78
765.795	21724.02
766.131	21787.52
766.467	21717.92
766.804	21522.67
767.14	21396.34
767.476	21479.73
767.812	21255.56
768.148	21368.32
768.485	21243.81
768.821	21137.82
769.157	21077.93
769.492	21046.3
769.828	21046.07
770.164	20799.75
770.5	20729.24
770.836	20853.53
771.171	20570.6
771.507	20638.62
771.842	20509.59
772.178	20511.17
772.513	20386.65
772.849	20399.08
773.184	20234.34
773.519	20270.27
773.855	20116.38
774.19	20036.38
774.525	20020.56
774.86	20037.96
775.195	19814.69
775.53	19804.3
775.865	19764.07
776.2	19578.09
776.535	19495.83
776.87	19400.24
777.205	19463.97
777.539	19368.83
777.874	19370.18
778.209	19177.42
778.543	19073.92
778.878	19055.16
779.212	19058.55
779.547	18959.35
779.881	18958.89
780.215	18807.94
780.55	18857.65
780.884	18694.04
781.218	18688.62
781.552	18639.13
781.886	18533.59
782.22	18426.93
782.554	18381.28
782.888	18226.26
783.222	18224.22
783.556	18121.4
783.889	18091.57
784.223	17932.71
784.557	17917.11
784.89	17973.38
785.224	17815.42
785.557	17608.65
785.891	17636.9
786.224	17643.9
786.558	17553.51
786.891	17511.25
787.224	17378.14
787.557	17347.64
787.891	17260.63
788.224	17247.98
788.557	17341.99
788.89	17169.11
789.223	17025.16
789.556	17038.72
789.888	16984.71
790.221	16938.38
790.554	16887.08
790.887	16783.36
791.219	16711.95
791.552	16694.32
791.884	16645.51
792.217	16603.7
792.549	16549.92
792.882	16411.16
793.214	16233.09
793.546	16364.16
793.879	16243.26
794.211	16133.88
794.543	16207.1
794.875	16100.21
795.207	16171.17
795.539	16056.6
795.871	16047.78
796.203	15779.32
796.535	15785.42
796.867	15817.51
797.198	15751.52
797.53	15599.21
797.862	15587.23
798.193	15593.11
798.525	15513.79
798.856	15551.53
799.188	15337.07
799.519	15328.71
799.85	15250.07
800.182	15303.4
800.513	15223.63
800.844	15090.75
801.175	15219.33
801.506	15154.7
801.837	15073.8
802.168	15027.7
802.499	14944.08
802.83	14953.8
803.161	14854.37
803.491	14792
803.822	14883.3
804.153	14804.88
804.483	14639.46
804.814	14597.65
805.145	14556.3
805.475	14511.55
805.805	14495.96
806.136	14551.1
806.466	14555.85
806.796	14443.76
807.126	14378.9
807.457	14311.78
807.787	14258
808.117	14231.79
808.447	14229.3
808.777	14230.88
809.107	14163.54
809.436	14035.86
809.766	14053.94
810.096	14020.27
810.426	13883.32
810.755	14030.66
811.085	13945.47
811.414	13853.49
811.744	13803.78
812.073	13915.18
812.403	13776.43
812.732	13728.07
813.061	13653.5
813.39	13563.33
813.719	13552.71
814.049	13575.98
814.378	13535.53
814.707	13451.02
815.036	13461.41
815.365	13408.76
815.693	13364.46
816.022	13275.2
816.351	13321.75
816.68	13127.86
817.008	13228.42
817.337	13149.1
817.665	13095.55
817.994	13136.67
818.322	13163.79
818.651	13085.38
818.979	12951.14
819.307	13034.3
819.636	13022.33
819.964	12982.55
820.292	12943.46
820.62	12939.62
820.948	12919.5
821.276	12939.17
821.604	12839.73
821.932	12923.12
822.259	12856.46
822.587	12855.55
822.915	12894.87
823.243	12924.93
823.57	12775.55
823.898	12861.88
824.225	12832.05
824.553	12831.37
824.88	12757.93
825.207	12835.89
825.535	12805.38
825.862	12764.25
826.189	12779.17
826.516	12825.27
826.843	12837.47
827.17	12792.73
827.497	12786.63
827.824	12764.03
828.151	12851.03
828.478	12801.77
828.805	12804.25
829.131	12788.43
829.458	12767.64
829.785	12651.94
830.111	12743.46
830.438	12846.51
830.764	12843.12
831.09	12750.92
831.417	12711.83
831.743	12733.52
832.069	12781.2
832.395	12700.53
832.722	12695.1
833.048	12714.31
833.374	12747.53
833.7	12660.98
834.026	12641.55
834.351	12693.07
834.677	12695.1
835.003	12605.61
835.329	12627.54
835.654	12601.1
835.98	12523.58
836.306	12602.9
836.631	12503.47
836.956	12526.29
837.282	12531.49
837.607	12473.19
837.932	12406.07
838.258	12436.13
838.583	12445.85
838.908	12313.19
839.233	12353.64
839.558	12358.16
839.883	12274.1
840.208	12260.99
840.533	12315.68
840.858	12293.31
841.182	12216.25
841.507	12254.44
841.832	12124.27
842.156	12151.84
842.481	12170.6
842.805	12146.19
843.13	12045.63
843.454	12085.4
843.778	11943.71
844.103	11978.51
844.427	11941
844.751	11986.65
845.075	11900.32
845.399	11891.74
845.723	11833.21
846.047	11839.08
846.371	11769.93
846.695	11713.66
847.019	11677.28
847.343	11559.99
847.666	11498.98
847.99	11475.25
848.313	11432.54
848.637	11375.36
848.96	11394.57
849.284	11334.24
849.607	11220.79
849.931	11153.9
850.254	11164.97
850.577	11077.52
850.9	11056.5
851.223	11008.37
851.546	10950.52
851.869	10950.29
852.192	10984.64
852.515	10811.99
852.838	10801.82
853.161	10769.73
853.483	10748.04
853.806	10717.3
854.129	10688.15
854.451	10614.71
854.774	10574.71
855.096	10539.91
855.419	10587.81
855.741	10555.5
856.063	10453.36
856.385	10459.23
856.708	10365.45
857.03	10339.46
857.352	10305.56
857.674	10285.45
857.996	10348.95
858.318	10235.06
858.64	10207.26
858.961	10188.73
859.283	10129.75
859.605	10125.23
859.926	10129.3
860.248	10061.5
860.57	10034.38
860.891	10021.5
861.212	9970.2
861.534	10008.4
861.855	10021.73
862.176	9945.12
862.498	9937.66
862.819	9960.71
863.14	9882.97
863.461	9904.22
863.782	9827.83
864.103	9880.94
864.424	9809.53
864.745	9772.92
865.065	9784.67
865.386	9767.05
865.707	9753.94
866.027	9730.21
866.348	9670.32
866.668	9654.28
866.989	9615.86
867.309	9560.5
867.63	9608.41
867.95	9646.6
868.27	9639.14
868.59	9565.69
868.91	9569.31
869.23	9539.03
869.55	9564.79
869.87	9495.87
870.19	9501.52
870.51	9534.74
870.83	9490.89
871.15	9425.59
871.469	9481.18
871.789	9444.57
872.109	9450.67
872.428	9314.18
872.748	9391.46
873.067	9389.43
873.386	9371.12
873.706	9365.47
874.025	9314.18
874.344	9301.52
874.663	9294.06
874.982	9317.34
875.301	9208.42
875.62	9233.95
875.939	9253.16
876.258	9214.97
876.577	9143.33
876.896	9198.25
877.214	9143.78
877.533	9151.69
877.852	9179.94
878.17	9121.19
878.489	9142.66
878.807	9105.14
879.125	9100.17
879.444	9026.5
879.762	9064.47
880.08	9029.21
880.398	8989.21
880.716	9009.78
881.034	8969.55
881.352	8970.23
881.67	8885.71
881.988	8916.9
882.306	8878.93
882.624	8891.59
882.941	8868.54
883.259	8796
883.577	8799.61
883.894	8814.98
884.212	8744.47
884.529	8713.29
884.846	8697.47
885.164	8695.44
885.481	8690.01
885.798	8653.18
886.115	8624.7
886.432	8574.31
886.75	8623.57
887.067	8609.56
887.383	8534.76
887.7	8582.9
888.017	8566.63
888.334	8531.37
888.651	8469.23
888.967	8468.32
889.284	8423.8
889.6	8412.05
889.917	8351.04
890.233	8353.52
890.55	8305.16
890.866	8368.44
891.182	8305.39
891.498	8294.09
891.815	8190.14
892.131	8231.04
892.447	8179.97
892.763	8214.54
893.079	8189.46
893.395	8073.08
893.71	8059.29
894.026	8081.44
894.342	8103.59
894.657	7991.27
894.973	7960.09
895.289	8036.7
895.604	7998.28
895.92	7872.18
896.235	7898.17
896.55	7887.55
896.865	7857.72
897.181	7831.5
897.496	7879.86
897.811	7840.99
898.126	7775.01
898.441	7745.63
898.756	7693.65
899.071	7660.66
899.386	7689.59
899.7	7655.91
900.015	7597.16
900.33	7507.44
900.644	7518.74
900.959	7535.24
901.273	7423.38
901.588	7468.12
901.902	7440.1
902.216	7413.21
902.531	7348.8
902.845	7378.18
903.159	7299.09
903.473	7281.69
903.787	7248.24
904.101	7204.63
904.415	7217.06
904.729	7208.02
905.042	7148.36
905.356	7154.23
905.67	7110.39
905.984	7145.19
906.297	7076.49
906.611	7026.1
906.924	7039.21
907.237	7044.86
907.551	6925.31
907.864	6933.22
908.177	6916.95
908.491	6892.54
908.804	6860.23
909.117	6765.32
909.43	6739.33
909.743	6681.48
910.056	6753.11
910.368	6706.11
910.681	6645.55
910.994	6634.47
911.307	6624.08
911.619	6580.24
911.932	6556.51
912.244	6500.69
912.557	6539.11
912.869	6504.31
913.181	6456.85
913.494	6457.98
913.806	6460.24
914.118	6352.9
914.43	6306.8
914.742	6313.35
915.054	6260.7
915.366	6296.63
915.678	6254.14
915.99	6205.78
916.302	6162.17
916.613	6177.31
916.925	6121.94
917.236	6158.78
917.548	6104.09
917.859	6101.38
918.171	6004.21
918.482	6029.06
918.794	6031.78
919.105	5990.87
919.416	5982.74
919.727	5895.28
920.038	5948.84
920.349	5858.67
920.66	5835.62
920.971	5855.28
921.282	5777.77
921.593	5775.74
921.903	5683.09
922.214	5733.03
922.525	5716.53
922.835	5657.1
923.146	5672.01
923.456	5612.13
923.767	5587.49
924.077	5568.51
924.387	5514.5
924.697	5560.83
925.008	5546.59
925.318	5470.21
925.628	5525.8
925.938	5486.71
926.248	5422.53
926.558	5414.62
926.867	5364.9
927.177	5356.54
927.487	5324.22
927.796	5330.55
928.106	5324.22
928.416	5236.77
928.725	5268.63
929.034	5201.29
929.344	5259.14
929.653	5183.89
929.962	5160.16
930.271	5125.36
930.581	5095.98
930.89	5122.65
931.199	5086.49
931.508	5080.16
931.817	5022.99
932.125	5036.32
932.434	5028.86
932.743	4921.3
933.051	4929.43
933.36	4916.1
933.669	4881.52
933.977	4847.4
934.286	4889.43
934.594	4818.47
934.902	4834.97
935.21	4779.38
935.519	4791.81
935.827	4747.97
936.135	4718.82
936.443	4708.87
936.751	4609.67
937.059	4666.61
937.367	4667.29
937.674	4650.8
937.982	4632.27
938.29	4649.89
938.597	4609.44
938.905	4572.15
939.213	4592.72
939.52	4493.96
939.827	4539.39
940.135	4454.42
940.442	4451.03
940.749	4488.31
941.056	4428.88
941.363	4403.34
941.67	4362.67
941.977	4385.27
942.284	4362.89
942.591	4356.79
942.898	4284.7
943.205	4332.84
943.511	4277.47
943.818	4289.9
944.125	4254.87
944.431	4229.56
944.738	4215.55
945.044	4175.55
945.35	4150.7
945.657	4127.87
945.963	4143.92
946.269	4072.51
946.575	4091.49
946.881	4052.85
947.187	4084.03
947.493	4032.05
947.799	4088.78
948.105	4037.25
948.41	3979.18
948.716	4010.13
949.022	3928.33
949.327	3976.92
949.633	3907.09
949.938	3931.49
950.244	3892.62
950.549	3852.85
950.854	3871.83
951.16	3852.17
951.465	3864.15
951.77	3813.08
952.075	3799.07
952.38	3797.48
952.685	3776.24
952.99	3746.41
953.294	3719.97
953.599	3686.53
953.904	3711.84
954.209	3676.13
954.513	3676.58
954.818	3676.13
955.122	3631.61
955.426	3608.11
955.731	3620.77
956.035	3589.58
956.339	3556.59
956.643	3567.43
956.948	3588.9
957.252	3521.33
957.556	3541.67
957.86	3489.92
958.163	3514.55
958.467	3491.96
958.771	3469.58
959.075	3446.99
959.378	3452.86
959.682	3422.58
959.985	3406.31
960.289	3389.59
960.592	3386.87
960.896	3336.93
961.199	3349.59
961.502	3337.38
961.805	3312.75
962.108	3302.36
962.411	3305.97
962.714	3270.04
963.017	3249.7
963.32	3289.48
963.623	3263.94
963.926	3200.89
964.228	3230.27
964.531	3155.69
964.833	3175.58
965.136	3172.42
965.438	3162.93
965.741	3134.68
966.043	3139.65
966.345	3099.65
966.648	3085.19
966.95	3045.87
967.252	3088.8
967.554	3042.48
967.856	3056.04
968.158	2997.28
968.46	3029.82
968.761	2986.43
969.063	3037.96
969.365	2954.34
969.666	2988.24
969.968	2957.06
970.269	2975.13
970.571	2941.01
970.872	2955.93
971.174	2887.45
971.475	2901.69
971.776	2904.85
972.077	2905.76
972.378	2855.36
972.679	2852.65
972.98	2816.72
973.281	2813.78
973.582	2795.25
973.883	2774.69
974.183	2779.88
974.484	2788.92
974.785	2765.87
975.085	2745.76
975.386	2745.31
975.686	2683.84
975.986	2696.95
976.287	2743.05
976.587	2662.6
976.887	2663.5
977.187	2657.85
977.487	2652.88
977.787	2637.29
978.087	2607.01
978.387	2634.58
978.687	2623.96
978.987	2587.8
979.286	2585.54
979.586	2574.01
979.885	2546.44
980.185	2557.74
980.484	2552.32
980.784	2487.69
981.083	2514.81
981.382	2481.59
981.682	2473
981.981	2509.61
982.28	2466.67
982.579	2451.08
982.878	2464.64
983.177	2404.53
983.475	2442.04
983.774	2431.87
984.073	2412.89
984.372	2371.99
984.67	2374.02
984.969	2363.17
985.267	2368.14
985.566	2331.99
985.864	2358.2
986.162	2310.29
986.461	2308.48
986.759	2313.46
987.057	2279.78
987.355	2309.61
987.653	2270.29
987.951	2274.59
988.249	2245.66
988.547	2225.32
988.844	2241.37
989.142	2237.98
989.44	2233.01
989.737	2210.86
990.035	2188.04
990.332	2200.01
990.63	2143.52
990.927	2146
991.224	2160.92
991.521	2168.6
991.819	2141.71
992.116	2149.17
992.413	2146.45
992.71	2117.08
993.006	2050.64
993.303	2092.67
993.6	2105.55
993.897	2065.78
994.193	2084.76
994.49	2059.9
994.787	2050.86
995.083	2026.01
995.379	2026.91
995.676	2053.35
995.972	2020.81
996.268	2015.16
996.565	1981.71
996.861	1974.26
997.157	1977.42
997.453	1943.52
997.749	1949.17
998.044	1940.13
998.34	1941.04
998.636	1924.54
998.932	1904.2
999.227	1897.2
999.523	1917.31
999.818	1859
1000.114	1866.01
1000.409	1882.73
1000.704	1879.57
1001	1819.68
1001.295	1832.34
1001.59	1829.18
1001.885	1800.7
1002.18	1817.2
1002.475	1809.51
1002.77	1798.44
1003.065	1781.94
1003.359	1760.93
1003.654	1767.03
1003.949	1726.35
1004.243	1724.55
1004.538	1720.48
1004.832	1756.63
1005.127	1746.69
1005.421	1709.18
1005.715	1727.03
1006.009	1694.49
1006.304	1697.65
1006.598	1673.7
1006.892	1644.55
1007.186	1640.03
1007.48	1657.65
1007.773	1645.45
1008.067	1624.66
1008.361	1623.98
1008.655	1625.11
1008.948	1596.19
1009.242	1589.63
1009.535	1589.63
1009.829	1577.2
1010.122	1592.57
1010.415	1540.37
1010.708	1572.23
1011.001	1556.64
1011.295	1535.85
1011.588	1517.77
1011.881	1525
1012.173	1522.06
1012.466	1511.67
1012.759	1490.88
1013.052	1517.32
1013.344	1501.73
1013.637	1470.99
1013.93	1463.31
1014.222	1459.02
1014.514	1458.56
1014.807	1425.8
1015.099	1399.36
1015.391	1424.67
1015.683	1407.04
1015.976	1433.03
1016.268	1398
1016.56	1379.7
1016.851	1365.46
1017.143	1389.86
1017.435	1388.73
1017.727	1347.83
1018.018	1362.07
1018.31	1344.67
1018.602	1309.64
1018.893	1311.45
1019.185	1332.69
1019.476	1305.57
1019.767	1281.39
1020.058	1292.24
1020.35	1276.2
1020.641	1278.91
1020.932	1247.72
1021.223	1289.98
1021.514	1230.77
1021.804	1239.81
1022.095	1225.58
1022.386	1235.52
1022.677	1213.6
1022.967	1231.9
1023.258	1215.18
1023.548	1204.11
1023.839	1226.25
1024.129	1163.88
1024.419	1156.42
1024.709	1182.64
1025	1167.27
1025.29	1139.48
1025.58	1141.51
1025.87	1139.02
1026.16	1114.84
1026.449	1108.52
1026.739	1115.07
1027.029	1113.94
1027.319	1094.05
1027.608	1097.67
1027.898	1111.23
1028.187	1079.59
1028.477	1079.59
1028.766	1036.2
1029.055	1045.47
1029.344	1047.27
1029.634	1033.26
1029.923	1037.78
1030.212	1028.97
1030.501	1049.31
1030.79	1031.68
1031.078	1027.61
1031.367	1013.15
1031.656	1005.02
1031.945	1004.79
1032.233	998.69
1032.522	982.87
1032.81	979.48
1033.099	1002.53
1033.387	961.4
1033.675	961.85
1033.963	958.92
1034.251	961.4
1034.54	941.97
1034.828	942.87
1035.116	942.42
1035.403	910.1
1035.691	904.68
1035.979	891.57
1036.267	904
1036.554	913.27
1036.842	901.06
1037.129	920.5
1037.417	884.12
1037.704	877.34
1037.992	895.41
1038.279	876.21
1038.566	850.22
1038.853	850.22
1039.14	850.22
