Data from hue_290_FLMS001491_00065.txt Node
Date: Tue Feb 07 15:53:04 GMT 2017
User: dcchb
Spectrometer: FLMS00149
Trigger mode: 0
Integration Time (sec): 2.000000E-2
Scans to average: 10
Electric dark correction enabled: true
Nonlinearity correction enabled: false
Boxcar width: 0
XAxis mode: Wavelengths
Number of Pixels in Spectrum: 2048
>>>>>Begin Spectral Data<<<<<
341.393	-9.59
341.776	-9.59
342.16	-9.59
342.543	-55.24
342.927	-42.36
343.31	-61.34
343.693	-81.45
344.077	-59.31
344.46	-61.57
344.843	-44.62
345.226	-17.5
345.61	-45.07
345.993	-36.93
346.376	-2.81
346.759	9.17
347.142	34.7
347.525	40.58
347.908	50.52
348.291	71.99
348.674	102.27
349.057	101.37
349.44	108.15
349.823	135.26
350.206	172.1
350.588	191.31
350.971	192.66
351.354	229.95
351.737	238.99
352.119	256.84
352.502	255.26
352.884	277.86
353.267	290.97
353.65	299.1
354.032	284.64
354.414	303.85
354.797	312.21
355.179	316.5
355.562	316.28
355.944	350.85
356.326	329.38
356.709	323.06
357.091	307.24
357.473	347.01
357.855	337.75
358.238	334.58
358.62	362.83
359.002	343.62
359.384	328.71
359.766	356.28
360.148	351.98
360.53	349.5
360.912	347.24
361.294	355.37
361.676	333.45
362.057	327.8
362.439	347.24
362.821	348.37
363.203	323.28
363.584	322.15
363.966	323.96
364.348	309.5
364.729	321.25
365.111	347.24
365.493	315.83
365.874	320.12
366.256	308.59
366.637	338.42
367.019	312.44
367.4	323.73
367.781	313.79
368.163	298.2
368.544	328.03
368.925	311.53
369.306	315.6
369.688	303.17
370.069	328.93
370.45	320.57
370.831	335.03
371.212	340.91
371.593	316.5
371.974	304.07
372.355	321.02
372.736	330.74
373.117	302.04
373.498	316.73
373.879	326.9
374.26	322.6
374.641	310.4
375.021	321.02
375.402	314.7
375.783	337.52
376.163	326.67
376.544	322.6
376.925	348.37
377.305	326.9
377.686	315.37
378.066	340.01
378.447	339.78
378.827	344.98
379.208	344.75
379.588	331.64
379.968	340.01
380.349	343.85
380.729	352.21
381.109	342.49
381.489	356.95
381.87	351.98
382.25	354.69
382.63	334.81
383.01	373.45
383.39	347.69
383.77	351.98
384.15	354.47
384.53	364.19
384.91	356.95
385.29	345.88
385.67	359.67
386.049	350.4
386.429	360.12
386.809	370.96
387.189	364.19
387.568	374.58
387.948	373.9
388.328	354.02
388.707	367.58
389.087	390.85
389.466	366.9
389.846	400.57
390.225	398.99
390.605	379.33
390.984	376.61
391.363	383.62
391.743	378.2
392.122	406.44
392.501	402.38
392.881	390.85
393.26	382.49
393.639	387.46
394.018	401.92
394.397	408.03
394.776	400.79
395.155	416.84
395.534	416.61
395.913	405.99
396.292	417.07
396.671	418.87
397.05	414.35
397.429	417.97
397.808	409.83
398.186	406.44
398.565	434.92
398.944	419.78
399.323	426.33
399.701	433.56
400.08	449.15
400.458	451.19
400.837	435.6
401.215	427.23
401.594	465.2
401.972	452.54
402.351	457.29
402.729	450.06
403.107	454.13
403.486	465.65
403.864	447.12
404.242	463.17
404.62	476.27
404.999	467.01
405.377	483.5
405.755	496.84
406.133	484.63
406.511	508.36
406.889	525.09
407.267	494.58
407.645	497.29
408.023	524.41
408.401	504.52
408.779	527.57
409.156	521.92
409.534	524.63
409.912	532.09
410.29	561.69
410.667	558.98
411.045	578.42
411.422	586.1
411.8	581.58
412.178	585.65
412.555	605.31
412.933	601.02
413.31	600.34
413.687	611.64
414.065	624.07
414.442	626.55
414.819	656.83
415.197	660.67
415.574	641.47
415.951	646.66
416.328	659.77
416.705	697.51
417.082	686.21
417.46	709.04
417.837	725.31
418.214	707.45
418.591	697.51
418.967	715.14
419.344	753.33
419.721	767.56
420.098	763.5
420.475	809.15
420.852	827
421.228	773.89
421.605	787.23
421.982	801.91
422.358	806.89
422.735	805.98
423.111	843.95
423.488	847.11
423.864	847.56
424.241	856.83
424.617	890.5
424.994	924.85
425.37	898.41
425.746	902.25
426.123	918.3
426.499	934.34
426.875	940.89
427.251	953.1
427.627	965.75
428.003	993.55
428.379	993.1
428.756	981.12
429.132	1009.59
429.507	1046.43
429.883	1026.77
430.259	1048.91
430.635	1035.58
431.011	1076.03
431.387	1091.17
431.763	1088.46
432.138	1081.23
432.514	1120.78
432.89	1170.27
433.265	1168.46
433.641	1191.51
434.016	1179.31
434.392	1197.61
434.767	1208
435.143	1225.18
435.518	1233.54
435.894	1231.51
436.269	1256.82
436.644	1298.4
437.02	1270.6
437.395	1303.82
437.77	1332.07
438.145	1340.2
438.52	1346.08
438.895	1362.8
439.271	1360.09
439.646	1423.59
440.021	1416.59
440.395	1415.01
440.77	1426.3
441.145	1437.38
441.52	1452.29
441.895	1456.13
442.27	1483.48
442.645	1448.9
443.019	1492.29
443.394	1484.61
443.769	1501.33
444.143	1514.21
444.518	1502.01
444.892	1532.06
445.267	1529.35
445.641	1560.31
446.016	1548.79
446.39	1536.36
446.764	1563.7
447.139	1549.92
447.513	1565.28
447.887	1590.82
448.262	1599.63
448.636	1608.9
449.01	1601.89
449.384	1608.22
449.758	1631.04
450.132	1610.93
450.506	1636.69
450.88	1617.49
451.254	1683.25
451.628	1681.66
452.002	1688.67
452.376	1698.39
452.75	1728.22
453.123	1690.48
453.497	1751.72
453.871	1777.26
454.244	1803.47
454.618	1758.95
454.992	1805.5
455.365	1808.22
455.739	1838.72
456.112	1854.09
456.486	1845.95
456.859	1868.33
457.232	1924.82
457.606	1882.56
457.979	1923.24
458.352	1909.68
458.725	1964.82
459.099	1983.8
459.472	2044.82
459.845	2018.83
460.218	2054.99
460.591	2037.81
460.964	2034.88
461.337	2075.55
461.71	2125.72
462.083	2133.63
462.456	2144.25
462.829	2128.88
463.201	2173.4
463.574	2151.26
463.947	2207.75
464.32	2200.07
464.692	2247.98
465.065	2255.66
465.438	2299.95
465.81	2329.56
466.183	2324.81
466.555	2334.75
466.928	2353.06
467.3	2327.3
467.672	2442.1
468.045	2488.88
468.417	2417.46
468.789	2444.58
469.161	2454.53
469.534	2498.37
469.906	2553.05
470.278	2581.98
470.65	2569.1
471.022	2631.02
471.394	2666.72
471.766	2678.25
472.138	2702.2
472.51	2741.75
472.882	2779.26
473.253	2773.39
473.625	2838.92
473.997	2878.02
474.369	2867.85
474.74	2845.7
475.112	2995.3
475.484	2981.52
475.855	3028.07
476.227	3029.43
476.598	3136.54
476.97	3132.93
477.341	3180.16
477.713	3261.51
478.084	3223.55
478.455	3314.39
478.827	3315.97
479.198	3403.65
479.569	3425.8
479.94	3463.31
480.311	3533.82
480.682	3595.06
481.053	3615.63
481.424	3656.3
481.795	3672.8
482.166	3701.5
482.537	3750.09
482.908	3795.73
483.279	3868.27
483.65	3877.77
484.021	3977.65
484.391	4022.39
484.762	4022.17
485.133	4037.54
485.503	4070.3
485.874	4118.21
486.244	4182.84
486.615	4256.29
486.985	4255.61
487.356	4326.12
487.726	4328.37
488.097	4418.54
488.467	4429.84
488.837	4495.6
489.207	4547.8
489.578	4607.92
489.948	4634.13
490.318	4641.36
490.688	4689.95
491.058	4738.99
491.428	4805.88
491.798	4838.19
492.168	4877.51
492.538	4929.72
492.908	4947.12
493.278	5031.63
493.648	5037.28
494.017	5098.98
494.387	5105.3
494.757	5208.35
495.126	5224.4
495.496	5220.33
495.866	5207.9
496.235	5309.14
496.605	5296.94
496.974	5375.35
497.344	5359.08
497.713	5383.04
498.082	5388.69
498.452	5472.98
498.821	5525.63
499.19	5538.06
499.559	5507.78
499.928	5557.04
500.298	5586.65
500.667	5624.84
501.036	5633.43
501.405	5665.06
501.774	5676.36
502.143	5671.39
502.512	5700.77
502.88	5788.68
503.249	5829.8
503.618	5815.79
503.987	5812.4
504.356	5839.3
504.724	5839.75
505.093	5838.84
505.462	5892.63
505.83	5959.97
506.199	5998.39
506.567	6021.21
506.936	6006.97
507.304	6053.08
507.672	6100.31
508.041	6145.73
508.409	6169.23
508.777	6180.76
509.145	6205.61
509.514	6161.55
509.882	6243.13
510.25	6237.25
510.618	6267.53
510.986	6312.5
511.354	6339.17
511.722	6280.87
512.09	6450.35
512.458	6358.38
512.826	6399.96
513.193	6453.06
513.561	6427.53
513.929	6493.06
514.297	6533.74
514.664	6537.13
515.032	6591.59
515.4	6595.21
515.767	6618.71
516.135	6652.16
516.502	6597.92
516.869	6677.92
517.237	6726.05
517.604	6710.46
517.972	6742.55
518.339	6700.52
518.706	6842.66
519.073	6788.88
519.44	6800.63
519.808	6839.04
520.175	6892.15
520.542	6931.7
520.909	6930.34
521.276	6958.14
521.643	7025.03
522.009	7014.18
522.376	7084.46
522.743	7074.52
523.11	7180.5
523.477	7216.66
523.843	7218.69
524.21	7265.92
524.577	7330.1
524.943	7396.99
525.31	7380.05
525.676	7449.87
526.043	7453.94
526.409	7459.14
526.776	7557.67
527.142	7538.23
527.508	7619.59
527.874	7665.01
528.241	7678.8
528.607	7680.38
528.973	7783.88
529.339	7680.83
529.705	7860.49
530.071	7872.69
530.437	7839.24
530.803	7905.68
531.169	7907.72
531.535	7884.89
531.901	7968.73
532.267	7947.49
532.632	8097.99
532.998	8047.6
533.364	8133.47
533.73	8129.18
534.095	8167.6
534.461	8237.2
534.826	8276.75
535.192	8265.9
535.557	8276.97
535.923	8353.13
536.288	8303.64
536.653	8347.25
537.019	8313.58
537.384	8373.92
537.749	8380.25
538.114	8350.87
538.479	8389.29
538.845	8489.4
539.21	8477.42
539.575	8508.38
539.94	8585.89
540.305	8537.76
540.67	8577.75
541.034	8678.09
541.399	8618.43
541.764	8679.67
542.129	8690.75
542.494	8732.78
542.858	8681.25
543.223	8750.41
543.587	8770.97
543.952	8817.07
544.316	8838.99
544.681	8845.32
545.045	8894.13
545.41	8908.14
545.774	8838.31
546.138	8943.39
546.503	8963.51
546.867	8983.17
547.231	9082.37
547.595	9074.01
547.959	9123.28
548.324	9144.52
548.688	9109.72
549.052	9153.78
549.416	9204.63
549.779	9188.81
550.143	9251.86
550.507	9262.71
550.871	9298.19
551.235	9303.39
551.599	9344.29
551.962	9326.66
552.326	9365.76
552.689	9413.89
553.053	9379.54
553.417	9378.41
553.78	9504.28
554.143	9446.66
554.507	9479.43
554.87	9542.7
555.234	9603.26
555.597	9544.06
555.96	9509.48
556.323	9552.64
556.686	9605.3
557.05	9636.26
557.413	9641
557.776	9683.94
558.139	9777.05
558.502	9783.6
558.865	9758.97
559.228	9862.47
559.59	9839.19
559.953	9835.35
560.316	9919.87
560.679	9946.98
561.041	9988.11
561.404	10088.9
561.767	10034.67
562.129	10059.3
562.492	10084.16
562.854	10122.8
563.217	10136.58
563.579	10147.2
563.941	10250.48
564.304	10274.21
564.666	10254.09
565.028	10307.88
565.39	10374.77
565.753	10516.01
566.115	10438.5
566.477	10513.07
566.839	10598.72
567.201	10625.84
567.563	10614.09
567.925	10691.82
568.287	10644.82
568.648	10673.52
569.01	10694.54
569.372	10748.32
569.734	10754.19
570.095	10822.22
570.457	10914.87
570.819	10923.68
571.18	10889.78
571.542	11041.42
571.903	11078.03
572.265	11070.34
572.626	11075.32
572.987	11127.07
573.349	11164.35
573.71	11302.2
574.071	11233.28
574.432	11274.41
574.794	11434.4
575.155	11420.62
575.516	11360.96
575.877	11581.29
576.238	11565.47
576.599	11686.37
576.96	11656.77
577.32	11683.89
577.681	11829.19
578.042	11894.28
578.403	11917.33
578.763	12013.82
579.124	12033.03
579.485	12231.22
579.845	12266.7
580.206	12315.06
580.566	12328.84
580.927	12520.25
581.287	12501.49
581.648	12575.62
582.008	12735.16
582.368	12762.05
582.728	12825.33
583.089	12976.74
583.449	13009.28
583.809	13103.96
584.169	13284.52
584.529	13281.13
584.889	13512.54
585.249	13500.34
585.609	13592.54
585.969	13842.7
586.329	13918.63
586.688	13997.73
587.048	14139.87
587.408	14270.26
587.768	14336.7
588.127	14469.35
588.487	14532.17
588.846	14873.86
589.206	14896.23
589.565	14972.39
589.925	15166.51
590.284	15342.32
590.643	15504.13
591.003	15657.79
591.362	15811.69
591.721	15891.46
592.08	16109.99
592.44	16276.54
592.799	16434.05
593.158	16431.11
593.517	16586.36
593.876	16856.86
594.235	16857.76
594.593	17042.62
594.952	17244.65
595.311	17255.27
595.67	17503.4
596.029	17695.93
596.387	17868.81
596.746	17979.09
597.104	18030.61
597.463	18167.33
597.822	18343.37
598.18	18442.13
598.538	18613.65
598.897	18762.12
599.255	18751.05
599.613	19058.61
599.972	19115.33
600.33	19281.2
600.688	19244.14
601.046	19463.8
601.404	19676.67
601.762	19683.45
602.12	19968.87
602.478	20040.96
602.836	20189.43
603.194	20171.57
603.552	20429.65
603.91	20241.63
604.268	20516.88
604.625	20555.29
604.983	20703.09
605.341	20667.38
605.698	20936.07
606.056	21056.97
606.413	21175.39
606.771	21334.03
607.128	21313.24
607.485	21312.34
607.843	21425.33
608.2	21532.67
608.557	21801.81
608.914	21778.09
609.272	21927.23
609.629	21910.96
609.986	22079.32
610.343	22021.69
610.7	22232.99
611.057	22433.66
611.414	22415.81
611.771	22528.57
612.127	22557.73
612.484	22548.69
612.841	22774.67
613.198	22799.98
613.554	22873.88
613.911	22961.33
614.267	23036.81
614.624	22955.68
614.98	23089.69
615.337	23291.27
615.693	23324.71
616.05	23462.79
616.406	23394.77
616.762	23578.49
617.118	23522.22
617.475	23534.65
617.831	23680.18
618.187	23735.1
618.543	23781.42
618.899	23918.14
619.255	23900.06
619.611	23896.45
619.967	23906.17
620.323	24092.15
620.678	24153.84
621.034	24021.19
621.39	24090.57
621.746	24082.21
622.101	24278.81
622.457	24135.99
622.812	24212.82
623.168	24342.09
623.523	24359.03
623.879	24556.54
624.234	24269.32
624.589	24447.17
624.945	24498.24
625.3	24528.07
625.655	24556.32
626.01	24491.69
626.365	24579.37
626.72	24599.03
627.075	24564.9
627.43	24645.13
627.785	24593.15
628.14	24706.37
628.495	24727.39
628.85	24642.87
629.205	24504.12
629.559	24715.18
629.914	24588.41
630.269	24613.94
630.623	24578.46
630.978	24610.1
631.332	24641.51
631.687	24737.78
632.041	24636.32
632.396	24641.74
632.75	24559.93
633.104	24684.9
633.459	24542.08
633.813	24536.21
634.167	24566.49
634.521	24639.25
634.875	24591.12
635.229	24668.63
635.583	24354.74
635.937	24554.06
636.291	24440.61
636.645	24584.79
636.999	24464.79
637.352	24497.56
637.706	24498.24
638.06	24526.04
638.413	24430.45
638.767	24335.31
639.121	24441.52
639.474	24273.61
639.828	24345.7
640.181	24409.65
640.534	24328.3
640.888	24265.48
641.241	24175.08
641.594	24314.74
641.947	24348.41
642.301	24286.04
642.654	24275.42
643.007	24260.73
643.36	24239.26
643.713	24181.64
644.066	24395.64
644.419	24122.43
644.771	23915.2
645.124	23658.26
645.477	23770.12
645.83	23581.2
646.182	23550.92
646.535	23489.9
646.888	23491.03
647.24	23374.43
647.593	23508.21
647.945	23385.95
648.298	23421.88
648.65	23337.14
649.002	23349.57
649.355	23435.9
649.707	23424.37
650.059	23592.5
650.411	23850.8
650.763	23820.07
651.115	24117.23
651.467	24055.77
651.819	24055.77
652.171	24080.17
652.523	24036.33
652.875	23917.01
653.227	23907.52
653.578	24188.87
653.93	24058.03
654.282	23872.49
654.633	23970.34
654.985	23970.34
655.337	24032.26
655.688	23977.58
656.039	24004.02
656.391	23904.36
656.742	23908.43
657.094	24029.33
657.445	24058.7
657.796	23963.11
658.147	23886.5
658.498	23841.99
658.849	24066.39
659.2	24026.84
659.551	23898.48
659.902	23994.98
660.253	23926.73
660.604	24044.24
660.955	23916.79
661.306	23982.55
661.656	23948.42
662.007	24050.34
662.358	24066.16
662.708	24060.96
663.059	24005.15
663.409	23919.95
663.76	24049.44
664.11	24120.17
664.461	24049.21
664.811	23984.13
665.161	24096.89
665.511	23974.64
665.862	23957.01
666.212	24155.65
666.562	24024.13
666.912	24119.94
667.262	24074.52
667.612	24031.59
667.962	24024.58
668.312	23981.19
668.662	24126.5
669.011	24048.53
669.361	24111.58
669.711	23995.2
670.06	23970.12
670.41	24068.65
670.76	23916.33
671.109	23982.1
671.459	23903.45
671.808	23940.97
672.157	23900.97
672.507	23691.93
672.856	23840.63
673.205	23924.47
673.554	23898.26
673.904	23839.5
674.253	23960.85
674.602	23864.13
674.951	23593.41
675.3	23351.6
675.649	23775.77
675.998	23659.39
676.346	23803.8
676.695	23793.4
677.044	23544.14
677.393	23733.97
677.741	23756.11
678.09	23585.04
678.438	23520.64
678.787	23564.48
679.135	23601.99
679.484	23445.16
679.832	23575.33
680.181	23328.33
680.529	23486.52
680.877	23291.27
681.225	23255.79
681.573	23379.63
681.922	23368.78
682.27	23203.81
682.618	23255.79
682.966	23205.39
683.314	23210.59
683.661	23194.55
684.009	23046.07
684.357	22996.58
684.705	23030.03
685.053	22948
685.4	22962.46
685.748	22823.71
686.095	22925.17
686.443	22797.27
686.79	22682.69
687.138	22659.42
687.485	22653.09
687.832	22582.81
688.18	22679.08
688.527	22451.29
688.874	22385.75
689.221	22345.53
689.568	22291.29
689.915	22315.92
690.262	22197.51
690.609	22100.11
690.956	22195.7
691.303	21984.86
691.65	21955.03
691.997	22009.72
692.344	21854.92
692.69	21907.8
693.037	21898.08
693.383	21619.67
693.73	21654.92
694.077	21575.83
694.423	21477.08
694.769	21433.24
695.116	21421.94
695.462	21420.13
695.808	21292
696.155	21306.46
696.501	21174.71
696.847	21148.05
697.193	20887.71
697.539	21112.11
697.885	20804.78
698.231	20823.08
698.577	20787.38
698.923	20767.26
699.269	20601.17
699.614	20510.55
699.96	20458.57
700.306	20441.85
700.651	20338.58
700.997	20225.81
701.342	20184.68
701.688	20220.61
702.033	20046.38
702.379	20073.95
702.724	20063.55
703.069	20082.31
703.415	19763
703.76	19847.06
704.105	19710.8
704.45	19592.15
704.795	19479.61
705.14	19558.71
705.485	19495.89
705.83	19293.18
706.175	19358.04
706.52	19280.52
706.865	19208.66
707.209	19196.68
707.554	19124.14
707.899	19188.55
708.243	19130.7
708.588	19077.59
708.932	18920.31
709.277	18927.54
709.621	18805.06
709.966	18793.31
710.31	18788.11
710.654	18610.94
710.998	18685.29
711.342	18567.77
711.687	18579.98
712.031	18457.49
712.375	18374.79
712.719	18512.86
713.063	18448.46
713.407	18424.28
713.75	18363.94
714.094	18230.83
714.438	18183.6
714.782	18292.98
715.125	18176.82
715.469	18224.96
715.812	18061.57
716.156	17901.58
716.499	17943.38
716.843	17922.14
717.186	17939.99
717.53	17928.7
717.873	18007.56
718.216	17919.43
718.559	17836.95
718.902	17763.95
719.246	17849.83
719.589	17811.64
719.932	17670.17
720.275	17737.29
720.617	17657.97
720.96	17643.28
721.303	17606.67
721.646	17650.06
721.989	17547.91
722.331	17636.73
722.674	17522.15
723.016	17484.64
723.359	17525.99
723.701	17461.36
724.044	17450.97
724.386	17304.3
724.729	17375.49
725.071	17384.3
725.413	17346.56
725.755	17346.34
726.097	17305.89
726.439	17238.09
726.782	17216.85
727.124	17245.32
727.465	17154.25
727.807	17100.24
728.149	17189.73
728.491	17164.2
728.833	17206.45
729.175	17122.61
729.516	17169.85
729.858	17099.56
730.199	17061.83
730.541	17046.91
730.882	17093.91
731.224	17111.32
731.565	17045.33
731.906	17051.2
732.248	17113.35
732.589	16961.26
732.93	16944.99
733.271	16974.37
733.612	17070.19
733.953	16933.47
734.294	16907.48
734.635	16908.16
734.976	16973.47
735.317	16890.08
735.658	16849.85
735.999	16911.77
736.339	16890.08
736.68	16968.04
737.021	16879.91
737.361	16904.77
737.702	16994.26
738.042	16897.76
738.383	16957.2
738.723	17025.44
739.063	16922.85
739.404	16958.55
739.744	17012.34
740.084	16887.82
740.424	16904.99
740.764	16908.84
741.104	17095.27
741.444	16940.47
741.784	16900.93
742.124	16981.6
742.464	17060.7
742.804	17001.04
743.143	16915.39
743.483	17015.5
743.823	16993.13
744.162	17007.82
744.502	17088.27
744.841	17012.34
745.181	17191.54
745.52	17198.54
745.86	17301.37
746.199	17286.45
746.538	17269.96
746.877	17327.58
747.216	17350.18
747.556	17393.34
747.895	17410.97
748.234	17472.21
748.573	17620.91
748.911	17539.33
749.25	17627.01
749.589	17666.33
749.928	17798.53
750.267	17913.55
750.605	17850.73
750.944	17911.07
751.283	17974.57
751.621	18176.15
751.96	18132.98
752.298	18315.35
752.636	18328.91
752.975	18424.95
753.313	18306.76
753.651	18682.57
753.989	18739.07
754.327	18671.73
754.666	18711.95
755.004	18956.46
755.342	19016.35
755.679	19136.8
756.017	19254.54
756.355	19325.72
756.693	19421.31
757.031	19597.13
757.368	19677.58
757.706	19763.68
758.044	19841.41
758.381	19988.3
758.719	20046.61
759.056	20211.57
759.394	20232.82
759.731	20267.16
760.068	20404.56
760.405	20472.81
760.743	20663.09
761.08	20751.45
761.417	20826.25
761.754	20898.79
762.091	21087.93
762.428	20975.85
762.765	21076.86
763.102	21273.24
763.438	21278.89
763.775	21283.86
764.112	21490.86
764.449	21641.59
764.785	21590.75
765.122	21485.44
765.458	21520.69
765.795	21768.37
766.131	21801.59
766.467	21833.23
766.804	21871.64
767.14	21919.55
767.476	21952.09
767.812	21935.37
768.148	21967.01
768.485	21969.94
768.821	21985.09
769.157	22022.37
769.492	22059.89
769.828	22221.01
770.164	22099.43
770.5	22126.55
770.836	22144.4
771.171	22087.23
771.507	22237.96
771.842	22068.02
772.178	22188.02
772.513	22144.63
772.849	22132.2
773.184	22070.06
773.519	22101.47
773.855	22109.6
774.19	22120.9
774.525	22097.63
774.86	22075.48
775.195	22101.69
775.53	22132.43
775.865	22028.7
776.2	21960.23
776.535	21804.07
776.87	21892.43
777.205	21841.81
777.539	21850.63
777.874	21918.87
778.209	21683.4
778.543	21698.09
778.878	21610.18
779.212	21698.09
779.547	21675.49
779.881	21636.85
780.215	21568.83
780.55	21645.21
780.884	21478.21
781.218	21447.7
781.552	21425.78
781.886	21296.52
782.22	21268.04
782.554	21128.39
782.888	21095.17
783.222	20978.33
783.556	20991.67
783.889	21080.48
784.223	20888.39
784.557	20787.83
784.89	20939.24
785.224	20852.69
785.557	20680.04
785.891	20677.78
786.224	20529.76
786.558	20517.78
786.891	20387.84
787.224	20438.01
787.557	20302.42
787.891	20299.25
788.224	20318.69
788.557	20283.44
788.89	20210.9
789.223	20207.96
789.556	20111.91
789.888	20037.57
790.221	19975.42
790.554	19792.6
790.887	19777.01
791.219	19781.98
791.552	19750.57
791.884	19675.54
792.217	19635.99
792.549	19603.23
792.882	19461.08
793.214	19333.63
793.546	19369.34
793.879	19160.75
794.211	19053.86
794.543	19209.11
794.875	19102.68
795.207	19211.37
795.539	18956.01
795.871	19059.96
796.203	18866.75
796.535	18820.42
796.867	18789.01
797.198	18868.11
797.53	18725.74
797.862	18594.67
798.193	18693.65
798.525	18523.93
798.856	18531.62
799.188	18350.15
799.519	18335.46
799.85	18200.33
800.182	18280.1
800.513	18267.67
800.844	18117.39
801.175	18227.22
801.506	18122.59
801.837	17999.88
802.168	17988.13
802.499	18006.21
802.83	17855.48
803.161	17729.15
803.491	17755.37
803.822	17773.67
804.153	17650.51
804.483	17620.45
804.814	17583.17
805.145	17562.6
805.475	17454.58
805.805	17365.32
806.136	17442.61
806.466	17420.69
806.796	17432.44
807.126	17266.57
807.457	17151.77
807.787	17241.71
808.117	17085.1
808.447	17033.8
808.777	16998.1
809.107	16970.53
809.436	16898.21
809.766	16959.91
810.096	16853.24
810.426	16857.54
810.755	16801.95
811.085	16796.52
811.414	16669.52
811.744	16610.54
812.073	16670.2
812.403	16735.28
812.732	16533.03
813.061	16499.58
813.39	16464.1
813.719	16377.1
814.049	16515.63
814.378	16405.35
814.707	16326.03
815.036	16257.78
815.365	16196.09
815.693	16087.84
816.022	16039.03
816.351	16004
816.68	15964
817.008	16031.12
817.337	15865.7
817.665	15880.84
817.994	15846.26
818.322	15858.02
818.651	15764.23
818.979	15818.24
819.307	15792.48
819.636	15754.97
819.964	15726.95
820.292	15737.34
820.62	15702.31
820.948	15698.7
821.276	15669.09
821.604	15619.6
821.932	15637.68
822.259	15608.53
822.587	15672.48
822.915	15624.58
823.243	15578.93
823.57	15481.3
823.898	15578.93
824.225	15500.06
824.553	15537.35
824.88	15518.36
825.207	15586.61
825.535	15542.32
825.862	15653.5
826.189	15478.59
826.516	15633.61
826.843	15590.45
827.17	15541.87
827.497	15552.71
827.824	15481.53
828.151	15540.28
828.478	15541.41
828.805	15588.42
829.131	15504.8
829.458	15550.45
829.785	15414.41
830.111	15469.1
830.438	15537.57
830.764	15465.48
831.09	15534.63
831.417	15489.66
831.743	15575.76
832.069	15506.16
832.395	15373.96
832.722	15514.3
833.048	15479.95
833.374	15410.34
833.7	15311.36
834.026	15358.59
834.351	15348.88
834.677	15394.07
835.003	15366.95
835.329	15396.11
835.654	15276.11
835.98	15252.83
836.306	15300.29
836.631	15227.3
836.956	15291.48
837.282	15220.97
837.607	15171.93
837.932	15224.13
838.258	15129.22
838.583	15099.84
838.908	15030.69
839.233	15117.02
839.558	15030.24
839.883	14976.91
840.208	14945.72
840.533	14889.45
840.858	14929
841.182	14947.3
841.507	14873.86
841.832	14801.09
842.156	14813.52
842.481	14750.25
842.805	14839.06
843.13	14752.06
843.454	14742.34
843.778	14606.3
844.103	14550.93
844.427	14577.14
844.751	14549.12
845.075	14518.62
845.399	14357.72
845.723	14437.94
846.047	14363.14
846.371	14221.67
846.695	14290.82
847.019	14139.42
847.343	14096.03
847.666	14027.1
847.99	13974.9
848.313	13974.67
848.637	13852.64
848.96	13781.46
849.284	13803.61
849.607	13677.28
849.931	13691.52
850.254	13563.61
850.577	13592.76
850.9	13546.89
851.223	13462.37
851.546	13336.05
851.869	13229.84
852.192	13441.81
852.515	13246.11
852.838	13202.49
853.161	13180.8
853.483	13036.62
853.806	13021.03
854.129	13014.02
854.451	12997.3
854.774	13007.47
855.096	12891.99
855.419	12851.54
855.741	12863.07
856.063	12744.2
856.385	12798.21
856.708	12680.47
857.03	12663.3
857.352	12639.79
857.674	12518.22
857.996	12608.61
858.318	12439.57
858.64	12413.81
858.961	12462.4
859.283	12395.06
859.605	12256.08
859.926	12248.62
860.248	12281.61
860.57	12272.57
860.891	12269.86
861.212	12191.44
861.534	12172.01
861.855	12125.46
862.176	12170.65
862.498	12173.14
862.819	12141.5
863.14	12064.44
863.461	12044.1
863.782	11997.55
864.103	12050.43
864.424	11942.19
864.745	11902.64
865.065	11934.73
865.386	11887.27
865.707	11887.27
866.027	11848.18
866.348	11810.21
866.668	11849.31
866.989	11766.15
867.309	11749.87
867.63	11733.38
867.95	11768.41
868.27	11657.9
868.59	11607.73
868.91	11599.6
869.23	11618.8
869.55	11586.04
869.87	11572.48
870.19	11602.08
870.51	11656.09
870.83	11576.09
871.15	11495.87
871.469	11478.47
871.789	11519.82
872.109	11482.31
872.428	11381.75
872.748	11457
873.067	11461.29
873.386	11461.29
873.706	11385.59
874.025	11343.33
874.344	11346.95
874.663	11410.22
874.982	11365.7
875.301	11294.97
875.62	11259.04
875.939	11203.67
876.258	11215.88
876.577	11160.51
876.896	11163.68
877.214	11135.2
877.533	11146.95
877.852	11198.93
878.17	11132.49
878.489	11132.94
878.807	11037.35
879.125	11079.61
879.444	11005.04
879.762	11031.25
880.08	11027.41
880.398	10964.36
880.716	10963
881.034	10980.63
881.352	10988.76
881.67	10861.54
881.988	10926.62
882.306	10790.35
882.624	10856.11
882.941	10777.47
883.259	10795.32
883.577	10764.14
883.894	10725.04
884.212	10709.68
884.529	10709.45
884.846	10599.62
885.164	10651.6
885.481	10564.37
885.798	10651.82
886.115	10603.69
886.432	10535.9
886.75	10382.45
887.067	10493.18
887.383	10457.71
887.7	10432.4
888.017	10373.41
888.334	10410.25
888.651	10453.41
888.967	10342.68
889.284	10313.08
889.6	10209.12
889.917	10210.03
890.233	10196.02
890.55	10111.73
890.866	10168.45
891.182	10124.38
891.498	10017.94
891.815	10043.93
892.131	9979.75
892.447	9986.31
892.763	9971.16
893.079	9976.36
893.395	9860.66
893.71	9809.59
894.026	9863.6
894.342	9830.38
894.657	9759.19
894.973	9725.97
895.289	9766.65
895.604	9638.52
895.92	9612.98
896.235	9576.82
896.55	9532.76
896.865	9586.09
897.181	9537.5
897.496	9536.83
897.811	9495.92
898.126	9431.97
898.441	9372.31
898.756	9375.47
899.071	9375.7
899.386	9315.14
899.7	9291.63
900.015	9180.22
900.33	9196.27
900.644	9129.6
900.959	9126.44
901.273	9189.94
901.588	9056.39
901.902	9077.63
902.216	8935.94
902.531	8958.08
902.845	8945.43
903.159	8833.34
903.473	8851.87
903.787	8810.06
904.101	8756.96
904.415	8787.24
904.729	8709.73
905.042	8720.12
905.356	8650.3
905.67	8647.81
905.984	8656.4
906.297	8608.49
906.611	8527.13
906.924	8475.16
907.237	8501.15
907.551	8444.42
907.864	8417.08
908.177	8422.5
908.491	8357.87
908.804	8344.31
909.117	8277.88
909.43	8233.81
909.743	8212.57
910.056	8212.79
910.368	8122.4
910.681	8128.5
910.994	8057.32
911.307	8030.65
911.619	8010.31
911.932	8014.15
912.244	8018
912.557	7954.72
912.869	7805.57
913.181	7833.37
913.494	7759.92
913.806	7756.31
914.118	7763.76
914.43	7711.56
914.742	7694.61
915.054	7693.03
915.366	7629.08
915.678	7638.34
915.99	7564.67
916.302	7491.68
916.613	7519.7
916.925	7485.13
917.236	7451.46
917.548	7375.3
917.859	7394.73
918.171	7347.73
918.482	7288.75
918.794	7322.65
919.105	7261.86
919.416	7204.01
919.727	7212.82
920.038	7172.59
920.349	7134.4
920.66	7104.12
920.971	7116.78
921.282	7005.14
921.593	7039.26
921.903	6978.7
922.214	6972.37
922.525	6890.57
922.835	6873.62
923.146	6835.65
923.456	6810.12
923.767	6793.62
924.077	6832.94
924.387	6698.93
924.697	6709.1
925.008	6711.14
925.318	6648.77
925.628	6617.58
925.938	6609.22
926.248	6547.53
926.558	6531.03
926.867	6476.12
927.177	6450.58
927.487	6486.51
927.796	6379.85
928.106	6395.44
928.416	6354.08
928.725	6353.18
929.034	6321.54
929.344	6333.97
929.653	6321.99
929.962	6246.52
930.271	6211.49
930.581	6178.5
930.89	6181.66
931.199	6122.9
931.508	6120.19
931.817	6097.37
932.125	6089.91
932.434	6075.67
932.743	5965.85
933.051	5978.28
933.36	5944.6
933.669	5905.28
933.977	5919.29
934.286	5949.12
934.594	5866.19
934.902	5820.99
935.21	5767.66
935.519	5825.51
935.827	5761.11
936.135	5725.85
936.443	5740.54
936.751	5670.03
937.059	5635.69
937.367	5597.49
937.674	5653.54
937.982	5579.64
938.29	5538.06
938.597	5545.97
938.905	5496.93
939.213	5519.76
939.52	5423.71
939.827	5506.87
940.135	5427.33
940.442	5455.8
940.749	5358.4
941.056	5355.92
941.363	5333.09
941.67	5336.71
941.977	5244.06
942.284	5273.21
942.591	5260.78
942.898	5194.79
943.205	5200.44
943.511	5146.43
943.818	5112.08
944.125	5133.78
944.431	5101.24
944.738	5073.44
945.044	5026.66
945.35	4995.7
945.657	4992.99
945.963	4993.22
946.269	4998.19
946.575	4993.89
946.881	4935.36
947.187	4867.34
947.493	4881.13
947.799	4807.68
948.105	4808.81
948.41	4865.54
948.716	4818.76
949.022	4824.63
949.327	4765.65
949.633	4717.74
949.938	4733.11
950.244	4711.42
950.549	4661.7
950.854	4646.56
951.16	4623.73
951.465	4609.95
951.77	4583.06
952.075	4567.01
952.38	4541.93
952.685	4520.69
952.99	4514.13
953.294	4439.33
953.599	4483.17
953.904	4463.51
954.209	4397.07
954.513	4444.53
954.818	4376.74
955.122	4350.97
955.426	4350.97
955.731	4320.01
956.035	4329.96
956.339	4274.14
956.643	4289.05
956.948	4256.29
957.252	4241.82
957.556	4221.71
957.86	4202.5
958.163	4191.88
958.467	4186.46
958.771	4173.8
959.075	4148.49
959.378	4094.93
959.682	4122.05
959.985	4059.68
960.289	4052
960.592	4093.13
960.896	4031.43
961.199	4053.13
961.502	3965.67
961.805	3970.19
962.108	3939.01
962.411	3911.66
962.714	3923.41
963.017	3927.26
963.32	3921.15
963.623	3887.03
963.926	3895.39
964.228	3848.16
964.531	3830.99
964.833	3848.84
965.136	3793.93
965.438	3760.71
965.741	3730.65
966.043	3757.99
966.345	3734.49
966.648	3689.75
966.95	3702.18
967.252	3688.17
967.554	3663.53
967.856	3633.25
968.158	3605.91
968.46	3646.81
968.761	3589.86
969.063	3573.14
969.365	3563.65
969.666	3519.13
969.968	3552.12
970.269	3474.61
970.571	3491.79
970.872	3447.95
971.174	3454.5
971.475	3461.28
971.776	3430.09
972.077	3426.25
972.378	3408.17
972.679	3342.64
972.98	3391.68
973.281	3378.8
973.582	3387.83
973.883	3366.59
974.183	3307.61
974.484	3313.71
974.785	3302.19
975.085	3277.78
975.386	3287.72
975.686	3217.44
975.986	3248.86
976.287	3202.53
976.587	3181.29
976.887	3161.63
977.187	3176.31
977.487	3154.17
977.787	3148.74
978.087	3089.54
978.387	3111.23
978.687	3089.99
978.987	3052.48
979.286	3058.35
979.586	3048.41
979.885	3045.92
980.185	3033.72
980.484	3021.74
980.784	3000.95
981.083	2965.47
981.382	2988.75
981.682	2983.55
981.981	2957.11
982.28	2925.47
982.579	2931.12
982.878	2891.12
983.177	2931.12
983.475	2880.05
983.774	2870.56
984.073	2888.19
984.372	2876.21
984.67	2865.14
984.969	2828.53
985.267	2814.52
985.566	2817.23
985.864	2785.14
986.162	2796.89
986.461	2780.39
986.759	2730.22
987.057	2708.76
987.355	2746.95
987.653	2724.12
987.951	2711.47
988.249	2685.93
988.547	2688.64
988.844	2635.09
989.142	2624.24
989.44	2622.88
989.737	2615.88
990.035	2624.24
990.332	2592.83
990.63	2578.59
990.927	2584.69
991.224	2576.33
991.521	2546.5
991.819	2552.15
992.116	2526.16
992.413	2532.49
992.71	2518.03
993.006	2487.52
993.303	2498.37
993.6	2452.04
993.897	2462.89
994.193	2441.42
994.49	2429.44
994.787	2428.99
995.083	2366.39
995.379	2425.37
995.676	2408.43
995.972	2397.58
996.268	2345.6
996.565	2368.43
996.861	2351.93
997.157	2310.8
997.453	2290.91
997.749	2288.2
998.044	2316.45
998.34	2250.92
998.636	2277.58
998.932	2267.64
999.227	2225.83
999.523	2236.23
999.818	2222.22
1000.114	2234.19
1000.409	2206.85
1000.704	2179.96
1001	2177.25
1001.295	2171.37
1001.59	2173.18
1001.885	2162.33
1002.18	2119.62
1002.475	2117.13
1002.77	2104.25
1003.065	2067.19
1003.359	2074.65
1003.654	2100.41
1003.949	2056.34
1004.243	2061.09
1004.538	2032.84
1004.832	2035.55
1005.127	2037.81
1005.421	1997.81
1005.715	1988.1
1006.009	1979.06
1006.304	1965.05
1006.598	1961.43
1006.892	1934.54
1007.186	1906.29
1007.48	1937.7
1007.773	1941.09
1008.067	1909.23
1008.361	1875.33
1008.655	1871.49
1008.948	1859.06
1009.242	1846.18
1009.535	1846.86
1009.829	1866.29
1010.122	1817.71
1010.415	1833.3
1010.708	1817.03
1011.001	1775.67
1011.295	1796.24
1011.588	1791.94
1011.881	1781.55
1012.173	1759.63
1012.466	1724.83
1012.759	1718.73
1013.052	1687.31
1013.344	1721.89
1013.637	1695.45
1013.93	1684.38
1014.222	1690.25
1014.514	1692.06
1014.807	1685.51
1015.099	1671.04
1015.391	1644.83
1015.683	1675.34
1015.976	1624.27
1016.268	1609.12
1016.56	1605.06
1016.851	1577.49
1017.143	1567.09
1017.435	1587.43
1017.727	1556.7
1018.018	1562.35
1018.31	1552.63
1018.602	1527.77
1018.893	1520.31
1019.185	1518.73
1019.476	1485.29
1019.767	1494.1
1020.058	1501.78
1020.35	1497.71
1020.641	1473.08
1020.932	1492.74
1021.223	1431.73
1021.514	1452.97
1021.804	1419.98
1022.095	1401.9
1022.386	1414.1
1022.677	1385.4
1022.967	1400.99
1023.258	1381.56
1023.548	1363.26
1023.839	1376.36
1024.129	1358.28
1024.419	1360.32
1024.709	1334.33
1025	1345.18
1025.29	1319.87
1025.58	1289.58
1025.87	1309.92
1026.16	1296.36
1026.449	1297.49
1026.739	1275.8
1027.029	1268.57
1027.319	1257.5
1027.608	1231.28
1027.898	1217.04
1028.187	1253.43
1028.477	1233.99
1028.766	1228.57
1029.055	1193.54
1029.344	1207.33
1029.634	1217.72
1029.923	1206.42
1030.212	1185.41
1030.501	1179.98
1030.79	1146.54
1031.078	1163.94
1031.367	1165.75
1031.656	1148.8
1031.945	1139.08
1032.233	1092.98
1032.522	1139.08
1032.81	1096.82
1033.099	1091.85
1033.387	1094.11
1033.675	1092.75
1033.963	1071.06
1034.251	1080.32
1034.54	1055.92
1034.828	1074.45
1035.116	1071.96
1035.403	1045.75
1035.691	1050.04
1035.979	1061.34
1036.267	1070.16
1036.554	1027.22
1036.842	1031.74
1037.129	994.68
1037.417	1026.31
1037.704	997.39
1037.992	975.92
1038.279	1012.53
1038.566	967.79
1038.853	967.79
1039.14	967.79
