Data from hue_150_FLMS001491_00041.txt Node
Date: Tue Feb 07 16:54:05 GMT 2017
User: dcchb
Spectrometer: FLMS00149
Trigger mode: 0
Integration Time (sec): 2.000000E-2
Scans to average: 10
Electric dark correction enabled: true
Nonlinearity correction enabled: false
Boxcar width: 0
XAxis mode: Wavelengths
Number of Pixels in Spectrum: 2048
>>>>>Begin Spectral Data<<<<<
341.393	-25.73
341.776	-25.73
342.16	-25.73
342.543	-60.99
342.927	-59.18
343.31	-74.77
343.693	-72.51
344.077	-72.51
344.46	-55.56
344.843	-48.33
345.226	-39.74
345.61	-35.9
345.993	-20.99
346.376	2.97
346.759	5.23
347.142	14.72
347.525	48.16
347.908	58.78
348.291	85.68
348.674	91.78
349.057	113.02
349.44	122.28
349.823	149.4
350.206	176.52
350.588	188.5
350.971	204.09
351.354	225.33
351.737	242.96
352.119	263.98
352.502	265.78
352.884	258.55
353.267	294.71
353.65	287.48
354.032	309.62
354.414	323.64
354.797	312.79
355.179	317.99
355.562	316.18
355.944	348.72
356.326	334.93
356.709	334.71
357.091	333.13
357.473	353.24
357.855	320.7
358.238	349.85
358.62	328.61
359.002	343.07
359.384	361.83
359.766	351.88
360.148	343.52
360.53	347.59
360.912	334.03
361.294	336.29
361.676	336.97
362.057	339.68
362.439	319.79
362.821	340.13
363.203	341.94
363.584	315.05
363.966	311.43
364.348	299.68
364.729	325.44
365.111	328.83
365.493	306.46
365.874	322.28
366.256	317.53
366.637	318.44
367.019	320.02
367.4	329.06
367.781	311.88
368.163	317.76
368.544	308.04
368.925	320.92
369.306	323.18
369.688	330.19
370.069	318.66
370.45	318.66
370.831	315.95
371.212	320.25
371.593	318.89
371.974	326.35
372.355	307.36
372.736	313.69
373.117	314.82
373.498	312.79
373.879	311.66
374.26	310.75
374.641	305.33
375.021	306.91
375.402	329.29
375.783	334.48
376.163	322.73
376.544	322.51
376.925	307.82
377.305	350.53
377.686	325.22
378.066	312.11
378.447	330.64
378.827	324.31
379.208	325.9
379.588	324.54
379.968	366.12
380.349	328.38
380.729	326.8
381.109	332.67
381.489	340.81
381.87	333.8
382.25	339.45
382.63	339.68
383.01	346.69
383.39	352.11
383.77	329.74
384.15	370.19
384.53	332
384.91	339.23
385.29	354.6
385.67	333.13
386.049	359.11
386.429	357.98
386.809	361.83
387.189	350.98
387.568	348.04
387.948	367.02
388.328	371.54
388.707	367.02
389.087	369.06
389.466	367.7
389.846	351.21
390.225	357.98
390.605	372.22
390.984	353.01
391.363	377.42
391.743	371.77
392.122	383.97
392.501	375.39
392.881	368.83
393.26	381.26
393.639	377.42
394.018	362.96
394.397	379.45
394.776	405.89
395.155	392.33
395.534	400.7
395.913	387.14
396.292	416.74
396.671	383.75
397.05	374.93
397.429	380.58
397.808	405.44
398.186	384.42
398.565	390.07
398.944	389.4
399.323	381.26
399.701	401.6
400.08	388.04
400.458	403.63
400.837	406.8
401.215	419
401.594	427.81
401.972	422.16
402.351	416.06
402.729	409.73
403.107	428.27
403.486	438.66
403.864	411.99
404.242	403.63
404.62	411.54
404.999	436.63
405.377	400.7
405.755	431.43
406.133	417.87
406.511	435.95
406.889	417.87
407.267	438.89
407.645	425.55
408.023	447.93
408.401	466.23
408.779	459.23
409.156	437.53
409.534	457.42
409.912	448.38
410.29	436.4
410.667	453.35
411.045	474.37
411.422	455.16
411.8	482.95
412.178	475.72
412.555	474.14
412.933	465.78
413.31	483.63
413.687	481.82
414.065	493.35
414.442	520.24
414.819	497.42
415.197	510.07
415.574	504.42
415.951	522.27
416.328	489.05
416.705	513.91
417.082	518.43
417.46	518.21
417.837	531.09
418.214	515.04
418.591	525.66
418.967	500.13
419.344	549.17
419.721	528.38
420.098	524.31
420.475	547.13
420.852	562.05
421.228	556.17
421.605	541.93
421.982	543.97
422.358	541.71
422.735	560.69
423.111	577.64
423.488	571.09
423.864	565.66
424.241	583.74
424.617	570.86
424.994	584.65
425.37	589.39
425.746	598.88
426.123	603.63
426.499	590.75
426.875	626
427.251	617.87
427.627	654.47
428.003	613.57
428.379	648.15
428.756	649.5
429.132	630.52
429.507	650.41
429.883	633.68
430.259	657.41
430.635	657.86
431.011	661.71
431.387	684.76
431.763	662.38
432.138	671.42
432.514	694.25
432.89	695.15
433.265	697.19
433.641	718.2
434.016	718.43
434.392	746.45
434.767	731.99
435.143	739.22
435.518	734.92
435.894	726.11
436.269	760.69
436.644	772.66
437.02	754.13
437.395	793.68
437.77	770.4
438.145	787.13
438.52	811.76
438.895	777.86
439.271	801.59
439.646	812.21
440.021	818.76
440.395	819.89
440.77	823.74
441.145	843.85
441.52	844.53
441.895	832.32
442.27	837.07
442.645	868.03
443.019	882.72
443.394	851.76
443.769	860.12
444.143	872.55
444.518	902.6
444.892	913.45
445.267	896.5
445.641	904.19
446.016	931.76
446.39	937.18
446.764	902.83
447.139	916.61
447.513	929.95
447.887	919.55
448.262	933.79
448.636	946.9
449.01	956.84
449.384	929.27
449.758	971.75
450.132	970.17
450.506	970.62
450.88	993.22
451.254	1010.62
451.628	1028.25
452.002	1015.59
452.376	1012.88
452.75	997.52
453.123	1050.17
453.497	1051.07
453.871	1042.26
454.244	1073.45
454.618	1092.2
454.992	1080.45
455.365	1082.49
455.739	1134.69
456.112	1148.7
456.486	1137.85
456.859	1143.5
457.232	1168.81
457.606	1189.83
457.979	1197.06
458.352	1211.75
458.725	1208.58
459.099	1220.79
459.472	1265.98
459.845	1251.07
460.218	1290.39
460.591	1286.55
460.964	1283.38
461.337	1332.87
461.71	1355.92
462.083	1408.58
462.456	1386.66
462.829	1369.71
463.201	1411.97
463.574	1415.36
463.947	1455.58
464.32	1459.65
464.692	1483.83
465.065	1501.01
465.438	1535.81
465.81	1524.73
466.183	1541.68
466.555	1594.79
466.928	1635.69
467.3	1619.42
467.672	1631.85
468.045	1729.02
468.417	1710.94
468.789	1730.15
469.161	1731.06
469.534	1776.93
469.906	1821
470.278	1857.38
470.65	1871.39
471.022	1931.73
471.394	1934.44
471.766	1985.96
472.138	2008.34
472.51	2066.41
472.882	2093.53
473.253	2145.51
473.625	2226.41
473.997	2240.42
474.369	2258.73
474.74	2325.39
475.112	2383.24
475.484	2427.31
475.855	2463.92
476.227	2508.44
476.598	2594.76
476.97	2658.04
477.341	2733.97
477.713	2781.65
478.084	2824.13
478.455	2895.77
478.827	2981.87
479.198	3059.61
479.569	3131.7
479.94	3245.14
480.311	3329.21
480.682	3418.02
481.053	3487.17
481.424	3634.28
481.795	3651.68
482.166	3760.16
482.537	3846.25
482.908	3992.92
483.279	4081.95
483.65	4134.38
484.021	4313.14
484.391	4360.37
484.762	4464.09
485.133	4549.51
485.503	4681.26
485.874	4778.66
486.244	4861.37
486.615	5068.6
486.985	5196.05
487.356	5295.48
487.726	5341.13
488.097	5570.05
488.467	5644.17
488.837	5853.89
489.207	5971.4
489.578	6068.8
489.948	6237.83
490.318	6364.83
490.688	6361.22
491.058	6575
491.428	6702.45
491.798	6859.96
492.168	6979.73
492.538	7120.52
492.908	7270.8
493.278	7426.05
493.648	7511.02
494.017	7639.83
494.387	7778.13
494.757	7895.64
495.126	8002.08
495.496	8078.46
495.866	8205.69
496.235	8430.99
496.605	8469.86
496.974	8568.39
497.344	8695.17
497.713	8787.14
498.082	8943.97
498.452	9074.14
498.821	9154.82
499.19	9214.48
499.559	9386.22
499.928	9433.9
500.298	9590.28
500.667	9655.14
501.036	9683.16
501.405	9806.32
501.774	9856.27
502.143	9988.92
502.512	10073.66
502.88	10174.9
503.249	10200.89
503.618	10303.49
503.987	10357.04
504.356	10478.17
504.724	10512.07
505.093	10581.9
505.462	10706.19
505.83	10748.9
506.199	10862.79
506.567	10952.51
506.936	10953.86
507.304	11081.77
507.672	11168.55
508.041	11230.47
508.409	11296
508.777	11352.27
509.145	11368.77
509.514	11420.52
509.882	11587.75
510.25	11527.86
510.618	11673.85
510.986	11643.79
511.354	11834.97
511.722	11879.49
512.09	11901.86
512.458	11943.67
512.826	11975.76
513.193	12008.75
513.561	12115.42
513.929	12167.17
514.297	12255.07
514.664	12315.41
515.032	12303.89
515.4	12411
515.767	12324.9
516.135	12516.54
516.502	12364.22
516.869	12586.82
517.237	12554.05
517.604	12544.78
517.972	12613.26
518.339	12655.29
518.706	12643.31
519.073	12734.38
519.44	12785.68
519.808	12786.36
520.175	12799.92
520.542	12858.9
520.909	12954.04
521.276	12860.71
521.643	12979.35
522.009	13086.24
522.376	13069.29
522.743	13017.99
523.11	13213.69
523.477	13198.1
523.843	13321.03
524.21	13339.34
524.577	13422.05
524.943	13410.75
525.31	13438.54
525.676	13493.01
526.043	13471.76
526.409	13543.4
526.776	13551.08
527.142	13572.33
527.508	13591.54
527.874	13522.84
528.241	13706.56
528.607	13548.82
528.973	13684.87
529.339	13621.82
529.705	13657.52
530.071	13682.38
530.437	13797.18
530.803	13877.63
531.169	13818.65
531.535	13763.06
531.901	13724.41
532.267	13753.56
532.632	13765.54
532.998	13719.89
533.364	13742.04
533.73	13686.67
534.095	13754.92
534.461	13739.55
534.826	13742.49
535.192	13708.14
535.557	13699.1
535.923	13590.63
536.288	13683.51
536.653	13642.61
537.019	13603.29
537.384	13664.3
537.749	13691.42
538.114	13583.4
538.479	13545.66
538.845	13559.67
539.21	13458.66
539.575	13483.97
539.94	13470.63
540.305	13461.14
540.67	13326.23
541.034	13380.69
541.399	13420.24
541.764	13343.41
542.129	13323.97
542.494	13293.69
542.858	13368.72
543.223	13288.72
543.587	13305.89
543.952	13199
544.316	13223.18
544.681	13141.6
545.045	13173.24
545.41	13181.6
545.774	13153.81
546.138	13070.19
546.503	13109.74
546.867	12956.52
547.231	13025
547.595	13072.68
547.959	13020.48
548.324	12932.12
548.688	12889.41
549.052	12867.26
549.416	12892.8
549.779	12852.35
550.143	12735.96
550.507	12800.37
550.871	12763.31
551.235	12650.32
551.599	12714.04
551.962	12674.95
552.326	12669.75
552.689	12706.13
553.053	12629.53
553.417	12604.22
553.78	12743.87
554.143	12509.3
554.507	12557.21
554.87	12662.75
555.234	12627.72
555.597	12489.42
555.96	12512.24
556.323	12524.9
556.686	12487.84
557.05	12484.45
557.413	12534.61
557.776	12416.2
558.139	12446.71
558.502	12462.07
558.865	12409.42
559.228	12473.37
559.59	12491.23
559.953	12511.34
560.316	12548.62
560.679	12544.33
561.041	12516.31
561.404	12524.22
561.767	12542.98
562.129	12574.39
562.492	12624.56
562.854	12551.56
563.217	12522.41
563.579	12568.51
563.941	12661.62
564.304	12627.94
564.666	12626.59
565.028	12580.94
565.39	12624.78
565.753	12621.62
566.115	12642.41
566.477	12648.28
566.839	12689.19
567.201	12737.09
567.563	12629.75
567.925	12729.19
568.287	12762.63
568.648	12709.3
569.01	12775.51
569.372	12818
569.734	12763.76
570.095	12856.64
570.457	12844.66
570.819	12778.68
571.18	12817.09
571.542	12837.43
571.903	12873.36
572.265	12860.71
572.626	12886.92
572.987	12823.19
573.349	12917.88
573.71	12907.94
574.071	13001.49
574.432	12959.91
574.794	13057.31
575.155	13019.35
575.516	13006.92
575.877	12974.15
576.238	12990.87
576.599	13027.71
576.96	13082.62
577.32	13000.36
577.681	12983.64
578.042	12997.2
578.403	12984.77
578.763	13051.21
579.124	13013.02
579.485	13070.19
579.845	13057.76
580.206	13036.97
580.566	13006.24
580.927	12976.64
581.287	13063.64
581.648	13042.4
582.008	13024.77
582.368	13045.33
582.728	13035.62
583.089	13070.87
583.449	13033.58
583.809	13078.33
584.169	13025.45
584.529	12975.73
584.889	13106.35
585.249	12985.22
585.609	12932.12
585.969	12972.57
586.329	12921.27
586.688	12969.63
587.048	12994.71
587.408	12888.95
587.768	12905
588.127	13018.22
588.487	12933.02
588.846	12940.25
589.206	12837.43
589.565	12909.75
589.925	12984.09
590.284	12972.79
590.643	12913.36
591.003	12943.64
591.362	12954.94
591.721	12928.05
592.08	13007.14
592.44	12916.98
592.799	12940.03
593.158	12884.44
593.517	12849.41
593.876	12888.5
594.235	12925.34
594.593	12817.54
594.952	12796.75
595.311	12770.31
595.67	12836.98
596.029	12904.32
596.387	12819.58
596.746	12860.48
597.104	12816.64
597.463	12733.7
597.822	12889.86
598.18	12751.33
598.538	12813.93
598.897	12868.39
599.255	12712.46
599.613	12866.13
599.972	12790.2
600.33	12784.1
600.688	12796.08
601.046	12850.76
601.404	12849.41
601.762	12808.51
602.12	12862.06
602.478	12871.55
602.836	12806.25
603.194	12761.95
603.552	12811.67
603.91	12883.53
604.268	12866.81
604.625	12677.89
604.983	12847.83
605.341	12733.93
605.698	12874.94
606.056	12853.93
606.413	12746.81
606.771	12867.94
607.128	12853.25
607.485	12777.55
607.843	12764.66
608.2	12853.02
608.557	12842.4
608.914	12768.28
609.272	12862.51
609.629	12867.49
609.986	12911.55
610.343	12922.4
610.7	12997.88
611.057	12985.45
611.414	12890.99
611.771	12966.69
612.127	12960.37
612.484	13002.4
612.841	13085.56
613.198	12986.13
613.554	12973.47
613.911	13046.92
614.267	13111.1
614.624	13051.44
614.98	13088.5
615.337	13098.21
615.693	13107.03
616.05	13029.29
616.406	13134.15
616.762	13027.26
617.118	13043.08
617.475	13094.37
617.831	13179.57
618.187	13183.86
618.543	13153.58
618.899	13229.06
619.255	13251.21
619.611	13219.79
619.967	13369.62
620.323	13267.48
620.678	13316.06
621.034	13217.99
621.39	13213.47
621.746	13228.61
622.101	13309.51
622.457	13227.25
622.812	13243.3
623.168	13248.04
623.523	13260.47
623.879	13234.26
624.234	13215.95
624.589	13228.61
624.945	13206.01
625.3	13245.1
625.655	13213.92
626.01	13187.03
626.365	13186.8
626.72	13220.92
627.075	13211.21
627.43	13204.65
627.785	13042.62
628.14	13110.42
628.495	13199.46
628.85	13138.67
629.205	13152.22
629.559	13177.53
629.914	13138.21
630.269	13113.36
630.623	13022.51
630.978	13075.16
631.332	13167.14
631.687	13140.25
632.041	13104.09
632.396	13039.69
632.75	13037.88
633.104	13046.01
633.459	12945.22
633.813	13040.82
634.167	12935.06
634.521	12975.05
634.875	12972.34
635.229	12955.17
635.583	12861.16
635.937	12874.49
636.291	12895.51
636.645	12882.4
636.999	12881.95
637.352	12918.11
637.706	12816.64
638.06	12889.41
638.413	12738
638.767	12771.22
639.121	12786.81
639.474	12748.17
639.828	12790.88
640.181	12776.87
640.534	12741.84
640.888	12707.49
641.241	12716.76
641.594	12724.21
641.947	12693.03
642.301	12668.85
642.654	12781.16
643.007	12678.11
643.36	12661.16
643.713	12657.32
644.066	12634.05
644.419	12602.86
644.771	12521.28
645.124	12376.43
645.477	12415.52
645.83	12300.27
646.182	12267.73
646.535	12298.91
646.888	12259.37
647.24	12159.26
647.593	12165.58
647.945	12176.66
648.298	12116.55
648.65	12138.01
649.002	12100.28
649.355	12186.6
649.707	12193.83
650.059	12239.93
650.411	12404.9
650.763	12362.87
651.115	12531
651.467	12464.11
651.819	12428.18
652.171	12507.5
652.523	12432.92
652.875	12460.94
653.227	12435.86
653.578	12492.13
653.93	12515.86
654.282	12416.65
654.633	12348.63
654.985	12449.64
655.337	12336.2
655.688	12465.92
656.039	12488.74
656.391	12305.47
656.742	12426.59
657.094	12343.88
657.445	12395.63
657.796	12337.1
658.147	12443.32
658.498	12375.52
658.849	12435.18
659.2	12381.4
659.551	12348.18
659.902	12399.93
660.253	12395.41
660.604	12472.47
660.955	12433.6
661.306	12422.07
661.656	12397.89
662.007	12443.99
662.358	12460.27
662.708	12475.18
663.059	12520.6
663.409	12427.72
663.76	12528.96
664.11	12447.84
664.461	12437.89
664.811	12509.08
665.161	12500.49
665.511	12456.42
665.862	12417.1
666.212	12523.99
666.562	12504.78
666.912	12428.4
667.262	12467.5
667.612	12550.43
667.962	12386.82
668.312	12456.42
668.662	12551.56
669.011	12494.39
669.361	12513.37
669.711	12472.24
670.06	12447.61
670.41	12345.24
670.76	12409.19
671.109	12446.93
671.459	12389.98
671.808	12340.72
672.157	12415.07
672.507	12330.78
672.856	12359.48
673.205	12340.27
673.554	12373.04
673.904	12368.29
674.253	12380.49
674.602	12365.13
674.951	12213.72
675.3	12147.73
675.649	12317.22
675.998	12265.47
676.346	12282.64
676.695	12419.36
677.044	12295.07
677.393	12274.06
677.741	12282.19
678.09	12181.63
678.438	12236.99
678.787	12279.48
679.135	12246.26
679.484	12174.62
679.832	12170.56
680.181	12107.96
680.529	12053.04
680.877	12037.68
681.225	12058.02
681.573	12137.11
681.922	12004.91
682.27	11953.16
682.618	12004.46
682.966	11920.39
683.314	11981.41
683.661	11872.71
684.009	11812.6
684.357	11871.13
684.705	11790.9
685.053	11759.04
685.4	11822.99
685.748	11686.27
686.095	11726.95
686.443	11627.97
686.79	11641.53
687.138	11702.09
687.485	11649.21
687.832	11580.97
688.18	11623.9
688.527	11558.37
688.874	11563.11
689.221	11496.45
689.568	11467.3
689.915	11420.97
690.262	11423
690.609	11383.46
690.956	11352.5
691.303	11329.9
691.65	11272.05
691.997	11257.36
692.344	11182.79
692.69	11265.27
693.037	11165.84
693.383	11046.07
693.73	11065.27
694.077	11028.44
694.423	11067.08
694.769	10969.46
695.116	10977.14
695.462	10945.96
695.808	10903.92
696.155	10870.48
696.501	10842.68
696.847	10807.2
697.193	10702.12
697.539	10778.95
697.885	10622.12
698.231	10601.33
698.577	10533.54
698.923	10600.65
699.269	10486.53
699.614	10406.99
699.96	10422.81
700.306	10419.87
700.651	10402.47
700.997	10334.22
701.342	10321.11
701.688	10325.41
702.033	10195.47
702.379	10201.12
702.724	10191.85
703.069	10217.84
703.415	10050.61
703.76	10094.45
704.105	10083.83
704.45	9938.98
704.795	9888.13
705.14	9894.68
705.485	9862.82
705.83	9770.84
706.175	9891.97
706.52	9818.08
706.865	9789.83
707.209	9775.82
707.554	9802.26
707.899	9742.6
708.243	9685.42
708.588	9658.76
708.932	9625.09
709.277	9610.62
709.621	9562.94
709.966	9485.43
710.31	9525.2
710.654	9465.99
710.998	9472.1
711.342	9480.46
711.687	9454.69
712.031	9420.12
712.375	9373.79
712.719	9367.92
713.063	9419.89
713.407	9380.12
713.75	9288.15
714.094	9284.98
714.438	9275.49
714.782	9250.63
715.125	9208.6
715.469	9215.61
715.812	9224.87
716.156	9184.87
716.499	9209.96
716.843	9086.34
717.186	9120.01
717.53	9199.11
717.873	9123.63
718.216	9191.65
718.559	9121.14
718.902	9072.11
719.246	9048.6
719.589	8987.59
719.932	8923.86
720.275	8951.43
720.617	8958.44
720.96	8955.05
721.303	8989.62
721.646	8900.59
721.989	8893.35
722.331	8929.28
722.674	8854.71
723.016	8954.37
723.359	8947.36
723.701	8870.76
724.044	8859
724.386	8820.59
724.729	8887.93
725.071	8884.54
725.413	8844.99
725.755	8894.26
726.097	8778.55
726.439	8859.68
726.782	8782.62
727.124	8819.68
727.465	8785.56
727.807	8790.98
728.149	8788.05
728.491	8728.16
728.833	8748.72
729.175	8752.11
729.516	8780.36
729.858	8737.88
730.199	8746.01
730.541	8752.11
730.882	8725
731.224	8712.12
731.565	8760.25
731.906	8804.77
732.248	8747.59
732.589	8708.5
732.93	8665.34
733.271	8682.51
733.612	8714.83
733.953	8757.76
734.294	8657.2
734.635	8597.99
734.976	8690.2
735.317	8679.12
735.658	8663.53
735.999	8631.89
736.339	8633.47
736.68	8750.98
737.021	8631.67
737.361	8667.14
737.702	8695.84
738.042	8652
738.383	8627.6
738.723	8694.26
739.063	8680.7
739.404	8753.7
739.744	8737.43
740.084	8681.83
740.424	8757.31
740.764	8765.22
741.104	8803.19
741.444	8842.28
741.784	8749.4
742.124	8810.19
742.464	8850.87
742.804	8814.26
743.143	8840.25
743.483	8857.87
743.823	8841.6
744.162	8866.24
744.502	8980.58
744.841	8979.23
745.181	8958.21
745.52	8976.74
745.86	9037.53
746.199	9075.5
746.538	9088.15
746.877	9167.02
747.216	9168.6
747.556	9228.71
747.895	9237.07
748.234	9296.06
748.573	9399.1
748.911	9374.47
749.25	9433.68
749.589	9454.24
749.928	9612.66
750.267	9665.31
750.605	9694.24
750.944	9723.61
751.283	9788.25
751.621	9902.59
751.96	9922.48
752.298	9990.27
752.636	10131.74
752.975	10202.7
753.313	10200.21
753.651	10425.97
753.989	10431.39
754.327	10550.71
754.666	10588.45
755.004	10700.09
755.342	10889.01
755.679	10969.01
756.017	11113.63
756.355	11268.21
756.693	11301.43
757.031	11514.53
757.368	11584.58
757.706	11710
758.044	11793.84
758.381	12027.73
758.719	12159.93
759.056	12384.11
759.394	12444.67
759.731	12545.46
760.068	12761.95
760.405	12846.47
760.743	13024.77
761.08	13273.58
761.417	13299.79
761.754	13399.45
762.091	13553.12
762.428	13795.82
762.765	13968.02
763.102	14130.96
763.438	14188.81
763.775	14282.82
764.112	14421.8
764.449	14704.5
764.785	14821.56
765.122	14869.92
765.458	15008.67
765.795	15183.81
766.131	15392.62
766.467	15512.16
766.804	15573.4
767.14	15611.6
767.476	15796
767.812	15919.84
768.148	16117.57
768.485	16097.91
768.821	16172.48
769.157	16425.13
769.492	16512.59
769.828	16707.84
770.164	16621.74
770.5	16731.79
770.836	16913.93
771.171	16907.15
771.507	17078.45
771.842	17103.08
772.178	17215.17
772.513	17299.01
772.849	17362.51
773.184	17409.29
773.519	17499.68
773.855	17537.42
774.19	17591.2
774.525	17634.82
774.86	17753.46
775.195	17811.54
775.53	17835.94
775.865	17776.06
776.2	17832.55
776.535	17814.25
776.87	17906.9
777.205	17968.82
777.539	17985.77
777.874	18105.54
778.209	18024.19
778.543	18094.02
778.878	17971.76
779.212	18102.15
779.547	18014.47
779.881	18251.98
780.215	18129.95
780.55	18174.47
780.884	18155.71
781.218	18151.64
781.552	18244.07
781.886	18228.48
782.22	18148.03
782.554	18089.04
782.888	18065.32
783.222	18044.07
783.556	18051.98
783.889	18047.24
784.223	17999.1
784.557	17990.06
784.89	18036.16
785.224	18003.17
785.557	17988.71
785.891	17915.94
786.224	17951.42
786.558	17976.05
786.891	17858.32
787.224	17866
787.557	17839.56
787.891	17950.52
788.224	17849.28
788.557	17923.85
788.89	17866.45
789.223	17795.94
789.556	17841.14
789.888	17729.05
790.221	17651.77
790.554	17611.99
790.887	17621.94
791.219	17508.49
791.552	17611.32
791.884	17429.4
792.217	17471.66
792.549	17533.8
792.882	17257.2
793.214	17336.3
793.546	17344.66
793.879	17278.9
794.211	17241.61
794.543	17321.83
794.875	17231.44
795.207	17220.14
795.539	17131.1
795.871	17192.34
796.203	16995.51
796.535	16899.7
796.867	16952.58
797.198	16952.12
797.53	16970.66
797.862	16832.35
798.193	16951.67
798.525	16723.88
798.856	16791
799.188	16575.64
799.519	16560.5
799.85	16515.3
800.182	16535.86
800.513	16624.68
800.844	16400.05
801.175	16539.03
801.506	16445.25
801.837	16385.13
802.168	16337.9
802.499	16336.77
802.83	16246.61
803.161	16203.44
803.491	16216.78
803.822	16206.83
804.153	16018.14
804.483	15946.95
804.814	15988.99
805.145	15960.06
805.475	15948.31
805.805	15915.77
806.136	15888.42
806.466	15909.89
806.796	15825.6
807.126	15741.31
807.457	15753.06
807.787	15637.36
808.117	15624.25
808.447	15513.52
808.777	15535.21
809.107	15546.51
809.436	15472.84
809.766	15504.03
810.096	15434.65
810.426	15357.82
810.755	15432.39
811.085	15374.77
811.414	15397.36
811.744	15222
812.073	15227.42
812.403	15223.13
812.732	15189.01
813.061	15163.25
813.39	15051.38
813.719	15060.65
814.049	15139.07
814.378	15125.51
814.707	14972.06
815.036	15106.98
815.365	14836.47
815.693	14815.68
816.022	14829.69
816.351	14817.49
816.68	14759.64
817.008	14775.01
817.337	14671.28
817.665	14730.94
817.994	14696.59
818.322	14591.28
818.651	14635.58
818.979	14591.28
819.307	14688.68
819.636	14560.1
819.964	14464.05
820.292	14563.94
820.62	14602.36
820.948	14492.08
821.276	14523.49
821.604	14495.69
821.932	14414.34
822.259	14416.15
822.587	14473.77
822.915	14521.45
823.243	14521.23
823.57	14422.02
823.898	14450.95
824.225	14455.47
824.553	14537.95
824.88	14519.87
825.207	14422.25
825.535	14479.42
825.862	14455.92
826.189	14414.79
826.516	14559.65
826.843	14518.74
827.17	14535.69
827.497	14529.59
827.824	14511.29
828.151	14553.54
828.478	14476.94
828.805	14595.12
829.131	14444.62
829.458	14428.12
829.785	14392.42
830.111	14370.5
830.438	14473.77
830.764	14531.62
831.09	14524.17
831.417	14404.17
831.743	14399.65
832.069	14504.51
832.395	14364.85
832.722	14507.22
833.048	14369.37
833.374	14433.1
833.7	14317.39
834.026	14316.71
834.351	14430.38
834.677	14305.19
835.003	14382.93
835.329	14361.68
835.654	14323.72
835.98	14279.43
836.306	14195.14
836.631	14213.21
836.956	14224.74
837.282	14282.36
837.607	14292.31
837.932	14215.47
838.258	14158.98
838.583	14152.65
838.908	14132.31
839.233	14072.43
839.558	14018.42
839.883	14038.3
840.208	13988.14
840.533	13947.91
840.858	13918.98
841.182	13923.28
841.507	13936.61
841.832	13856.16
842.156	13968.02
842.481	13828.14
842.805	13780.23
843.13	13794.69
843.454	13773.23
843.778	13660.69
844.103	13685.77
844.427	13687.58
844.751	13707.92
845.075	13567.58
845.399	13572.78
845.723	13447.58
846.047	13538.88
846.371	13383.63
846.695	13382.05
847.019	13273.58
847.343	13173.92
847.666	13160.13
847.99	13160.59
848.313	13165.78
848.637	13011.89
848.96	12994.71
849.284	12978.44
849.607	12760.6
849.931	12873.14
850.254	12802.86
850.577	12740.48
850.9	12723.76
851.223	12668.85
851.546	12627.04
851.869	12455.29
852.192	12585.46
852.515	12481.28
852.838	12389.53
853.161	12368.97
853.483	12255.53
853.806	12258.01
854.129	12266.15
854.451	12190.67
854.774	12154.96
855.096	12015.31
855.419	12051.46
855.741	12064.57
856.063	11957
856.385	11952.71
856.708	11899.6
857.03	11805.14
857.352	11822.54
857.674	11782.77
857.996	11794.97
858.318	11714.97
858.64	11735.09
858.961	11607.63
859.283	11580.29
859.605	11531.02
859.926	11600.18
860.248	11582.77
860.57	11496.68
860.891	11551.14
861.212	11458.26
861.534	11409.9
861.855	11417.81
862.176	11434.08
862.498	11393.85
862.819	11402.89
863.14	11305.72
863.461	11305.04
863.782	11310.24
864.103	11279.96
864.424	11304.82
864.745	11258.04
865.065	11176.23
865.386	11139.4
865.707	11164.93
866.027	11179.4
866.348	11125.39
866.668	11176.68
866.989	11147.31
867.309	11032.05
867.63	11010.59
867.95	11022.11
868.27	10942.11
868.59	10902.11
868.91	10996.58
869.23	10953.41
869.55	10882.45
869.87	10880.87
870.19	10917.48
870.51	10835
870.83	10884.49
871.15	10801.78
871.469	10858.05
871.789	10845.84
872.109	10874.77
872.428	10765.62
872.748	10756.58
873.067	10728.56
873.386	10749.8
873.706	10711.84
874.025	10588.9
874.344	10595.46
874.663	10663.25
874.982	10650.37
875.301	10653.08
875.62	10603.82
875.939	10599.98
876.258	10583.93
876.577	10555.68
876.896	10569.47
877.214	10466.19
877.533	10546.42
877.852	10454.22
878.17	10464.16
878.489	10450.6
878.807	10417.83
879.125	10378.96
879.444	10400.66
879.762	10336.48
880.08	10373.09
880.398	10329.02
880.716	10353.43
881.034	10312.75
881.352	10326.99
881.67	10252.41
881.988	10272.07
882.306	10261.91
882.624	10200.44
882.941	10175.13
883.259	10129.71
883.577	10140.33
883.894	10099.2
884.212	10074.79
884.529	10128.58
884.846	9974.23
885.164	10019.65
885.481	9995.47
885.798	9955.02
886.115	9881.8
886.432	9939.2
886.75	9884.29
887.067	9904.17
887.383	9795.93
887.7	9879.99
888.017	9763.39
888.334	9872.31
888.651	9742.6
888.967	9718.87
889.284	9732.43
889.6	9612.66
889.917	9573.11
890.233	9639.55
890.55	9581.92
890.866	9551.19
891.182	9534.24
891.498	9494.24
891.815	9391.42
892.131	9432.32
892.447	9435.71
892.763	9411.76
893.079	9407.92
893.395	9365.21
893.71	9326.79
894.026	9355.26
894.342	9258.77
894.657	9182.61
894.973	9179
895.289	9160.24
895.604	9147.58
895.92	9091.77
896.235	9053.35
896.55	9027.14
896.865	9037.08
897.181	9041.15
897.496	8920.7
897.811	8919.12
898.126	8886.35
898.441	8807.71
898.756	8725.67
899.071	8855.84
899.386	8855.84
899.7	8723.19
900.015	8732.23
900.33	8634.15
900.644	8636.41
900.959	8580.14
901.273	8584.21
901.588	8549.63
901.902	8458.79
902.216	8493.59
902.531	8424.67
902.845	8375.63
903.159	8363.2
903.473	8335.63
903.787	8246.82
904.101	8256.31
904.415	8258.34
904.729	8188.51
905.042	8205.91
905.356	8161.85
905.67	8136.54
905.984	8081.62
906.297	8056.77
906.611	8062.64
906.924	7933.38
907.237	8059.93
907.551	8014.51
907.864	7941.06
908.177	7925.7
908.491	7814.29
908.804	7832.59
909.117	7744.01
909.43	7718.24
909.743	7715.31
910.056	7648.64
910.368	7614.97
910.681	7643.9
910.994	7635.08
911.307	7512.83
911.619	7480.74
911.932	7499.04
912.244	7389.66
912.557	7459.49
912.869	7387.63
913.181	7353.96
913.494	7356.22
913.806	7303.11
914.118	7262.44
914.43	7205.26
914.742	7242.1
915.054	7214.53
915.366	7182.89
915.678	7092.95
915.99	7130.91
916.302	7043.01
916.613	6936.34
916.925	6970.92
917.236	7019.5
917.548	6981.77
917.859	6957.81
918.171	6904.03
918.482	6857.48
918.794	6779.29
919.105	6779.96
919.416	6749
919.727	6833.75
920.038	6767.99
920.349	6774.99
920.66	6642.34
920.971	6718.04
921.282	6666.75
921.593	6607.54
921.903	6587.2
922.214	6497.03
922.525	6495.45
922.835	6529.35
923.146	6413.87
923.456	6448.22
923.767	6398.73
924.077	6405.51
924.387	6373.65
924.697	6298.85
925.008	6317.15
925.318	6278.96
925.628	6250.49
925.938	6217.72
926.248	6179.07
926.558	6193.76
926.867	6165.29
927.177	6121.45
927.487	6121.9
927.796	6064.05
928.106	6084.84
928.416	6055.24
928.725	6030.15
929.034	5962.81
929.344	5982.02
929.653	5954
929.962	5905.64
930.271	5921.68
930.581	5837.84
930.89	5823.6
931.199	5766.43
931.508	5785.86
931.817	5748.13
932.125	5697.51
932.434	5707.67
932.743	5685.08
933.051	5640.78
933.36	5665.87
933.669	5640.33
933.977	5571.41
934.286	5607.79
934.594	5546.32
934.902	5553.1
935.21	5529.37
935.519	5530.5
935.827	5471.3
936.135	5471.3
936.443	5409.15
936.751	5389.27
937.059	5410.06
937.367	5350.17
937.674	5368.47
937.982	5316.05
938.29	5290.51
938.597	5286.44
938.905	5203.06
939.213	5225.43
939.52	5202.6
939.827	5176.84
940.135	5143.85
940.442	5130.06
940.749	5078.76
941.056	5105.43
941.363	5087.13
941.67	5015.94
941.977	5057.97
942.284	4974.59
942.591	4953.8
942.898	4995.6
943.205	4962.61
943.511	4880.35
943.818	4879
944.125	4862.27
944.431	4879.22
944.738	4853.91
945.044	4808.26
945.35	4768.72
945.657	4752.22
945.963	4767.13
946.269	4744.76
946.575	4721.94
946.881	4666.57
947.187	4710.86
947.493	4628.38
947.799	4676.29
948.105	4620.7
948.41	4564.2
948.716	4605.33
949.022	4606.69
949.327	4573.02
949.633	4517.65
949.938	4507.48
950.244	4455.96
950.549	4440.36
950.854	4415.05
951.16	4409.86
951.465	4390.42
951.77	4396.75
952.075	4364.66
952.38	4350.87
952.685	4307.03
952.99	4279.92
953.294	4266.81
953.599	4216.87
953.904	4247.37
954.209	4209.41
954.513	4192.01
954.818	4196.53
955.122	4169.18
955.426	4183.2
955.731	4110.43
956.035	4160.82
956.339	4091.45
956.643	4080.82
956.948	4023.2
957.252	4039.92
957.556	4041.96
957.86	4011.45
958.163	3933.03
958.467	3991.79
958.771	4007.38
959.075	3931.68
959.378	3923.09
959.682	3932.58
959.985	3888.06
960.289	3902.3
960.592	3825.69
960.896	3838.35
961.199	3844.22
961.502	3842.64
961.805	3814.84
962.108	3777.56
962.411	3754.96
962.714	3770.32
963.017	3738.01
963.32	3714.28
963.623	3699.82
963.926	3660.27
964.228	3659.82
964.531	3667.5
964.833	3663.21
965.136	3628.63
965.438	3627.28
965.741	3594.74
966.043	3566.71
966.345	3579.14
966.648	3559.26
966.95	3569.43
967.252	3520.84
967.554	3511.12
967.856	3462.99
968.158	3447.62
968.46	3437.9
968.761	3458.92
969.063	3403.55
969.365	3428.64
969.666	3393.84
969.968	3357
970.269	3358.36
970.571	3344.8
970.872	3371.24
971.174	3307.96
971.475	3340.96
971.776	3297.79
972.077	3303.67
972.378	3250.56
972.679	3273.84
972.98	3226.16
973.281	3228.87
973.582	3208.31
973.883	3203.33
974.183	3176.44
974.484	3185.48
974.785	3168.98
975.085	3147.74
975.386	3170.79
975.686	3113.17
975.986	3082.89
976.287	3089.44
976.587	3074.98
976.887	3052.6
977.187	3019.16
977.487	3020.97
977.787	2999.27
978.087	3024.58
978.387	2999.72
978.687	2969.44
978.987	2964.7
979.286	2996.79
979.586	2955.43
979.885	2910.91
980.185	2913.62
980.484	2893.06
980.784	2908.65
981.083	2913.85
981.382	2880.18
981.682	2844.25
981.981	2803.12
982.28	2815.32
982.579	2820.29
982.878	2807.41
983.177	2808.54
983.475	2792.5
983.774	2761.54
984.073	2742.56
984.372	2762.67
984.67	2735.55
984.969	2721.99
985.267	2720.63
985.566	2678.83
985.864	2692.39
986.162	2679.96
986.461	2639.28
986.759	2636.57
987.057	2614.42
987.355	2632.05
987.653	2620.52
987.951	2609.68
988.249	2573.97
988.547	2552.96
988.844	2564.03
989.142	2563.8
989.44	2530.58
989.737	2524.03
990.035	2528.32
990.332	2490.81
990.63	2488.78
990.927	2463.01
991.224	2443.35
991.521	2448.33
991.819	2410.59
992.116	2470.47
992.413	2432.05
992.71	2416.46
993.006	2404.94
993.303	2411.72
993.6	2391.6
993.897	2381.66
994.193	2364.71
994.49	2330.81
994.787	2310.48
995.083	2330.36
995.379	2330.59
995.676	2329.01
995.972	2338.5
996.268	2279.29
996.565	2267.99
996.861	2293.98
997.157	2252.85
997.453	2233.64
997.749	2209.01
998.044	2204.26
998.34	2204.49
998.636	2229.35
998.932	2172.4
999.227	2165.62
999.523	2142.57
999.818	2144.83
1000.114	2139.41
1000.409	2122.91
1000.704	2102.35
1001	2119.75
1001.295	2101.22
1001.59	2068
1001.885	2078.17
1002.18	2046.75
1002.475	2029.13
1002.77	2071.39
1003.065	2032.74
1003.359	1992.74
1003.654	2006.76
1003.949	1989.35
1004.243	1992.07
1004.538	1974.67
1004.832	1989.58
1005.127	1927.89
1005.421	1943.03
1005.715	1936.93
1006.009	1927.44
1006.304	1937.38
1006.598	1892.63
1006.892	1889.7
1007.186	1865.06
1007.48	1880.2
1007.773	1874.1
1008.067	1858.74
1008.361	1825.74
1008.655	1837.72
1008.948	1820.77
1009.242	1791.39
1009.535	1802.69
1009.829	1778.06
1010.122	1786.87
1010.415	1786.42
1010.708	1728.8
1011.001	1719.98
1011.295	1742.36
1011.588	1701.45
1011.881	1705.07
1012.173	1714.79
1012.466	1691.06
1012.759	1701.68
1013.052	1699.19
1013.344	1684.96
1013.637	1633.66
1013.93	1643.83
1014.222	1640.66
1014.514	1630.95
1014.807	1601.79
1015.099	1635.69
1015.391	1593.88
1015.683	1587.56
1015.976	1567.44
1016.268	1565.64
1016.56	1548.24
1016.851	1549.14
1017.143	1514.79
1017.435	1540.1
1017.727	1509.14
1018.018	1503.27
1018.31	1502.14
1018.602	1512.53
1018.893	1478.63
1019.185	1460.78
1019.476	1454.45
1019.767	1474.34
1020.058	1469.82
1020.35	1431.86
1020.641	1421.23
1020.932	1421.69
1021.223	1409.93
1021.514	1420.33
1021.804	1383.72
1022.095	1365.87
1022.386	1355.7
1022.677	1349.15
1022.967	1339.88
1023.258	1355.02
1023.548	1344.63
1023.839	1355.25
1024.129	1318.86
1024.419	1314.8
1024.709	1281.58
1025	1292.65
1025.29	1288.58
1025.58	1296.72
1025.87	1261.01
1026.16	1251.07
1026.449	1267.11
1026.739	1249.94
1027.029	1232.09
1027.319	1229.83
1027.608	1230.73
1027.898	1222.82
1028.187	1219.21
1028.477	1188.7
1028.766	1186.21
1029.055	1172.43
1029.344	1175.14
1029.634	1171.52
1029.923	1168.13
1030.212	1164.07
1030.501	1147.34
1030.79	1138.76
1031.078	1120.68
1031.367	1127.46
1031.656	1117.96
1031.945	1094.69
1032.233	1122.94
1032.522	1093.56
1032.81	1109.15
1033.099	1091.98
1033.387	1082.71
1033.675	1089.72
1033.963	1046.33
1034.251	1048.59
1034.54	1040
1034.828	1057.85
1035.116	1029.38
1035.403	1045.42
1035.691	1022.15
1035.979	1024.63
1036.267	1013.33
1036.554	982.6
1036.842	1017.85
1037.129	999.55
1037.417	1002.26
1037.704	948.93
1037.992	952.09
1038.279	959.55
1038.566	957.97
1038.853	957.97
1039.14	957.97
