Data from hue_50_FLMS001491_16.txt Node
Date: Mon Feb 06 15:09:40 GMT 2017
User: dcchb
Spectrometer: FLMS00149
Trigger mode: 0
Integration Time (sec): 2.000000E-2
Scans to average: 10
Electric dark correction enabled: true
Nonlinearity correction enabled: false
Boxcar width: 0
XAxis mode: Wavelengths
Number of Pixels in Spectrum: 2048
>>>>>Begin Spectral Data<<<<<
341.393	4.22
341.776	4.22
342.16	4.22
342.543	-42.1
342.927	-75.32
343.31	-68.32
343.693	-61.09
344.077	-77.81
344.46	-61.76
344.843	-56.57
345.226	-44.36
345.61	-25.61
345.993	-5.72
346.376	-33.29
346.759	7.61
347.142	24.34
347.525	26.14
347.908	42.19
348.291	89.64
348.674	100.27
349.057	144.33
349.44	149.76
349.823	136.65
350.206	166.48
350.588	213.03
350.971	196.53
351.354	236.31
351.737	244.44
352.119	259.58
352.502	255.29
352.884	270.2
353.267	289.87
353.65	289.87
354.032	282.18
354.414	292.8
354.797	310.88
355.179	309.53
355.562	319.02
355.944	319.47
356.326	336.64
356.709	331.67
357.091	346.36
357.473	338.23
357.855	354.95
358.238	350.65
358.62	315.63
359.002	339.13
359.384	339.36
359.766	349.75
360.148	340.71
360.53	346.13
360.912	329.19
361.294	349.07
361.676	341.84
362.057	352.46
362.439	343.88
362.821	329.41
363.203	312.24
363.584	333.03
363.966	340.94
364.348	335.51
364.729	328.73
365.111	330.54
365.493	331.67
365.874	319.92
366.256	311.33
366.637	314.5
367.019	335.06
367.4	316.08
367.781	317.44
368.163	324.89
368.544	334.84
368.925	315.18
369.306	329.41
369.688	305.01
370.069	310.88
370.45	309.53
370.831	327.15
371.212	327.15
371.593	280.83
371.974	292.58
372.355	337.1
372.736	303.65
373.117	310.88
373.498	330.09
373.879	293.26
374.26	333.03
374.641	339.36
375.021	324.21
375.402	328.96
375.783	320.82
376.163	327.15
376.544	319.47
376.925	326.25
377.305	333.25
377.686	317.89
378.066	293.93
378.447	339.81
378.827	324.21
379.208	311.56
379.588	323.31
379.968	326.25
380.349	313.14
380.729	328.73
381.109	340.26
381.489	341.62
381.87	341.62
382.25	323.76
382.63	338.68
383.01	355.63
383.39	345.68
383.77	343.65
384.15	343.2
384.53	336.64
384.91	335.97
385.29	361.28
385.67	361.95
386.049	357.43
386.429	353.82
386.809	365.57
387.189	343.2
387.568	342.75
387.948	333.03
388.328	360.15
388.707	342.97
389.087	364.89
389.466	350.43
389.846	362.18
390.225	356.08
390.605	347.49
390.984	358.79
391.363	352.69
391.743	354.72
392.122	365.34
392.501	359.69
392.881	353.59
393.26	359.92
393.639	369.86
394.018	372.12
394.397	374.61
394.776	361.95
395.155	377.09
395.534	348.85
395.913	385.46
396.292	363.54
396.671	375.96
397.05	380.48
397.429	394.95
397.808	369.64
398.186	358.79
398.565	385
398.944	382.29
399.323	379.13
399.701	389.98
400.08	395.17
400.458	372.35
400.837	402.18
401.215	393.59
401.594	386.59
401.972	376.87
402.351	373.48
402.729	389.52
403.107	395.4
403.486	396.53
403.864	401.95
404.242	399.69
404.62	409.64
404.999	425.91
405.377	399.24
405.755	423.42
406.133	424.55
406.511	409.64
406.889	404.21
407.267	418.22
407.645	403.76
408.023	425.91
408.401	428.39
408.779	421.39
409.156	414.61
409.534	406.25
409.912	450.54
410.29	439.92
410.667	448.73
411.045	428.39
411.422	436.3
411.8	427.71
412.178	419.81
412.555	447.38
412.933	457.09
413.31	449.41
413.687	452.12
414.065	462.74
414.442	459.8
414.819	424.55
415.197	457.77
415.574	466.58
415.951	446.7
416.328	480.59
416.705	450.54
417.082	471.1
417.46	463.42
417.837	476.53
418.214	487.15
418.591	481.5
418.967	470.65
419.344	477.43
419.721	487.83
420.098	486.7
420.475	493.7
420.852	473.59
421.228	496.87
421.605	490.31
421.982	485.79
422.358	484.44
422.735	511.78
423.111	487.83
423.488	525.34
423.864	493.7
424.241	515.85
424.617	516.07
424.994	495.28
425.37	534.83
425.746	526.7
426.123	534.15
426.499	551.33
426.875	523.53
427.251	523.53
427.627	526.02
428.003	537.54
428.379	554.49
428.756	523.98
429.132	546.36
429.507	560.37
429.883	555.85
430.259	551.1
430.635	549.97
431.011	567.15
431.387	564.89
431.763	559.91
432.138	572.8
432.514	557.43
432.89	581.16
433.265	612.79
433.641	613.02
434.016	603.76
434.392	600.37
434.767	615.05
435.143	603.53
435.518	626.81
435.894	609.86
436.269	616.64
436.644	628.61
437.02	618.67
437.395	630.87
437.77	636.52
438.145	631.78
438.52	640.82
438.895	672.68
439.271	658.22
439.646	663.41
440.021	673.13
440.395	658.9
440.77	659.8
441.145	666.8
441.52	703.19
441.895	668.16
442.27	696.63
442.645	697.76
443.019	680.14
443.394	673.81
443.769	684.21
444.143	686.47
444.518	691.66
444.892	717.88
445.267	726.24
445.641	719.46
446.016	728.05
446.39	719.68
446.764	732.79
447.139	710.19
447.513	708.61
447.887	731.44
448.262	736.86
448.636	714.94
449.01	734.6
449.384	749.97
449.758	745.45
450.132	768.27
450.506	750.87
450.88	755.84
451.254	744.77
451.628	787.25
452.002	784.77
452.376	773.47
452.75	779.57
453.123	781.83
453.497	806.01
453.871	822.51
454.244	802.17
454.618	817.54
454.992	817.99
455.365	826.57
455.739	829.29
456.112	862.96
456.486	864.31
456.859	859.79
457.232	875.61
457.606	872.45
457.979	888.04
458.352	908.38
458.725	893.69
459.099	923.52
459.472	957.87
459.845	936.4
460.218	941.6
460.591	950.41
460.964	945.22
461.337	979.79
461.71	970.07
462.083	987.7
462.456	1017.98
462.829	1027.25
463.201	1005.33
463.574	1034.25
463.947	1046
464.32	1062.95
464.692	1058.43
465.065	1076.06
465.438	1111.99
465.81	1122.39
466.183	1109.96
466.555	1166.9
466.928	1154.02
467.3	1168.26
467.672	1165.55
468.045	1194.02
468.417	1212.33
468.789	1222.95
469.161	1250.52
469.534	1271.31
469.906	1306.56
470.278	1319.89
470.65	1335.94
471.022	1359.44
471.394	1402.15
471.766	1425.2
472.138	1442.6
472.51	1471.98
472.882	1513.11
473.253	1510.4
473.625	1556.95
473.997	1585.88
474.369	1639.89
474.74	1638.76
475.112	1661.58
475.484	1730.28
475.855	1755.14
476.227	1785.65
476.598	1857.51
476.97	1921.91
477.341	1949.48
477.713	1999.42
478.084	2035.81
478.455	2103.83
478.827	2180.44
479.198	2229.7
479.569	2261.79
479.94	2342.92
480.311	2399.19
480.682	2509.24
481.053	2547.21
481.424	2634.66
481.795	2729.58
482.166	2773.42
482.537	2845.5
482.908	2918.5
483.279	2980.64
483.65	3059.96
484.021	3195.78
484.391	3281.2
484.762	3370.24
485.133	3412.04
485.503	3543.34
485.874	3673.73
486.244	3742.43
486.615	3878.25
486.985	3924.35
487.356	4091.35
487.726	4176.54
488.097	4283.21
488.467	4413.15
488.837	4540.37
489.207	4640.03
489.578	4796.41
489.948	4882.51
490.318	5041.15
490.688	5128.38
491.058	5261.94
491.428	5362.95
491.798	5502.16
492.168	5617.86
492.538	5796.16
492.908	5882.26
493.278	6001.13
493.648	6133.33
494.017	6250.61
494.387	6363.83
494.757	6481.79
495.126	6661.9
495.496	6724.05
495.866	6823.03
496.235	7026.86
496.605	7153.87
496.974	7266.86
497.344	7359.74
497.713	7482.44
498.082	7624.81
498.452	7715.43
498.821	7899.38
499.19	7962.21
499.559	8079.04
499.928	8215.53
500.298	8401.97
500.667	8482.87
501.036	8564
501.405	8766.48
501.774	8859.58
502.143	8911.11
502.512	9072.23
502.88	9185.45
503.249	9236.97
503.618	9349.97
503.987	9443.97
504.356	9535.95
504.724	9684.42
505.093	9709.73
505.462	9819.78
505.83	9963.74
506.199	10110.62
506.567	10267.46
506.936	10250.06
507.304	10457.96
507.672	10578.18
508.041	10571.4
508.409	10749.25
508.777	10884.61
509.145	10922.35
509.514	11012.07
509.882	11181.56
510.25	11169.58
510.618	11346.98
510.986	11430.36
511.354	11509.01
511.722	11691.37
512.09	11774.31
512.458	11833.74
512.826	11959.61
513.193	11972.27
513.561	12106.96
513.929	12158.93
514.297	12361.41
514.664	12504.91
515.032	12529.77
515.4	12643.21
515.767	12781.06
516.135	12846.37
516.502	12824.45
516.869	13090.88
517.237	13157.1
517.604	13127.72
517.972	13242.29
518.339	13368.39
518.706	13414.94
519.073	13560.7
519.44	13645.9
519.808	13819.9
520.175	13808.15
520.542	14000.92
520.909	14112.1
521.276	14209.95
521.643	14281.59
522.009	14380.34
522.376	14466.67
522.743	14609.26
523.11	14715.02
523.477	14804.06
523.843	14989.14
524.21	15067.56
524.577	15237.72
524.943	15298.96
525.31	15385.74
525.676	15563.59
526.043	15618.73
526.409	15746.41
526.776	15859.85
527.142	15963.35
527.508	16076.12
527.874	16204.93
528.241	16234.98
528.607	16306.39
528.973	16463.68
529.339	16477.91
529.705	16662.32
530.071	16786.83
530.437	16837.68
530.803	17064.57
531.169	17074.73
531.535	17114.51
531.901	17210.32
532.267	17240.38
532.632	17409.19
532.998	17448.51
533.364	17542.29
533.73	17575.29
534.095	17767.6
534.461	17854.6
534.826	17855.28
535.192	17926.24
535.557	18075.84
535.923	18119.68
536.288	18217.98
536.653	18247.13
537.019	18241.71
537.384	18326.68
537.749	18443.74
538.114	18589.05
538.479	18581.81
538.845	18557.41
539.21	18685.77
539.575	18697.74
539.94	18793.11
540.305	18929.6
540.67	18848.02
541.034	19064.96
541.399	19201.91
541.764	19116.71
542.129	19294.11
542.494	19314.45
542.858	19389.7
543.223	19491.62
543.587	19581.34
543.952	19474.45
544.316	19593.54
544.681	19599.64
545.045	19716.7
545.41	19845.28
545.774	19915.11
546.138	19919.41
546.503	19956.47
546.867	20036.01
547.231	20126.63
547.595	20213.64
547.959	20261.09
548.324	20280.53
548.688	20286.4
549.052	20534.98
549.416	20450.01
549.779	20530.46
550.143	20694.3
550.507	20746.73
550.871	20805.48
551.235	20799.61
551.599	20959.83
551.962	21048.42
552.326	21108.53
552.689	21204.8
553.053	21151.69
553.417	21198.69
553.78	21454.96
554.143	21331.35
554.507	21561.62
554.87	21563.66
555.234	21820.82
555.597	21662.41
555.96	21803.88
556.323	21801.39
556.686	21857.21
557.05	22036.64
557.413	22198.89
557.776	22247.25
558.139	22388.49
558.502	22473.46
558.865	22341.04
559.228	22694.25
559.59	22578.32
559.953	22637.98
560.316	22887.01
560.679	22881.81
561.041	23075.48
561.404	23224.63
561.767	23350.28
562.129	23197.51
562.492	23482.48
562.854	23496.26
563.217	23489.71
563.579	23589.59
563.941	23693.77
564.304	23862.13
564.666	23969.69
565.028	24011.28
565.39	24226.19
565.753	24244.94
566.115	24388.89
566.477	24550.24
566.839	24511.38
567.201	24671.82
567.563	24679.73
567.925	24973.96
568.287	24884.7
568.648	24933.06
569.01	25162.43
569.372	25213.5
569.734	25220.06
570.095	25392.48
570.457	25556.77
570.819	25649.2
571.18	25589.77
571.542	25824.11
571.903	25915.86
572.265	25925.35
572.626	26032.47
572.987	26086.02
573.349	26192.69
573.71	26332.57
574.071	26466.58
574.432	26323.98
574.794	26599
575.155	26599.23
575.516	26503.19
575.877	26702.05
576.238	26824.31
576.599	26897.75
576.96	26984.76
577.32	27127.35
577.681	27200.34
578.042	27312.88
578.403	27323.05
578.763	27402.15
579.124	27494.8
579.485	27593.33
579.845	27768.46
580.206	27799.42
580.566	27875.58
580.927	28026.31
581.287	28255.46
581.648	28116.93
582.008	28395.34
582.368	28389.69
582.728	28422.23
583.089	28443.48
583.449	28644.6
583.809	28730.7
584.169	28911.94
584.529	28793.52
584.889	29248.88
585.249	29108.32
585.609	29014.31
585.969	29388.31
586.329	29388.31
586.688	29506.5
587.048	29455.43
587.408	29484.58
587.768	29671.47
588.127	29760.28
588.487	29805.7
588.846	30100.38
589.206	29846.15
589.565	30069.42
589.925	30336.76
590.284	30225.8
590.643	30459.69
591.003	30672.12
591.362	30807.93
591.721	30720.93
592.08	30730.87
592.44	30895.84
592.799	31059.9
593.158	31019.68
593.517	31222.16
593.876	31282.27
594.235	31291.76
594.593	31528.37
594.952	31633.9
595.311	31509.84
595.67	31716.84
596.029	31969.26
596.387	32083.15
596.746	32025.53
597.104	31953.67
597.463	32103.94
597.822	32220.78
598.18	32292.64
598.538	32280.66
598.897	32563.82
599.255	32340.1
599.613	32985.95
599.972	32686.75
600.33	32850.59
600.688	32871.16
601.046	32970.59
601.404	33175.78
601.762	33184.37
602.12	33329
602.478	33570.57
602.836	33589.78
603.194	33477.47
603.552	33497.13
603.91	33506.17
604.268	33771.7
604.625	33550.01
604.983	33825.48
605.341	33748.42
605.698	34007.85
606.056	34184.12
606.413	34024.57
606.771	34337.33
607.128	34397.89
607.485	34257.56
607.843	34229.31
608.2	34636.76
608.557	34646.02
608.914	34650.54
609.272	34934.15
609.629	34880.59
609.986	35014.38
610.343	34851.44
610.7	35199.23
611.057	35119.91
611.414	35160.13
611.771	35313.58
612.127	35343.41
612.484	35378.21
612.841	35493.69
613.198	35473.35
613.554	35495.27
613.911	35675.83
614.267	35712.21
614.624	35817.97
614.98	35779.55
615.337	36139.09
615.693	35954.46
616.05	35970.06
616.406	36321.23
616.762	36214.8
617.118	36159.66
617.475	36222.93
617.831	36338.63
618.187	36481
618.543	36490.5
618.899	36734.78
619.255	36810.03
619.611	36748.57
619.967	36860.88
620.323	36882.12
620.678	36794.89
621.034	36759.19
621.39	36821.79
621.746	36884.61
622.101	37321.43
622.457	36952.4
622.812	37097.71
623.168	37182.68
623.523	37187.88
623.879	37238.27
624.234	37190.14
624.589	37284.15
624.945	37320.53
625.3	37192.17
625.655	37313.98
626.01	37389
626.365	37473.52
626.72	37403.24
627.075	37377.25
627.43	37257.48
627.785	37307.65
628.14	37317.37
628.495	37494.54
628.85	37395.78
629.205	37426.29
629.559	37706.96
629.914	37432.39
630.269	37369.57
630.623	37379.29
630.978	37369.12
631.332	37450.02
631.687	37594.2
632.041	37453.41
632.396	37457.7
632.75	37254.77
633.104	37285.73
633.459	37098.84
633.813	37248.67
634.167	37183.13
634.521	37357.14
634.875	37311.72
635.229	37284.6
635.583	37186.3
635.937	37119.86
636.291	37103.59
636.645	37116.47
636.999	37128.22
637.352	37282.79
637.706	36949.24
638.06	37159.18
638.413	36981.33
638.767	36912.18
639.121	37022.01
639.474	36955.79
639.828	36793.09
640.181	36980.88
640.534	36965.96
640.888	36735.46
641.241	36762.58
641.594	36839.64
641.947	36877.83
642.301	36806.65
642.654	36718.96
643.007	36800.77
643.36	36743.6
643.713	36702.69
644.066	36880.77
644.419	36627.21
644.771	36488.91
645.124	36163.05
645.477	35935.48
645.83	35696.17
646.182	35720.8
646.535	35685.54
646.888	35606.22
647.24	35426.34
647.593	35666.79
647.945	35636.28
648.298	35493.69
648.65	35402.84
649.002	35321.26
649.355	35531.2
649.707	35413.91
650.059	35530.75
650.411	35829.72
650.763	35920.34
651.115	36438.75
651.467	36217.96
651.819	36212.54
652.171	35993.56
652.523	36010.96
652.875	35988.36
653.227	35966.44
653.578	36173.67
653.93	36003.95
654.282	35949.94
654.633	35853.22
654.985	35955.14
655.337	35923.5
655.688	36174.8
656.039	36249.6
656.391	35817.52
656.742	35851.87
657.094	35972.09
657.445	35900.91
657.796	35889.16
658.147	35803.73
658.498	35796.5
658.849	35917.4
659.2	35820.23
659.551	35840.34
659.902	35942.26
660.253	35677.86
660.604	35782.27
660.955	35747.01
661.306	35780.46
661.656	35695.26
662.007	35790.17
662.358	35657.07
662.708	35682.83
663.059	35749.05
663.409	35479.22
663.76	35721.93
664.11	35649.61
664.461	35731.42
664.811	35681.03
665.161	35633.34
665.511	35655.04
665.862	35844.86
666.212	35703.17
666.562	35759.44
666.912	35689.39
667.262	35522.84
667.612	35633.57
667.962	35641.7
668.312	35478.77
668.662	35700.01
669.011	35515.61
669.361	35452.56
669.711	35534.36
670.06	35472.22
670.41	35320.58
670.76	35287.36
671.109	35518.54
671.459	35471.09
671.808	35331.2
672.157	35504.31
672.507	35367.14
672.856	35069.97
673.205	35276.06
673.554	35407.81
673.904	35160.59
674.253	35393.12
674.602	35402.61
674.951	34854.38
675.3	34766.92
675.649	35179.57
675.998	35175.05
676.346	35229.51
676.695	35342.05
677.044	35061.38
677.393	35186.8
677.741	35307.25
678.09	35164.43
678.438	34989.29
678.787	35102.28
679.135	35083.07
679.484	34820.03
679.832	35001.95
680.181	34661.84
680.529	34995.39
680.877	34761.73
681.225	34701.62
681.573	34766.47
681.922	34752.24
682.27	34624.56
682.618	34599.25
682.966	34456.42
683.314	34629.98
683.661	34453.71
684.009	34371.46
684.357	34292.81
684.705	34263.44
685.053	34130.56
685.4	34133.04
685.748	34000.62
686.095	34017.34
686.443	33897.34
686.79	33811.24
687.138	33841.75
687.485	33908.42
687.832	33733.05
688.18	33767.86
688.527	33566.5
688.874	33624.13
689.221	33476.56
689.568	33486.73
689.915	33355.89
690.262	33332.16
690.609	33331.93
690.956	33145.05
691.303	33100.3
691.65	32891.04
691.997	33069.12
692.344	32990.02
692.69	32889.23
693.037	32926.52
693.383	32693.31
693.73	32778.28
694.077	32582.12
694.423	32661.9
694.769	32395.46
695.116	32416.7
695.462	32372.64
695.808	32072.31
696.155	32248.12
696.501	31995.7
696.847	31954.34
697.193	31756.38
697.539	31911.41
697.885	31675.48
698.231	31504.19
698.577	31560.23
698.923	31535.15
699.269	31429.61
699.614	31226.45
699.96	31178.09
700.306	31219.67
700.651	31059.45
700.997	31016.06
701.342	30948.72
701.688	30778.56
702.033	30851.1
702.379	30749.63
702.724	30651.1
703.069	30732.91
703.415	30247.5
703.76	30243.88
704.105	30439.13
704.45	30305.8
704.795	30115.97
705.14	29953.04
705.485	29987.62
705.83	29941.51
706.175	30025.58
706.52	29937.22
706.865	29741.29
707.209	29755.53
707.554	29607.96
707.899	29709.43
708.243	29494.75
708.588	29514.63
708.932	29364.58
709.277	29316.67
709.621	29272.61
709.966	29105.6
710.31	29106.28
710.654	29012.5
710.998	28925.5
711.342	29053.85
711.687	28888.89
712.031	28794.88
712.375	28662.45
712.719	28736.35
713.063	28618.61
713.407	28729.8
713.75	28497.71
714.094	28482.8
714.438	28300.43
714.782	28519.41
715.125	28219.75
715.469	28294.78
715.812	28144.5
716.156	28016.82
716.499	27985.41
716.843	28160.32
717.186	27894.34
717.53	28088
717.873	27943.6
718.216	27880.33
718.559	27785.87
718.902	27591.29
719.246	27677.39
719.589	27526.66
719.932	27422.26
720.275	27431.07
720.617	27523.05
720.96	27356.72
721.303	27392.88
721.646	27253.45
721.989	27188.14
722.331	27367.12
722.674	27190.4
723.016	27290.96
723.359	27116.96
723.701	27171.42
724.044	27005.77
724.386	26941.82
724.729	27013.23
725.071	26982.5
725.413	26946.11
725.755	26938.66
726.097	26796.06
726.439	26599.91
726.782	26594.26
727.124	26780.24
727.465	26646.23
727.807	26650.3
728.149	26425.22
728.491	26424.32
728.833	26472
729.175	26380.7
729.516	26394.94
729.858	26353.81
730.199	26355.85
730.541	26274.04
730.882	26202.63
731.224	26369.18
731.565	26177.55
731.906	26079.7
732.248	26076.31
732.589	26032.69
732.93	25896.65
733.271	25885.12
733.612	25987.49
733.953	25903.66
734.294	25814.62
734.635	25722.87
734.976	25812.13
735.317	25650.1
735.658	25729.42
735.999	25670.44
736.339	25535.08
736.68	25657.56
737.021	25524
737.361	25603.78
737.702	25592.7
738.042	25518.81
738.383	25432.03
738.723	25400.39
739.063	25430.22
739.404	25419.15
739.744	25243.33
740.084	25312.71
740.424	25250.11
740.764	25146.61
741.104	25217.12
741.444	25073.62
741.784	25050.8
742.124	25033.4
742.464	24995.43
742.804	24924.25
743.143	24907.75
743.483	24864.81
743.823	24858.48
744.162	24817.58
744.502	24865.94
744.841	24748.88
745.181	24852.16
745.52	24735.1
745.86	24693.29
746.199	24701.65
746.538	24581.66
746.877	24618.49
747.216	24613.97
747.556	24559.96
747.895	24559.06
748.234	24219.63
748.573	24356.8
748.911	24365.84
749.25	24284.71
749.589	24139.86
749.928	24196.58
750.267	24282.45
750.605	24134.66
750.944	24006.3
751.283	23937.38
751.621	24129.01
751.96	23917.04
752.298	23883.14
752.636	23897.15
752.975	23763.82
753.313	23654.22
753.651	23860.32
753.989	23623.26
754.327	23636.82
754.666	23465.75
755.004	23637.95
755.342	23472.76
755.679	23470.05
756.017	23330.39
756.355	23427.56
756.693	23311.18
757.031	23388.47
757.368	23132.88
757.706	23120.45
758.044	23100.34
758.381	23063.96
758.719	22918.2
759.056	22985.54
759.394	22893.34
759.731	22850.63
760.068	22799.1
760.405	22647.7
760.743	22656.51
761.08	22670.52
761.417	22311.43
761.754	22428.27
762.091	22399.57
762.428	22342.39
762.765	22142.85
763.102	22326.12
763.438	22177.43
763.775	22047.49
764.112	21975.85
764.449	22174.26
764.785	21858.11
765.122	21696.31
765.458	21596.65
765.795	21732.24
766.131	21708.74
766.467	21560.27
766.804	21552.36
767.14	21290.67
767.476	21361.63
767.812	21269.43
768.148	21279.82
768.485	21138.81
768.821	21031.47
769.157	20981.75
769.492	20952.6
769.828	20870.79
770.164	20758.25
770.5	20663.34
770.836	20688.42
771.171	20603
771.507	20551.48
771.842	20378.38
772.178	20411.37
772.513	20381.31
772.849	20305.16
773.184	20063.13
773.519	20232.17
773.855	20021.55
774.19	19991.04
774.525	19871.27
774.86	19955.56
775.195	19919.63
775.53	19830.14
775.865	19555.8
776.2	19488.23
776.535	19386.54
776.87	19407.55
777.205	19320.55
777.539	19244.17
777.874	19319.42
778.209	19057.96
778.543	19000.11
778.878	19015.93
779.212	18885.99
779.547	18865.2
779.881	18771.87
780.215	18667.24
780.55	18730.28
780.884	18599.44
781.218	18551.76
781.552	18576.62
781.886	18497.97
782.22	18285.78
782.554	18305.21
782.888	18149.73
783.222	18069.96
783.556	17983.64
783.889	17996.74
784.223	17837.43
784.557	17757.43
784.89	17817.09
785.224	17653.93
785.557	17544.1
785.891	17535.06
786.224	17553.82
786.558	17454.84
786.891	17323.77
787.224	17218.23
787.557	17291.9
787.891	17266.37
788.224	17169.65
788.557	17136.2
788.89	17069.54
789.223	17157.9
789.556	16919.71
789.888	16852.37
790.221	16831.58
790.554	16711.81
790.887	16727.63
791.219	16625.93
791.552	16566.73
791.884	16529.21
792.217	16431.59
792.549	16370.35
792.882	16299.84
793.214	16212.61
793.546	16222.33
793.879	16090.81
794.211	16032.95
794.543	16151.82
794.875	15941.66
795.207	16062.11
795.539	15980.53
795.871	15976.46
796.203	15813.3
796.535	15762.45
796.867	15752.51
797.198	15614.43
797.53	15650.82
797.862	15503.93
798.193	15576.24
798.525	15380.54
798.856	15513.42
799.188	15305.52
799.519	15243.14
799.85	15151.62
800.182	15190.49
800.513	15223.48
800.844	14977.61
801.175	15171.06
801.506	15073.88
801.837	14944.85
802.168	14941.23
802.499	14889.03
802.83	14834.57
803.161	14797.96
803.491	14820.33
803.822	14747.56
804.153	14664.4
804.483	14583.27
804.814	14547.57
805.145	14511.86
805.475	14473.67
805.805	14418.31
806.136	14460.34
806.466	14464.86
806.796	14413.79
807.126	14254.47
807.457	14231.42
807.787	14159.56
808.117	14122.27
808.447	14210.4
808.777	14121.82
809.107	14018.09
809.436	13990.07
809.766	14004.31
810.096	13926.57
810.426	13776.52
810.755	13916.17
811.085	13876.63
811.414	13823.29
811.744	13694.03
812.073	13694.03
812.403	13630.76
812.732	13676.86
813.061	13511.21
813.39	13424.44
813.719	13479.8
814.049	13562.28
814.378	13472.12
814.707	13338.34
815.036	13396.64
815.365	13374.94
815.693	13187.83
816.022	13280.03
816.351	13241.16
816.68	13144.89
817.008	13196.19
817.337	13076.65
817.665	13080.26
817.994	13085.46
818.322	12965.92
818.651	12936.54
818.979	12944.67
819.307	12929.08
819.636	12820.16
819.964	12918.23
820.292	12891.34
820.62	12839.37
820.948	12829.2
821.276	12867.61
821.604	12773.38
821.932	12836.43
822.259	12841.17
822.587	12784.45
822.915	12736.54
823.243	12777.22
823.57	12769.54
823.898	12788.97
824.225	12712.82
824.553	12770.89
824.88	12718.47
825.207	12777.67
825.535	12739.26
825.862	12749.65
826.189	12634.17
826.516	12720.95
826.843	12747.62
827.17	12760.27
827.497	12806.37
827.824	12789.2
828.151	12786.26
828.478	12638.69
828.805	12812.02
829.131	12708.52
829.458	12710.56
829.785	12647.73
830.111	12601.86
830.438	12745.81
830.764	12737
831.09	12685.02
831.417	12620.61
831.743	12765.92
832.069	12625.36
832.395	12633.72
832.722	12721.63
833.048	12582.42
833.374	12719.14
833.7	12579.03
834.026	12665.36
834.351	12605.93
834.677	12572.48
835.003	12600.95
835.329	12564.57
835.654	12548.53
835.98	12477.79
836.306	12501.52
836.631	12452.26
836.956	12489.09
837.282	12495.19
837.607	12420.17
837.932	12347.18
838.258	12351.02
838.583	12326.16
838.908	12366.84
839.233	12288.65
839.558	12336.55
839.883	12214.07
840.208	12189.21
840.533	12212.72
840.858	12226.95
841.182	12212.49
841.507	12139.72
841.832	11978.82
842.156	12127.07
842.481	12059.73
842.805	12059.05
843.13	11953.51
843.454	11965.26
843.778	11936.56
844.103	11909.9
844.427	11854.31
844.751	11910.8
845.075	11887.3
845.399	11868.77
845.723	11705.16
846.047	11782.67
846.371	11684.82
846.695	11713.75
847.019	11615.22
847.343	11575.44
847.666	11450.25
847.99	11466.29
848.313	11426.97
848.637	11294.55
848.96	11284.38
849.284	11295.23
849.607	11231.5
849.931	11142.69
850.254	11099.52
850.577	11056.59
850.9	11003.26
851.223	10973.65
851.546	10931.62
851.869	10800.32
852.192	10921.45
852.515	10779.53
852.838	10785.41
853.161	10774.34
853.483	10633.1
853.806	10632.19
854.129	10706.09
854.451	10597.84
854.774	10569.82
855.096	10523.95
855.419	10496.83
855.741	10497.73
856.063	10435.81
856.385	10351.3
856.708	10358.53
857.03	10314.23
857.352	10226.78
857.674	10269.72
857.996	10241.92
858.318	10151.98
858.64	10194.92
858.961	10095.26
859.283	10035.37
859.605	10038.08
859.926	10144.07
860.248	10033.11
860.57	10051.42
860.891	10025.65
861.212	9948.82
861.534	9852.1
861.855	9877.41
862.176	9951.98
862.498	9917.86
862.819	9869.5
863.14	9804.19
863.461	9817.75
863.782	9797.86
864.103	9798.77
864.424	9783.63
864.745	9773.68
865.065	9668.6
865.386	9650.75
865.707	9663.86
866.027	9702.73
866.348	9681.71
866.668	9633.8
866.989	9609.85
867.309	9548.38
867.63	9584.31
867.95	9541.6
868.27	9476.74
868.59	9501.83
868.91	9555.61
869.23	9480.13
869.55	9455.05
869.87	9503.86
870.19	9363.98
870.51	9473.58
870.83	9447.36
871.15	9363.98
871.469	9407.14
871.789	9471.32
872.109	9408.72
872.428	9332.79
872.748	9393.81
873.067	9420.7
873.386	9318.55
873.706	9250.76
874.025	9221.38
874.344	9264.54
874.663	9258.89
874.982	9231.1
875.301	9183.87
875.62	9152.68
875.939	9134.38
876.258	9146.81
876.577	9139.12
876.896	9112.46
877.214	9117.2
877.533	9167.82
877.852	9052.57
878.17	9076.53
878.489	9066.58
878.807	9094.61
879.125	9039.92
879.444	8942.52
879.762	8993.14
880.08	9037.88
880.398	8905.91
880.716	9001.27
881.034	8944.1
881.352	8949.75
881.67	8891.67
881.988	8933.48
882.306	8905.01
882.624	8832.92
882.941	8826.59
883.259	8747.5
883.577	8758.8
883.894	8754.05
884.212	8785.24
884.529	8695.29
884.846	8688.97
885.164	8672.02
885.481	8691.9
885.798	8635.41
886.115	8585.24
886.432	8642.41
886.75	8517.67
887.067	8598.12
887.383	8488.97
887.7	8439.71
888.017	8535.75
888.334	8475.86
888.651	8452.59
888.967	8429.99
889.284	8376.88
889.6	8409.88
889.917	8247.4
890.233	8263.67
890.55	8279.71
890.866	8282.2
891.182	8240.16
891.498	8275.87
891.815	8203.33
892.131	8159.71
892.447	8183.22
892.763	8120.39
893.079	8175.31
893.395	8097.34
893.71	8022.77
894.026	8065.71
894.342	8027.29
894.657	7940.96
894.973	7973.73
895.289	7927.63
895.604	7977.57
895.92	7882.89
896.235	7792.49
896.55	7893.06
896.865	7842.21
897.181	7787.3
897.496	7787.97
897.811	7786.17
898.126	7745.49
898.441	7660.74
898.756	7663
899.071	7661.42
899.386	7599.96
899.7	7578.94
900.015	7501.65
900.33	7495.55
900.644	7513.18
900.959	7492.61
901.273	7424.14
901.588	7365.39
901.902	7336.69
902.216	7389.57
902.531	7334.65
902.845	7330.13
903.159	7262.79
903.473	7257.82
903.787	7206.29
904.101	7204.71
904.415	7195.22
904.729	7167.42
905.042	7100.76
905.356	7143.7
905.67	7079.97
905.984	7102.79
906.297	7064.6
906.611	7020.54
906.924	6971.05
907.237	6958.16
907.551	6929.46
907.864	6924.27
908.177	6848.79
908.491	6858.73
908.804	6809.02
909.117	6766.31
909.43	6754.33
909.743	6716.59
910.056	6710.71
910.368	6711.39
910.681	6573.99
910.994	6651.05
911.307	6587.78
911.619	6517.5
911.932	6563.6
912.244	6475.01
912.557	6486.99
912.869	6461.68
913.181	6440.66
913.494	6408.8
913.806	6394.79
914.118	6383.94
914.43	6343.27
914.742	6326.54
915.054	6298.75
915.366	6235.7
915.678	6242.25
915.99	6192.31
916.302	6153.67
916.613	6102.82
916.925	6158.64
917.236	6127.9
917.548	6061.24
917.859	6042.93
918.171	6013.33
918.482	6009.04
918.794	5945.08
919.105	5991.64
919.416	5909.83
919.727	5909.83
920.038	5934.46
920.349	5880.23
920.66	5807.91
920.971	5822.15
921.282	5819.66
921.593	5721.13
921.903	5689.72
922.214	5691.31
922.525	5711.42
922.835	5624.64
923.146	5601.59
923.456	5640.91
923.767	5619.67
924.077	5538.54
924.387	5582.38
924.697	5528.15
925.008	5497.19
925.318	5456.51
925.628	5500.35
925.938	5462.61
926.248	5363.4
926.558	5339.22
926.867	5341.26
927.177	5362.95
927.487	5329.96
927.796	5339.9
928.106	5314.82
928.416	5216.29
928.725	5231.2
929.034	5264.2
929.344	5256.74
929.653	5145.33
929.962	5102.17
930.271	5106.91
930.581	5066.24
930.89	5084.99
931.199	5031.21
931.508	5052.9
931.817	5033.02
932.125	4976.97
932.434	4967.48
932.743	4943.53
933.051	4922.96
933.36	4892.91
933.669	4835.96
933.977	4872.34
934.286	4841.38
934.594	4858.33
934.902	4759.58
935.21	4781.72
935.519	4781.72
935.827	4783.31
936.135	4699.92
936.443	4710.54
936.751	4669.64
937.059	4653.37
937.367	4635.97
937.674	4632.35
937.982	4609.07
938.29	4588.28
938.597	4621.05
938.905	4566.81
939.213	4525.69
939.52	4497.66
939.827	4520.49
940.135	4508.96
940.442	4435.29
940.749	4404.56
941.056	4464.22
941.363	4398.91
941.67	4385.8
941.977	4368.85
942.284	4307.61
942.591	4334.28
942.898	4332.7
943.205	4266.94
943.511	4249.76
943.818	4285.69
944.125	4240.95
944.431	4233.94
944.738	4205.24
945.044	4177.9
945.35	4136.09
945.657	4144.45
945.963	4155.3
946.269	4123.44
946.575	4089.77
946.881	4085.02
947.187	4099.03
947.493	4041.41
947.799	4038.47
948.105	4041.86
948.41	4002.08
948.716	3960.28
949.022	3961.18
949.327	3954.4
949.633	3897
949.938	3901.52
950.244	3913.27
950.549	3867.17
950.854	3873.73
951.16	3842.77
951.465	3821.52
951.77	3834.4
952.075	3811.81
952.38	3749.44
952.685	3790.34
952.99	3746.5
953.294	3741.98
953.599	3719.15
953.904	3666.5
954.209	3657.46
954.513	3701.3
954.818	3675.76
955.122	3637.57
955.426	3606.84
955.731	3605.26
956.035	3581.3
956.339	3555.77
956.643	3587.86
956.948	3514.19
957.252	3534.53
957.556	3533.4
957.86	3471.7
958.163	3508.31
958.467	3438.26
958.771	3462.44
959.075	3449.78
959.378	3428.09
959.682	3409.56
959.985	3375.21
960.289	3378.82
960.592	3335.21
960.896	3344.25
961.199	3325.04
961.502	3297.92
961.805	3308.54
962.108	3269.22
962.411	3293.63
962.714	3290.24
963.017	3269.22
963.32	3242.78
963.623	3205.27
963.926	3227.64
964.228	3139.28
964.531	3201.43
964.833	3194.2
965.136	3134.31
965.438	3114.42
965.741	3123.01
966.043	3079.62
966.345	3052.73
966.648	3058.61
966.95	3074.88
967.252	3023.58
967.554	3053.86
967.856	3008.44
968.158	2978.38
968.46	2998.95
968.761	2987.87
969.063	2954.88
969.365	2972.05
969.666	2967.76
969.968	2930.02
970.269	2926.63
970.571	2918.5
970.872	2942
971.174	2926.86
971.475	2872.85
971.776	2861.1
972.077	2837.82
972.378	2876.69
972.679	2817.26
972.98	2816.13
973.281	2825.17
973.582	2785.84
973.883	2775.45
974.183	2742
974.484	2789.23
974.785	2771.61
975.085	2727.09
975.386	2738.39
975.686	2738.16
975.986	2693.64
976.287	2691.84
976.587	2650.93
976.887	2680.54
977.187	2618.39
977.487	2634.44
977.787	2634.44
978.087	2598.51
978.387	2581.78
978.687	2586.75
978.987	2582.01
979.286	2568.22
979.586	2581.33
979.885	2558.28
980.185	2531.39
980.484	2542.91
980.784	2506.76
981.083	2510.6
981.382	2493.42
981.682	2466.08
981.981	2451.84
982.28	2484.61
982.579	2452.07
982.878	2469.24
983.177	2469.69
983.475	2442.13
983.774	2395.8
984.073	2420.2
984.372	2396.02
984.67	2383.82
984.969	2365.97
985.267	2369.13
985.566	2373.65
985.864	2323.71
986.162	2353.54
986.461	2348.79
986.759	2332.52
987.057	2300.66
987.355	2290.26
987.653	2284.39
987.951	2249.81
988.249	2262.69
988.547	2220.66
988.844	2261.11
989.142	2218.4
989.44	2201.45
989.737	2201.68
990.035	2195.8
990.332	2182.02
990.63	2151.29
990.927	2173.66
991.224	2120.55
991.521	2157.39
991.819	2152.19
992.116	2123.26
992.413	2147.22
992.71	2116.94
993.006	2160.1
993.303	2121
993.6	2059.76
993.897	2085.3
994.193	2086.65
994.49	2027.9
994.787	2040.33
995.083	2034
995.379	2005.53
995.676	2049.37
995.972	1989.93
996.268	2028.8
996.565	2011.4
996.861	1983.83
997.157	1959.2
997.453	1978.86
997.749	1920.1
998.044	1928.01
998.34	1935.25
998.636	1929.6
998.932	1910.84
999.227	1890.73
999.523	1911.29
999.818	1884.85
1000.114	1863.84
1000.409	1851.18
1000.704	1845.53
1001	1855.7
1001.295	1813.67
1001.59	1815.47
1001.885	1812.76
1002.18	1816.15
1002.475	1803.72
1002.77	1784.74
1003.065	1799.43
1003.359	1762.59
1003.654	1768.7
1003.949	1741.13
1004.243	1767.79
1004.538	1723.05
1004.832	1743.61
1005.127	1698.19
1005.421	1720.34
1005.715	1698.87
1006.009	1686.21
1006.304	1681.69
1006.598	1693.9
1006.892	1641.24
1007.186	1651.64
1007.48	1661.13
1007.773	1652.09
1008.067	1634.69
1008.361	1614.12
1008.655	1613.9
1008.948	1581.13
1009.242	1559.44
1009.535	1587.01
1009.829	1587.46
1010.122	1598.98
1010.415	1570.74
1010.708	1551.08
1011.001	1540.91
1011.295	1517.18
1011.588	1540
1011.881	1524.64
1012.173	1528.25
1012.466	1504.07
1012.759	1495.48
1013.052	1505.65
1013.344	1488.7
1013.637	1495.94
1013.93	1447.57
1014.222	1459.1
1014.514	1446.67
1014.807	1434.69
1015.099	1421.81
1015.391	1418.2
1015.683	1420.68
1015.976	1393.79
1016.268	1403.96
1016.56	1379.33
1016.851	1351.98
1017.143	1356.73
1017.435	1360.8
1017.727	1340.01
1018.018	1338.2
1018.31	1350.18
1018.602	1317.41
1018.893	1326
1019.185	1323.28
1019.476	1304.53
1019.767	1263.4
1020.058	1300.46
1020.35	1285.77
1020.641	1284.87
1020.932	1272.89
1021.223	1261.82
1021.514	1249.16
1021.804	1237.18
1022.095	1241.7
1022.386	1229.5
1022.677	1230.18
1022.967	1218.88
1023.258	1210.29
1023.548	1173.68
1023.839	1176.17
1024.129	1177.75
1024.419	1177.07
1024.709	1180.01
1025	1148.6
1025.29	1158.54
1025.58	1160.58
1025.87	1116.28
1026.16	1115.83
1026.449	1121.26
1026.739	1112.22
1027.029	1118.54
1027.319	1113.8
1027.608	1098.88
1027.898	1095.27
1028.187	1075.38
1028.477	1081.93
1028.766	1054.36
1029.055	1047.13
1029.344	1062.95
1029.634	1052.11
1029.923	1048.26
1030.212	1031.31
1030.501	1046
1030.79	1021.82
1031.078	1006.91
1031.367	1010.98
1031.656	1012.56
1031.945	989.06
1032.233	979.34
1032.522	991.99
1032.81	995.38
1033.099	979.11
1033.387	977.3
1033.675	954.93
1033.963	963.52
1034.251	949.06
1034.54	934.82
1034.828	915.61
1035.116	954.48
1035.403	932.33
1035.691	929.85
1035.979	941.15
1036.267	943.18
1036.554	912.67
1036.842	896.63
1037.129	869.51
1037.417	884.65
1037.704	891.66
1037.992	874.03
1038.279	889.4
1038.566	861.6
1038.853	861.6
1039.14	861.6
