Data from hue_320_FLMS001491_93.txt Node
Date: Mon Feb 06 15:47:59 GMT 2017
User: dcchb
Spectrometer: FLMS00149
Trigger mode: 0
Integration Time (sec): 2.000000E-2
Scans to average: 10
Electric dark correction enabled: true
Nonlinearity correction enabled: false
Boxcar width: 0
XAxis mode: Wavelengths
Number of Pixels in Spectrum: 2048
>>>>>Begin Spectral Data<<<<<
341.393	-20.54
341.776	-20.54
342.16	-20.54
342.543	-44.49
342.927	-66.41
343.31	-45.39
343.693	-78.61
344.077	-47.65
344.46	-86.07
344.843	-65.05
345.226	-48.56
345.61	-27.99
345.993	-27.32
346.376	-0.2
346.759	0.93
347.142	36.86
347.525	28.95
347.908	60.37
348.291	84.77
348.674	103.98
349.057	110.99
349.44	130.42
349.823	134.49
350.206	162.06
350.588	210.42
350.971	196.18
351.354	228.04
351.737	237.54
352.119	245.67
352.502	252.9
352.884	256.29
353.267	277.54
353.65	293.81
354.032	295.84
354.414	321.15
354.797	323.64
355.179	293.35
355.562	319.57
355.944	330.64
356.326	313.47
356.709	319.57
357.091	341.71
357.473	346.23
357.855	342.62
358.238	332.9
358.62	357.53
359.002	315.05
359.384	330.64
359.766	334.03
360.148	334.03
360.53	341.94
360.912	330.87
361.294	341.04
361.676	308.95
362.057	334.71
362.439	326.12
362.821	333.35
363.203	336.74
363.584	315.27
363.966	315.27
364.348	325.22
364.729	326.12
365.111	315.5
365.493	329.74
365.874	302.62
366.256	302.39
366.637	323.41
367.019	323.64
367.4	307.82
367.781	306.46
368.163	321.83
368.544	308.72
368.925	310.08
369.306	315.05
369.688	308.49
370.069	310.53
370.45	300.81
370.831	309.62
371.212	282.51
371.593	313.92
371.974	313.24
372.355	298.78
372.736	320.25
373.117	298.78
373.498	314.37
373.879	306.01
374.26	300.13
374.641	331.77
375.021	321.38
375.402	303.52
375.783	298.78
376.163	317.99
376.544	312.34
376.925	327.7
377.305	322.28
377.686	315.05
378.066	329.29
378.447	297.87
378.827	320.7
379.208	307.59
379.588	326.35
379.968	329.96
380.349	329.51
380.729	325.9
381.109	331.77
381.489	350.3
381.87	338.32
382.25	338.78
382.63	340.81
383.01	324.77
383.39	337.65
383.77	354.6
384.15	334.93
384.53	330.19
384.91	332.45
385.29	330.42
385.67	330.64
386.049	348.04
386.429	352.34
386.809	350.75
387.189	351.43
387.568	338.55
387.948	337.65
388.328	373.58
388.707	341.94
389.087	355.73
389.466	356.18
389.846	348.49
390.225	360.02
390.605	347.82
390.984	348.95
391.363	363.86
391.743	334.71
392.122	383.52
392.501	362.28
392.881	371.32
393.26	355.27
393.639	362.05
394.018	365.22
394.397	375.39
394.776	375.39
395.155	376.29
395.534	379.91
395.913	390.75
396.292	362.96
396.671	403.18
397.05	406.12
397.429	358.89
397.808	370.87
398.186	375.84
398.565	388.49
398.944	381.71
399.323	393.69
399.701	389.4
400.08	376.06
400.458	384.42
400.837	406.12
401.215	412.67
401.594	384.42
401.972	407.93
402.351	396.63
402.729	384.42
403.107	415.61
403.486	414.71
403.864	391.88
404.242	427.59
404.62	397.53
404.999	430.53
405.377	442.5
405.755	449.73
406.133	432.33
406.511	444.31
406.889	451.77
407.267	431.66
407.645	449.96
408.023	437.98
408.401	466.23
408.779	439.11
409.156	457.87
409.534	438.89
409.912	461.49
410.29	478.66
410.667	470.3
411.045	500.81
411.422	473.69
411.8	465.55
412.178	483.86
412.555	501.03
412.933	526.57
413.31	529.05
413.687	521.14
414.065	517.75
414.442	519.79
414.819	521.6
415.197	504.65
415.574	539
415.951	554.82
416.328	576.51
416.705	571.99
417.082	592.1
417.46	580.35
417.837	573.8
418.214	586
418.591	584.42
418.967	601.37
419.344	598.88
419.721	613.35
420.098	609.05
420.475	623.06
420.852	627.13
421.228	629.62
421.605	634.14
421.982	660.12
422.358	655.15
422.735	651.99
423.111	660.8
423.488	686.11
423.864	673.23
424.241	694.47
424.617	695.15
424.994	690.63
425.37	711.2
425.746	691.76
426.123	715.04
426.499	698.99
426.875	741.25
427.251	718.2
427.627	727.47
428.003	748.94
428.379	757.52
428.756	763.17
429.132	760.01
429.507	775.83
429.883	773.57
430.259	802.72
430.635	786.22
431.011	792.55
431.387	816.96
431.763	801.59
432.138	835.71
432.514	847.24
432.89	842.49
433.265	863.96
433.641	873.68
434.016	873
434.392	894.47
434.767	899.44
435.143	888.37
435.518	914.35
435.894	933.34
436.269	938.76
436.644	946.44
437.02	961.36
437.395	948.48
437.77	963.84
438.145	984.86
438.52	970.17
438.895	981.7
439.271	984.86
439.646	1003.62
440.021	1035.93
440.395	1007.69
440.77	1025.09
441.145	1037.97
441.52	1036.61
441.895	1034.35
442.27	1054.69
442.645	1028.48
443.019	1088.81
443.394	1061.7
443.769	1072.09
444.143	1049.49
444.518	1080
444.892	1074.8
445.267	1059.89
445.641	1088.14
446.016	1084.52
446.39	1093.78
446.764	1093.78
447.139	1083.16
447.513	1102.82
447.887	1105.54
448.262	1113.22
448.636	1099.43
449.01	1148.25
449.384	1164.97
449.758	1125.87
450.132	1127.91
450.506	1160.68
450.88	1143.5
451.254	1178.53
451.628	1168.13
452.002	1190.73
452.376	1185.08
452.75	1186.21
453.123	1181.47
453.497	1185.53
453.871	1200.9
454.244	1224.18
454.618	1221.69
454.992	1232.76
455.365	1242.93
455.739	1261.46
456.112	1266.44
456.486	1270.73
456.859	1280.67
457.232	1302.82
457.606	1284.74
457.979	1262.59
458.352	1311.63
458.725	1347.56
459.099	1341.91
459.472	1349.6
459.845	1380.56
460.218	1355.25
460.591	1370.61
460.964	1363.61
461.337	1382.82
461.71	1422.82
462.083	1428.92
462.456	1432.53
462.829	1398.41
463.201	1441.57
463.574	1452.87
463.947	1458.97
464.32	1478.18
464.692	1477.73
465.065	1488.12
465.438	1538.29
465.81	1507.33
466.183	1509.59
466.555	1574.9
466.928	1548.46
467.3	1575.81
467.672	1596.37
468.045	1593.66
468.417	1613.32
468.789	1621.45
469.161	1637.27
469.534	1648.35
469.906	1651.74
470.278	1685.63
470.65	1704.39
471.022	1712.98
471.394	1739.19
471.766	1736.93
472.138	1746.42
472.51	1779.42
472.882	1810.6
473.253	1837.95
473.625	1844.5
473.997	1875.01
474.369	1893.09
474.74	1889.7
475.112	1902.35
475.484	1953.65
475.855	1957.26
476.227	1967.89
476.598	2003.14
476.97	2041.33
477.341	2061.22
477.713	2093.76
478.084	2049.69
478.455	2098.05
478.827	2120.65
479.198	2206.3
479.569	2173.3
479.94	2223.25
480.311	2251.72
480.682	2321.32
481.053	2298.72
481.424	2351.38
481.795	2361.1
482.166	2367.2
482.537	2376.91
482.908	2415.33
483.279	2473.41
483.65	2489
484.021	2520.41
484.391	2539.62
484.762	2533.97
485.133	2574.42
485.503	2619.39
485.874	2656.91
486.244	2650.13
486.615	2726.06
486.985	2730.13
487.356	2765.83
487.726	2803.8
488.097	2798.6
488.467	2857.13
488.837	2889.67
489.207	2898.94
489.578	2928.09
489.948	2927.86
490.318	2995.88
490.688	2992.27
491.058	3045.37
491.428	3072.94
491.798	3076.11
492.168	3149.55
492.538	3148.65
492.908	3184.35
493.278	3178.93
493.648	3200.62
494.017	3247.4
494.387	3306.83
494.757	3245.59
495.126	3299.38
495.496	3271.35
495.866	3335.08
496.235	3339.83
496.605	3413.27
496.974	3377.57
497.344	3458.92
497.713	3434.51
498.082	3459.6
498.452	3481.74
498.821	3481.97
499.19	3507.73
499.559	3562.65
499.928	3530.1
500.298	3577.56
500.667	3573.49
501.036	3596.54
501.405	3620.27
501.774	3600.39
502.143	3654.4
502.512	3628.86
502.88	3653.04
503.249	3666.82
503.618	3670.67
503.987	3633.83
504.356	3698.69
504.724	3726.94
505.093	3737.78
505.462	3763.32
505.83	3776.2
506.199	3761.96
506.567	3848.74
506.936	3818.68
507.304	3853.26
507.672	3842.64
508.041	3889.87
508.409	3875.86
508.777	3915.86
509.145	3922.64
509.514	3885.8
509.882	3951.34
510.25	3915.86
510.618	3941.62
510.986	3963.54
511.354	3986.14
511.722	4040.83
512.09	4028.62
512.458	3989.3
512.826	3998.34
513.193	4085.34
513.561	4023.88
513.929	4090.77
514.297	4116.3
514.664	4065.91
515.032	4095.29
515.4	4134.61
515.767	4126.7
516.135	4105.01
516.502	4098
516.869	4195.17
517.237	4202.63
517.604	4174.38
517.972	4199.92
518.339	4200.14
518.706	4241.05
519.073	4212.8
519.44	4250.09
519.808	4301.16
520.175	4267.49
520.542	4276.98
520.909	4304.55
521.276	4304.77
521.643	4306.13
522.009	4391.1
522.376	4385.22
522.743	4379.57
523.11	4400.82
523.477	4395.17
523.843	4425.9
524.21	4470.65
524.577	4516.07
524.943	4556.07
525.31	4530.53
525.676	4523.75
526.043	4564.65
526.409	4581.38
526.776	4622.05
527.142	4594.03
527.508	4630.64
527.874	4690.07
528.241	4714.48
528.607	4748.15
528.973	4764.87
529.339	4712.45
529.705	4807.81
530.071	4813.24
530.437	4835.61
530.803	4858.43
531.169	4871.99
531.535	4908.83
531.901	4840.35
532.267	4927.58
532.632	4934.81
532.998	5033.12
533.364	5003.06
533.73	4982.95
534.095	5013.68
534.461	5059.1
534.826	5051.42
535.192	5071.99
535.557	5120.35
535.923	5104.3
536.288	5182.49
536.653	5203.96
537.019	5126.9
537.384	5182.49
537.749	5229.27
538.114	5209.38
538.479	5284.18
538.845	5282.6
539.21	5269.04
539.575	5274.01
539.94	5270.85
540.305	5354.92
540.67	5343.84
541.034	5361.02
541.399	5412.32
541.764	5415.25
542.129	5477.4
542.494	5458.87
542.858	5486.21
543.223	5535.25
543.587	5505.65
543.952	5561.01
544.316	5553.55
544.681	5584.06
545.045	5653.66
545.41	5665.42
545.774	5679.88
546.138	5699.99
546.503	5688.92
546.867	5716.04
547.231	5769.82
547.595	5801.23
547.959	5739.54
548.324	5818.63
548.688	5790.84
549.052	5879.87
549.416	5857.5
549.779	5899.53
550.143	5864.51
550.507	5952.41
550.871	5944.28
551.235	5938.86
551.599	5980.66
551.962	6022.24
552.326	5991.06
552.689	6024.05
553.053	6044.16
553.417	6060.66
553.78	6149.92
554.143	6099.08
554.507	6109.7
554.87	6095.69
555.234	6200.32
555.597	6188.11
555.96	6169.36
556.323	6256.13
556.686	6245.74
557.05	6269.92
557.413	6259.3
557.776	6310.14
558.139	6323.48
558.502	6354.21
558.865	6332.97
559.228	6379.3
559.59	6439.86
559.953	6433.08
560.316	6488.67
560.679	6511.5
561.041	6531.61
561.404	6545.39
561.767	6591.27
562.129	6555.56
562.492	6646.86
562.854	6569.35
563.217	6587.88
563.579	6624.71
563.941	6676.01
564.304	6696.12
564.666	6697.03
565.028	6671.72
565.39	6707.2
565.753	6755.33
566.115	6816.8
566.477	6803.47
566.839	6814.54
567.201	6843.01
567.563	6886.85
567.925	6914.87
568.287	6899.73
568.648	6876.91
569.01	6967.08
569.372	7035.55
569.734	7027.87
570.095	7093.18
570.457	7072.61
570.819	7091.59
571.18	7096.56
571.542	7150.12
571.903	7226.5
572.265	7247.52
572.626	7296.56
572.987	7275.54
573.349	7381.3
573.71	7407.74
574.071	7434.41
574.432	7508.98
574.794	7608.42
575.155	7635.53
575.516	7600.96
575.877	7714.18
576.238	7788.98
576.599	7836.66
576.96	7946.26
577.32	7911.46
577.681	8019.7
578.042	8173.82
578.403	8143.09
578.763	8242.98
579.124	8348.06
579.485	8442.07
579.845	8636.86
580.206	8640.71
580.566	8770.87
580.927	8837.54
581.287	8979.23
581.648	9009.51
582.008	9314.81
582.368	9302.16
582.728	9487.69
583.089	9622.83
583.449	9763.16
583.809	9928.35
584.169	10170.83
584.529	10242.24
584.889	10474.56
585.249	10655.12
585.609	10756.81
585.969	10987.99
586.329	11214.42
586.688	11434.76
587.048	11626.62
587.408	11828.64
587.768	12022.99
588.127	12252.14
588.487	12504.33
588.846	12754.04
589.206	12921.27
589.565	13102.51
589.925	13493.91
590.284	13690.29
590.643	14031.3
591.003	14252.53
591.362	14545.63
591.721	14774.78
592.08	14999.63
592.44	15276.91
592.799	15533.41
593.158	15800.97
593.517	16142.65
593.876	16486.83
594.235	16622.19
594.593	16915.74
594.952	17293.58
595.311	17544.43
595.67	17778.77
596.029	18135.14
596.387	18390.05
596.746	18781.23
597.104	19042.92
597.463	19256.25
597.822	19593.64
598.18	19828.89
598.538	20111.14
598.897	20472.94
599.255	20594.06
599.613	21124.44
599.972	21353.59
600.33	21530.31
600.688	21772.79
601.046	22177.07
601.404	22477.86
601.762	22795.14
602.12	23030.84
602.478	23236.71
602.836	23581.33
603.194	23652.51
603.552	24045.72
603.91	24202.33
604.268	24496.56
604.625	24615.88
604.983	25032.82
605.341	25078.46
605.698	25506.48
606.056	25742.18
606.413	26064.2
606.771	26291.54
607.128	26535.38
607.485	26627.58
607.843	26787.8
608.2	27163.38
608.557	27449.93
608.914	27500.77
609.272	27871.16
609.629	28070.25
609.986	28361.77
610.343	28473.4
610.7	28904.8
611.057	29000.17
611.414	29084.91
611.771	29265.25
612.127	29605.8
612.484	29608.97
612.841	29855.29
613.198	30036.53
613.554	30190.65
613.911	30565.78
614.267	30610.3
614.624	30862.49
614.98	30945.66
615.337	31391.52
615.693	31341.13
616.05	31437.62
616.406	31659.99
616.762	31830.38
617.118	31819.76
617.475	32046.87
617.831	32154.66
618.187	32384.04
618.543	32440.08
618.899	32804.36
619.255	32916.68
619.611	32835.1
619.967	33059.05
620.323	33228.76
620.678	33304.69
621.034	33255.2
621.39	33382.2
621.746	33535.42
622.101	33933.83
622.457	33761.63
622.812	34040.04
623.168	34173.82
623.523	34090.43
623.879	34304.89
624.234	34304.21
624.589	34476.64
624.945	34441.83
625.3	34525.67
625.655	34645.22
626.01	34682.28
626.365	34829.85
626.72	34836.4
627.075	34796.18
627.43	34877.76
627.785	34910.07
628.14	35080.01
628.495	35126.79
628.85	35115.49
629.205	35213.34
629.559	35225.99
629.914	35265.77
630.269	35264.41
630.623	35269.84
630.978	35268.25
631.332	35504.41
631.687	35560.22
632.041	35492.65
632.396	35598.87
632.75	35374.01
633.104	35507.8
633.459	35484.29
633.813	35548.92
634.167	35531.75
634.521	35547.12
634.875	35699.43
635.229	35605.87
635.583	35649.26
635.937	35485.2
636.291	35552.09
636.645	35627.79
636.999	35543.05
637.352	35719.54
637.706	35522.94
638.06	35673.67
638.413	35582.37
638.767	35571.75
639.121	35628.47
639.474	35544.63
639.828	35516.16
640.181	35388.48
640.534	35529.49
640.888	35548.7
641.241	35373.34
641.594	35444.97
641.947	35586.44
642.301	35503.28
642.654	35473.9
643.007	35556.61
643.36	35467.57
643.713	35336.05
644.066	35590.5
644.419	35296.5
644.771	35162.95
645.124	34769.06
645.477	34776.97
645.83	34573.58
646.182	34395.28
646.535	34385.11
646.888	34411.33
647.24	34363.19
647.593	34608.84
647.945	34403.19
648.298	34428.28
648.65	34262.18
649.002	34267.83
649.355	34425.34
649.707	34366.81
650.059	34388.5
650.411	34794.14
650.763	34901.71
651.115	35254.69
651.467	35177.41
651.819	35157.07
652.171	35120.69
652.523	34931.54
652.875	35082.72
653.227	34886.57
653.578	35137.18
653.93	35083.85
654.282	34838.89
654.633	34784.2
654.985	34982.16
655.337	34912.1
655.688	34899.9
656.039	35055.38
656.391	34785.1
656.742	34653.35
657.094	34647.48
657.445	35079.56
657.796	34740.81
658.147	34837.98
658.498	34939.45
658.849	34959.34
659.2	34765.22
659.551	34733.58
659.902	34901.48
660.253	34748.04
660.604	34765.89
660.955	34776.97
661.306	34947.81
661.656	34625.78
662.007	34850.41
662.358	34635.5
662.708	34818.1
663.059	34772
663.409	34555.5
663.76	34797.31
664.11	34775.61
664.461	34662.85
664.811	34683.18
665.161	34712.56
665.511	34663.3
665.862	34621.26
666.212	34740.36
666.562	34774.03
666.912	34711.88
667.262	34652
667.612	34602.96
667.962	34652.68
668.312	34499.23
668.662	34682.28
669.011	34741.26
669.361	34530.19
669.711	34627.14
670.06	34402.74
670.41	34451.33
670.76	34463.53
671.109	34485
671.459	34446.13
671.808	34532
672.157	34529.06
672.507	34286.36
672.856	34421.95
673.205	34440.25
673.554	34454.72
673.904	34421.5
674.253	34550.08
674.602	34376.75
674.951	33939.25
675.3	33748.97
675.649	34318.67
675.998	34313.7
676.346	34264.66
676.695	34481.38
677.044	34088.85
677.393	34135.63
677.741	34309.18
678.09	34243.87
678.438	34065.57
678.787	34144.67
679.135	34223.54
679.484	33920.72
679.832	34008.4
680.181	33699.26
680.529	33991.22
680.877	33897.67
681.225	33892.24
681.573	33980.15
681.922	33809.31
682.27	33714.62
682.618	33777.67
682.966	33626.49
683.314	33725.02
683.661	33612.03
684.009	33477.11
684.357	33417.91
684.705	33335.87
685.053	33349.43
685.4	33308.53
685.748	33101.08
686.095	33265.14
686.443	33087.07
686.79	33025.15
687.138	33131.13
687.485	33121.19
687.832	32905.83
688.18	32890.46
688.527	32756.68
688.874	32748.09
689.221	32772.27
689.568	32686.4
689.915	32547.42
690.262	32707.42
690.609	32497.93
690.956	32418.61
691.303	32368.22
691.65	32235.34
691.997	32199.63
692.344	32039.41
692.69	31949.24
693.037	32038.51
693.383	31688.91
693.73	31750.83
694.077	31717.61
694.423	31690.04
694.769	31572.31
695.116	31438.07
695.462	31439.65
695.808	31415.47
696.155	31454.34
696.501	31268.36
696.847	31197.63
697.193	30924.19
697.539	31128.25
697.885	30892.1
698.231	30810.52
698.577	30914.92
698.923	30875.37
699.269	30546.57
699.614	30389.06
699.96	30358.33
700.306	30443.07
700.651	30219.57
700.997	30220.93
701.342	30133.02
701.688	30073.81
702.033	30023.87
702.379	29987.49
702.724	29932.57
703.069	29923.76
703.415	29578.01
703.76	29601.06
704.105	29724.44
704.45	29610.1
704.795	29463.66
705.14	29288.3
705.485	29234.97
705.83	29245.13
706.175	29254.4
706.52	29233.16
706.865	28949.32
707.209	29052.15
707.554	29035.65
707.899	28937.57
708.243	28804.24
708.588	28664.59
708.932	28509.11
709.277	28572.61
709.621	28514.98
709.966	28456.68
710.31	28416.23
710.654	28185.28
710.998	28406.51
711.342	28332.16
711.687	28238.38
712.031	28129.46
712.375	27958.16
712.719	28047.2
713.063	27995.68
713.407	28056.01
713.75	27802.69
714.094	27933.31
714.438	27679.53
714.782	27762.24
715.125	27525.63
715.469	27661.22
715.812	27447.67
716.156	27319.08
716.499	27381.91
716.843	27430.49
717.186	27141.91
717.53	27414.9
717.873	27368.35
718.216	27246.54
718.559	27107.56
718.902	27006.78
719.246	27023.27
719.589	26968.36
719.932	26904.86
720.275	26854.01
720.617	26804.75
720.96	26785.09
721.303	26727.91
721.646	26815.59
721.989	26594.58
722.331	26520.69
722.674	26618.99
723.016	26629.16
723.359	26483.85
723.701	26436.85
724.044	26435.94
724.386	26259.68
724.729	26341.48
725.071	26243.86
725.413	26350.75
725.755	26357.98
726.097	26170.19
726.439	25842.96
726.782	25977.65
727.124	26131.32
727.465	25959.8
727.807	26007.71
728.149	25938.78
728.491	25803.64
728.833	25809.07
729.175	25650.88
729.516	25656.08
729.858	25691.78
730.199	25671.67
730.541	25636.64
730.882	25586.47
731.224	25628.28
731.565	25403.88
731.906	25560.03
732.248	25464.22
732.589	25243.21
732.93	25224.9
733.271	25307.61
733.612	25375.18
733.953	25336.54
734.294	25198.24
734.635	25193.94
734.976	25181.51
735.317	25131.34
735.658	25137.9
735.999	25039.6
736.339	24998.47
736.68	25021.29
737.021	25012.48
737.361	24872.82
737.702	24971.58
738.042	24916.89
738.383	24658.81
738.723	24856.32
739.063	24739.72
739.404	24665.37
739.744	24587.4
740.084	24606.16
740.424	24652.26
740.764	24528.42
741.104	24661.98
741.444	24431.02
741.784	24356.45
742.124	24505.6
742.464	24371.82
742.804	24311.25
743.143	24219.96
743.483	24400.29
743.823	24267.41
744.162	24218.15
744.502	24176.57
744.841	24182.9
745.181	24188.32
745.52	24082.78
745.86	24113.07
746.199	24013.86
746.538	24011.15
746.877	23954.43
747.216	24023.35
747.556	23901.55
747.895	24000.75
748.234	23817.03
748.573	23884.37
748.911	23788.1
749.25	23769.12
749.589	23654.1
749.928	23751.27
750.267	23660.88
750.605	23580.43
750.944	23537.94
751.283	23460.2
751.621	23503.14
751.96	23330.04
752.298	23326.42
752.636	23358.96
752.975	23125.52
753.313	23148.57
753.651	23165.07
753.989	23131.85
754.327	23057.05
754.666	22931.85
755.004	22993.55
755.342	22961.46
755.679	22905.41
756.017	22820.67
756.355	22801.91
756.693	22671.52
757.031	22847.56
757.368	22553.79
757.706	22523.5
758.044	22585.2
758.381	22474.47
758.719	22467.23
759.056	22383.17
759.394	22328.03
759.731	22208.71
760.068	22117.41
760.405	21989.73
760.743	21969.85
761.08	22058.21
761.417	21900.47
761.754	21888.49
762.091	21853.01
762.428	21735.95
762.765	21766.46
763.102	21734.82
763.438	21524.21
763.775	21471.55
764.112	21314.95
764.449	21530.54
764.785	21317.89
765.122	21262.07
765.458	21203.31
765.795	21138.68
766.131	20940.72
766.467	21033.6
766.804	20973.49
767.14	20805.36
767.476	20791.8
767.812	20582.31
768.148	20801.52
768.485	20592.93
768.821	20585.93
769.157	20499.83
769.492	20343.45
769.828	20377.35
770.164	20183.45
770.5	20150.23
770.836	20151.59
771.171	20099.61
771.507	19996.79
771.842	19810.58
772.178	19849.9
772.513	19797.47
772.849	19790.24
773.184	19733.52
773.519	19620.76
773.855	19552.28
774.19	19456.92
774.525	19355.23
774.86	19423.7
775.195	19286.98
775.53	19202.01
775.865	19151.16
776.2	18958.17
776.535	18926.31
776.87	18875.92
777.205	18879.76
777.539	18751.17
777.874	18755.47
778.209	18636.15
778.543	18565.19
778.878	18534.46
779.212	18459.88
779.547	18387.57
779.881	18357.96
780.215	18321.35
780.55	18229.83
780.884	18110.29
781.218	18031.42
781.552	18027.58
781.886	17933.34
782.22	17848.82
782.554	17863.97
782.888	17699.9
783.222	17545.33
783.556	17557.76
783.889	17486.12
784.223	17390.31
784.557	17322.74
784.89	17365.22
785.224	17368.84
785.557	17205
785.891	17178.56
786.224	17114.61
786.558	17049.07
786.891	16894.05
787.224	16872.13
787.557	16810.66
787.891	16881.39
788.224	16769.3
788.557	16805.24
788.89	16702.19
789.223	16564.34
789.556	16507.16
789.888	16487.73
790.221	16423.78
790.554	16287.74
790.887	16219.49
791.219	16190.79
791.552	16133.39
791.884	16101.3
792.217	16052.26
792.549	16033.28
792.882	15881.87
793.214	15855.88
793.546	15838.03
793.879	15722.1
794.211	15633.29
794.543	15616.57
794.875	15638.26
795.207	15606.85
795.539	15475.55
795.871	15516.91
796.203	15416.35
796.535	15332.28
796.867	15293.41
797.198	15179.97
797.53	15239.4
797.862	15149.69
798.193	15086.41
798.525	15049.8
798.856	15059.75
799.188	14872.63
799.519	14895.23
799.85	14870.37
800.182	14772.75
800.513	14807.55
800.844	14657.27
801.175	14768.68
801.506	14688.23
801.837	14563.26
802.168	14615.46
802.499	14567.55
802.83	14477.39
803.161	14445.98
803.491	14389.48
803.822	14362.14
804.153	14327.11
804.483	14192.65
804.814	14130.96
805.145	14189.03
805.475	14156.49
805.805	14094.35
806.136	14100.9
806.466	14032.2
806.796	14042.14
807.126	13916.95
807.457	13817.52
807.787	13905.65
808.117	13808.25
808.447	13735.26
808.777	13818.42
809.107	13700.91
809.436	13655.71
809.766	13611.42
810.096	13571.65
810.426	13620.01
810.755	13554.02
811.085	13538.2
811.414	13544.98
811.744	13378.43
812.073	13400.13
812.403	13322.39
812.732	13259.79
813.061	13342.5
813.39	13142.73
813.719	13170.3
814.049	13246.01
814.378	13247.59
814.707	13174.82
815.036	13054.15
815.365	13077.88
815.693	12913.14
816.022	12945.22
816.351	12931.89
816.68	12832.69
817.008	12880.59
817.337	12759.01
817.665	12751.78
817.994	12792.01
818.322	12719.24
818.651	12705.23
818.979	12632.69
819.307	12663.88
819.636	12609.64
819.964	12480.83
820.292	12606.48
820.62	12540.04
820.948	12453.94
821.276	12540.49
821.604	12492.81
821.932	12601.28
822.259	12465.01
822.587	12490.77
822.915	12464.33
823.243	12417.78
823.57	12464.79
823.898	12512.69
824.225	12408.74
824.553	12393.15
824.88	12517.21
825.207	12453.49
825.535	12431.79
825.862	12372.58
826.189	12365.58
826.516	12490.77
826.843	12493.03
827.17	12469.76
827.497	12507.27
827.824	12467.95
828.151	12483.54
828.478	12394.73
828.805	12482.19
829.131	12357.67
829.458	12452.13
829.785	12304.11
830.111	12401.51
830.438	12440.61
830.764	12381.4
831.09	12424.11
831.417	12314.73
831.743	12408.52
832.069	12392.02
832.395	12365.35
832.722	12359.25
833.048	12311.57
833.374	12366.93
833.7	12278.8
834.026	12297.33
834.351	12255.75
834.677	12238.12
835.003	12212.81
835.329	12215.07
835.654	12232.02
835.98	12262.08
836.306	12246.26
836.631	12144.79
836.956	12220.27
837.282	12160.16
837.607	12123.33
837.932	12037.23
838.258	12043.1
838.583	12043.78
838.908	12000.16
839.233	11976.21
839.558	11992.03
839.883	11960.84
840.208	11886.72
840.533	11845.37
840.858	11901.64
841.182	11848.98
841.507	11951.35
841.832	11819.38
842.156	11768.31
842.481	11785.93
842.805	11793.39
843.13	11721.3
843.454	11706.84
843.778	11614.64
844.103	11561.53
844.427	11677.24
844.751	11623
845.075	11566.28
845.399	11487.18
845.723	11494.42
846.047	11508.88
846.371	11419.84
846.695	11372.16
847.019	11300.52
847.343	11313.18
847.666	11166.06
847.99	11205.16
848.313	11076.57
848.637	11082.45
848.96	11069.57
849.284	11108.66
849.607	10983.69
849.931	10905.28
850.254	10792.51
850.577	10799.74
850.9	10689.69
851.223	10747.54
851.546	10648.11
851.869	10604.27
852.192	10636.36
852.515	10587.09
852.838	10543.25
853.161	10521.33
853.483	10431.39
853.806	10442.47
854.129	10398.85
854.451	10345.07
854.774	10305.75
855.096	10293.09
855.419	10293.32
855.741	10242.47
856.063	10183.72
856.385	10172.87
856.708	10145.07
857.03	10054.68
857.352	10068.24
857.674	10033.21
857.996	9973.55
858.318	9970.16
858.64	9919.54
858.961	9917.06
859.283	9847
859.605	9795.02
859.926	9892.2
860.248	9826.44
860.57	9734.69
860.891	9827.11
861.212	9722.26
861.534	9756.16
861.855	9708.02
862.176	9677.51
862.498	9668.25
862.819	9653.11
863.14	9651.75
863.461	9561.58
863.782	9568.36
864.103	9555.71
864.424	9499.21
864.745	9589.61
865.065	9434.13
865.386	9404.53
865.707	9435.94
866.027	9493.56
866.348	9423.74
866.668	9405.2
866.989	9376.05
867.309	9347.35
867.63	9374.47
867.95	9361.14
868.27	9313
868.59	9274.59
868.91	9300.8
869.23	9301.48
869.55	9233.46
869.87	9186
870.19	9212.89
870.51	9273.91
870.83	9265.55
871.15	9157.98
871.469	9217.41
871.789	9209.28
872.109	9273.91
872.428	9106.46
872.748	9089.05
873.067	9075.27
873.386	9134.93
873.706	9103.07
874.025	9037.53
874.344	9041.6
874.663	9043.41
874.982	8965.67
875.301	9005.89
875.62	9027.59
875.939	8952.34
876.258	8951.43
876.577	8911.88
876.896	8899.68
877.214	8894.71
877.533	8919.79
877.852	8873.02
878.17	8816.75
878.489	8884.31
878.807	8827.14
879.125	8856.07
879.444	8824.43
879.762	8777.2
880.08	8848.38
880.398	8750.08
880.716	8779.01
881.034	8697.43
881.352	8759.8
881.67	8726.13
881.988	8666.47
882.306	8643.42
882.624	8642.06
882.941	8639.12
883.259	8596.19
883.577	8611.78
883.894	8580.37
884.212	8525.23
884.529	8523.42
884.846	8444.55
885.164	8501.73
885.481	8442.52
885.798	8510.31
886.115	8407.49
886.432	8398.23
886.75	8395.97
887.067	8437.32
887.383	8357.55
887.7	8368.17
888.017	8308.06
888.334	8329.07
888.651	8288.17
888.967	8229.19
889.284	8225.12
889.6	8155.29
889.917	8187.61
890.233	8155.07
890.55	8138.57
890.866	8115.07
891.182	8059.93
891.498	8072.36
891.815	7967.95
892.131	8057.22
892.447	7971.8
892.763	7962.08
893.079	7903.78
893.395	7918.92
893.71	7877.79
894.026	7866.04
894.342	7878.69
894.657	7817.45
894.973	7825.36
895.289	7783.33
895.604	7737.68
895.92	7691.35
896.235	7632.37
896.55	7796.89
896.865	7665.36
897.181	7612.03
897.496	7593.5
897.811	7512.83
898.126	7544.01
898.441	7511.92
898.756	7501.07
899.071	7436.22
899.386	7515.99
899.7	7403.68
900.015	7353.28
900.33	7346.73
900.644	7304.47
900.959	7340.17
901.273	7284.36
901.588	7262.44
901.902	7183.12
902.216	7232.38
902.531	7188.77
902.845	7161.2
903.159	7095.89
903.473	7067.41
903.787	7041.88
904.101	6990.13
904.415	7017.7
904.729	6966.4
905.042	6962.33
905.356	6929.79
905.67	6953.97
905.984	6913.07
906.297	6868.55
906.611	6849.79
906.924	6844.37
907.237	6800.53
907.551	6763.92
907.864	6696.35
908.177	6717.14
908.491	6713.07
908.804	6666.29
909.117	6604.15
909.43	6617.26
909.743	6539.74
910.056	6609.57
910.368	6534.77
910.681	6529.57
910.994	6445.06
911.307	6435.11
911.619	6454.1
911.932	6383.36
912.244	6335.45
912.557	6326.42
912.869	6317.6
913.181	6278.51
913.494	6256.36
913.806	6240.77
914.118	6272.18
914.43	6177.04
914.742	6173.65
915.054	6108.12
915.366	6099.53
915.678	6063.82
915.99	6021.11
916.302	6006.65
916.613	6048.23
916.925	6023.37
917.236	5981.11
917.548	5994.67
917.859	5919.87
918.171	5955.35
918.482	5849.37
918.794	5864.51
919.105	5876.26
919.416	5854.56
919.727	5789.48
920.038	5753.1
920.349	5769.82
920.66	5722.36
920.971	5712.87
921.282	5688.24
921.593	5681.46
921.903	5649.6
922.214	5602.37
922.525	5559.2
922.835	5556.72
923.146	5537.74
923.456	5521.92
923.767	5520.34
924.077	5445.08
924.387	5436.5
924.697	5418.19
925.008	5401.02
925.318	5368.7
925.628	5368.7
925.938	5332.77
926.248	5245.31
926.558	5297.06
926.867	5260.68
927.177	5262.94
927.487	5229.5
927.796	5184.52
928.106	5196.5
928.416	5171.64
928.725	5141.59
929.034	5123.06
929.344	5130.06
929.653	5083.51
929.962	5031.31
930.271	5027.01
930.581	4981.37
930.89	4977.07
931.199	4938.2
931.508	4966.23
931.817	4892.78
932.125	4939.56
932.434	4956.51
932.743	4834.25
933.051	4807.59
933.36	4821.37
933.669	4826.79
933.977	4789.51
934.286	4749.06
934.594	4735.04
934.902	4721.26
935.21	4672.45
935.519	4674.71
935.827	4642.84
936.135	4550.87
936.443	4564.65
936.751	4551.32
937.059	4571.66
937.367	4555.39
937.674	4519.68
937.982	4539.8
938.29	4523.98
938.597	4486.01
938.905	4450.98
939.213	4382.51
939.52	4361.27
939.827	4412.57
940.135	4410.76
940.442	4405.56
940.749	4356.98
941.056	4362.85
941.363	4323.08
941.67	4295.06
941.977	4223.87
942.284	4253.7
942.591	4270.42
942.898	4225
943.205	4204.89
943.511	4194.49
943.818	4184.78
944.125	4122.63
944.431	4127.38
944.738	4080.15
945.044	4083.76
945.35	4103.2
945.657	4052.58
945.963	4060.94
946.269	4002.63
946.575	3976.87
946.881	4011.45
947.187	3985.46
947.493	3939.81
947.799	3954.73
948.105	3933.71
948.41	3939.36
948.716	3896.2
949.022	3846.93
949.327	3880.38
949.633	3824.33
949.938	3833.15
950.244	3825.46
950.549	3804.67
950.854	3808.74
951.16	3749.76
951.465	3743.88
951.77	3679.03
952.075	3678.35
952.38	3706.15
952.685	3653.49
952.99	3642.19
953.294	3639.03
953.599	3608.29
953.904	3624.34
954.209	3620.72
954.513	3606.04
954.818	3558.58
955.122	3543.89
955.426	3541.86
955.731	3524.91
956.035	3525.13
956.339	3500.05
956.643	3476.32
956.948	3446.49
957.252	3432.03
957.556	3439.03
957.86	3433.84
958.163	3446.94
958.467	3457.56
958.771	3386.61
959.075	3426.6
959.378	3347.06
959.682	3368.08
959.985	3320.84
960.289	3306.16
960.592	3300.05
960.896	3274.29
961.199	3297.57
961.502	3236.33
961.805	3261.86
962.108	3220.28
962.411	3233.62
962.714	3197.46
963.017	3168.08
963.32	3215.08
963.623	3157.46
963.926	3136.89
964.228	3148.19
964.531	3134.41
964.833	3109.55
965.136	3111.81
965.438	3061.42
965.741	3018.71
966.043	3057.35
966.345	3053.06
966.648	3047.63
966.95	3056.9
967.252	2985.49
967.554	2965.83
967.856	2947.3
968.158	2982.55
968.46	2937.13
968.761	2897.13
969.063	2927.41
969.365	2892.38
969.666	2884.7
969.968	2883.57
970.269	2838.6
970.571	2834.3
970.872	2870.01
971.174	2823.46
971.475	2820.97
971.776	2820.97
972.077	2790.24
972.378	2801.31
972.679	2780.29
972.98	2801.99
973.281	2769.22
973.582	2765.15
973.883	2756.34
974.183	2733.52
974.484	2726.51
974.785	2678.6
975.085	2703.91
975.386	2690.13
975.686	2661.65
975.986	2639.96
976.287	2626.17
976.587	2620.52
976.887	2603.8
977.187	2617.59
977.487	2587.98
977.787	2567.42
978.087	2571.49
978.387	2569.23
978.687	2531.26
978.987	2536.23
979.286	2511.6
979.586	2526.97
979.885	2520.19
980.185	2502.34
980.484	2464.6
980.784	2443.35
981.083	2463.01
981.382	2432.51
981.682	2430.92
981.981	2458.04
982.28	2429.57
982.579	2406.97
982.878	2360.42
983.177	2377.37
983.475	2406.29
983.774	2411.26
984.073	2340.31
984.372	2311.61
984.67	2353.86
984.969	2336.92
985.267	2324.94
985.566	2308.22
985.864	2299.4
986.162	2286.75
986.461	2280.42
986.759	2256.92
987.057	2294.66
987.355	2236.81
987.653	2251.27
987.951	2223.7
988.249	2215.79
988.547	2220.08
988.844	2191.84
989.142	2237.26
989.44	2183.02
989.737	2164.72
990.035	2160.65
990.332	2141.67
990.63	2143.25
990.927	2145.73
991.224	2144.6
991.521	2106.87
991.819	2081.56
992.116	2089.46
992.413	2086.75
992.71	2076.58
993.006	2066.19
993.303	2070.48
993.6	2032.29
993.897	2006.98
994.193	2035
994.49	2034.33
994.787	2015.57
995.083	2030.26
995.379	1960.88
995.676	1972.63
995.972	1992.74
996.268	1971.05
996.565	1981.22
996.861	1952.29
997.157	1934.67
997.453	1952.07
997.749	1913.88
998.044	1901.67
998.34	1882.01
998.636	1874.78
998.932	1869.58
999.227	1863.93
999.523	1847.44
999.818	1874.33
1000.114	1837.27
1000.409	1821.9
1000.704	1840.21
1001	1816.7
1001.295	1817.38
1001.59	1780.55
1001.885	1808.12
1002.18	1769.02
1002.475	1771.28
1002.77	1755.24
1003.065	1731.06
1003.359	1746.2
1003.654	1724.95
1003.949	1724.95
1004.243	1724.28
1004.538	1690.38
1004.832	1712.07
1005.127	1717.72
1005.421	1676.82
1005.715	1694.45
1006.009	1647.67
1006.304	1645.41
1006.598	1624.39
1006.892	1668.46
1007.186	1586.2
1007.48	1618.29
1007.773	1602.7
1008.067	1588.69
1008.361	1591.85
1008.655	1580.55
1008.948	1546.43
1009.242	1534
1009.535	1549.37
1009.829	1541.46
1010.122	1516.82
1010.415	1548.24
1010.708	1512.98
1011.001	1502.14
1011.295	1477.73
1011.588	1494.45
1011.881	1503.72
1012.173	1508.24
1012.466	1491.06
1012.759	1463.27
1013.052	1434.57
1013.344	1472.98
1013.637	1433.21
1013.93	1448.35
1014.222	1424.85
1014.514	1410.84
1014.807	1404.06
1015.099	1405.64
1015.391	1399.09
1015.683	1385.3
1015.976	1395.25
1016.268	1385.75
1016.56	1371.29
1016.851	1328.13
1017.143	1343.72
1017.435	1343.04
1017.727	1317.06
1018.018	1328.81
1018.31	1339.88
1018.602	1312.31
1018.893	1280.22
1019.185	1285.19
1019.476	1270.05
1019.767	1282.25
1020.058	1268.02
1020.35	1260.33
1020.641	1216.04
1020.932	1245.87
1021.223	1240.22
1021.514	1233.67
1021.804	1210.84
1022.095	1223.27
1022.386	1194.12
1022.677	1223.27
1022.967	1169.72
1023.258	1178.98
1023.548	1151.64
1023.839	1174.91
1024.129	1164.97
1024.419	1141.69
1024.709	1160.68
1025	1159.09
1025.29	1145.53
1025.58	1112.77
1025.87	1089.04
1026.16	1103.05
1026.449	1101.47
1026.739	1085.42
1027.029	1092.65
1027.319	1068.47
1027.608	1079.1
1027.898	1071.64
1028.187	1068.7
1028.477	1026.67
1028.766	1055.14
1029.055	1029.83
1029.344	1046.1
1029.634	1006.33
1029.923	1033.9
1030.212	1029.83
1030.501	1011.98
1030.79	1020.11
1031.078	989.15
1031.367	1002.94
1031.656	1000.91
1031.945	973.11
1032.233	979.89
1032.522	985.77
1032.81	978.08
1033.099	960
1033.387	962.26
1033.675	941.02
1033.963	945.54
1034.251	944.86
1034.54	941.7
1034.828	917.97
1035.116	907.8
1035.403	913.9
1035.691	908.93
1035.979	871.42
1036.267	894.47
1036.554	897.18
1036.842	895.6
1037.129	861.25
1037.417	914.81
1037.704	889.04
1037.992	855.37
1038.279	865.32
1038.566	878.65
1038.853	878.65
1039.14	878.65
