Data from hue_22_FLMS001491_00006.txt Node
Date: Tue Feb 07 17:09:25 GMT 2017
User: dcchb
Spectrometer: FLMS00149
Trigger mode: 0
Integration Time (sec): 2.000000E-2
Scans to average: 10
Electric dark correction enabled: true
Nonlinearity correction enabled: false
Boxcar width: 0
XAxis mode: Wavelengths
Number of Pixels in Spectrum: 2048
>>>>>Begin Spectral Data<<<<<
341.393	-23.8
341.776	-23.8
342.16	-23.8
342.543	-90.24
342.927	-52.05
343.31	-63.57
343.693	-76
344.077	-59.28
344.46	-72.39
344.843	-27.64
345.226	-38.26
345.61	-31.03
345.993	-18.83
346.376	-22.44
346.759	23.88
347.142	19.59
347.525	49.42
347.908	49.65
348.291	74.96
348.674	103.2
349.057	88.74
349.44	132.13
349.823	158.12
350.206	138.91
350.588	178.23
350.971	207.83
351.354	225.01
351.737	235.4
352.119	244.22
352.502	265.69
352.884	268.62
353.267	280.6
353.65	288.06
354.032	293.03
354.414	289.41
354.797	307.72
355.179	324.21
355.562	350.65
355.944	330.32
356.326	315.4
356.709	335.06
357.091	343.42
357.473	343.2
357.855	334.16
358.238	353.59
358.62	345.23
359.002	328.51
359.384	332.58
359.766	348.17
360.148	340.03
360.53	347.72
360.912	325.8
361.294	330.99
361.676	324.67
362.057	341.84
362.439	320.82
362.821	322.41
363.203	326.02
363.584	344.33
363.966	329.19
364.348	323.08
364.729	329.19
365.111	315.63
365.493	310.43
365.874	312.46
366.256	318.11
366.637	305.23
367.019	308.85
367.4	316.08
367.781	308.4
368.163	319.69
368.544	304.33
368.925	295.29
369.306	315.18
369.688	321.28
370.069	301.84
370.45	312.46
370.831	294.84
371.212	312.69
371.593	311.33
371.974	311.79
372.355	328.06
372.736	323.76
373.117	307.04
373.498	324.89
373.879	314.95
374.26	326.25
374.641	313.82
375.021	301.16
375.402	308.62
375.783	312.01
376.163	333.48
376.544	324.89
376.925	335.74
377.305	323.08
377.686	344.78
378.066	312.92
378.447	318.34
378.827	352.01
379.208	307.04
379.588	313.14
379.968	327.83
380.349	325.57
380.729	331.67
381.109	334.61
381.489	321.95
381.87	340.71
382.25	348.17
382.63	333.71
383.01	335.06
383.39	331.9
383.77	347.04
384.15	322.63
384.53	326.93
384.91	338.9
385.29	344.1
385.67	344.78
386.049	363.76
386.429	375.29
386.809	360.37
387.189	354.72
387.568	335.74
387.948	376.19
388.328	368.06
388.707	361.95
389.087	352.01
389.466	361.05
389.846	362.86
390.225	368.73
390.605	350.65
390.984	353.37
391.363	344.55
391.743	362.86
392.122	364.44
392.501	356.76
392.881	368.28
393.26	355.63
393.639	360.82
394.018	378
394.397	360.6
394.776	381.39
395.155	380.26
395.534	380.94
395.913	377.09
396.292	402.18
396.671	384.33
397.05	398.11
397.429	375.29
397.808	377.55
398.186	389.52
398.565	398.56
398.944	394.04
399.323	392.69
399.701	369.86
400.08	385.46
400.458	379.35
400.837	399.47
401.215	400.37
401.594	375.74
401.972	399.01
402.351	404.66
402.729	402.18
403.107	425.91
403.486	396.3
403.864	385.46
404.242	400.6
404.62	400.14
404.999	418.22
405.377	433.59
405.755	407.38
406.133	421.16
406.511	425.23
406.889	410.09
407.267	448.96
407.645	428.84
408.023	415.06
408.401	438.34
408.779	452.12
409.156	447.15
409.534	444.66
409.912	455.06
410.29	427.94
410.667	419.13
411.045	424.55
411.422	454.83
411.8	472.46
412.178	481.27
412.555	459.13
412.933	452.12
413.31	460.26
413.687	466.36
414.065	493.93
414.442	474.27
414.819	471.56
415.197	452.8
415.574	496.87
415.951	491.67
416.328	487.15
416.705	500.03
417.082	473.36
417.46	488.96
417.837	496.19
418.214	484.21
418.591	505.9
418.967	486.47
419.344	493.7
419.721	503.64
420.098	496.64
420.475	470.2
420.852	514.49
421.228	541.84
421.605	514.04
421.982	504.32
422.358	537.09
422.735	526.47
423.111	515.4
423.488	547.26
423.864	527.83
424.241	559.24
424.617	538.22
424.994	518.79
425.37	531.67
425.746	522.4
426.123	555.17
426.499	559.91
426.875	552.46
427.251	580.03
427.627	577.99
428.003	567.6
428.379	579.58
428.756	569.86
429.132	572.57
429.507	596.98
429.883	569.41
430.259	590.42
430.635	603.53
431.011	593.13
431.387	579.12
431.763	611.66
432.138	624.55
432.514	615.96
432.89	606.92
433.265	653.92
433.641	627.71
434.016	621.83
434.392	652.34
434.767	628.84
435.143	648.27
435.518	652.57
435.894	657.99
436.269	658.22
436.644	662.96
437.02	680.14
437.395	683.75
437.77	707.48
438.145	674.71
438.52	693.02
438.895	701.15
439.271	697.54
439.646	691.89
440.021	727.59
440.395	712.9
440.77	714.26
441.145	713.36
441.52	729.4
441.895	749.74
442.27	749.74
442.645	740.93
443.019	722.4
443.394	738.67
443.769	738.22
444.143	741.38
444.518	753.36
444.892	762.85
445.267	756.52
445.641	771.66
446.016	796.52
446.39	773.69
446.764	780.7
447.139	792.68
447.513	781.15
447.887	786.12
448.262	794.71
448.636	782.28
449.01	817.76
449.384	811.43
449.758	820.02
450.132	811.89
450.506	830.42
450.88	840.81
451.254	825.9
451.628	860.7
452.002	862.28
452.376	822.05
452.75	852.11
453.123	836.74
453.497	868.38
453.871	877.42
454.244	894.6
454.618	890.3
454.992	891.66
455.365	902.73
455.739	915.84
456.112	922.39
456.486	930.75
456.859	927.14
457.232	938.21
457.606	913.8
457.979	955.61
458.352	970.75
458.725	977.08
459.099	972.11
459.472	999.68
459.845	987.93
460.218	1010.3
460.591	1017.08
460.964	1028.15
461.337	1019.34
461.71	1050.07
462.083	1067.47
462.456	1064.76
462.829	1088.94
463.201	1059.56
463.574	1078.77
463.947	1115.61
464.32	1128.94
464.692	1114.93
465.065	1133.91
465.438	1159.67
465.81	1201.48
466.183	1145.21
466.555	1184.53
466.928	1225.66
467.3	1205.1
467.672	1239.67
468.045	1234.25
468.417	1259.78
468.789	1268.82
469.161	1266.79
469.534	1267.24
469.906	1329.16
470.278	1338.2
470.65	1325.77
471.022	1354.92
471.394	1396.73
471.766	1405.99
472.138	1405.09
472.51	1453.22
472.882	1465.2
473.253	1507.01
473.625	1481.92
473.997	1534.13
474.369	1541.58
474.74	1558.76
475.112	1612.32
475.484	1613.67
475.855	1618.42
476.227	1620.68
476.598	1695.25
476.97	1712.65
477.341	1753.1
477.713	1794.01
478.084	1796.27
478.455	1815.93
478.827	1864.97
479.198	1897.28
479.569	1911.07
479.94	1994.68
480.311	1958.75
480.682	2000.78
481.053	2079.42
481.424	2122.59
481.795	2137.95
482.166	2130.72
482.537	2221.57
482.908	2240.32
483.279	2295.91
483.65	2326.87
484.021	2365.97
484.391	2372.07
484.762	2415.46
485.133	2461.11
485.503	2494.78
485.874	2523.48
486.244	2584.27
486.615	2642.12
486.985	2676.92
487.356	2733.19
487.726	2740.87
488.097	2796.24
488.467	2835.11
488.837	2891.38
489.207	2901.77
489.578	2974.99
489.948	3008.44
490.318	3083.92
490.688	3081.88
491.058	3130.47
491.428	3151.71
491.798	3218.83
492.168	3251.82
492.538	3252.5
492.908	3335.43
493.278	3388.99
493.648	3377.69
494.017	3452.49
494.387	3499.72
494.757	3499.5
495.126	3583.34
495.496	3585.6
495.866	3598.7
496.235	3639.16
496.605	3639.83
496.974	3725.93
497.344	3757.8
497.713	3741.53
498.082	3827.63
498.452	3845.25
498.821	3848.19
499.19	3857.46
499.559	3941.52
499.928	3963.67
500.298	4014.06
500.667	4035.98
501.036	4036.89
501.405	4055.19
501.774	4104.23
502.143	4138.13
502.512	4125.92
502.88	4188.07
503.249	4201.63
503.618	4212.25
503.987	4230.55
504.356	4300.61
504.724	4313.94
505.093	4333.15
505.462	4331.34
505.83	4352.81
506.199	4378.12
506.567	4431.68
506.936	4416.99
507.304	4440.94
507.672	4496.99
508.041	4539.7
508.409	4515.29
508.777	4519.58
509.145	4614.05
509.514	4599.13
509.882	4622.63
510.25	4628.51
510.618	4667.15
510.986	4680.71
511.354	4710.54
511.722	4755.96
512.09	4795.74
512.458	4822.4
512.826	4879.8
513.193	4900.59
513.561	4878.9
513.929	4858.11
514.297	4877.32
514.664	4929.97
515.032	4937.65
515.4	5015.84
515.767	4983.98
516.135	5073.47
516.502	4991.21
516.869	5100.81
517.237	5135.84
517.604	5102.39
517.972	5133.35
518.339	5165.44
518.706	5136.29
519.073	5181.04
519.44	5213.58
519.808	5260.13
520.175	5237.98
520.542	5322.95
520.909	5305.1
521.276	5284.31
521.643	5324.54
522.009	5390.07
522.376	5401.6
522.743	5434.81
523.11	5513.91
523.477	5528.6
523.843	5535.38
524.21	5617.63
524.577	5608.14
524.943	5580.57
525.31	5638.2
525.676	5709.61
526.043	5746.67
526.409	5799.78
526.776	5798.65
527.142	5821.47
527.508	5883.84
527.874	5888.14
528.241	5997.51
528.607	5959.55
528.973	5984.63
529.339	5962.48
529.705	6063.27
530.071	6083.84
530.437	6141.91
530.803	6138.07
531.169	6155.7
531.535	6170.16
531.901	6148.24
532.267	6222.82
532.632	6307.56
532.998	6277.73
533.364	6327.67
533.73	6373.77
534.095	6388.24
534.461	6455.13
534.826	6501
535.192	6379.2
535.557	6525.86
535.923	6508.23
536.288	6577.61
536.653	6592.52
537.019	6552.3
537.384	6585.29
537.749	6669.36
538.114	6631.39
538.479	6657.83
538.845	6681.11
539.21	6682.69
539.575	6798.17
539.94	6748.45
540.305	6803.59
540.67	6803.37
541.034	6876.36
541.399	6869.35
541.764	6918.84
542.129	6881.78
542.494	6915
542.858	6974.89
543.223	6993.64
543.587	7020.08
543.952	7078.16
544.316	7079.97
544.681	7115.45
545.045	7111.83
545.41	7142.79
545.774	7170.81
546.138	7166.75
546.503	7204.03
546.867	7247.2
547.231	7307.53
547.595	7352.73
547.959	7355.67
548.324	7389.79
548.688	7420.98
549.052	7409
549.416	7433.63
549.779	7405.61
550.143	7498.94
550.507	7514.76
550.871	7543.23
551.235	7653.29
551.599	7650.12
551.962	7677.24
552.326	7629.56
552.689	7696.45
553.053	7735.09
553.417	7762.89
553.78	7736.9
554.143	7768.54
554.507	7856.22
554.87	7827.07
555.234	7900.51
555.597	7853.28
555.96	7855.09
556.323	7903.45
556.686	7964.47
557.05	7998.36
557.413	8073.39
557.776	7987.97
558.139	8082.43
558.502	8144.12
558.865	8130.11
559.228	8172.14
559.59	8231.8
559.953	8276.1
560.316	8306.38
560.679	8264.34
561.041	8340.05
561.404	8357.68
561.767	8409.88
562.129	8429.54
562.492	8477.22
562.854	8473.15
563.217	8452.14
563.579	8523.32
563.941	8540.72
564.304	8648.52
564.666	8574.62
565.028	8617.1
565.39	8664.11
565.753	8706.14
566.115	8730.1
566.477	8743.88
566.839	8859.13
567.201	8854.61
567.563	8905.01
567.925	8971.44
568.287	9009.41
568.648	8972.35
569.01	9053.48
569.372	9095.51
569.734	9077.2
570.095	9152.23
570.457	9191.78
570.819	9241.27
571.18	9289.18
571.542	9286.01
571.903	9278.1
572.265	9377.54
572.626	9456.18
572.987	9446.46
573.349	9442.17
573.71	9547.7
574.071	9555.38
574.432	9628.83
574.794	9780.69
575.155	9713.35
575.516	9788.82
575.877	9809.61
576.238	9949.27
576.599	9981.14
576.96	10025.2
577.32	10086.67
577.681	10187.23
578.042	10227.68
578.403	10372.99
578.763	10422.25
579.124	10481.46
579.485	10630.38
579.845	10755.58
580.206	10716.26
580.566	10888
580.927	11010.94
581.287	11183.36
581.648	11198.96
582.008	11339.74
582.368	11449.12
582.728	11615.67
583.089	11687.53
583.449	11857.7
583.809	12054.3
584.169	12181.3
584.529	12328.87
584.889	12585.36
585.249	12687.51
585.609	12747.62
585.969	13092.47
586.329	13304.21
586.688	13500.14
587.048	13695.61
587.408	13957.75
587.768	14112.33
588.127	14341.02
588.487	14592.54
588.846	14893.55
589.206	14980.55
589.565	15348.23
589.925	15656.69
590.284	15829.12
590.643	16109.34
591.003	16320.18
591.362	16612.37
591.721	16930.33
592.08	17130.1
592.44	17511.11
592.799	17720.59
593.158	17987.71
593.517	18423.17
593.876	18691.87
594.235	18838.08
594.593	19246.88
594.952	19534.11
595.311	19776.13
595.67	20191.71
596.029	20574.76
596.387	20840.29
596.746	21260.61
597.104	21447.05
597.463	21746.25
597.822	22067.37
598.18	22362.05
598.538	22639.79
598.897	23143.28
599.255	23268.47
599.613	23918.17
599.972	24004.72
600.33	24382.79
600.688	24589.79
601.046	24910.69
601.404	25281.52
601.762	25635.87
602.12	25986.36
602.478	26209.18
602.836	26671.09
603.194	26824.76
603.552	27119.44
603.91	27224.3
604.268	27839.42
604.625	28004.16
604.983	28326.42
605.341	28506.07
605.698	28992.61
606.056	29286.62
606.413	29488.87
606.771	29832.59
607.128	30082.53
607.485	30210.89
607.843	30535.17
608.2	30824.2
608.557	31185.1
608.914	31283.85
609.272	31748.47
609.629	31972.65
609.986	32217.84
610.343	32218.07
610.7	32858.5
611.057	32895.79
611.414	33151.6
611.771	33417.81
612.127	33723.34
612.484	33810.34
612.841	34227.05
613.198	34241.29
613.554	34425.69
613.911	34718.34
614.267	35013.92
614.624	35150.42
614.98	35274.03
615.337	35621.37
615.693	35756.96
616.05	35888.7
616.406	36183.16
616.762	36226.55
617.118	36473.55
617.475	36600.77
617.831	36828.57
618.187	37065.17
618.543	37150.14
618.899	37469.68
619.255	37601.43
619.611	37637.13
619.967	37983.56
620.323	38021.3
620.678	38027.18
621.034	38078.02
621.39	38229.21
621.746	38327.51
622.101	38833.03
622.457	38673.94
622.812	38885.91
623.168	39049.3
623.523	38988.28
623.879	39303.75
624.234	39096.3
624.589	39514.37
624.945	39441.6
625.3	39588.94
625.655	39551.88
626.01	39747.58
626.365	39749.62
626.72	39906.45
627.075	39920.46
627.43	39951.2
627.785	39889.95
628.14	40060.34
628.495	40194.58
628.85	40306.67
629.205	40089.27
629.559	40544.17
629.914	40324.52
630.269	40544.4
630.623	40467.79
630.978	40484.06
631.332	40636.38
631.687	40871.4
632.041	40641.57
632.396	40758.63
632.75	40698.52
633.104	40811.06
633.459	40641.12
633.813	40579.65
634.167	40723.6
634.521	40854.22
634.875	40810.83
635.229	40766.32
635.583	40650.39
635.937	40666.66
636.291	40821.23
636.645	40738.29
636.999	40834.11
637.352	40868.69
637.706	40602.93
638.06	40847.67
638.413	40836.82
638.767	40716.15
639.121	40856.48
639.474	40552.54
639.828	40616.04
640.181	40733.1
640.534	40718.63
640.888	40595.92
641.241	40556.6
641.594	40669.59
641.947	40759.31
642.301	40755.24
642.654	40795.92
643.007	40653.1
643.36	40674.11
643.713	40656.94
644.066	40737.16
644.419	40689.25
644.771	40191.19
645.124	40094.69
645.477	39961.59
645.83	39850.18
646.182	39634.82
646.535	39560.7
646.888	39615.38
647.24	39376.52
647.593	39578.78
647.945	39564.99
648.298	39402.51
648.65	39345.11
649.002	39181.05
649.355	39443.19
649.707	39489.74
650.059	39572
650.411	39994.58
650.763	39984.87
651.115	40451.07
651.467	40308.25
651.819	40290.4
652.171	40212.88
652.523	40248.59
652.875	40189.38
653.227	40049.95
653.578	40476.38
653.93	40274.8
654.282	39985.77
654.633	40018.09
654.985	40169.04
655.337	40082.49
655.688	40147.8
656.039	40246.33
656.391	39991.65
656.742	40083.62
657.094	40050.85
657.445	40155.26
657.796	40177.86
658.147	39975.83
658.498	39983.74
658.849	40012.89
659.2	40025.09
659.551	39869.16
659.902	40137.63
660.253	40063.51
660.604	40145.54
660.955	39882.04
661.306	40044.07
661.656	39904.42
662.007	39922.95
662.358	40024.19
662.708	39943.74
663.059	39858.77
663.409	39756.17
663.76	39905.32
664.11	39932.89
664.461	39908.94
664.811	39805.21
665.161	39729.05
665.511	39737.87
665.862	39818.09
666.212	39864.87
666.562	39894.93
666.912	39766.12
667.262	39791.65
667.612	39781.93
667.962	39884.98
668.312	39754.59
668.662	39905.09
669.011	39831.65
669.361	39726.12
669.711	39812.89
670.06	39841.59
670.41	39814.93
670.76	39715.04
671.109	39927.02
671.459	39719.56
671.808	39682.5
672.157	39739.9
672.507	39416.52
672.856	39564.09
673.205	39471.21
673.554	39714.82
673.904	39581.94
674.253	39760.01
674.602	39611.09
674.951	39126.13
675.3	38948.51
675.649	39529.74
675.998	39295.62
676.346	39457.65
676.695	39564.54
677.044	39185.79
677.393	39357.99
677.741	39562.73
678.09	39367.71
678.438	39207.26
678.787	39362.06
679.135	39318.22
679.484	39078.68
679.832	39305.11
680.181	38973.59
680.529	39150.09
680.877	38950.54
681.225	39010.88
681.573	39204.1
681.922	38905.57
682.27	38772.92
682.618	38866.93
682.966	38825.35
683.314	38877.55
683.661	38656.54
684.009	38574.06
684.357	38440.05
684.705	38514.17
685.053	38472.82
685.4	38449.54
685.748	38320.05
686.095	38143.33
686.443	38003
686.79	37918.71
687.138	38179.04
687.485	38091.58
687.832	37943.11
688.18	38045.93
688.527	37787.18
688.874	37746.96
689.221	37523.24
689.568	37516.46
689.915	37449.57
690.262	37386.52
690.609	37473.97
690.956	37270.59
691.303	37188.78
691.65	37090.03
691.997	37194.88
692.344	36814.78
692.69	36972.97
693.037	36869.92
693.383	36548.35
693.73	36798.96
694.077	36517.84
694.423	36544.96
694.769	36408.46
695.116	36320.33
695.462	36218.64
695.808	36153.33
696.155	36151.52
696.501	36029.26
696.847	36031.75
697.193	35758.09
697.539	35969.61
697.885	35568.94
698.231	35574.14
698.577	35544.31
698.923	35511.54
699.269	35311.32
699.614	35117.42
699.96	35122.4
700.306	35110.87
700.651	34863.65
700.997	34772.57
701.342	34657.1
701.688	34639.92
702.033	34533.94
702.379	34451.45
702.724	34512.02
703.069	34525.12
703.415	34132.59
703.76	34094.63
704.105	34271.12
704.45	34066.38
704.795	33990.22
705.14	33764.92
705.485	33825.03
705.83	33756.78
706.175	33817.35
706.52	33670.46
706.865	33522.44
707.209	33517.47
707.554	33290.35
707.899	33347.98
708.243	33334.87
708.588	33162.9
708.932	33025.95
709.277	32940.08
709.621	32910.25
709.966	32759.75
710.31	32896.24
710.654	32560.66
710.998	32600.88
711.342	32744.15
711.687	32579.41
712.031	32379.42
712.375	32305.07
712.719	32299.19
713.063	32334.45
713.407	32251.96
713.75	32090.84
714.094	32161.34
714.438	31997.05
714.782	32077.05
715.125	31836.83
715.469	31904.63
715.812	31764.52
716.156	31623.05
716.499	31721.81
716.843	31708.7
717.186	31449.05
717.53	31603.17
717.873	31524.52
718.216	31478.65
718.559	31376.96
718.902	31179.9
719.246	31349.39
719.589	31126.79
719.932	31063.29
720.275	31060.36
720.617	30999.57
720.96	30878.89
721.303	31040.02
721.646	30981.71
721.989	30766.58
722.331	30834.6
722.674	30631.89
723.016	30680.48
723.359	30691.33
723.701	30670.76
724.044	30420.15
724.386	30289.53
724.729	30524.32
725.071	30367.27
725.413	30348.74
725.755	30245.69
726.097	30108.29
726.439	30039.59
726.782	30096.77
727.124	30211.79
727.465	30142.87
727.807	29915.75
728.149	29951.91
728.491	29793.04
728.833	29914.62
729.175	29838.92
729.516	29743.1
729.858	29805.02
730.199	29737
730.541	29663.56
730.882	29666.04
731.224	29726.15
731.565	29386.28
731.906	29442.32
732.248	29545.82
732.589	29328.42
732.93	29233.96
733.271	29216.56
733.612	29329.33
733.953	29271.02
734.294	29232.83
734.635	29057.7
734.976	29184.02
735.317	28920.52
735.658	28930.24
735.999	28997.13
736.339	28967.98
736.68	29101.09
737.021	28939.06
737.361	28732.96
737.702	28882.56
738.042	28744.48
738.383	28743.35
738.723	28626.07
739.063	28571.16
739.404	28731.38
739.744	28677.14
740.084	28435.79
740.424	28475.11
740.764	28399.41
741.104	28619.29
741.444	28329.58
741.784	28308.34
742.124	28264.5
742.464	28363.7
742.804	28327.32
743.143	28058.85
743.483	28271.5
743.823	28065.63
744.162	27902.92
744.502	28176.59
744.841	27931.4
745.181	28118.74
745.52	27919.42
745.86	27900.66
746.199	27834.45
746.538	27790.16
746.877	27937.5
747.216	27839.65
747.556	27682.59
747.895	27849.59
748.234	27812.76
748.573	27694.57
748.911	27611.86
749.25	27570.96
749.589	27489.38
749.928	27520.34
750.267	27481.69
750.605	27406.67
750.944	27398.53
751.283	27295.03
751.621	27314.01
751.96	27231.3
752.298	27208.71
752.636	27229.27
752.975	26959.67
753.313	26961.48
753.651	27033.79
753.989	26899.56
754.327	26858.66
754.666	26793.12
755.004	26742.28
755.342	26744.31
755.679	26615.05
756.017	26505.22
756.355	26664.09
756.693	26481.49
757.031	26642.84
757.368	26305.45
757.706	26403.98
758.044	26213.48
758.381	26284.21
758.719	26155.17
759.056	26217.55
759.394	26179.13
759.731	25993.37
760.068	25918.12
760.405	25847.39
760.743	25710.44
761.08	25801.96
761.417	25606.04
761.754	25642.42
762.091	25455.31
762.428	25464.57
762.765	25362.88
763.102	25450.11
763.438	25309.32
763.775	25157.91
764.112	25237.91
764.449	25202.66
764.785	25034.07
765.122	24861.42
765.458	24829.56
765.795	24812.84
766.131	24804.02
766.467	24615.78
766.804	24522.9
767.14	24415.56
767.476	24437.48
767.812	24252.4
768.148	24282.68
768.485	24165.62
768.821	23978.06
769.157	24019.41
769.492	24022.8
769.828	23873.65
770.164	23731.06
770.5	23638.86
770.836	23655.13
771.171	23435.02
771.507	23460.33
771.842	23286.55
772.178	23334.46
772.513	23237.28
772.849	23136.72
773.184	22975.37
773.519	23077.74
773.855	22849.05
774.19	22847.92
774.525	22837.07
774.86	22790.97
775.195	22730.86
775.53	22495.16
775.865	22543.29
776.2	22329.74
776.535	22115.28
776.87	22180.14
777.205	22151.66
777.539	21987.6
777.874	22155.05
778.209	21774.05
778.543	21835.29
778.878	21711.45
779.212	21731.11
779.547	21564.79
779.881	21541.74
780.215	21369.99
780.55	21416.09
780.884	21327.28
781.218	21277.79
781.552	21150.56
781.886	21203.21
782.22	21002.54
782.554	20915.09
782.888	20752.6
783.222	20757.8
783.556	20682.55
783.889	20548.77
784.223	20532.95
784.557	20433.29
784.89	20386.06
785.224	20254.09
785.557	20067.42
785.891	20172.05
786.224	20049.8
786.558	20081.66
786.891	19826.53
787.224	19756.02
787.557	19735.46
787.891	19773.42
788.224	19753.76
788.557	19605.74
788.89	19598.74
789.223	19566.65
789.556	19463.37
789.888	19360.78
790.221	19270.84
790.554	19114.68
790.887	19083.04
791.219	19062.03
791.552	19001.69
791.884	19047.34
792.217	18763.73
792.549	18871.75
792.882	18698.87
793.214	18679.89
793.546	18672.88
793.879	18486.45
794.211	18358.09
794.543	18474.92
794.875	18382.72
795.207	18499.1
795.539	18245.78
795.871	18389.5
796.203	18091.43
796.535	18046.01
796.867	18012.11
797.198	17930.53
797.53	17902.96
797.862	17872.68
798.193	17853.25
798.525	17779.8
798.856	17725.57
799.188	17525.8
799.519	17517.21
799.85	17374.61
800.182	17472.01
800.513	17403.99
800.844	17203.54
801.175	17322.86
801.506	17281.73
801.837	17264.56
802.168	17096.65
802.499	17046.26
802.83	16988.86
803.161	17011.91
803.491	16945.92
803.822	16923.78
804.153	16761.97
804.483	16663.9
804.814	16688.53
805.145	16685.37
805.475	16718.59
805.805	16557.01
806.136	16514.07
806.466	16566.5
806.796	16462.32
807.126	16388.88
807.457	16330.8
807.787	16230.69
808.117	16199.96
808.447	16244.93
808.777	16212.61
809.107	16140.52
809.436	16051.26
809.766	16093.52
810.096	15975.55
810.426	15964.03
810.755	15964.71
811.085	15808.33
811.414	15910.02
811.744	15804.71
812.073	15786.41
812.403	15630.03
812.732	15694.43
813.061	15616.24
813.39	15479.75
813.719	15461.44
814.049	15546.41
814.378	15414.67
814.707	15428.9
815.036	15365.18
815.365	15337.38
815.693	15199.08
816.022	15094.67
816.351	15153.2
816.68	15029.36
817.008	15252.64
817.337	14975.35
817.665	14988.01
817.994	14945.53
818.322	14884.51
818.651	14890.16
818.979	14835.7
819.307	15003.15
819.636	14813.78
819.964	14751.63
820.292	14826.43
820.62	14738.75
820.948	14728.81
821.276	14766.77
821.604	14625.53
821.932	14689.26
822.259	14718.19
822.587	14688.36
822.915	14684.97
823.243	14701.69
823.57	14622.14
823.898	14656.49
824.225	14568.81
824.553	14632.09
824.88	14636.61
825.207	14643.84
825.535	14579.89
825.862	14653.33
826.189	14574.91
826.516	14694.01
826.843	14761.58
827.17	14745.3
827.497	14628.7
827.824	14581.24
828.151	14705.31
828.478	14617.85
828.805	14678.64
829.131	14575.59
829.458	14567.46
829.785	14537.4
830.111	14593.67
830.438	14602.26
830.764	14560.68
831.09	14597.51
831.417	14553.22
831.743	14672.09
832.069	14547.8
832.395	14478.19
832.722	14512.77
833.048	14446.56
833.374	14557.51
833.7	14411.53
834.026	14355.94
834.351	14449.72
834.677	14402.49
835.003	14423.05
835.329	14412.88
835.654	14380.57
835.98	14373.56
836.306	14337.63
836.631	14298.54
836.956	14319.33
837.282	14383.73
837.607	14235.04
837.932	14142.16
838.258	14223.96
838.583	14156.17
838.908	14083.85
839.233	14192.1
839.558	14075.94
839.883	14061.25
840.208	14037.53
840.533	14070.75
840.858	13991.88
841.182	13994.36
841.507	13990.3
841.832	13917.76
842.156	13936.51
842.481	13890.41
842.805	13811.77
843.13	13845.22
843.454	13817.65
843.778	13679.8
844.103	13755.05
844.427	13581.49
844.751	13681.6
845.075	13647.03
845.399	13594.37
845.723	13500.82
846.047	13516.41
846.371	13364.32
846.695	13400.48
847.019	13285.46
847.343	13340.6
847.666	13169.53
847.99	13108.06
848.313	13144.22
848.637	13002.07
848.96	12973.15
849.284	12964.56
849.607	12871.46
849.931	12848.63
850.254	12734.51
850.577	12642.31
850.9	12628.75
851.223	12643.89
851.546	12498.36
851.869	12434.4
852.192	12603.89
852.515	12450.45
852.838	12349.44
853.161	12360.28
853.483	12369.32
853.806	12280.28
854.129	12261.75
854.451	12201.87
854.774	12144.24
855.096	12018.82
855.419	12014.3
855.741	12024.25
856.063	11901.31
856.385	11894.08
856.708	11868.54
857.03	11864.7
857.352	11752.84
857.674	11789.45
857.996	11711.94
858.318	11700.19
858.64	11685.27
858.961	11667.42
859.283	11635.56
859.605	11556.24
859.926	11529.12
860.248	11483.92
860.57	11462.45
860.891	11467.65
861.212	11422.91
861.534	11436.69
861.855	11397.6
862.176	11336.81
862.498	11297.26
862.819	11320.08
863.14	11320.31
863.461	11285.06
863.782	11252.29
864.103	11249.35
864.424	11262.68
864.745	11202.8
865.065	11082.12
865.386	11133.42
865.707	11071.5
866.027	11060.2
866.348	11098.85
866.668	11118.51
866.989	11026.53
867.309	10987.89
867.63	11015.91
867.95	11086.19
868.27	10974.1
868.59	10977.72
868.91	10974.1
869.23	10846.42
869.55	10868.12
869.87	10875.8
870.19	10817.95
870.51	10886.42
870.83	10812.3
871.15	10775.69
871.469	10778.63
871.789	10801.68
872.109	10743.6
872.428	10744.05
872.748	10718.52
873.067	10711.29
873.386	10728.91
873.706	10623.38
874.025	10622.7
874.344	10526.88
874.663	10643.72
874.982	10488.69
875.301	10539.99
875.62	10550.84
875.939	10467.9
876.258	10507.9
876.577	10468.13
876.896	10519.2
877.214	10423.61
877.533	10468.13
877.852	10410.28
878.17	10398.98
878.489	10350.62
878.807	10356.04
879.125	10363.5
879.444	10317.62
879.762	10236.95
880.08	10295.48
880.398	10351.07
880.716	10279.21
881.034	10253.67
881.352	10225.65
881.67	10256.83
881.988	10226.33
882.306	10161.02
882.624	10086.67
882.941	10056.61
883.259	10050.74
883.577	10058.87
883.894	10052.77
884.212	9989.95
884.529	10076.5
884.846	10013.68
885.164	9940.23
885.481	9902.04
885.798	9934.13
886.115	9874.25
886.432	9858.65
886.75	9865.21
887.067	9793.34
887.383	9844.19
887.7	9790.18
888.017	9735.04
888.334	9785.66
888.651	9714.7
888.967	9711.54
889.284	9700.01
889.6	9650.07
889.917	9512.22
890.233	9585.67
890.55	9529.4
890.866	9522.16
891.182	9498.66
891.498	9484.88
891.815	9317.88
892.131	9381.83
892.447	9369.17
892.763	9353.36
893.079	9309.06
893.395	9284.21
893.71	9290.31
894.026	9248.05
894.342	9216.86
894.657	9083.08
894.973	9136.41
895.289	9127.15
895.604	9065.91
895.92	9087.15
896.235	8984.78
896.55	9030.2
896.865	8934.84
897.181	8981.39
897.496	8923.99
897.811	8926.7
898.126	8874.95
898.441	8836.53
898.756	8782.07
899.071	8744.78
899.386	8747.27
899.7	8736.2
900.015	8698.01
900.33	8662.3
900.644	8567.16
900.959	8642.41
901.273	8543.43
901.588	8506.6
901.902	8509.54
902.216	8421.18
902.531	8423.66
902.845	8387.05
903.159	8353.61
903.473	8258.24
903.787	8304.34
904.101	8281.52
904.415	8257.79
904.729	8171.92
905.042	8179.83
905.356	8156.33
905.67	8116.33
905.984	8125.37
906.297	8078.14
906.611	8023
906.924	8089.43
907.237	7957.23
907.551	7951.81
907.864	7872.26
908.177	7919.72
908.491	7827.97
908.804	7871.36
909.117	7746.39
909.43	7698.03
909.743	7700.07
910.056	7681.31
910.368	7614.64
910.681	7655.32
910.994	7604.93
911.307	7524.25
911.619	7478.15
911.932	7555.44
912.244	7455.78
912.557	7436.57
912.869	7342.34
913.181	7382.33
913.494	7350.92
913.806	7253.3
914.118	7286.29
914.43	7213.98
914.742	7204.94
915.054	7187.09
915.366	7155
915.678	7163.13
915.99	7143.02
916.302	7056.69
916.613	7008.11
916.925	7015.34
917.236	6969.01
917.548	6903.7
917.859	6966.53
918.171	6889.24
918.482	6889.69
918.794	6872.29
919.105	6807.21
919.416	6769.47
919.727	6780.99
920.038	6720.43
920.349	6650.83
920.66	6675.46
920.971	6675.23
921.282	6634.33
921.593	6608.57
921.903	6569.47
922.214	6587.1
922.525	6539.64
922.835	6463.71
923.146	6421.68
923.456	6402.02
923.767	6426.2
924.077	6359.54
924.387	6319.76
924.697	6317.05
925.008	6290.61
925.318	6294.45
925.628	6249.93
925.938	6233.66
926.248	6212.2
926.558	6129.49
926.867	6064.85
927.177	6084.97
927.487	6075.93
927.796	6001.13
928.106	5999.09
928.416	6022.82
928.725	5957.29
929.034	5970.17
929.344	5960.68
929.653	5894.92
929.962	5831.64
930.271	5831.41
930.581	5846.1
930.89	5848.14
931.199	5754.81
931.508	5745.54
931.817	5780.34
932.125	5734.47
932.434	5671.42
932.743	5629.61
933.051	5645.43
933.36	5568.37
933.669	5567.92
933.977	5558.88
934.286	5537.18
934.594	5501.25
934.902	5481.37
935.21	5431.88
935.519	5445.21
935.827	5472.78
936.135	5407.92
936.443	5387.36
936.751	5380.8
937.059	5370.64
937.367	5313.69
937.674	5287.25
937.982	5241.15
938.29	5204.09
938.597	5202.05
938.905	5188.95
939.213	5165.44
939.52	5106.91
939.827	5163.64
940.135	5119.79
940.442	5049.06
940.749	5102.85
941.056	5082.73
941.363	4961.38
941.67	4993.02
941.977	4970.65
942.284	4965.67
942.591	4951.21
942.898	4906.92
943.205	4925.9
943.511	4896.3
943.818	4855.17
944.125	4851.33
944.431	4827.83
944.738	4814.94
945.044	4773.36
945.35	4746.7
945.657	4720.94
945.963	4717.77
946.269	4739.47
946.575	4650.2
946.881	4610.43
947.187	4614.05
947.493	4587.15
947.799	4591.9
948.105	4528.17
948.41	4517.32
948.716	4529.53
949.022	4501.73
949.327	4487.27
949.633	4453.15
949.938	4442.75
950.244	4442.52
950.549	4378.35
950.854	4397.1
951.16	4360.27
951.465	4391.68
951.77	4341.28
952.075	4320.95
952.38	4286.37
952.685	4283.21
952.99	4274.62
953.294	4230.1
953.599	4211.57
953.904	4188.97
954.209	4187.16
954.513	4154.85
954.818	4128.63
955.122	4152.81
955.426	4086.15
955.731	4057
956.035	4054.74
956.339	4073.04
956.643	4023.1
956.948	4047.73
957.252	4009.99
957.556	4015.19
957.86	3953.27
958.163	3960.73
958.467	3929.09
958.771	3969.99
959.075	3892.71
959.378	3887.96
959.682	3868.53
959.985	3828.3
960.289	3841.41
960.592	3826.5
960.896	3799.6
961.199	3801.64
961.502	3748.76
961.805	3751.24
962.108	3710.57
962.411	3727.06
962.714	3677.57
963.017	3664.47
963.32	3638.25
963.623	3648.42
963.926	3638.93
964.228	3636.67
964.531	3604.81
964.833	3659.95
965.136	3595.99
965.438	3564.13
965.741	3562.55
966.043	3491.36
966.345	3509.22
966.648	3515.09
966.95	3507.63
967.252	3413.62
967.554	3450.91
967.856	3441.19
968.158	3390.57
968.46	3390.57
968.761	3386.28
969.063	3377.02
969.365	3397.81
969.666	3384.25
969.968	3326.62
970.269	3294.98
970.571	3339.73
970.872	3321.65
971.174	3229.45
971.475	3266.51
971.776	3247.75
972.077	3268.54
972.378	3203.23
972.679	3204.59
972.98	3202.78
973.281	3179.05
973.582	3142.45
973.883	3146.74
974.183	3125.72
974.484	3139.73
974.785	3113.97
975.085	3132.28
975.386	3120.53
975.686	3080.98
975.986	3046.63
976.287	3047.31
976.587	3026.97
976.887	3043.69
977.187	3023.35
977.487	2941.32
977.787	2991.49
978.087	2951.72
978.387	2922.11
978.687	2923.47
978.987	2923.24
979.286	2933.86
979.586	2933.41
979.885	2868.78
980.185	2849.35
980.484	2883.92
980.784	2843.7
981.083	2891.15
981.382	2827.2
981.682	2843.02
981.981	2798.27
982.28	2780.87
982.579	2758.95
982.878	2804.38
983.177	2760.76
983.475	2758.5
983.774	2719.41
984.073	2722.34
984.372	2693.87
984.67	2694.32
984.969	2718.28
985.267	2664.94
985.566	2651.61
985.864	2627.2
986.162	2613.19
986.461	2552.86
986.759	2613.65
987.057	2575.91
987.355	2589.92
987.653	2582.23
987.951	2591.73
988.249	2534.78
988.547	2567.77
988.844	2515.8
989.142	2504.72
989.44	2497.72
989.737	2500.43
990.035	2524.61
990.332	2473.99
990.63	2451.84
990.927	2433.31
991.224	2470.15
991.521	2434.67
991.819	2402.13
992.116	2399.64
992.413	2391.05
992.71	2386.53
993.006	2367.55
993.303	2372.3
993.6	2319.19
993.897	2325.29
994.193	2328.23
994.49	2286.87
994.787	2262.02
995.083	2293.2
995.379	2269.7
995.676	2287.55
995.972	2243.94
996.268	2261.11
996.565	2234.45
996.861	2212.53
997.157	2212.98
997.453	2197.39
997.749	2202.13
998.044	2192.87
998.34	2213.2
998.636	2161.68
998.932	2133.43
999.227	2133.88
999.523	2129.14
999.818	2152.42
1000.114	2119.2
1000.409	2110.38
1000.704	2080.55
1001	2097.28
1001.295	2039.65
1001.59	2075.13
1001.885	2036.03
1002.18	2045.75
1002.475	2036.94
1002.77	1997.62
1003.065	2010.95
1003.359	2006.88
1003.654	1977.96
1003.949	1949.26
1004.243	1951.97
1004.538	1964.85
1004.832	1960.56
1005.127	1896.15
1005.421	1920.1
1005.715	1890.28
1006.009	1889.6
1006.304	1861.58
1006.598	1864.06
1006.892	1865.87
1007.186	1865.19
1007.48	1855.47
1007.773	1823.84
1008.067	1799.2
1008.361	1810.28
1008.655	1813.44
1008.948	1813.44
1009.242	1787.45
1009.535	1770.73
1009.829	1777.74
1010.122	1727.57
1010.415	1789.94
1010.708	1730.28
1011.001	1726.44
1011.295	1707
1011.588	1718.08
1011.881	1668.59
1012.173	1677.85
1012.466	1685.53
1012.759	1686.44
1013.052	1655.93
1013.344	1638.98
1013.637	1645.08
1013.93	1650.51
1014.222	1599.44
1014.514	1617.97
1014.807	1605.76
1015.099	1587.68
1015.391	1572.54
1015.683	1567.57
1015.976	1575.71
1016.268	1558.76
1016.56	1535.48
1016.851	1528.25
1017.143	1524.41
1017.435	1524.18
1017.727	1515.14
1018.018	1482.83
1018.31	1450.29
1018.602	1460.46
1018.893	1480.57
1019.185	1455.48
1019.476	1441.93
1019.767	1445.77
1020.058	1453.22
1020.35	1438.54
1020.641	1384.07
1020.932	1419.1
1021.223	1380.23
1021.514	1392.44
1021.804	1382.27
1022.095	1342.04
1022.386	1357.41
1022.677	1354.7
1022.967	1334.58
1023.258	1301.59
1023.548	1318.76
1023.839	1302.95
1024.129	1270.86
1024.419	1277.18
1024.709	1310.4
1025	1284.42
1025.29	1297.52
1025.58	1269.73
1025.87	1246.45
1026.16	1247.35
1026.449	1234.7
1026.739	1253.91
1027.029	1218.65
1027.319	1212.78
1027.608	1191.31
1027.898	1193.34
1028.187	1180.24
1028.477	1195.15
1028.766	1168.03
1029.055	1166.9
1029.344	1154.93
1029.634	1173.01
1029.923	1148.15
1030.212	1133.01
1030.501	1151.54
1030.79	1120.35
1031.078	1132.33
1031.367	1104.08
1031.656	1112.22
1031.945	1085.1
1032.233	1084.19
1032.522	1064.31
1032.81	1080.35
1033.099	1070.41
1033.387	1053.24
1033.675	1055.49
1033.963	1043.74
1034.251	1036.74
1034.54	1026.34
1034.828	1019.79
1035.116	1039.9
1035.403	1022.5
1035.691	989.28
1035.979	1019.11
1036.267	1004.87
1036.554	1003.52
1036.842	995.38
1037.129	975.95
1037.417	955.61
1037.704	944.54
1037.992	952.22
1038.279	937.08
1038.566	943.18
1038.853	943.18
1039.14	943.18
