Data from hue_28_FLMS001491_00049.txt Node
Date: Tue Feb 07 17:17:21 GMT 2017
User: dcchb
Spectrometer: FLMS00149
Trigger mode: 0
Integration Time (sec): 2.000000E-2
Scans to average: 10
Electric dark correction enabled: true
Nonlinearity correction enabled: false
Boxcar width: 0
XAxis mode: Wavelengths
Number of Pixels in Spectrum: 2048
>>>>>Begin Spectral Data<<<<<
341.393	-18.71
341.776	-18.71
342.16	-18.71
342.543	-46.96
342.927	-52.84
343.31	-75.66
343.693	-66.85
344.077	-74.53
344.46	-57.81
344.843	-42.67
345.226	-35.44
345.61	-33.4
345.993	-2.9
346.376	-4.03
346.759	17.67
347.142	-0.86
347.525	31.68
347.908	70.1
348.291	69.87
348.674	99.93
349.057	104.9
349.44	114.16
349.823	145.12
350.206	153.26
350.588	188.74
350.971	233.26
351.354	219.47
351.737	237.55
352.119	245.69
352.502	252.01
352.884	279.81
353.267	301.05
353.65	310.54
354.032	313.93
354.414	313.03
354.797	327.27
355.179	318.9
355.562	338.56
355.944	307.6
356.326	332.46
356.709	338.56
357.091	336.98
357.473	350.09
357.855	336.98
358.238	351.9
358.62	342.41
359.002	344.21
359.384	364.1
359.766	334.5
360.148	348.73
360.53	357.1
360.912	330.2
361.294	340.37
361.676	345.8
362.057	346.25
362.439	312.8
362.821	324.55
363.203	338.34
363.584	313.48
363.966	317.32
364.348	319.58
364.729	329.75
365.111	324.78
365.493	320.26
365.874	318.9
366.256	321.84
366.637	298.11
367.019	320.26
367.4	319.81
367.781	302.63
368.163	317.77
368.544	318
368.925	310.09
369.306	330.43
369.688	297.89
370.069	292.69
370.45	299.24
370.831	302.18
371.212	319.81
371.593	307.83
371.974	291.56
372.355	303.99
372.736	339.02
373.117	331.56
373.498	337.21
373.879	308.28
374.26	322.97
374.641	312.8
375.021	318.9
375.402	324.78
375.783	321.39
376.163	319.81
376.544	335.85
376.925	326.14
377.305	322.29
377.686	318.9
378.066	331.79
378.447	330.88
378.827	359.13
379.208	331.79
379.588	329.75
379.968	333.82
380.349	327.27
380.729	336.53
381.109	346.47
381.489	315.97
381.87	325.91
382.25	346.93
382.63	338.34
383.01	326.59
383.39	363.42
383.77	347.38
384.15	329.75
384.53	360.03
384.91	328.62
385.29	349.86
385.67	357.1
386.049	364.33
386.429	357.55
386.809	340.6
387.189	344.21
387.568	350.54
387.948	329.98
388.328	378.11
388.707	363.65
389.087	332.46
389.466	360.03
389.846	360.03
390.225	365.68
390.605	373.59
390.984	345.8
391.363	370.2
391.743	366.59
392.122	382.63
392.501	379.47
392.881	373.82
393.26	364.33
393.639	392.35
394.018	371.11
394.397	390.31
394.776	366.36
395.155	404.55
395.534	376.98
395.913	379.24
396.292	391.44
396.671	400.26
397.05	402.97
397.429	379.69
397.808	390.77
398.186	381.28
398.565	418.56
398.944	424.66
399.323	380.15
399.701	383.54
400.08	404.1
400.458	417.66
400.837	409.52
401.215	424.21
401.594	404.55
401.972	436.64
402.351	394.38
402.729	399.13
403.107	429.41
403.486	413.82
403.864	406.81
404.242	433.03
404.62	425.57
404.999	426.7
405.377	407.26
405.755	421.5
406.133	439.58
406.511	429.18
406.889	427.38
407.267	435.51
407.645	441.16
408.023	430.31
408.401	447.49
408.779	439.13
409.156	454.72
409.534	436.64
409.912	473.02
410.29	461.27
410.667	432.8
411.045	452.23
411.422	444.1
411.8	472.12
412.178	458.56
412.555	444.55
412.933	468.96
413.31	468.96
413.687	482.52
414.065	468.96
414.442	473.7
414.819	481.39
415.197	492.46
415.574	480.71
415.951	510.31
416.328	475.51
416.705	504.89
417.082	485.91
417.46	501.05
417.837	510.54
418.214	506.92
418.591	497.66
418.967	509.41
419.344	506.02
419.721	508.28
420.098	529.52
420.475	513.7
420.852	504.21
421.228	525.9
421.605	539.92
421.982	514.61
422.358	508.28
422.735	539.69
423.111	551.89
423.488	532.68
423.864	528.84
424.241	557.09
424.617	548.28
424.994	560.03
425.37	563.42
425.746	567.71
426.123	565
426.499	533.81
426.875	569.52
427.251	570.87
427.627	588.73
428.003	581.72
428.379	582.17
428.756	596.41
429.132	614.04
429.507	581.95
429.883	619.46
430.259	620.82
430.635	602.29
431.011	614.72
431.387	632.34
431.763	644.32
432.138	617.65
432.514	641.38
432.89	643.19
433.265	670.08
433.641	666.92
434.016	666.92
434.392	647.93
434.767	658.1
435.143	658.33
435.518	662.85
435.894	700.14
436.269	685.9
436.644	712.57
437.02	701.72
437.395	701.49
437.77	721.83
438.145	720.25
438.52	735.62
438.895	712.57
439.271	698.78
439.646	737.2
440.021	739.23
440.395	744.43
440.77	743.75
441.145	753.02
441.52	755.5
441.895	766.12
442.27	761.15
442.645	760.02
443.019	768.38
443.394	788.04
443.769	746.01
444.143	758.67
444.518	789.85
444.892	791.66
445.267	792.34
445.641	802.28
446.016	786.46
446.39	807.03
446.764	832.11
447.139	816.29
447.513	789.17
447.887	799.12
448.262	827.82
448.636	801.15
449.01	831.21
449.384	830.3
449.758	847.03
450.132	840.7
450.506	842.28
450.88	837.76
451.254	857.19
451.628	844.77
452.002	863.97
452.376	899
452.75	889.28
453.123	893.35
453.497	925.22
453.871	905.78
454.244	914.82
454.618	924.31
454.992	924.99
455.365	950.3
455.739	961.37
456.112	965.21
456.486	979.45
456.859	967.25
457.232	985.1
457.606	1000.69
457.979	1019.68
458.352	987.36
458.725	1032.33
459.099	1026.46
459.472	1044.99
459.845	1041.37
460.218	1043.86
460.591	1075.27
460.964	1077.98
461.337	1121.14
461.71	1124.76
462.083	1108.71
462.456	1115.95
462.829	1126.11
463.201	1157.98
463.574	1148.94
463.947	1173.57
464.32	1191.2
464.692	1182.38
465.065	1214.25
465.438	1235.04
465.81	1216.96
466.183	1251.31
466.555	1266.22
466.928	1262.61
467.3	1261.7
467.672	1305.77
468.045	1326.34
468.417	1331.08
468.789	1333.57
469.161	1353.91
469.534	1368.37
469.906	1416.05
470.278	1400.46
470.65	1419.67
471.022	1466.44
471.394	1488.59
471.766	1510.29
472.138	1520.23
472.51	1575.59
472.882	1587.57
473.253	1579.44
473.625	1628.25
473.997	1677.74
474.369	1629.15
474.74	1654.91
475.112	1727.23
475.484	1760.67
475.855	1760
476.227	1803.16
476.598	1875.7
476.97	1869.82
477.341	1913.44
477.713	1926.32
478.084	1978.3
478.455	2015.58
478.827	2016.26
479.198	2084.96
479.569	2106.43
479.94	2144.17
480.311	2209.93
480.682	2265.75
481.053	2323.82
481.424	2329.25
481.795	2356.14
482.166	2404.5
482.537	2491.05
482.908	2508.68
483.279	2551.84
483.65	2626.19
484.021	2688.33
484.391	2701.67
484.762	2737.6
485.133	2733.3
485.503	2837.26
485.874	2912.73
486.244	2935.33
486.615	2980.08
486.985	3082.67
487.356	3086.29
487.726	3159.96
488.097	3221.88
488.467	3268.21
488.837	3295.77
489.207	3383
489.578	3438.82
489.948	3482.66
490.318	3554.3
490.688	3579.38
491.058	3637.46
491.428	3719.94
491.798	3776.44
492.168	3822.31
492.538	3875.65
492.908	3872.03
493.278	3956.55
493.648	3985.7
494.017	4099.37
494.387	4147.5
494.757	4143.89
495.126	4202.64
495.496	4210.33
495.866	4265.01
496.235	4337.78
496.605	4340.27
496.974	4421.62
497.344	4477.21
497.713	4537.78
498.082	4513.82
498.452	4568.28
498.821	4630.2
499.19	4628.62
499.559	4678.79
499.928	4768.5
500.298	4774.38
500.667	4806.7
501.036	4818.45
501.405	4876.07
501.774	4832.01
502.143	4946.58
502.512	4957.2
502.88	5005.79
503.249	4998.78
503.618	5099.34
503.987	5082.17
504.356	5140.02
504.724	5195.39
505.093	5161.94
505.462	5246.46
505.83	5271.09
506.199	5295.04
506.567	5341.37
506.936	5346.79
507.304	5406.68
507.672	5473.8
508.041	5503.4
508.409	5477.41
508.777	5537.3
509.145	5565.09
509.514	5619.1
509.882	5586.11
510.25	5636.5
510.618	5740
510.986	5696.62
511.354	5710.63
511.722	5811.87
512.09	5811.19
512.458	5797.4
512.826	5927.12
513.193	5907.23
513.561	5903.62
513.929	5951.98
514.297	5997.62
514.664	6043.5
515.032	6061.8
515.4	6111.75
515.767	6128.47
516.135	6127.34
516.502	6087.57
516.869	6252.99
517.237	6245.75
517.604	6277.39
517.972	6248.69
518.339	6320.1
518.706	6296.37
519.073	6299.54
519.44	6385.64
519.808	6420.44
520.175	6385.86
520.542	6480.1
520.909	6519.42
521.276	6524.16
521.643	6550.6
522.009	6635.57
522.376	6584.95
522.743	6647.55
523.11	6688.45
523.477	6751.05
523.843	6778.85
524.21	6865.62
524.577	6899.75
524.943	6901.56
525.31	6972.29
525.676	6993.53
526.043	7073.3
526.409	7066.52
526.776	7110.14
527.142	7166.41
527.508	7183.36
527.874	7245.95
528.241	7295.44
528.607	7329.34
528.973	7371.37
529.339	7399.4
529.705	7434.65
530.071	7453.18
530.437	7540.18
530.803	7537.92
531.169	7526.4
531.535	7587.64
531.901	7653.17
532.267	7620.41
532.632	7752.83
532.998	7696.56
533.364	7747.41
533.73	7746.73
534.095	7831.47
534.461	7873.28
534.826	7887.97
535.192	7986.95
535.557	7993.05
535.923	7990.79
536.288	8044.58
536.653	8087.74
537.019	8120.05
537.384	8084.12
537.749	8161.41
538.114	8135.65
538.479	8166.61
538.845	8195.53
539.21	8284.8
539.575	8308.75
539.94	8348.07
540.305	8477.79
540.67	8384.91
541.034	8439.37
541.399	8503.55
541.764	8479.82
542.129	8523.21
542.494	8525.92
542.858	8590.1
543.223	8612.92
543.587	8641.4
543.952	8656.54
544.316	8718.91
544.681	8684.11
545.045	8829.87
545.41	8860.83
545.774	8853.82
546.138	8847.27
546.503	8909.19
546.867	8873.48
547.231	8980.82
547.595	9090.42
547.959	9046.58
548.324	9135.4
548.688	9095.85
549.052	9115.06
549.416	9171.55
549.779	9209.07
550.143	9236.86
550.507	9319.12
550.871	9333.36
551.235	9362.51
551.599	9412.22
551.962	9501.94
552.326	9461.94
552.689	9528.83
553.053	9486.8
553.417	9530.87
553.78	9615.61
554.143	9618.77
554.507	9672.33
554.87	9679.34
555.234	9760.69
555.597	9720.24
555.96	9742.84
556.323	9784.42
556.686	9791.2
557.05	9866.45
557.413	9852.21
557.776	9942.83
558.139	9958.65
558.502	9993.9
558.865	10063.73
559.228	10086.33
559.59	10084.97
559.953	10067.8
560.316	10287
560.679	10185.76
561.041	10261.47
561.404	10264.63
561.767	10354.35
562.129	10311.41
562.492	10442.03
562.854	10399.54
563.217	10451.52
563.579	10477.73
563.941	10576.94
564.304	10575.58
564.666	10596.6
565.028	10674.56
565.39	10739.87
565.753	10690.38
566.115	10721.79
566.477	10805.63
566.839	10830.04
567.201	10977.83
567.563	10903.71
567.925	11088.34
568.287	10964.5
568.648	10977.61
569.01	11034.33
569.372	11097.15
569.734	11168.79
570.095	11234.1
570.457	11288.33
570.819	11276.36
571.18	11308.45
571.542	11394.77
571.903	11462.34
572.265	11464.15
572.626	11576.01
572.987	11544.37
573.349	11703.69
573.71	11698.27
574.071	11763.8
574.432	11891.26
574.794	12032.49
575.155	12016
575.516	12011.7
575.877	12084.24
576.238	12180.06
576.599	12312.49
576.96	12342.32
577.32	12434.07
577.681	12477.68
578.042	12686.04
578.403	12678.81
578.763	12765.13
579.124	12881.51
579.485	13020.72
579.845	13146.82
580.206	13209.19
580.566	13285.34
580.927	13501.16
581.287	13579.12
581.648	13705.44
582.008	13907.02
582.368	13995.38
582.728	14137.98
583.089	14288.25
583.449	14372.09
583.809	14685.76
584.169	14856.37
584.529	14916.26
584.889	15263.6
585.249	15349.92
585.609	15550.37
585.969	15851.83
586.329	15966.63
586.688	16235.77
587.048	16421.31
587.408	16632.37
587.768	16880.5
588.127	17085.02
588.487	17290.89
588.846	17612.01
589.206	17833.25
589.565	18107.14
589.925	18411.08
590.284	18641.59
590.643	18969.26
591.003	19243.83
591.362	19627.1
591.721	19801.33
592.08	20050.36
592.44	20250.58
592.799	20632.72
593.158	20806.5
593.517	21228.64
593.876	21390.67
594.235	21708.85
594.593	21965.11
594.952	22408.72
595.311	22604.87
595.67	22969.38
596.029	23318.75
596.387	23681.45
596.746	23960.54
597.104	24079.41
597.463	24405.95
597.822	24798.71
598.18	25051.14
598.538	25147.4
598.897	25665.81
599.255	25731.8
599.613	26454.26
599.972	26544.43
600.33	26880.24
600.688	27069.61
601.046	27383.96
601.404	27745.53
601.762	27967.89
602.12	28404.27
602.478	28644.26
602.836	28869.79
603.194	29045.61
603.552	29305.71
603.91	29644.91
604.268	29915.41
604.625	30113.37
604.983	30429.75
605.341	30546.81
605.698	31054.59
606.056	31195.38
606.413	31567.57
606.771	31830.17
607.128	32071.74
607.485	32179.99
607.843	32339.31
608.2	32799.86
608.557	33099.29
608.914	33123.69
609.272	33358.26
609.629	33742.43
609.986	34004.12
610.343	34038.02
610.7	34432.58
611.057	34489.76
611.414	34680.26
611.771	34818.34
612.127	35061.27
612.484	35343.52
612.841	35723.85
613.198	35605.66
613.554	35836.84
613.911	36206.77
614.267	36308.24
614.624	36468.91
614.98	36695.8
615.337	36919.98
615.693	37178.27
616.05	37129.24
616.406	37376.01
616.762	37463.01
617.118	37612.61
617.475	37846.96
617.831	37922.44
618.187	38109.55
618.543	38335.08
618.899	38673.83
619.255	38659.14
619.611	38630.89
619.967	38857.33
620.323	39169.18
620.678	38916.53
621.034	39016.42
621.39	39138.9
621.746	39206.7
622.101	39699.34
622.457	39573.24
622.812	39776.85
623.168	39787.47
623.523	39776.62
623.879	40011.87
624.234	39910.18
624.589	40067.46
624.945	40095.71
625.3	40358.08
625.655	40329.83
626.01	40445.53
626.365	40529.82
626.72	40566.66
627.075	40569.15
627.43	40657.5
627.785	40674.91
628.14	40770.95
628.495	40902.7
628.85	40948.34
629.205	40819.99
629.559	41055.91
629.914	40955.58
630.269	40961.9
630.623	41052.07
630.978	41060.88
631.332	41252.97
631.687	41422.46
632.041	41244.16
632.396	41269.47
632.75	41226.98
633.104	41327.54
633.459	41345.85
633.813	41287.77
634.167	41196.93
634.521	41215.91
634.875	41356.24
635.229	41195.8
635.583	41308.79
635.937	41179.98
636.291	41200.77
636.645	41280.54
636.999	41211.61
637.352	41237.15
637.706	41287.77
638.06	41347.88
638.413	41206.19
638.767	41157.6
639.121	41224.5
639.474	41081
639.828	41095.46
640.181	41128
640.534	41159.19
640.888	41175
641.241	40926.2
641.594	41088.23
641.947	41207.32
642.301	40969.81
642.654	41105.85
643.007	41125.74
643.36	41173.2
643.713	41015.24
644.066	41380.42
644.419	40908.35
644.771	40693.44
645.124	40339.32
645.477	40297.06
645.83	40147.24
646.182	39998.09
646.535	39912.44
646.888	39998.31
647.24	39709.51
647.593	39986.34
647.945	39847.13
648.298	39773.23
648.65	39607.81
649.002	39555.61
649.355	39836.51
649.707	39808.71
650.059	39961.48
650.411	40303.84
650.763	40322.6
651.115	40775.24
651.467	40716.71
651.819	40608.69
652.171	40409.15
652.523	40422.71
652.875	40459.09
653.227	40307.68
653.578	40434.69
653.93	40503.16
654.282	40365.31
654.633	40265.65
654.985	40372.31
655.337	40326.21
655.688	40392.65
656.039	40648.69
656.391	40184.75
656.742	40343.16
657.094	40350.39
657.445	40431.97
657.796	40323.28
658.147	40248.25
658.498	40330.51
658.849	40404.4
659.2	40285.08
659.551	40201.7
659.902	40322.82
660.253	40322.6
660.604	40354.46
660.955	40217.29
661.306	40275.14
661.656	40140
662.007	40290.06
662.358	40341.81
662.708	40238.08
663.059	40237.18
663.409	40044.41
663.76	40299.55
664.11	40220.23
664.461	40387.23
664.811	40289.83
665.161	40364.86
665.511	40109.04
665.862	40197.63
666.212	40224.97
666.562	40335.25
666.912	40161.25
667.262	40173.22
667.612	40119.67
667.962	40211.64
668.312	40109.95
668.662	40195.14
669.011	40201.25
669.361	40087.58
669.711	40117.18
670.06	40039.22
670.41	40038.09
670.76	40133
671.109	40085.99
671.459	40049.84
671.808	39918.09
672.157	39948.82
672.507	39785.21
672.856	39837.86
673.205	39967.81
673.554	39968.93
673.904	39878.32
674.253	40008.48
674.602	39928.03
674.951	39324.66
675.3	39143.19
675.649	39688.49
675.998	39630.86
676.346	39724.87
676.695	39881.25
677.044	39627.47
677.393	39721.48
677.741	39770.75
678.09	39509.06
678.438	39498.44
678.787	39617.53
679.135	39665.21
679.484	39481.94
679.832	39518.55
680.181	39392.45
680.529	39459.34
680.877	39295.96
681.225	39253.25
681.573	39485.56
681.922	39296.41
682.27	39092.8
682.618	39148.17
682.966	39125.79
683.314	39276.52
683.661	39043.08
684.009	38925.8
684.357	38729.87
684.705	38776.42
685.053	38855.97
685.4	38809.87
685.748	38639.7
686.095	38540.95
686.443	38518.13
686.79	38395.87
687.138	38372.37
687.485	38327.85
687.832	38317.68
688.18	38258.25
688.527	38023.9
688.874	38076.1
689.221	38025.48
689.568	37941.87
689.915	37926.95
690.262	37764.02
690.609	37626.62
690.956	37534.42
691.303	37648.77
691.65	37403.8
691.997	37373.07
692.344	37186.64
692.69	37053.08
693.037	37124.26
693.383	36942.8
693.73	37012.63
694.077	36818.06
694.423	36747.55
694.769	36678.63
695.116	36579.65
695.462	36622.13
695.808	36437.05
696.155	36497.16
696.501	36265.3
696.847	36157.96
697.193	35948.48
697.539	36109.6
697.885	35908.25
698.231	35849.04
698.577	35754.58
698.923	35675.71
699.269	35651.31
699.614	35379.23
699.96	35356.4
700.306	35294.71
700.651	35104.2
700.997	35139.91
701.342	34903.08
701.688	35023.3
702.033	34929.97
702.379	34815.62
702.724	34780.6
703.069	34886.81
703.415	34310.55
703.76	34580.83
704.105	34441.62
704.45	34375.64
704.795	34075.76
705.14	34095.87
705.485	34094.06
705.83	33934.74
706.175	33911.92
706.52	33799.83
706.865	33754.64
707.209	33776.33
707.554	33588.31
707.899	33654.52
708.243	33461.31
708.588	33361.65
708.932	33168.44
709.277	33312.39
709.621	33324.36
709.966	32983.13
710.31	33099.96
710.654	32833.53
710.998	32843.92
711.342	32985.62
711.687	32707.66
712.031	32584.27
712.375	32570.03
712.719	32610.94
713.063	32577.94
713.407	32692.29
713.75	32334.33
714.094	32444.16
714.438	32316.03
714.782	32285.07
715.125	32090.27
715.469	32272.64
715.812	32105.64
716.156	31883.05
716.499	31896.6
716.843	32005.08
717.186	31854.12
717.53	31779.32
717.873	31821.35
718.216	31718.3
718.559	31666.33
718.902	31391.99
719.246	31473.11
719.589	31400.8
719.932	31327.13
720.275	31247.81
720.617	31169.17
720.96	31180.69
721.303	31168.71
721.646	31055.27
721.989	30962.84
722.331	31034.48
722.674	30848.27
723.016	30971.21
723.359	30895.28
723.701	30916.29
724.044	30787.26
724.386	30575.06
724.729	30703.19
725.071	30610.31
725.413	30566.02
725.755	30565.11
726.097	30494.38
726.439	30265.69
726.782	30392.01
727.124	30464.33
727.465	30227.95
727.807	30313.82
728.149	30192.69
728.491	30192.02
728.833	30218.23
729.175	30011.23
729.516	29960.16
729.858	29881.97
730.199	30053.26
730.541	29925.13
730.882	29848.52
731.224	29860.95
731.565	29689.43
731.906	29790.9
732.248	29741.18
732.589	29648.98
732.93	29431.81
733.271	29587.06
733.612	29603.33
733.953	29540.06
734.294	29448.99
734.635	29391.81
734.976	29360.63
735.317	29113.63
735.658	29179.61
735.999	29229.56
736.339	29138.26
736.68	29148.65
737.021	29028.66
737.361	28955.44
737.702	29093.29
738.042	28922.67
738.383	28939.62
738.723	29009
739.063	28861.2
739.404	28934.87
739.744	28885.38
740.084	28648.33
740.424	28702.56
740.764	28627.76
741.104	28751.6
741.444	28561.1
741.784	28455.79
742.124	28519.74
742.464	28420.31
742.804	28465.06
743.143	28363.14
743.483	28320.88
743.823	28332.86
744.162	28186.42
744.502	28451.27
744.841	28159.75
745.181	28263.25
745.52	28069.81
745.86	28184.84
746.199	28127.66
746.538	28143.71
746.877	28073.43
747.216	28170.15
747.556	27977.39
747.895	27980.1
748.234	27771.74
748.573	27823.49
748.911	27783.04
749.25	27699.2
749.589	27602.25
749.928	27661.69
750.267	27668.92
750.605	27493.56
750.944	27536.27
751.283	27465.53
751.621	27501.47
751.96	27311.87
752.298	27369.94
752.636	27332.43
752.975	27168.37
753.313	27203.39
753.651	27323.84
753.989	27045.66
754.327	27124.75
754.666	27032.78
755.004	26876.4
755.342	27065.55
755.679	26887.02
756.017	26709.4
756.355	26835.72
756.693	26649.29
757.031	26774.93
757.368	26500.14
757.706	26460.14
758.044	26374.49
758.381	26408.84
758.719	26313.7
759.056	26422.85
759.394	26256.53
759.731	26013.37
760.068	26125.68
760.405	26045.46
760.743	25896.31
761.08	25896.08
761.417	25763.88
761.754	25774.05
762.091	25728.41
762.428	25615.64
762.765	25466.27
763.102	25497.23
763.438	25401.41
763.775	25372.03
764.112	25286.38
764.449	25210.45
764.785	25127.52
765.122	24967.07
765.458	25046.84
765.795	24831.71
766.131	24778.83
766.467	24763.01
766.804	24666.29
767.14	24512.39
767.476	24466.74
767.812	24341.32
768.148	24519.85
768.485	24292.96
768.821	24081.44
769.157	24102.46
769.492	24148.33
769.828	24105.4
770.164	23886.65
770.5	23851.17
770.836	23817.04
771.171	23579.54
771.507	23650.04
771.842	23416.38
772.178	23415.7
772.513	23422.25
772.849	23370.5
773.184	23161.02
773.519	23121.24
773.855	22993.56
774.19	22915.37
774.525	22782.27
774.86	22854.58
775.195	22777.52
775.53	22654.81
775.865	22603.29
776.2	22402.84
776.535	22250.76
776.87	22307.03
777.205	22224.32
777.539	22044.66
777.874	22196.97
778.209	21918.34
778.543	21919.92
778.878	21871.33
779.212	21801.05
779.547	21629.76
779.881	21761.96
780.215	21571.45
780.55	21582.3
780.884	21463.21
781.218	21442.87
781.552	21328.75
781.886	21206.94
782.22	21047.62
782.554	21070.45
782.888	20831.36
783.222	20799.27
783.556	20670.01
783.889	20670.91
784.223	20436.57
784.557	20505.94
784.89	20505.94
785.224	20291.49
785.557	20344.59
785.891	20315.67
786.224	20126.07
786.558	20168.55
786.891	19944.6
787.224	19791.84
787.557	19848.33
787.891	19750.71
788.224	19713.65
788.557	19849.46
788.89	19675.68
789.223	19631.39
789.556	19484.73
789.888	19435.01
790.221	19318.18
790.554	19204.51
790.887	19177.17
791.219	19089.48
791.552	19073.89
791.884	19079.99
792.217	18905.53
792.549	18863.05
792.882	18833.67
793.214	18694.92
793.546	18746.44
793.879	18640.91
794.211	18550.74
794.543	18617.41
794.875	18465.09
795.207	18518.2
795.539	18402.04
795.871	18244.08
796.203	18233.91
796.535	18145.78
796.867	18025.56
797.198	18004.54
797.53	18098.78
797.862	17908.5
798.193	17912.34
798.525	17847.93
798.856	17832.12
799.188	17603.42
799.519	17589.86
799.85	17572.46
800.182	17539.24
800.513	17529.75
800.844	17404.1
801.175	17527.27
801.506	17333.6
801.837	17303.54
802.168	17272.13
802.499	17158.69
802.83	17121.85
803.161	17061.51
803.491	17092.25
803.822	17003.66
804.153	16957.34
804.483	16824.01
804.814	16747.85
805.145	16704.01
805.475	16704.91
805.805	16640.73
806.136	16648.87
806.466	16604.35
806.796	16558.93
807.126	16444.36
807.457	16405.26
807.787	16401.65
808.117	16322.33
808.447	16285.26
808.777	16236.68
809.107	16206.17
809.436	16139.28
809.766	16125.95
810.096	16038.72
810.426	15975.44
810.755	15996.23
811.085	15960.3
811.414	15910.13
811.744	15891.15
812.073	15793.75
812.403	15768.67
812.732	15605.96
813.061	15738.61
813.39	15571.84
813.719	15610.03
814.049	15618.39
814.378	15544.49
814.707	15456.81
815.036	15391.5
815.365	15386.98
815.693	15268.34
816.022	15235.12
816.351	15204.39
816.68	15123.03
817.008	15139.76
817.337	15102.92
817.665	15011.17
817.994	15007.33
818.322	15059.53
818.651	14962.36
818.979	14967.33
819.307	14978.63
819.636	14989.7
819.964	14805.3
820.292	14829.26
820.62	14823.61
820.948	14667.91
821.276	14834.68
821.604	14784.74
821.932	14772.76
822.259	14707.68
822.587	14783.38
822.915	14625.42
823.243	14770.5
823.57	14693.67
823.898	14663.16
824.225	14699.99
824.553	14680.33
824.88	14643.73
825.207	14725.3
825.535	14648.02
825.862	14698.19
826.189	14718.3
826.516	14719.88
826.843	14749.49
827.17	14735.47
827.497	14777.96
827.824	14729.15
828.151	14646.21
828.478	14695.02
828.805	14698.19
829.131	14698.64
829.458	14561.69
829.785	14627.23
830.111	14573.44
830.438	14687.79
830.764	14645.98
831.09	14719.2
831.417	14558.98
831.743	14637.4
832.069	14609.15
832.395	14539.55
832.722	14613.9
833.048	14431.75
833.374	14610.73
833.7	14453.22
834.026	14612.09
834.351	14504.29
834.677	14500.9
835.003	14495.25
835.329	14532.54
835.654	14449.38
835.98	14495.93
836.306	14389.49
836.631	14385.43
836.956	14403.51
837.282	14356.5
837.607	14231.31
837.932	14240.57
838.258	14264.07
838.583	14197.41
838.908	14167.58
839.233	14139.78
839.558	14201.02
839.883	14138.65
840.208	14081.03
840.533	14096.39
840.858	14093.23
841.182	14034.25
841.507	14058.88
841.832	13976.62
842.156	13989.28
842.481	13936.4
842.805	13901.82
843.13	13879.45
843.454	13875.38
843.778	13795.84
844.103	13760.13
844.427	13659.57
844.751	13595.84
845.075	13690.08
845.399	13653.47
845.723	13553.36
846.047	13602.85
846.371	13457.99
846.695	13457.09
847.019	13336.87
847.343	13337.77
847.666	13177.1
847.99	13176.19
848.313	13197.44
848.637	13077.44
848.96	13110.43
849.284	12988.18
849.607	12919.25
849.931	12937.56
850.254	12862.3
850.577	12735.75
850.9	12705.25
851.223	12653.95
851.546	12580.05
851.869	12488.3
852.192	12594.74
852.515	12491.01
852.838	12405.82
853.161	12417.12
853.483	12367.63
853.806	12321.3
854.129	12300.74
854.451	12289.66
854.774	12144.81
855.096	12144.36
855.419	12086.05
855.741	12094.64
856.063	12013.29
856.385	12007.18
856.708	11927.19
857.03	11866.4
857.352	11922.44
857.674	11841.31
857.996	11837.25
858.318	11704.82
858.64	11729.9
858.961	11745.95
859.283	11631.15
859.605	11603.58
859.926	11606.52
860.248	11614.43
860.57	11605.84
860.891	11648.78
861.212	11433.41
861.534	11436.13
861.855	11351.16
862.176	11458.95
862.498	11396.35
862.819	11382.57
863.14	11269.58
863.461	11341.21
863.782	11298.73
864.103	11316.58
864.424	11233.65
864.745	11269.58
865.065	11157.26
865.386	11164.04
865.707	11140.09
866.027	11079.75
866.348	11105.06
866.668	11078.62
866.989	11129.24
867.309	11055.34
867.63	11079.75
867.95	11051.5
868.27	10948.46
868.59	10962.01
868.91	10945.74
869.23	10966.99
869.55	10965.86
869.87	10905.97
870.19	10851.51
870.51	10909.81
870.83	10886.54
871.15	10797.27
871.469	10822.13
871.789	10821.9
872.109	10842.7
872.428	10791.85
872.748	10825.52
873.067	10714.79
873.386	10768.57
873.706	10738.52
874.025	10625.75
874.344	10667.56
874.663	10589.14
874.982	10638.63
875.301	10617.16
875.62	10607.67
875.939	10559.09
876.258	10586.2
876.577	10463.5
876.896	10562.7
877.214	10480.67
877.533	10506.66
877.852	10546.88
878.17	10423.05
878.489	10414.91
878.807	10423.5
879.125	10372.2
879.444	10369.71
879.762	10367.45
880.08	10288.81
880.398	10273.22
880.716	10278.64
881.034	10268.47
881.352	10227.57
881.67	10252.88
881.988	10281.81
882.306	10170.17
882.624	10154.58
882.941	10163.62
883.259	10086.1
883.577	10056.5
883.894	10061.02
884.212	10048.14
884.529	10059.89
884.846	9962.94
885.164	10041.81
885.481	9976.96
885.798	10000.46
886.115	9878.2
886.432	9844.98
886.75	9912.32
887.067	9828.48
887.383	9823.06
887.7	9890.4
888.017	9837.75
888.334	9816.51
888.651	9697.64
888.967	9755.72
889.284	9680.92
889.6	9622.39
889.917	9581.26
890.233	9648.38
890.55	9581.03
890.866	9617.19
891.182	9553.01
891.498	9531.09
891.815	9438.66
892.131	9416.52
892.447	9476.4
892.763	9374.49
893.079	9364.99
893.395	9334.71
893.71	9288.61
894.026	9303.98
894.342	9229.63
894.657	9205.22
894.973	9182.17
895.289	9178.11
895.604	9227.82
895.92	9071.89
896.235	9057.66
896.55	9055.17
896.865	8964.55
897.181	8965.46
897.496	9023.99
897.811	8952.58
898.126	8928.4
898.441	8881.62
898.756	8875.52
899.071	8709.64
899.386	8772.02
899.7	8637.78
900.015	8692.92
900.33	8651.57
900.644	8650.44
900.959	8623.32
901.273	8568.4
901.588	8532.7
901.902	8501.97
902.216	8499.93
902.531	8473.27
902.845	8403.66
903.159	8407.96
903.473	8273.5
903.787	8332.48
904.101	8247.74
904.415	8290.22
904.729	8214.06
905.042	8207.06
905.356	8123.9
905.67	8123.22
905.984	8163.22
906.297	8133.61
906.611	8037.57
906.924	7972.94
907.237	7981.75
907.551	8036.67
907.864	7924.58
908.177	7918.7
908.491	7849.33
908.804	7861.53
909.117	7774.75
909.43	7743.12
909.743	7730.46
910.056	7723.23
910.368	7661.99
910.681	7592.61
910.994	7617.02
911.307	7628.99
911.619	7532.73
911.932	7604.59
912.244	7469.45
912.557	7502.9
912.869	7431.49
913.181	7460.64
913.494	7394.2
913.806	7308.55
914.118	7338.38
914.43	7275.56
914.742	7271.04
915.054	7233.75
915.366	7186.29
915.678	7156.92
915.99	7147.88
916.302	7076.69
916.613	7143.58
916.925	7030.59
917.236	7046.18
917.548	7002.57
917.859	6956.02
918.171	7024.26
918.482	6900.2
918.794	6860.88
919.105	6833.99
919.416	6777.49
919.727	6772.97
920.038	6757.83
920.349	6696.82
920.66	6646.42
920.971	6727.1
921.282	6679.19
921.593	6659.98
921.903	6588.8
922.214	6553.54
922.525	6533.2
922.835	6531.62
923.146	6440.1
923.456	6482.13
923.767	6412.53
924.077	6397.61
924.387	6386.09
924.697	6321.46
925.008	6339.76
925.318	6307.67
925.628	6267.45
925.938	6236.04
926.248	6202.82
926.558	6192.87
926.867	6164.85
927.177	6154.46
927.487	6136.6
927.796	6033.56
928.106	6089.6
928.416	6071.52
928.725	6037.17
929.034	5947.23
929.344	5942.48
929.653	5979.55
929.962	5911.98
930.271	5896.16
930.581	5811.87
930.89	5822.49
931.199	5777.07
931.508	5764.41
931.817	5715.82
932.125	5700.23
932.434	5718.76
932.743	5645.09
933.051	5638.99
933.36	5626.79
933.669	5626.11
933.977	5580.23
934.286	5563.74
934.594	5527.13
934.902	5547.47
935.21	5468.15
935.519	5461.37
935.827	5446
936.135	5408.26
936.443	5368.94
936.751	5394.02
937.059	5291.65
937.367	5314.03
937.674	5341.6
937.982	5299.79
938.29	5277.87
938.597	5307.25
938.905	5201.49
939.213	5191.54
939.52	5126.24
939.827	5180.47
940.135	5067.48
940.442	5073.58
940.749	5092.56
941.056	5071.55
941.363	5008.5
941.67	5024.09
941.977	4976.18
942.284	4978.89
942.591	4904.77
942.898	4906.58
943.205	4948.61
943.511	4915.85
943.818	4859.8
944.125	4834.27
944.431	4837.2
944.738	4822.29
945.044	4805.57
945.35	4757.21
945.657	4725.79
945.963	4709.75
946.269	4709.52
946.575	4681.95
946.881	4625.91
947.187	4610.99
947.493	4627.72
947.799	4618.9
948.105	4643.31
948.41	4526.48
948.716	4541.17
949.022	4565.35
949.327	4537.1
949.633	4476.08
949.938	4454.84
950.244	4450.55
950.549	4432.92
950.854	4398.8
951.16	4405.58
951.465	4349.08
951.77	4373.71
952.075	4325.13
952.38	4301.4
952.685	4294.39
952.99	4244.45
953.294	4269.53
953.599	4242.19
953.904	4240.16
954.209	4167.84
954.513	4162.64
954.818	4176.2
955.122	4149.76
955.426	4151.12
955.731	4116.09
956.035	4106.15
956.339	4094.17
956.643	4059.6
956.948	4039.71
957.252	4018.02
957.556	3982.99
957.86	3999.94
958.163	3980.95
958.467	3943.89
958.771	3905.7
959.075	3911.35
959.378	3891.47
959.682	3901.41
959.985	3881.52
960.289	3853.05
960.592	3841.3
960.896	3761.98
961.199	3819.83
961.502	3792.49
961.805	3786.84
962.108	3742.32
962.411	3764.24
962.714	3730.57
963.017	3705.93
963.32	3678.82
963.623	3677.91
963.926	3696.67
964.228	3698.48
964.531	3644.92
964.833	3600.63
965.136	3572.83
965.438	3561.53
965.741	3565.82
966.043	3554.53
966.345	3524.02
966.648	3521.53
966.95	3506.62
967.252	3470.01
967.554	3461.19
967.856	3433.17
968.158	3459.61
968.46	3395.43
968.761	3406.96
969.063	3435.43
969.365	3377.13
969.666	3354.08
969.968	3338.03
970.269	3350.91
970.571	3316.57
970.872	3308.43
971.174	3262.56
971.475	3265.04
971.776	3267.08
972.077	3251.93
972.378	3252.16
972.679	3218.49
972.98	3223.69
973.281	3191.6
973.582	3209.68
973.883	3169.68
974.183	3195.44
974.484	3130.36
974.785	3120.19
975.085	3105.05
975.386	3101.66
975.686	3081.09
975.986	3094.2
976.287	3030.25
976.587	3001.55
976.887	3030.7
977.187	3017.59
977.487	3032.28
977.787	3012.84
978.087	2977.37
978.387	2931.04
978.687	2951.38
978.987	2909.34
979.286	2901.21
979.586	2932.39
979.885	2896.92
980.185	2862.34
980.484	2864.15
980.784	2870.48
981.083	2861.89
981.382	2821.21
981.682	2822.34
981.981	2846.97
982.28	2755.68
982.579	2778.5
982.878	2773.08
983.177	2777.6
983.475	2766.98
983.774	2779.4
984.073	2727.88
984.372	2723.13
984.67	2731.5
984.969	2692.17
985.267	2718.39
985.566	2640.42
985.864	2643.81
986.162	2657.37
986.461	2645.4
986.759	2614.44
987.057	2611.73
987.355	2595.68
987.653	2590.93
987.951	2552.52
988.249	2580.31
988.547	2571.05
988.844	2536.25
989.142	2534.89
989.44	2537.38
989.737	2518.39
990.035	2476.81
990.332	2507.32
990.63	2491.5
990.927	2444.05
991.224	2428.23
991.521	2453.09
991.819	2465.06
992.116	2426.65
992.413	2395.69
992.71	2359.08
993.006	2397.49
993.303	2375.8
993.6	2378.96
993.897	2364.05
994.193	2322.47
994.49	2359.98
994.787	2311.62
995.083	2293.99
995.379	2303.48
995.676	2244.96
995.972	2287.89
996.268	2248.57
996.565	2228.68
996.861	2239.53
997.157	2217.84
997.453	2180.32
997.749	2216.71
998.044	2213.54
998.34	2164.96
998.636	2157.73
998.932	2168.35
999.227	2144.62
999.523	2133.77
999.818	2114.11
1000.114	2118.18
1000.409	2124.51
1000.704	2072.08
1001	2085.64
1001.295	2070.72
1001.59	2047.22
1001.885	2054.9
1002.18	2045.64
1002.475	2035.7
1002.77	2018.97
1003.065	2030.05
1003.359	1981.23
1003.654	1981.23
1003.949	1985.3
1004.243	1961.12
1004.538	1953.44
1004.832	1932.42
1005.127	1941.69
1005.421	1951.86
1005.715	1914.79
1006.009	1906.21
1006.304	1916.6
1006.598	1865.76
1006.892	1858.07
1007.186	1851.52
1007.48	1846.55
1007.773	1848.36
1008.067	1850.62
1008.361	1806.32
1008.655	1794.35
1008.948	1825.53
1009.242	1757.28
1009.535	1782.14
1009.829	1774.46
1010.122	1771.75
1010.415	1743.5
1010.708	1760.45
1011.001	1722.93
1011.295	1723.61
1011.588	1689.72
1011.881	1700.34
1012.173	1673.44
1012.466	1656.95
1012.759	1681.13
1013.052	1647.91
1013.344	1651.98
1013.637	1657.17
1013.93	1652.88
1014.222	1615.82
1014.514	1619.66
1014.807	1598.87
1015.099	1594.12
1015.391	1571.07
1015.683	1580.11
1015.976	1560.91
1016.268	1582.15
1016.56	1512.54
1016.851	1557.97
1017.143	1517.52
1017.435	1506.22
1017.727	1484.07
1018.018	1493.34
1018.31	1500.79
1018.602	1506.67
1018.893	1485.2
1019.185	1476.61
1019.476	1432.32
1019.767	1449.27
1020.058	1428.48
1020.35	1403.62
1020.641	1430.74
1020.932	1401.36
1021.223	1368.59
1021.514	1360.68
1021.804	1392.1
1022.095	1360.01
1022.386	1344.19
1022.677	1351.42
1022.967	1351.42
1023.258	1328.37
1023.548	1320.46
1023.839	1315.49
1024.129	1297.64
1024.419	1325.21
1024.709	1308.26
1025	1289.73
1025.29	1263.96
1025.58	1256.96
1025.87	1237.52
1026.16	1240.69
1026.449	1237.07
1026.739	1227.13
1027.029	1237.75
1027.319	1204.3
1027.608	1209.95
1027.898	1190.29
1028.187	1182.84
1028.477	1202.5
1028.766	1210.86
1029.055	1183.06
1029.344	1163.18
1029.634	1170.41
1029.923	1176.06
1030.212	1148.94
1030.501	1122.05
1030.79	1114.59
1031.078	1122.95
1031.367	1122.27
1031.656	1095.15
1031.945	1105.1
1032.233	1094.7
1032.522	1092.44
1032.81	1075.49
1033.099	1060.13
1033.387	1089.28
1033.675	1066.23
1033.963	1052.9
1034.251	1051.99
1034.54	1068.49
1034.828	1033.69
1035.116	1024.65
1035.403	1008.38
1035.691	1025.33
1035.979	996.63
1036.267	1006.12
1036.554	978.1
1036.842	978.77
1037.129	984.2
1037.417	980.81
1037.704	984.42
1037.992	948.49
1038.279	945.55
1038.566	960.7
1038.853	960.7
1039.14	960.7
