Data from hue_90_FLMS001491_71.txt Node
Date: Mon Feb 06 15:25:37 GMT 2017
User: dcchb
Spectrometer: FLMS00149
Trigger mode: 0
Integration Time (sec): 2.000000E-2
Scans to average: 10
Electric dark correction enabled: true
Nonlinearity correction enabled: false
Boxcar width: 0
XAxis mode: Wavelengths
Number of Pixels in Spectrum: 2048
>>>>>Begin Spectral Data<<<<<
341.393	-23.5
341.776	-23.5
342.16	-23.5
342.543	-75.03
342.927	-73.9
343.31	-57.17
343.693	-79.77
344.077	-73.44
344.46	-59.21
344.843	-48.59
345.226	-52.43
345.61	-50.17
345.993	-12.2
346.376	-12.66
346.759	19.89
347.142	23.05
347.525	55.82
347.908	51.98
348.291	71.18
348.674	107.34
349.057	116.38
349.44	145.53
349.823	135.82
350.206	155.02
350.588	188.24
350.971	211.75
351.354	239.32
351.737	247.45
352.119	254.91
352.502	237.51
352.884	252.2
353.267	261.01
353.65	308.24
354.032	277.28
354.414	318.64
354.797	334.68
355.179	305.75
355.562	304.85
355.944	318.18
356.326	343.72
356.709	324.51
357.091	332.87
357.473	337.17
357.855	334
358.238	327.9
358.62	366.54
359.002	337.62
359.384	333.32
359.766	342.59
360.148	334.68
360.53	332.65
360.912	328.35
361.294	337.17
361.676	321.8
362.057	318.18
362.439	332.19
362.821	320.9
363.203	302.82
363.584	300.33
363.966	347.56
364.348	319.99
364.729	321.12
365.111	320.44
365.493	314.12
365.874	332.65
366.256	315.25
366.637	336.94
367.019	308.01
367.4	313.44
367.781	312.08
368.163	326.55
368.544	291.97
368.925	301.91
369.306	313.21
369.688	303.72
370.069	325.64
370.45	304.62
370.831	299.43
371.212	314.79
371.593	304.4
371.974	306.43
372.355	309.82
372.736	305.3
373.117	298.07
373.498	319.77
373.879	327.45
374.26	294.23
374.641	290.16
375.021	321.35
375.402	313.21
375.783	321.57
376.163	322.93
376.544	325.19
376.925	330.39
377.305	319.09
377.686	326.32
378.066	350.5
378.447	342.14
378.827	317.05
379.208	315.92
379.588	340.1
379.968	329.48
380.349	325.42
380.729	315.7
381.109	318.41
381.489	364.74
381.87	332.42
382.25	338.3
382.63	339.43
383.01	348.47
383.39	336.71
383.77	322.03
384.15	337.62
384.53	338.52
384.91	349.37
385.29	344.4
385.67	342.59
386.049	340.33
386.429	346.66
386.809	339.2
387.189	367.45
387.568	373.78
387.948	353.44
388.328	348.01
388.707	351.4
389.087	378.52
389.466	359.76
389.846	361.8
390.225	357.28
390.605	368.13
390.984	365.41
391.363	373.32
391.743	369.26
392.122	378.75
392.501	345.53
392.881	379.43
393.26	377.39
393.639	386.66
394.018	376.26
394.397	374.91
394.776	377.62
395.155	376.94
395.534	377.62
395.913	398.86
396.292	381.46
396.671	380.33
397.05	379.2
397.429	369.26
397.808	372.19
398.186	373.1
398.565	382.14
398.944	382.81
399.323	383.04
399.701	403.61
400.08	418.52
400.458	374.23
400.837	410.38
401.215	392.76
401.594	406.09
401.972	416.49
402.351	405.19
402.729	413.55
403.107	410.16
403.486	407.22
403.864	413.32
404.242	407.9
404.62	436.82
404.999	412.87
405.377	422.59
405.755	432.31
406.133	402.93
406.511	428.46
406.889	418.97
407.267	425.75
407.645	448.12
408.023	437.95
408.401	430.5
408.779	432.98
409.156	438.18
409.534	436.37
409.912	451.51
410.29	457.39
410.667	443.38
411.045	456.94
411.422	466.65
411.8	459.2
412.178	453.77
412.555	489.25
412.933	481.8
413.31	476.6
413.687	481.34
414.065	458.07
414.442	471.17
414.819	496.03
415.197	492.64
415.574	492.19
415.951	496.71
416.328	508.69
416.705	481.34
417.082	484.96
417.46	505.3
417.837	489.7
418.214	501
418.591	502.13
418.967	514.79
419.344	520.44
419.721	517.95
420.098	523.15
420.475	508.69
420.852	522.25
421.228	514.11
421.605	534.22
421.982	527.44
422.358	536.03
422.735	548.01
423.111	525.18
423.488	538.29
423.864	547.33
424.241	566.76
424.617	559.99
424.994	572.41
425.37	563.38
425.746	588.91
426.123	597.05
426.499	573.09
426.875	607.22
427.251	583.49
427.627	568.8
428.003	599.53
428.379	585.75
428.756	626.2
429.132	606.99
429.507	612.19
429.883	616.93
430.259	630.04
430.635	615.13
431.011	625.97
431.387	633.43
431.763	635.24
432.138	641.34
432.514	637.95
432.89	647.89
433.265	677.5
433.641	677.04
434.016	685.41
434.392	678.4
434.767	666.2
435.143	696.48
435.518	695.8
435.894	709.13
436.269	685.41
436.644	713.43
437.02	733.31
437.395	718.17
437.77	731.73
438.145	730.83
438.52	714.78
438.895	737.61
439.271	746.87
439.646	744.84
440.021	776.02
440.395	759.08
440.77	759.53
441.145	779.87
441.52	787.1
441.895	787.78
442.27	787.55
442.645	783.03
443.019	815.12
443.394	816.25
443.769	817.61
444.143	822.35
444.518	813.54
444.892	815.12
445.267	814.44
445.641	840.2
446.016	853.31
446.39	821.22
446.764	860.99
447.139	837.27
447.513	842.01
447.887	865.97
448.262	887.43
448.636	862.58
449.01	882.24
449.384	910.26
449.758	900.09
450.132	923.82
450.506	902.8
450.88	900.09
451.254	903.93
451.628	917.04
452.002	944.61
452.376	954.33
452.75	923.59
453.123	945.96
453.497	958.17
453.871	976.47
454.244	982.12
454.618	994.55
454.992	993.19
455.365	1015.11
455.739	1027.09
456.112	1031.16
456.486	1054.66
456.859	1037.26
457.232	1070.93
457.606	1071.61
457.979	1079.52
458.352	1106.19
458.725	1120.87
459.099	1121.55
459.472	1137.37
459.845	1121.33
460.218	1163.36
460.591	1173.3
460.964	1188.67
461.337	1193.41
461.71	1212.62
462.083	1218.27
462.456	1228.22
462.829	1222.11
463.201	1278.38
463.574	1279.29
463.947	1287.42
464.32	1321.77
464.692	1369.91
465.065	1356.8
465.438	1396.35
465.81	1395.22
466.183	1422.34
466.555	1446.97
466.928	1454.2
467.3	1452.84
467.672	1472.28
468.045	1524.71
468.417	1514.08
468.789	1499.62
469.161	1590.24
469.534	1595.44
469.906	1657.13
470.278	1643.8
470.65	1706.4
471.022	1717.24
471.394	1745.26
471.766	1759.73
472.138	1804.7
472.51	1850.12
472.882	1888.76
473.253	1891.48
473.625	1951.81
473.997	1980.74
474.369	2036.78
474.74	2083.34
475.112	2134.63
475.484	2132.37
475.855	2226.61
476.227	2247.4
476.598	2308.19
476.97	2351.58
477.341	2419.6
477.713	2459.82
478.084	2535.53
478.455	2622.3
478.827	2647.16
479.198	2742.3
479.569	2793.6
479.94	2893.71
480.311	2935.97
480.682	3027.94
481.053	3120.37
481.424	3188.84
481.795	3257.54
482.166	3328.73
482.537	3414.15
482.908	3549.96
483.279	3637.87
483.65	3728.72
484.021	3816.17
484.391	3921.25
484.762	3990.63
485.133	4046.9
485.503	4174.58
485.874	4290.06
486.244	4368.47
486.615	4504.29
486.985	4612.76
487.356	4736.15
487.726	4863.37
488.097	4971.17
488.467	5020.88
488.837	5199.86
489.207	5299.3
489.578	5466.07
489.948	5509.69
490.318	5715.78
490.688	5729.57
491.058	5899.28
491.428	6040.75
491.798	6148.31
492.168	6314.18
492.538	6342.66
492.908	6503.78
493.278	6639.83
493.648	6648.86
494.017	6896.09
494.387	6972.02
494.757	7130.21
495.126	7234.39
495.496	7295.18
495.866	7490.88
496.235	7542.63
496.605	7683.64
496.974	7702.4
497.344	7878.44
497.713	7906.91
498.082	8054.03
498.452	8210.86
498.821	8281.14
499.19	8323.62
499.559	8468.7
499.928	8534.46
500.298	8678.87
500.667	8760.67
501.036	8799.77
501.405	8907.79
501.774	8997.28
502.143	9105.98
502.512	9190.94
502.88	9276.82
503.249	9290.15
503.618	9377.15
503.987	9484.72
504.356	9596.81
504.724	9557.71
505.093	9705.73
505.462	9702.57
505.83	9816.47
506.199	9881.1
506.567	10006.97
506.936	10050.13
507.304	10149.34
507.672	10215.32
508.041	10263.68
508.409	10363.34
508.777	10480.85
509.145	10432.95
509.514	10491.02
509.882	10593.17
510.25	10661.87
510.618	10608.53
510.986	10794.74
511.354	10759.94
511.722	10982.99
512.09	11052.14
512.458	10948.86
512.826	11058.24
513.193	11157.9
513.561	11146.6
513.929	11192.93
514.297	11233.38
514.664	11345.69
515.032	11317.44
515.4	11484.9
515.767	11425.01
516.135	11451.45
516.502	11505.69
516.869	11522.41
517.237	11656.19
517.604	11571.67
517.972	11689.18
518.339	11739.8
518.706	11723.76
519.073	11729.18
519.44	11716.53
519.808	11876.3
520.175	11838.33
520.542	11957.88
520.909	11985.67
521.276	11915.84
521.643	12076.52
522.009	12111.55
522.376	12148.16
522.743	12160.58
523.11	12239.68
523.477	12307.92
523.843	12328.72
524.21	12413.68
524.577	12451.42
524.943	12467.02
525.31	12449.62
525.676	12518.77
526.043	12563.51
526.409	12643.51
526.776	12647.35
527.142	12611.19
527.508	12655.03
527.874	12707.91
528.241	12779.78
528.607	12714.92
528.973	12794.01
529.339	12773.45
529.705	12829.95
530.071	12842.15
530.437	12878.08
530.803	12850.96
531.169	12864.75
531.535	12811.87
531.901	12817.97
532.267	12782.71
532.632	12905.88
532.998	12852.77
533.364	12876.95
533.73	12784.97
534.095	12956.5
534.461	12860.9
534.826	12995.36
535.192	12889.6
535.557	12955.14
535.923	12856.39
536.288	12949.04
536.653	12853
537.019	12821.81
537.384	12785.43
537.749	12845.31
538.114	12856.61
538.479	12763.05
538.845	12826.78
539.21	12766.9
539.575	12749.95
539.94	12730.29
540.305	12743.17
540.67	12630.85
541.034	12655.71
541.399	12621.14
541.764	12612.55
542.129	12628.37
542.494	12605.77
542.858	12572.32
543.223	12546.79
543.587	12553.34
543.952	12533.46
544.316	12512.21
544.681	12481.25
545.045	12458.88
545.41	12413.46
545.774	12410.3
546.138	12360.58
546.503	12398.77
546.867	12376.4
547.231	12412.78
547.595	12370.97
547.959	12234.25
548.324	12292.56
548.688	12236.97
549.052	12249.4
549.416	12228.15
549.779	12170.53
550.143	12105.9
550.507	12157.65
550.871	12141.38
551.235	12178.21
551.599	12098.89
551.962	12120.13
552.326	12100.92
552.689	12109.96
553.053	12095.73
553.417	12016.41
553.78	12159.45
554.143	12021.38
554.507	11953.58
554.87	12066.35
555.234	12087.37
555.597	11979.8
555.96	11991.55
556.323	12002.62
556.686	11932.34
557.05	12020.47
557.413	11924.66
557.776	12008.5
558.139	12006.92
558.502	11978.22
558.865	11911.1
559.228	11989.52
559.59	11964.66
559.953	11888.27
560.316	11929.86
560.679	11995.62
561.041	11963.75
561.404	11985.45
561.767	12074.26
562.129	12008.27
562.492	12072.22
562.854	12078.55
563.217	11980.02
563.579	11978.22
563.941	12091.43
564.304	12057.54
564.666	12149.06
565.028	12133.69
565.39	12094.6
565.753	12132.56
566.115	12184.31
566.477	12147.48
566.839	12175.05
567.201	12231.99
567.563	12218.66
567.925	12249.62
568.287	12199.23
568.648	12240.13
569.01	12312.67
569.372	12338.88
569.734	12281.94
570.095	12321.94
570.457	12341.14
570.819	12379.79
571.18	12284.87
571.542	12474.02
571.903	12368.49
572.265	12393.35
572.626	12465.89
572.987	12463.85
573.349	12404.42
573.71	12470.63
574.071	12454.14
574.432	12469.95
574.794	12527.81
575.155	12475.6
575.516	12447.58
575.877	12529.16
576.238	12470.18
576.599	12567.81
576.96	12561.48
577.32	12571.65
577.681	12594.92
578.042	12562.38
578.403	12585.21
578.763	12618.88
579.124	12600.57
579.485	12627.69
579.845	12564.87
580.206	12579.33
580.566	12552.66
580.927	12547.24
581.287	12578.65
581.648	12533.46
582.008	12523.51
582.368	12499.33
582.728	12558.77
583.089	12512.21
583.449	12604.41
583.809	12606
584.169	12581.14
584.529	12519.67
584.889	12608.93
585.249	12490.07
585.609	12478.54
585.969	12680.12
586.329	12561.25
586.688	12460.92
587.048	12502.27
587.408	12472.21
587.768	12486.45
588.127	12458.2
588.487	12455.94
588.846	12514.7
589.206	12505.43
589.565	12493.68
589.925	12498.65
590.284	12468.82
590.643	12483.06
591.003	12450.97
591.362	12514.02
591.721	12476.51
592.08	12406
592.44	12427.7
592.799	12453.46
593.158	12330.52
593.517	12449.16
593.876	12453.91
594.235	12352.67
594.593	12382.27
594.952	12475.6
595.311	12290.98
595.67	12399.67
596.029	12484.64
596.387	12428.83
596.746	12357.19
597.104	12355.83
597.463	12366.23
597.822	12384.76
598.18	12287.81
598.538	12321.48
598.897	12432.67
599.255	12292.78
599.613	12443.97
599.972	12416.85
600.33	12390.41
600.688	12347.02
601.046	12408.94
601.404	12398.32
601.762	12323.52
602.12	12384.08
602.478	12369.17
602.836	12391.76
603.194	12297.98
603.552	12385.21
603.91	12332.56
604.268	12312.22
604.625	12366.91
604.983	12376.4
605.341	12302.05
605.698	12345.21
606.056	12377.08
606.413	12418.88
606.771	12383.63
607.128	12426.11
607.485	12394.02
607.843	12394.48
608.2	12450.52
608.557	12484.64
608.914	12428.15
609.272	12440.8
609.629	12501.14
609.986	12532.33
610.343	12484.19
610.7	12432.44
611.057	12499.56
611.414	12504.53
611.771	12537.75
612.127	12572.78
612.484	12502.27
612.841	12598.31
613.198	12555.6
613.554	12496.17
613.911	12647.35
614.267	12566
614.624	12496.62
614.98	12543.85
615.337	12711.3
615.693	12609.16
616.05	12626.33
616.406	12671.31
616.762	12580.01
617.118	12645.54
617.475	12655.49
617.831	12636.96
618.187	12658.42
618.543	12669.27
618.899	12711.08
619.255	12737.07
619.611	12683.73
619.967	12684.19
620.323	12756.05
620.678	12708.14
621.034	12619.56
621.39	12714.69
621.746	12630.18
622.101	12876.72
622.457	12707.24
622.812	12763.73
623.168	12747.69
623.523	12804.41
623.879	12777.07
624.234	12648.71
624.589	12702.49
624.945	12777.07
625.3	12697.29
625.655	12741.59
626.01	12768.03
626.365	12731.87
626.72	12667.46
627.075	12689.16
627.43	12634.92
627.785	12686.22
628.14	12690.51
628.495	12720.8
628.85	12695.03
629.205	12645.54
629.559	12758.99
629.914	12670.18
630.269	12716.5
630.623	12567.35
630.978	12536.17
631.332	12668.37
631.687	12690.74
632.041	12542.27
632.396	12664.07
632.75	12523.29
633.104	12630.18
633.459	12600.35
633.813	12482.16
634.167	12501.37
634.521	12502.95
634.875	12480.12
635.229	12497.3
635.583	12453.91
635.937	12421.14
636.291	12466.34
636.645	12421.37
636.999	12391.09
637.352	12471.99
637.706	12373.69
638.06	12384.53
638.413	12371.43
638.767	12381.6
639.121	12384.76
639.474	12354.7
639.828	12246.01
640.181	12316.51
640.534	12339.56
640.888	12261.82
641.241	12129.62
641.594	12220.47
641.947	12351.09
642.301	12259.56
642.654	12293.01
643.007	12224.99
643.36	12238.77
643.713	12216.18
644.066	12246.91
644.419	12140.92
644.771	12045.33
645.124	12002.85
645.477	11927.37
645.83	11880.82
646.182	11880.37
646.535	11791.33
646.888	11835.17
647.24	11704.78
647.593	11890.99
647.945	11793.36
648.298	11715.85
648.65	11697.55
649.002	11686.92
649.355	11707.26
649.707	11741.61
650.059	11785.45
650.411	11846.92
650.763	11901.83
651.115	12110.64
651.467	12088.5
651.819	11995.62
652.171	11986.58
652.523	11976.86
652.875	12008.05
653.227	11960.82
653.578	12033.36
653.93	11953.36
654.282	11961.95
654.633	11992.68
654.985	11932.34
655.337	11964.88
655.688	11987.93
656.039	11989.29
656.391	11965.56
656.742	11964.88
657.094	11940.7
657.445	11971.21
657.796	12043.75
658.147	11988.16
658.498	12043.53
658.849	12010.08
659.2	11956.3
659.551	11883.08
659.902	11952.23
660.253	11941.15
660.604	11992.45
660.955	11938.9
661.306	12134.6
661.656	12031.55
662.007	12052.56
662.358	11956.97
662.708	12025.9
663.059	12014.15
663.409	12003.75
663.76	11999.46
664.11	12039.46
664.461	12011.66
664.811	12052.11
665.161	12032.68
665.511	11993.36
665.862	12030.64
666.212	12100.7
666.562	12025.45
666.912	11981.61
667.262	12071.32
667.612	12045.56
667.962	12073.81
668.312	12010.76
668.662	12085.56
669.011	11974.6
669.361	12002.4
669.711	11933.7
670.06	11976.41
670.41	11992
670.76	11969.18
671.109	11995.62
671.459	11965.34
671.808	11940.25
672.157	11932.34
672.507	11888.95
672.856	11861.16
673.205	11931.89
673.554	11932.34
673.904	11892.12
674.253	12068.61
674.602	11953.13
674.951	11795.62
675.3	11680.6
675.649	11900.48
675.998	11834.04
676.346	11790.42
676.695	11857.77
677.044	11768.28
677.393	11810.08
677.741	11860.71
678.09	11857.09
678.438	11729.41
678.787	11785.9
679.135	11763.98
679.484	11689.41
679.832	11674.95
680.181	11617.55
680.529	11680.82
680.877	11613.48
681.225	11631.56
681.573	11719.47
681.922	11627.72
682.27	11551.11
682.618	11619.13
682.966	11579.36
683.314	11576.64
683.661	11440.83
684.009	11526.25
684.357	11453.71
684.705	11401.28
685.053	11398.12
685.4	11438.34
685.748	11375.07
686.095	11300.95
686.443	11267.05
686.79	11258.24
687.138	11314.5
687.485	11324.45
687.832	11223.43
688.18	11204.9
688.527	11118.58
688.874	11157.45
689.221	11100.73
689.568	11066.83
689.915	11035.87
690.262	10983.89
690.609	10955.87
690.956	10888.75
691.303	10909.09
691.65	10874.74
691.997	10901.18
692.344	10800.62
692.69	10868.87
693.037	10756.1
693.383	10719.04
693.73	10775.99
694.077	10674.3
694.423	10704.35
694.769	10663
695.116	10705.03
695.462	10493.06
695.808	10491.48
696.155	10574.19
696.501	10430.69
696.847	10406.05
697.193	10366.28
697.539	10364.25
697.885	10281.31
698.231	10190.47
698.577	10213.52
698.923	10200.41
699.269	10183.69
699.614	10096.46
699.96	10068.66
700.306	10094.42
700.651	9981.88
700.997	10060.75
701.342	9980.3
701.688	9963.81
702.033	9880.87
702.379	9963.35
702.724	9840.42
703.069	9880.42
703.415	9711.84
703.76	9711.38
704.105	9739.63
704.45	9687.65
704.795	9588.67
705.14	9553.42
705.485	9558.84
705.83	9528.11
706.175	9567.66
706.52	9540.77
706.865	9433.65
707.209	9416.48
707.554	9418.96
707.899	9417.15
708.243	9409.47
708.588	9420.77
708.932	9276.59
709.277	9306.2
709.621	9289.02
709.966	9253.09
710.31	9171.06
710.654	9138.97
710.998	9108.01
711.342	9181.23
711.687	9088.57
712.031	9079.08
712.375	8986.43
712.719	9063.49
713.063	9027.79
713.407	9034.56
713.75	8997.28
714.094	8981.23
714.438	8923.83
714.782	8923.16
715.125	8879.77
715.469	8936.71
715.812	8831.41
716.156	8867.79
716.499	8879.54
716.843	8804.29
717.186	8850.39
717.53	8818.98
717.873	8815.81
718.216	8811.75
718.559	8766.1
718.902	8727
719.246	8728.81
719.589	8700.11
719.932	8635.93
720.275	8719.32
720.617	8720.67
720.96	8680.45
721.303	8680.45
721.646	8653.56
721.989	8657.17
722.331	8688.36
722.674	8539.44
723.016	8556.16
723.359	8546.44
723.701	8639.32
724.044	8564.29
724.386	8504.41
724.729	8509.61
725.071	8481.36
725.413	8560.23
725.755	8501.47
726.097	8461.02
726.439	8433.68
726.782	8438.2
727.124	8430.29
727.465	8448.14
727.807	8410.4
728.149	8426.45
728.491	8449.04
728.833	8496.27
729.175	8438.65
729.516	8377.18
729.858	8456.27
730.199	8382.15
730.541	8446.78
730.882	8443.39
731.224	8526.1
731.565	8418.54
731.906	8402.72
732.248	8411.76
732.589	8365.88
732.93	8325.2
733.271	8380.12
733.612	8373.34
733.953	8431.19
734.294	8404.98
734.635	8381.47
734.976	8440.68
735.317	8363.62
735.658	8379.44
735.999	8386.45
736.339	8335.83
736.68	8411.76
737.021	8363.4
737.361	8379.89
737.702	8390.51
738.042	8381.02
738.383	8368.14
738.723	8458.08
739.063	8344.19
739.404	8440.68
739.744	8405.88
740.084	8388.48
740.424	8459.44
740.764	8437.97
741.104	8423.28
741.444	8442.26
741.784	8440.23
742.124	8465.09
742.464	8474.58
742.804	8476.61
743.143	8515.48
743.483	8592.54
743.823	8483.84
744.162	8554.8
744.502	8579.44
744.841	8512.77
745.181	8677.51
745.52	8629.15
745.86	8708.7
746.199	8716.61
746.538	8736.04
746.877	8774.91
747.216	8784.85
747.556	8810.84
747.895	8900.56
748.234	8935.58
748.573	8871.86
748.911	8975.81
749.25	9092.42
749.589	9054.23
749.928	9053.77
750.267	9136.48
750.605	9210.15
750.944	9339.19
751.283	9313.43
751.621	9387.55
751.96	9477.49
752.298	9553.42
752.636	9675.23
752.975	9699.86
753.313	9797.71
753.651	9912.06
753.989	9970.81
754.327	10041.32
754.666	10110.24
755.004	10192.27
755.342	10358.37
755.679	10386.62
756.017	10484.92
756.355	10599.04
756.693	10696.89
757.031	10856.66
757.368	10957.45
757.706	11045.59
758.044	11196.77
758.381	11335.3
758.719	11455.97
759.056	11596.08
759.394	11680.82
759.731	11759.01
760.068	11928.73
760.405	12041.94
760.743	12220.7
761.08	12329.39
761.417	12476.51
761.754	12576.62
762.091	12676.28
762.428	12805.31
762.765	12936.61
763.102	13113.33
763.438	13144.51
763.775	13267.45
764.112	13446.43
764.449	13615.01
764.785	13668.57
765.122	13667.89
765.458	13894.78
765.795	13928.45
766.131	14142.23
766.467	14255.9
766.804	14352.62
767.14	14415.89
767.476	14575.66
767.812	14649.33
768.148	14857.46
768.485	14786.5
768.821	14894.07
769.157	14990.79
769.492	15104.24
769.828	15178.81
770.164	15191.01
770.5	15244.57
770.836	15413.38
771.171	15507.61
771.507	15489.99
771.842	15601.62
772.178	15616.76
772.513	15730.43
772.849	15711.45
773.184	15836.19
773.519	15935.4
773.855	15963.2
774.19	15892.01
774.525	15998.68
774.86	16056.08
775.195	16139.24
775.53	16126.36
775.865	16152.34
776.2	16150.99
776.535	16068.05
776.87	16182.4
777.205	16180.59
777.539	16215.84
777.874	16241.83
778.209	16204.09
778.543	16247.26
778.878	16221.27
779.212	16352.11
779.547	16322.73
779.881	16317.99
780.215	16191.44
780.55	16365.22
780.884	16301.04
781.218	16259.23
781.552	16398.66
781.886	16277.76
782.22	16233.7
782.554	16235.28
782.888	16138.33
783.222	16178.33
783.556	16148.05
783.889	16165.22
784.223	16091.33
784.557	16055.17
784.89	16077.54
785.224	16114.38
785.557	16171.55
785.891	16061.5
786.224	16035.28
786.558	16013.59
786.891	15969.07
787.224	15906.25
787.557	15963.42
787.891	15948.28
788.224	15957.55
788.557	16027.38
788.89	15943.31
789.223	15873.48
789.556	15809.75
789.888	15829.19
790.221	15762.3
790.554	15672.36
790.887	15699.25
791.219	15605.47
791.552	15735.63
791.884	15607.73
792.217	15510.78
792.549	15494.96
792.882	15384
793.214	15429.65
793.546	15477.79
793.879	15301.74
794.211	15283.67
794.543	15369.99
794.875	15292.48
795.207	15381.06
795.539	15245.7
795.871	15300.84
796.203	15174.06
796.535	15140.17
796.867	15090.22
797.198	14988.08
797.53	14994.63
797.862	15012.71
798.193	14982.66
798.525	14927.29
798.856	14903.34
799.188	14765.26
799.519	14777.01
799.85	14668.99
800.182	14718.48
800.513	14708.77
800.844	14621.31
801.175	14666.51
801.506	14661.54
801.837	14529.79
802.168	14585.38
802.499	14542.44
802.83	14393.97
803.161	14412.28
803.491	14374.54
803.822	14365.27
804.153	14318.95
804.483	14200.76
804.814	14220.87
805.145	14198.95
805.475	14141.32
805.805	14103.36
806.136	14159.85
806.466	14055.9
806.796	14081.89
807.126	13951.27
807.457	13970.25
807.787	13887.77
808.117	13907.88
808.447	13845.29
808.777	13944.94
809.107	13850.48
809.436	13758.28
809.766	13827.89
810.096	13679.64
810.426	13704.72
810.755	13714.89
811.085	13706.76
811.414	13575.24
811.744	13553.09
812.073	13584.73
812.403	13492.98
812.732	13441.91
813.061	13458.86
813.39	13369.59
813.719	13379.76
814.049	13422.92
814.378	13350.16
814.707	13323.04
815.036	13369.14
815.365	13228.8
815.693	13096.6
816.022	13166.66
816.351	13104.06
816.68	13054.12
817.008	13087.79
817.337	12958.98
817.665	13005.76
817.994	13022.71
818.322	13021.35
818.651	12839.44
818.979	12881.7
819.307	12962.6
819.636	12897.51
819.964	12832.43
820.292	12890.06
820.62	12878.08
820.948	12853.45
821.276	12885.08
821.604	12808.48
821.932	12855.71
822.259	12874.01
822.587	12829.49
822.915	12793.56
823.243	12892.99
823.57	12829.27
823.898	12813.45
824.225	12817.74
824.553	12784.07
824.88	12794.01
825.207	12788.59
825.535	12786.33
825.862	12858.19
826.189	12807.12
826.516	12840.11
826.843	12850.28
827.17	12932.32
827.497	12893.67
827.824	12861.81
828.151	12923.5
828.478	12838.31
828.805	12933.22
829.131	12771.87
829.458	12763.96
829.785	12768.48
830.111	12801.92
830.438	12878.08
830.764	12818.65
831.09	12779.1
831.417	12776.61
831.743	12793.56
832.069	12748.82
832.395	12727.35
832.722	12791.3
833.048	12720.34
833.374	12679.67
833.7	12682.38
834.026	12639.22
834.351	12750.17
834.677	12734.58
835.003	12659.55
835.329	12714.69
835.654	12640.57
835.98	12587.92
836.306	12647.35
836.631	12593.12
836.956	12611.65
837.282	12594.47
837.607	12536.62
837.932	12504.76
838.258	12598.54
838.583	12522.16
838.908	12497.3
839.233	12477.64
839.558	12454.14
839.883	12456.4
840.208	12415.27
840.533	12443.97
840.858	12432.44
841.182	12409.17
841.507	12366.45
841.832	12267.25
842.156	12322.16
842.481	12348.6
842.805	12195.61
843.13	12210.75
843.454	12120.13
843.778	12204.65
844.103	12102.28
844.427	12062.73
844.751	12170.3
845.075	12024.99
845.399	12040.14
845.723	11911.33
846.047	11928.27
846.371	11865.9
846.695	11829.75
847.019	11808.5
847.343	11740.93
847.666	11678.79
847.99	11597.21
848.313	11568.51
848.637	11447.83
848.96	11496.65
849.284	11502.52
849.607	11390.89
849.931	11395.41
850.254	11380.04
850.577	11317.67
850.9	11173.27
851.223	11092.36
851.546	11092.82
851.869	10996.1
852.192	11119.03
852.515	10948.64
852.838	10982.08
853.161	11031.35
853.483	10888.75
853.806	10854.4
854.129	10850.56
854.451	10781.64
854.774	10743.45
855.096	10698.02
855.419	10656.44
855.741	10686.05
856.063	10557.91
856.385	10548.65
856.708	10454.64
857.03	10553.62
857.352	10470.46
857.674	10478.14
857.996	10459.84
858.318	10346.39
858.64	10337.81
858.961	10397.24
859.283	10272.05
859.605	10228.66
859.926	10249.9
860.248	10224.14
860.57	10226.62
860.891	10201.77
861.212	10057.81
861.534	10103.01
861.855	10124.03
862.176	10104.59
862.498	10046.52
862.819	10048.78
863.14	10027.08
863.461	9950.02
863.782	10059.17
864.103	10042.67
864.424	9996.35
864.745	9950.7
865.065	9881.77
865.386	9954.99
865.707	9835.22
866.027	9905.73
866.348	9894.88
866.668	9772.85
866.989	9874.77
867.309	9742.34
867.63	9816.69
867.95	9744.83
868.27	9745.51
868.59	9689.24
868.91	9698.5
869.23	9700.99
869.55	9640.2
869.87	9596.58
870.19	9625.06
870.51	9624.61
870.83	9618.05
871.15	9559.07
871.469	9572.18
871.789	9597.71
872.109	9638.39
872.428	9531.95
872.748	9544.16
873.067	9511.39
873.386	9506.42
873.706	9466.64
874.025	9477.26
874.344	9420.32
874.663	9480.2
874.982	9366.08
875.301	9394.33
875.62	9322.01
875.939	9336.7
876.258	9384.16
876.577	9365.63
876.896	9337.16
877.214	9263.26
877.533	9288.8
877.852	9260.77
878.17	9249.25
878.489	9257.84
878.807	9238.4
879.125	9253.09
879.444	9205.86
879.762	9171.74
880.08	9165.18
880.398	9194.79
880.716	9163.6
881.034	9100.33
881.352	9115.69
881.67	9060.33
881.988	9119.08
882.306	9048.35
882.624	8971.29
882.941	8958.63
883.259	8950.27
883.577	8947.11
883.894	8932.42
884.212	8912.76
884.529	8913.44
884.846	8873.66
885.164	8925.19
885.481	8854.46
885.798	8856.26
886.115	8787.11
886.432	8799.54
886.75	8777.17
887.067	8736.49
887.383	8716.61
887.7	8676.61
888.017	8630.28
888.334	8649.04
888.651	8624.86
888.967	8660.11
889.284	8562.26
889.6	8434.35
889.917	8488.14
890.233	8490.4
890.55	8434.58
890.866	8527.01
891.182	8427.58
891.498	8476.61
891.815	8399.55
892.131	8371.76
892.447	8398.88
892.763	8254.25
893.079	8315.71
893.395	8289.05
893.71	8271.65
894.026	8217.86
894.342	8157.53
894.657	8139.9
894.973	8118.88
895.289	8087.02
895.604	8159.79
895.92	8093.57
896.235	7967.47
896.55	8078.88
896.865	7989.39
897.181	7986
897.496	7986.23
897.811	7923.63
898.126	7900.13
898.441	7835.5
898.756	7849.51
899.071	7781.04
899.386	7776.74
899.7	7682.06
900.015	7640.25
900.33	7656.52
900.644	7677.54
900.959	7632.79
901.273	7609.52
901.588	7585.34
901.902	7457.66
902.216	7482.52
902.531	7449.52
902.845	7402.07
903.159	7413.59
903.473	7357.32
903.787	7246.82
904.101	7310.32
904.415	7315.29
904.729	7251.33
905.042	7238
905.356	7146.93
905.67	7170.66
905.984	7155.52
906.297	7111.45
906.611	7060.61
906.924	7065.58
907.237	7114.62
907.551	7048.18
907.864	6984.68
908.177	7000.72
908.491	6938.8
908.804	6922.76
909.117	6927.05
909.43	6851.8
909.743	6824.91
910.056	6736.09
910.368	6785.58
910.681	6766.38
910.994	6678.24
911.307	6688.41
911.619	6668.98
911.932	6645.93
912.244	6601.41
912.557	6546.72
912.869	6530.9
913.181	6484.35
913.494	6541.75
913.806	6428.08
914.118	6433.05
914.43	6383.56
914.742	6366.61
915.054	6381.53
915.366	6360.28
915.678	6317.8
915.99	6296.11
916.302	6269.21
916.613	6230.34
916.925	6241.64
917.236	6260.63
917.548	6226.73
917.859	6193.51
918.171	6112.16
918.482	6133.62
918.794	6145.38
919.105	6048.65
919.416	6026.51
919.727	5978.15
920.038	6003.23
920.349	5971.59
920.66	5897.7
920.971	5927.53
921.282	5896.57
921.593	5804.37
921.903	5891.14
922.214	5847.98
922.525	5786.29
922.835	5761.43
923.146	5762.11
923.456	5742.67
923.767	5692.05
924.077	5695.44
924.387	5675.56
924.697	5632.39
925.008	5610.7
925.318	5560.31
925.628	5555.11
925.938	5574.54
926.248	5497.93
926.558	5510.59
926.867	5476.47
927.177	5460.2
927.487	5448.67
927.796	5326.41
928.106	5382.68
928.416	5317.83
928.725	5316.02
929.034	5285.74
929.344	5306.75
929.653	5312.63
929.962	5221.78
930.271	5201.67
930.581	5157.83
930.89	5242.35
931.199	5166.87
931.508	5129.13
931.817	5134.78
932.125	5128.23
932.434	5164.38
932.743	5047.78
933.051	5058.62
933.36	4935.01
933.669	4994.9
933.977	4941.34
934.286	4929.81
934.594	4984.05
934.902	4898.85
935.21	4841.45
935.519	4838.52
935.827	4859.53
936.135	4855.47
936.443	4802.13
936.751	4734.34
937.059	4756.03
937.367	4773.21
937.674	4783.6
937.982	4743.15
938.29	4683.27
938.597	4749.03
938.905	4655.7
939.213	4602.59
939.52	4631.74
939.827	4622.93
940.135	4562.59
940.442	4621.57
940.749	4589.71
941.056	4561.24
941.363	4483.72
941.67	4507.23
941.977	4436.49
942.284	4466.55
942.591	4425.87
942.898	4394.69
943.205	4390.85
943.511	4369.38
943.818	4349.94
944.125	4325.54
944.431	4321.47
944.738	4315.37
945.044	4270.4
945.35	4280.57
945.657	4249.38
945.963	4222.26
946.269	4210.06
946.575	4230.4
946.881	4175.26
947.187	4149.95
947.493	4130.06
947.799	4162.38
948.105	4147.91
948.41	4087.58
948.716	4073.79
949.022	4067.92
949.327	4044.87
949.633	4014.36
949.938	4027.92
950.244	4023.17
950.549	3943.17
950.854	3956.51
951.16	3902.5
951.465	3872.89
951.77	3879.45
952.075	3883.29
952.38	3886.23
952.685	3900.91
952.99	3858.2
953.294	3816.62
953.599	3808.94
953.904	3756.51
954.209	3757.87
954.513	3787.92
954.818	3743.18
955.122	3673.8
955.426	3717.19
955.731	3671.09
956.035	3682.16
956.339	3642.39
956.643	3658.66
956.948	3632.22
957.252	3581.83
957.556	3620.47
957.86	3591.54
958.163	3587.7
958.467	3550.64
958.771	3572.34
959.075	3514.03
959.378	3502.28
959.682	3565.56
959.985	3496.18
960.289	3486.01
960.592	3455.5
960.896	3390.42
961.199	3417.76
961.502	3441.27
961.805	3432
962.108	3353.58
962.411	3364.88
962.714	3343.64
963.017	3344.54
963.32	3318.33
963.623	3278.11
963.926	3315.85
964.228	3273.13
964.531	3250.76
964.833	3276.07
965.136	3221.61
965.438	3213.47
965.741	3201.05
966.043	3189.75
966.345	3155.85
966.648	3152.01
966.95	3105.23
967.252	3119.47
967.554	3147.26
967.856	3107.94
968.158	3104.1
968.46	3095.74
968.761	3071.78
969.063	3048.73
969.365	3072.91
969.666	3006.7
969.968	3007.15
970.269	3046.93
970.571	3036.76
970.872	2972.35
971.174	2970.32
971.475	2986.36
971.776	2922.18
972.077	2937.78
972.378	2932.58
972.679	2936.87
972.98	2900.26
973.281	2874.05
973.582	2898.23
973.883	2856.42
974.183	2862.75
974.484	2833.6
974.785	2782.98
975.085	2851.68
975.386	2808.29
975.686	2792.24
975.986	2742.98
976.287	2730.1
976.587	2756.76
976.887	2724
977.187	2749.31
977.487	2693.94
977.787	2708.18
978.087	2676.54
978.387	2689.42
978.687	2663.21
978.987	2628.41
979.286	2632.7
979.586	2652.81
979.885	2632.25
980.185	2605.13
980.484	2589.99
980.784	2568.29
981.083	2571.01
981.382	2561.29
981.682	2558.58
981.981	2524.45
982.28	2530.1
982.579	2520.61
982.878	2512.7
983.177	2506.15
983.475	2479.71
983.774	2450.56
984.073	2458.01
984.372	2463.44
984.67	2429.54
984.969	2431.8
985.267	2413.5
985.566	2412.14
985.864	2399.94
986.162	2387.51
986.461	2359.26
986.759	2393.84
987.057	2333.27
987.355	2342.99
987.653	2335.31
987.951	2332.14
988.249	2313.61
988.547	2320.62
988.844	2307.96
989.142	2283.56
989.44	2280.39
989.737	2275.87
990.035	2277.91
990.332	2221.41
990.63	2276.55
990.927	2244.69
991.224	2182.54
991.521	2212.15
991.819	2207.4
992.116	2192.48
992.413	2177.57
992.71	2173.95
993.006	2139.83
993.303	2167.63
993.6	2138.93
993.897	2147.06
994.193	2096.67
994.49	2120.17
994.787	2095.09
995.083	2069.1
995.379	2070
995.676	2026.61
995.972	2066.61
996.268	2025.94
996.565	2052.38
996.861	2021.19
997.157	2037.91
997.453	2012.15
997.749	1955.88
998.044	1970.57
998.34	1980.51
998.636	1945.94
998.932	1930.8
999.227	1960.85
999.523	1967.86
999.818	1914.3
1000.114	1920.85
1000.409	1918.37
1000.704	1905.71
1001	1925.37
1001.295	1874.53
1001.59	1884.47
1001.885	1857.8
1002.18	1841.31
1002.475	1869.33
1002.77	1841.31
1003.065	1823.91
1003.359	1801.08
1003.654	1803.34
1003.949	1805.83
1004.243	1779.39
1004.538	1752.95
1004.832	1794.08
1005.127	1759.28
1005.421	1760.18
1005.715	1714.31
1006.009	1728.77
1006.304	1696.68
1006.598	1698.03
1006.892	1675.89
1007.186	1677.02
1007.48	1695.55
1007.773	1688.77
1008.067	1673.4
1008.361	1624.82
1008.655	1641.99
1008.948	1635.21
1009.242	1626.62
1009.535	1599.51
1009.829	1623.23
1010.122	1599.28
1010.415	1601.54
1010.708	1587.08
1011.001	1590.92
1011.295	1569.45
1011.588	1573.74
1011.881	1539.62
1012.173	1519.06
1012.466	1542.11
1012.759	1520.86
1013.052	1536.46
1013.344	1497.59
1013.637	1494.2
1013.93	1474.31
1014.222	1492.84
1014.514	1456.01
1014.807	1462.11
1015.099	1449.91
1015.391	1449.45
1015.683	1460.98
1015.976	1445.61
1016.268	1431.37
1016.56	1419.17
1016.851	1395.22
1017.143	1413.52
1017.435	1380.75
1017.727	1389.57
1018.018	1371.26
1018.31	1356.8
1018.602	1355.44
1018.893	1359.29
1019.185	1360.87
1019.476	1330.59
1019.767	1328.33
1020.058	1317.71
1020.35	1319.29
1020.641	1300.76
1020.932	1291.27
1021.223	1263.47
1021.514	1277.93
1021.804	1268.22
1022.095	1272.73
1022.386	1245.62
1022.677	1230.02
1022.967	1235.22
1023.258	1241.55
1023.548	1211.72
1023.839	1211.95
1024.129	1216.24
1024.419	1189.57
1024.709	1191.16
1025	1171.04
1025.29	1181.44
1025.58	1178.5
1025.87	1174.43
1026.16	1143.47
1026.449	1109.58
1026.739	1133.3
1027.029	1129.24
1027.319	1105.51
1027.608	1089.24
1027.898	1105.51
1028.187	1098.05
1028.477	1066.64
1028.766	1076.13
1029.055	1070.25
1029.344	1074.55
1029.634	1088.11
1029.923	1046.3
1030.212	1039.52
1030.501	1072.74
1030.79	1041.55
1031.078	1017.6
1031.367	1044.27
1031.656	1045.62
1031.945	1004.95
1032.233	1035.9
1032.522	995.45
1032.81	1001.1
1033.099	978.73
1033.387	976.7
1033.675	973.31
1033.963	992.97
1034.251	997.49
1034.54	956.81
1034.828	982.8
1035.116	957.04
1035.403	921.56
1035.691	948.22
1035.979	926.53
1036.267	919.52
1036.554	941.9
1036.842	924.5
1037.129	888.11
1037.417	914.78
1037.704	889.69
1037.992	894.67
1038.279	880.2
1038.566	873.2
1038.853	873.2
1039.14	873.2
