Data from hue_10_FLMS001491_70.txt Node
Date: Mon Feb 06 15:32:21 GMT 2017
User: dcchb
Spectrometer: FLMS00149
Trigger mode: 0
Integration Time (sec): 2.000000E-2
Scans to average: 10
Electric dark correction enabled: true
Nonlinearity correction enabled: false
Boxcar width: 0
XAxis mode: Wavelengths
Number of Pixels in Spectrum: 2048
>>>>>Begin Spectral Data<<<<<
341.393	-19.24
341.776	-19.24
342.16	-19.24
342.543	-68.95
342.927	-56.52
343.31	-68.95
343.693	-50.87
344.077	-69.86
344.46	-59.69
344.843	-52.23
345.226	-45.68
345.61	-26.47
345.993	-17.88
346.376	1.55
346.759	0.65
347.142	37.03
347.525	25.28
347.908	68.44
348.291	76.35
348.674	78.39
349.057	103.92
349.44	129.91
349.823	163.36
350.206	145.28
350.588	195.45
350.971	206.52
351.354	222.56
351.737	232.51
352.119	258.04
352.502	281.77
352.884	283.58
353.267	291.49
353.65	287.2
354.032	306.18
354.414	298.27
354.797	320.19
355.179	317.25
355.562	327.42
355.944	325.16
356.326	342.56
356.709	339.85
357.091	348.21
357.473	348.66
357.855	344.14
358.238	341.21
358.62	333.3
359.002	329
359.384	345.05
359.766	338.95
360.148	326.74
360.53	357.02
360.912	357.93
361.294	321.32
361.676	332.17
362.057	329.91
362.439	327.19
362.821	319.51
363.203	319.06
363.584	324.26
363.966	328.78
364.348	328.55
364.729	334.43
365.111	320.64
365.493	322.68
365.874	321.09
366.256	300.3
366.637	321.09
367.019	311.38
367.4	326.52
367.781	309.34
368.163	293.98
368.544	310.47
368.925	323.35
369.306	301.88
369.688	316.35
370.069	302.34
370.45	298.72
370.831	323.58
371.212	333.52
371.593	296.01
371.974	311.15
372.355	317.48
372.736	299.62
373.117	311.6
373.498	314.09
373.879	299.17
374.26	324.26
374.641	323.58
375.021	316.57
375.402	308.89
375.783	311.38
376.163	299.17
376.544	308.44
376.925	327.42
377.305	344.82
377.686	334.65
378.066	318.16
378.447	316.57
378.827	310.47
379.208	347.08
379.588	326.29
379.968	321.77
380.349	354.99
380.729	324.26
381.109	326.29
381.489	320.42
381.87	315.67
382.25	337.14
382.63	351.15
383.01	336.23
383.39	336.46
383.77	320.42
384.15	324.03
384.53	326.52
384.91	335.33
385.29	339.17
385.67	334.43
386.049	351.15
386.429	354.54
386.809	341.88
387.189	349.12
387.568	362
387.948	320.64
388.328	339.4
388.707	333.3
389.087	339.17
389.466	350.25
389.846	361.32
390.225	369.68
390.605	346.63
390.984	357.02
391.363	345.05
391.743	349.57
392.122	343.01
392.501	353.41
392.881	339.4
393.26	347.08
393.639	345.05
394.018	340.08
394.397	379.17
394.776	372.84
395.155	361.77
395.534	350.02
395.913	349.12
396.292	365.61
396.671	372.17
397.05	371.26
397.429	386.4
397.808	371.94
398.186	375.1
398.565	366.29
398.944	384.14
399.323	380.3
399.701	378.04
400.08	364.03
400.458	367.42
400.837	395.22
401.215	373.52
401.594	391.83
401.972	367.65
402.351	373.52
402.729	386.4
403.107	376.23
403.486	395.89
403.864	402.9
404.242	369.91
404.62	405.16
404.999	384.14
405.377	393.63
405.755	400.41
406.133	395.67
406.511	390.24
406.889	408.32
407.267	387.31
407.645	414.2
408.023	420.75
408.401	386.18
408.779	423.24
409.156	439.28
409.534	403.12
409.912	408.1
410.29	409
410.667	393.63
411.045	419.4
411.422	440.64
411.8	436.34
412.178	453.97
412.555	424.82
412.933	443.12
413.31	444.48
413.687	433.63
414.065	450.81
414.442	447.64
414.819	452.62
415.197	426.4
415.574	448.1
415.951	437.93
416.328	439.06
416.705	472.5
417.082	464.14
417.46	455.1
417.837	459.39
418.214	463.91
418.591	481.32
418.967	469.11
419.344	454.2
419.721	486.74
420.098	470.24
420.475	491.94
420.852	487.19
421.228	477.25
421.605	487.64
421.982	479.28
422.358	501.65
422.735	484.48
423.111	482.22
423.488	504.37
423.864	493.07
424.241	508.21
424.617	507.98
424.994	472.28
425.37	491.26
425.746	503.69
426.123	532.84
426.499	539.84
426.875	516.57
427.251	508.66
427.627	522.67
428.003	537.81
428.379	547.53
428.756	527.19
429.132	554.53
429.507	531.71
429.883	550.24
430.259	537.58
430.635	575.32
431.011	563.12
431.387	579.17
431.763	583.91
432.138	573.06
432.514	575.55
432.89	587.07
433.265	601.09
433.641	614.87
434.016	593.63
434.392	577.13
434.767	607.64
435.143	623.01
435.518	630.69
435.894	622.33
436.269	650.8
436.644	621.42
437.02	647.19
437.395	621.88
437.77	617.81
438.145	648.54
438.52	633.4
438.895	629.33
439.271	638.83
439.646	677.02
440.021	647.19
440.395	660.75
440.77	666.17
441.145	697.35
441.52	675.21
441.895	675.21
442.27	662.33
442.645	690.58
443.019	694.19
443.394	670.69
443.769	707.07
444.143	690.35
444.518	712.5
444.892	677.24
445.267	696.45
445.641	704.59
446.016	723.12
446.39	731.25
446.764	705.26
447.139	706.62
447.513	727.41
447.887	737.81
448.262	712.04
448.636	723.34
449.01	720.86
449.384	750.23
449.758	747.97
450.132	769.22
450.506	751.82
450.88	752.49
451.254	752.49
451.628	769.44
452.002	757.24
452.376	772.61
452.75	783
453.123	795.43
453.497	768.09
453.871	806.5
454.244	806.96
454.618	824.36
454.992	808.31
455.365	828.65
455.739	802.89
456.112	837.46
456.486	831.14
456.859	835.66
457.232	876.56
457.606	878.82
457.979	859.84
458.352	870.46
458.725	910
459.099	904.81
459.472	927.86
459.845	926.5
460.218	918.14
460.591	927.18
460.964	919.72
461.337	966.95
461.71	956.33
462.083	960.85
462.456	971.92
462.829	986.84
463.201	996.56
463.574	985.26
463.947	971.47
464.32	1005.82
464.692	1046.05
465.065	1043.79
465.438	1034.75
465.81	1065.03
466.183	1068.64
466.555	1094.41
466.928	1080.17
467.3	1074.07
467.672	1115.42
468.045	1126.95
468.417	1117
468.789	1145.93
469.161	1159.26
469.534	1182.31
469.906	1220.05
470.278	1185.03
470.65	1215.76
471.022	1231.35
471.394	1265.93
471.766	1300.5
472.138	1288.07
472.51	1302.31
472.882	1316.77
473.253	1331.91
473.625	1373.04
473.997	1381.63
474.369	1354.06
474.74	1408.75
475.112	1450.56
475.484	1453.49
475.855	1465.92
476.227	1488.07
476.598	1524.45
476.97	1594.73
477.341	1564
477.713	1617.78
478.084	1624.34
478.455	1662.3
478.827	1702.98
479.198	1724.67
479.569	1749.98
479.94	1766.93
480.311	1801.73
480.682	1812.13
481.053	1888.28
481.424	1915.85
481.795	1921.05
482.166	1927.38
482.537	2000.37
482.908	2028.39
483.279	2088.73
483.65	2084.89
484.021	2142.51
484.391	2182.06
484.762	2173.47
485.133	2222.29
485.503	2245.79
485.874	2299.35
486.244	2348.16
486.615	2354.03
486.985	2423.18
487.356	2437.42
487.726	2501.6
488.097	2563.75
488.467	2566.46
488.837	2598.1
489.207	2660.01
489.578	2669.96
489.948	2691.43
490.318	2722.39
490.688	2758.77
491.058	2816.85
491.428	2836.51
491.798	2921.02
492.168	2952.44
492.538	2951.98
492.908	3005.99
493.278	3074.47
493.648	3060.23
494.017	3073.11
494.387	3102.04
494.757	3152.21
495.126	3177.29
495.496	3183.84
495.866	3255.71
496.235	3276.27
496.605	3328.47
496.974	3320.34
497.344	3373.89
497.713	3399.66
498.082	3450.5
498.452	3456.15
498.821	3452.76
499.19	3487.56
499.559	3541.35
499.928	3518.52
500.298	3538.86
500.667	3625.41
501.036	3595.36
501.405	3644.17
501.774	3667.45
502.143	3709.03
502.512	3683.04
502.88	3704.51
503.249	3742.92
503.618	3753.09
503.987	3773.88
504.356	3770.27
504.724	3842.13
505.093	3818.18
505.462	3856.59
505.83	3868.57
506.199	3911.73
506.567	3959.64
506.936	3936.37
507.304	3951.05
507.672	4008.23
508.041	4031.28
508.409	4045.74
508.777	4067.21
509.145	4088.45
509.514	4075.8
509.882	4102.46
510.25	4138.39
510.618	4133.2
510.986	4156.7
511.354	4176.59
511.722	4228.56
512.09	4196.7
512.458	4242.8
512.826	4249.8
513.193	4275.11
513.561	4274.21
513.929	4321.89
514.297	4376.81
514.664	4363.25
515.032	4375
515.4	4378.61
515.767	4429.46
516.135	4400.76
516.502	4379.74
516.869	4473.3
517.237	4466.52
517.604	4470.14
517.972	4480.76
518.339	4474.2
518.706	4522.34
519.073	4527.76
519.44	4572.73
519.808	4607.31
520.175	4606.63
520.542	4619.74
520.909	4613.64
521.276	4688.44
521.643	4744.03
522.009	4677.59
522.376	4698.15
522.743	4771.37
523.11	4771.15
523.477	4785.38
523.843	4819.96
524.21	4866.28
524.577	4872.84
524.943	4884.82
525.31	4875.55
525.676	4945.83
526.043	5017.92
526.409	4986.96
526.776	5012.5
527.142	4995.09
527.508	5099.05
527.874	5055.66
528.241	5095.66
528.607	5165.03
528.973	5225.15
529.339	5174.07
529.705	5238.25
530.071	5277.8
530.437	5266.05
530.803	5262.43
531.169	5281.64
531.535	5328.19
531.901	5334.29
532.267	5388.53
532.632	5396.21
532.998	5475.31
533.364	5494.74
533.73	5530
534.095	5530.45
534.461	5545.81
534.826	5559.37
535.192	5581.52
535.557	5595.76
535.923	5590.11
536.288	5631.69
536.653	5674.85
537.019	5672.14
537.384	5672.36
537.749	5725.92
538.114	5694.96
538.479	5710.78
538.845	5779.93
539.21	5794.85
539.575	5857.67
539.94	5812.7
540.305	5873.94
540.67	5921.4
541.034	5914.84
541.399	5970.89
541.764	5942.41
542.129	5957.33
542.494	5965.01
542.858	6045.46
543.223	6022.86
543.587	6063.77
543.952	6109.64
544.316	6079.36
544.681	6120.04
545.045	6210.2
545.41	6193.71
545.774	6237.1
546.138	6269.86
546.503	6266.47
546.867	6231.45
547.231	6295.4
547.595	6298.11
547.959	6384.66
548.324	6334.72
548.688	6386.24
549.052	6403.87
549.416	6416.75
549.779	6380.14
550.143	6437.32
550.507	6506.92
550.871	6517.77
551.235	6534.49
551.599	6579.46
551.962	6532.68
552.326	6605
552.689	6655.84
553.053	6636.86
553.417	6635.28
553.78	6710.76
554.143	6639.35
554.507	6748.27
554.87	6697.87
555.234	6801.83
555.597	6775.84
555.96	6769.96
556.323	6792.11
556.686	6864.42
557.05	6877.31
557.413	6898.1
557.776	6873.69
558.139	6944.42
558.502	6990.75
558.865	7042.27
559.228	7021.71
559.59	7047.24
559.953	7069.62
560.316	7084.53
560.679	7117.98
561.041	7145.32
561.404	7188.94
561.767	7162.5
562.129	7200.91
562.492	7216.96
562.854	7243.4
563.217	7230.29
563.579	7297.41
563.941	7329.27
564.304	7382.6
564.666	7426.22
565.028	7403.84
565.39	7368.14
565.753	7419.66
566.115	7510.96
566.477	7505.31
566.839	7553.22
567.201	7505.31
567.563	7567.68
567.925	7604.97
568.287	7638.64
568.648	7740.56
569.01	7766.32
569.372	7769.71
569.734	7743.27
570.095	7844.74
570.457	7836.6
570.819	7929.71
571.18	7903.94
571.542	7969.03
571.903	7949.59
572.265	8006.99
572.626	8032.3
572.987	8075.24
573.349	8140.32
573.71	8141.45
574.071	8151.62
574.432	8197.95
574.794	8361.56
575.155	8342.13
575.516	8391.62
575.877	8430.71
576.238	8476.13
576.599	8548.67
576.96	8629.8
577.32	8658.73
577.681	8739.63
578.042	8823.47
578.403	8824.6
578.763	8952.28
579.124	9026.63
579.485	9104.37
579.845	9169.9
580.206	9298.71
580.566	9411.7
580.927	9593.84
581.287	9610.11
581.648	9674.97
582.008	9907.06
582.368	9961.97
582.728	10082.87
583.089	10242.64
583.449	10349.3
583.809	10607.15
584.169	10601.95
584.529	10816.64
584.889	10989.29
585.249	11087.14
585.609	11213.01
585.969	11493.23
586.329	11629.5
586.688	11848.47
587.048	12014.8
587.408	12192.19
587.768	12420.66
588.127	12553.77
588.487	12829.46
588.846	13057.26
589.206	13205.95
589.565	13502.22
589.925	13709.44
590.284	13923.9
590.643	14107.85
591.003	14443.66
591.362	14712.81
591.721	14932.01
592.08	15178.33
592.44	15417.87
592.799	15712.78
593.158	15993.45
593.517	16306.44
593.876	16512.08
594.235	16740.32
594.593	17037.26
594.952	17415.11
595.311	17654.2
595.67	17877.02
596.029	18283.11
596.387	18513.38
596.746	18866.59
597.104	18895.75
597.463	19302.29
597.822	19716.52
598.18	19862.73
598.538	20032.44
598.897	20394.69
599.255	20580.9
599.613	21163.48
599.972	21364.61
600.33	21584.04
600.688	21733.86
601.046	22166.39
601.404	22481.19
601.762	22617.91
602.12	23118.23
602.478	23311
602.836	23523.42
603.194	23687.48
603.552	23935.16
603.91	24202.95
604.268	24568.37
604.625	24699.66
604.983	25059.43
605.341	25218.52
605.698	25539.87
606.056	25867.54
606.413	26009.01
606.771	26411.71
607.128	26445.83
607.485	26625.03
607.843	26958.36
608.2	27263.21
608.557	27606.03
608.914	27647.61
609.272	27921.95
609.629	28241.49
609.986	28438.55
610.343	28466.57
610.7	29044.86
611.057	29061.13
611.414	29217.28
611.771	29367.11
612.127	29720.77
612.484	29762.58
612.841	30080.08
613.198	30114.66
613.554	30479.62
613.911	30536.12
614.267	30861.99
614.624	30906.28
614.98	31198.02
615.337	31367.28
615.693	31563.21
616.05	31577.67
616.406	31964.56
616.762	31856.31
617.118	32168.39
617.475	32193.93
617.831	32480.93
618.187	32628.72
618.543	32834.14
618.899	33062.38
619.255	33231.19
619.611	33251.53
619.967	33516.6
620.323	33641.35
620.678	33612.42
621.034	33622.82
621.39	33820.78
621.746	33859.42
622.101	34359.07
622.457	34072.3
622.812	34306.19
623.168	34510.7
623.523	34563.81
623.879	34603.81
624.234	34576.92
624.589	34710.7
624.945	34922.44
625.3	35026.17
625.655	34987.98
626.01	35131.48
626.365	35080.41
626.72	35141.87
627.075	35257.8
627.43	35367.4
627.785	35306.61
628.14	35444.24
628.495	35470.9
628.85	35457.57
629.205	35487.4
629.559	35790.44
629.914	35641.52
630.269	35707.73
630.623	35617.79
630.978	35739.82
631.332	35888.52
631.687	35945.47
632.041	35769.65
632.396	35924.9
632.75	35906.82
633.104	35902.3
633.459	35823.89
633.813	35869.09
634.167	35900.5
634.521	35835.64
634.875	36191.34
635.229	35989.99
635.583	35848.75
635.937	35916.09
636.291	35989.99
636.645	36086.25
636.999	35975.75
637.352	36120.15
637.706	35909.08
638.06	36014.62
638.413	35995.86
638.767	35899.82
639.121	36093.94
639.474	35896.43
639.828	35880.16
640.181	35986.14
640.534	36007.84
640.888	36005.58
641.241	35883.55
641.594	35858.69
641.947	36086.25
642.301	35873.83
642.654	35969.65
643.007	35886.49
643.36	35774.85
643.713	35865.24
644.066	36008.06
644.419	35810.78
644.771	35589.09
645.124	35255.54
645.477	35173.28
645.83	35044.02
646.182	35044.02
646.535	34819.17
646.888	34980.97
647.24	34754.31
647.593	35010.8
647.945	34849
648.298	34557.03
648.65	34609.91
649.002	34639.96
649.355	34824.37
649.707	34701.21
650.059	34726.52
650.411	35255.32
650.763	35356.33
651.115	35639.26
651.467	35508.19
651.819	35627.51
652.171	35432.49
652.523	35491.02
652.875	35417.35
653.227	35305.48
653.578	35658.24
653.93	35443.56
654.282	35299.61
654.633	35401.75
654.985	35379.83
655.337	35368.53
655.688	35378.48
656.039	35490.79
656.391	35143.91
656.742	35218.25
657.094	35255.32
657.445	35341.42
657.796	35290.12
658.147	35150.01
658.498	35228.2
658.849	35217.35
659.2	35226.84
659.551	35152.95
659.902	35213.28
660.253	35209.89
660.604	35266.84
660.955	35164.24
661.306	35306.61
661.656	35183.68
662.007	35092.83
662.358	35056.45
662.708	35081.99
663.059	35290.12
663.409	34924.93
663.76	35167.18
664.11	35193.62
664.461	35234.53
664.811	35232.94
665.161	35140.29
665.511	35016.9
665.862	35050.8
666.212	35178.93
666.562	35081.99
666.912	34967.64
667.262	35083.12
667.612	34968.54
667.962	35163.57
668.312	35174.19
668.662	35225.49
669.011	35019.62
669.361	34978.49
669.711	34892.16
670.06	34961.09
670.41	34823.46
670.76	34843.12
671.109	35085.15
671.459	35050.58
671.808	34953.4
672.157	34977.58
672.507	34700.75
672.856	34729
673.205	34965.15
673.554	34871.82
673.904	34722.45
674.253	34947.3
674.602	34874.08
674.951	34389.58
675.3	34167.21
675.649	34892.39
675.998	34741.88
676.346	34662.34
676.695	34867.53
677.044	34489.01
677.393	34658.72
677.741	34718.83
678.09	34754.76
678.438	34587.31
678.787	34626.18
679.135	34594.99
679.484	34256.7
679.832	34504.38
680.181	34169.02
680.529	34403.36
680.877	34319.3
681.225	34196.36
681.573	34195.46
681.922	34132.63
682.27	34016.25
682.618	34082.47
682.966	33979.19
683.314	34012.41
683.661	34072.97
684.009	33794.56
684.357	33758.18
684.705	33708.24
685.053	33775.81
685.4	33836.37
685.748	33551.18
686.095	33568.35
686.443	33612.2
686.79	33513.44
687.138	33530.62
687.485	33492.65
687.832	33338.98
688.18	33417.62
688.527	33137.41
688.874	33147.8
689.221	33023.28
689.568	33067.58
689.915	33009.95
690.262	32954.13
690.609	32864.87
690.956	32802.05
691.303	32687.02
691.65	32428.27
691.997	32614.93
692.344	32391.89
692.69	32394.83
693.037	32402.74
693.383	32012.46
693.73	32273.93
694.077	31987.83
694.423	32071.22
694.769	31929.3
695.116	31805.46
695.462	31864.44
695.808	31735.63
696.155	31794.39
696.501	31490.22
696.847	31598.91
697.193	31284.8
697.539	31435.53
697.885	31198.25
698.231	31259.49
698.577	31108.76
698.923	30991.25
699.269	30952.83
699.614	30818.6
699.96	30724.14
700.306	30711.03
700.651	30645.27
700.997	30496.57
701.342	30546.74
701.688	30488.66
702.033	30321.89
702.379	30356.46
702.724	30121.44
703.069	30219.97
703.415	29999.86
703.76	30001.67
704.105	29961.22
704.45	29964.16
704.795	29641.9
705.14	29781.34
705.485	29561.91
705.83	29530.95
706.175	29492.08
706.52	29396.71
706.865	29357.62
707.209	29262.03
707.554	29285.98
707.899	29317.17
708.243	29072.88
708.588	29204.4
708.932	28905.65
709.277	28844.19
709.621	28883.96
709.966	28708.37
710.31	28650.29
710.654	28452.78
710.998	28483.29
711.342	28651.42
711.687	28432.44
712.031	28396.06
712.375	28281.26
712.719	28387.02
713.063	28304.31
713.407	28352.9
713.75	28114.49
714.094	28098.89
714.438	27914.49
714.782	28083.75
715.125	27952.68
715.469	27999.01
715.812	27920.37
716.156	27669.53
716.499	27593.14
716.843	27753.82
717.186	27493.03
717.53	27719.24
717.873	27576.2
718.216	27466.82
718.559	27396.77
718.902	27156.55
719.246	27183.44
719.589	27302.76
719.932	27091.69
720.275	27136.21
720.617	27030.22
720.96	27135.3
721.303	26993.61
721.646	27066.6
721.989	26783
722.331	26965.14
722.674	26841.07
723.016	26891.92
723.359	26810.79
723.701	26810.34
724.044	26650.12
724.386	26460.97
724.729	26702.32
725.071	26622.1
725.413	26599.5
725.755	26496.45
726.097	26417.13
726.439	26352.5
726.782	26248.77
727.124	26427.75
727.465	26130.13
727.807	26247.19
728.149	26035.45
728.491	26154.99
728.833	26232.73
729.175	26043.81
729.516	25985.05
729.858	25962.68
730.199	26040.87
730.541	25817.15
730.882	25918.61
731.224	25935.56
731.565	25745.28
731.906	25745.74
732.248	25744.83
732.589	25659.86
732.93	25609.02
733.271	25636.13
733.612	25537.61
733.953	25525.4
734.294	25479.53
734.635	25386.2
734.976	25410.83
735.317	25260.1
735.658	25323.6
735.999	25341.23
736.339	25207.9
736.68	25307.55
737.021	25300.55
737.361	25182.36
737.702	25232.98
738.042	25257.39
738.383	25102.36
738.723	25187.56
739.063	24979.65
739.404	25035.92
739.744	24964.74
740.084	24999.99
740.424	24931.07
740.764	24845.65
741.104	24845.65
741.444	24798.87
741.784	24642.71
742.124	24803.84
742.464	24743.5
742.804	24680.68
743.143	24699.21
743.483	24639.78
743.823	24550.51
744.162	24466
744.502	24499.21
744.841	24443.4
745.181	24486.56
745.52	24392.78
745.86	24416.05
746.199	24323.63
746.538	24382.83
746.877	24397.52
747.216	24378.54
747.556	24222.61
747.895	24228.94
748.234	24170.41
748.573	24159.56
748.911	24103.07
749.25	24148.49
749.589	23860.81
749.928	23925.44
750.267	23937.87
750.605	23921.83
750.944	23892.9
751.283	23803.64
751.621	23749.86
751.96	23677.09
752.298	23727.71
752.636	23686.81
752.975	23567.04
753.313	23524.1
753.651	23530.88
753.989	23488.17
754.327	23508.96
754.666	23287.27
755.004	23447.72
755.342	23327.27
755.679	23295.86
756.017	23172.47
756.355	23238.91
756.693	23120.04
757.031	23116.2
757.368	23092.25
757.706	23095.41
758.044	22872.59
758.381	23020.84
758.719	22797.56
759.056	22793.27
759.394	22766.15
759.731	22657.46
760.068	22646.38
760.405	22552.37
760.743	22497.69
761.08	22447.74
761.417	22397.35
761.754	22362.55
762.091	22267.86
762.428	22252.27
762.765	22048.66
763.102	22156.23
763.438	22036.91
763.775	21834.2
764.112	21942.45
764.449	22018.6
764.785	21870.36
765.122	21780.87
765.458	21550.59
765.795	21569.57
766.131	21579.97
766.467	21460.42
766.804	21356.47
767.14	21348.56
767.476	21240.54
767.812	21120.32
768.148	21130.04
768.485	21033.77
768.821	20996.03
769.157	20872.64
769.492	20934.56
769.828	20902.02
770.164	20657.28
770.5	20646.66
770.836	20647.79
771.171	20447.12
771.507	20421.13
771.842	20289.83
772.178	20301.36
772.513	20236.95
772.849	20226.56
773.184	20143.4
773.519	20118.54
773.855	19936.85
774.19	19914.25
774.525	19855.27
774.86	19761.94
775.195	19699.11
775.53	19693.69
775.865	19585.22
776.2	19493.24
776.535	19379.58
776.87	19250.31
777.205	19252.35
777.539	19239.01
777.874	19310.2
778.209	19112.01
778.543	19072.92
778.878	18900.27
779.212	18900.27
779.547	18723.77
779.881	18786.14
780.215	18704.11
780.55	18659.59
780.884	18581.63
781.218	18409.43
781.552	18559.03
781.886	18428.64
782.22	18344.8
782.554	18280.17
782.888	18119.5
783.222	17992.72
783.556	17955.88
783.889	17940.74
784.223	17852.16
784.557	17741.88
784.89	17768.54
785.224	17753.4
785.557	17521.54
785.891	17541.43
786.224	17538.04
786.558	17489
786.891	17302.79
787.224	17223.25
787.557	17169.69
787.891	17253.76
788.224	17192.51
788.557	17116.81
788.89	16988.68
789.223	17133.31
789.556	16923.82
789.888	16903.48
790.221	16812.19
790.554	16702.81
790.887	16702.13
791.219	16607.22
791.552	16610.16
791.884	16482.93
792.217	16501.23
792.549	16321.12
792.882	16270.5
793.214	16128.14
793.546	16251.07
793.879	16160.9
794.211	15958.42
794.543	16032.77
794.875	16007.01
795.207	16003.39
795.539	15915.49
795.871	15884.3
796.203	15778.31
796.535	15661.03
796.867	15637.07
797.198	15672.1
797.53	15637.75
797.862	15554.37
798.193	15506.23
798.525	15450.64
798.856	15458.1
799.188	15336.97
799.519	15183.53
799.85	15181.72
800.182	15159.35
800.513	15170.87
800.844	15006.58
801.175	15075.96
801.506	15033.47
801.837	15059.91
802.168	14855.85
802.499	14862.63
802.83	14833.25
803.161	14732.01
803.491	14735.86
803.822	14783.76
804.153	14542.87
804.483	14555.52
804.814	14490.21
805.145	14447.05
805.475	14455.18
805.805	14370.67
806.136	14467.84
806.466	14332.02
806.796	14396.43
807.126	14240.73
807.457	14243.21
807.787	14212.93
808.117	14132.26
808.447	14042.77
808.777	14164.12
809.107	14085.48
809.436	13979.27
809.766	13990.11
810.096	13985.37
810.426	13894.3
810.755	13799.61
811.085	13859.27
811.414	13803.68
811.744	13724.81
812.073	13632.38
812.403	13673.74
812.732	13633.06
813.061	13574.53
813.39	13539.5
813.719	13492.72
814.049	13591.48
814.378	13481.43
814.707	13465.61
815.036	13446.85
815.365	13336.12
815.693	13132.96
816.022	13181.55
816.351	13232.39
816.68	13165.5
817.008	13163.02
817.337	12981.55
817.665	12996.24
817.994	13061.1
818.322	12990.82
818.651	12963.92
818.979	12890.71
819.307	12946.98
819.636	12955.34
819.964	12774.78
820.292	12838.5
820.62	12816.81
820.948	12841.89
821.276	12823.82
821.604	12758.28
821.932	12768.45
822.259	12818.62
822.587	12728.9
822.915	12698.39
823.243	12805.51
823.57	12744.27
823.898	12739.98
824.225	12744.5
824.553	12689.36
824.88	12716.7
825.207	12704.04
825.535	12652.97
825.862	12788.56
826.189	12692.07
826.516	12693.88
826.843	12772.07
827.17	12691.84
827.497	12792.86
827.824	12756.47
828.151	12774.55
828.478	12657.94
828.805	12700.43
829.131	12716.25
829.458	12648.9
829.785	12691.16
830.111	12617.95
830.438	12752.18
830.764	12691.62
831.09	12620.66
831.417	12621.11
831.743	12687.77
832.069	12615.01
832.395	12618.62
832.722	12685.51
833.048	12612.52
833.374	12580.66
833.7	12577.04
834.026	12575.69
834.351	12539.08
834.677	12531.17
835.003	12583.37
835.329	12507.21
835.654	12465.41
835.98	12507.67
836.306	12474.67
836.631	12427.22
836.956	12495.24
837.282	12456.37
837.607	12432.87
837.932	12389.7
838.258	12444.84
838.583	12327.33
838.908	12278.29
839.233	12339.31
839.558	12286.43
839.883	12169.6
840.208	12186.54
840.533	12245.98
840.858	12165.08
841.182	12144.51
841.507	12133.44
841.832	12118.75
842.156	12114.46
842.481	12126.88
842.805	12092.54
843.13	12006.21
843.454	12034.46
843.778	11960.11
844.103	11897.74
844.427	11950.17
844.751	11900.9
845.075	11865.2
845.399	11825.88
845.723	11760.79
846.047	11781.58
846.371	11648.71
846.695	11686.22
847.019	11578.65
847.343	11457.75
847.666	11431.76
847.99	11379.11
848.313	11407.58
848.637	11271.54
848.96	11336.4
849.284	11249.62
849.607	11212.11
849.931	11214.59
850.254	11112.67
850.577	11025.9
850.9	11003.07
851.223	10973.24
851.546	10923.3
851.869	10839.91
852.192	10901.38
852.515	10785.22
852.838	10781.61
853.161	10772.57
853.483	10672.23
853.806	10674.04
854.129	10627.94
854.451	10625
854.774	10530.77
855.096	10552.69
855.419	10505.91
855.741	10508.85
856.063	10364.22
856.385	10365.57
856.708	10331.23
857.03	10339.36
857.352	10313.37
857.674	10298.91
857.996	10252.81
858.318	10175.3
858.64	10168.74
858.961	10189.08
859.283	10121.74
859.605	10087.62
859.926	10076.54
860.248	10011.01
860.57	10030.89
860.891	10029.54
861.212	10004.68
861.534	9940.28
861.855	9909.32
862.176	9960.16
862.498	9886.04
862.819	9857.11
863.14	9857.79
863.461	9828.19
863.782	9731.69
864.103	9824.35
864.424	9775.76
864.745	9798.36
865.065	9734.63
865.386	9581.87
865.707	9667.51
866.027	9679.72
866.348	9618.02
866.668	9664.12
866.989	9671.13
867.309	9564.01
867.63	9608.08
867.95	9562.21
868.27	9521.53
868.59	9533.96
868.91	9593.84
869.23	9511.81
869.55	9434.75
869.87	9491.93
870.19	9454.86
870.51	9482.21
870.83	9405.15
871.15	9415.77
871.469	9382.78
871.789	9402.44
872.109	9351.36
872.428	9308.2
872.748	9326.96
873.067	9326.05
873.386	9322.21
873.706	9250.58
874.025	9253.06
874.344	9211.25
874.663	9297.81
874.982	9244.93
875.301	9187.07
875.62	9165.83
875.939	9144.59
876.258	9136.68
876.577	9099.62
876.896	9165.15
877.214	9082.22
877.533	9064.14
877.852	9071.37
878.17	9062.56
878.489	9103.01
878.807	9070.02
879.125	9038.15
879.444	9071.37
879.762	8969.23
880.08	8963.8
880.398	8958.83
880.716	8974.2
881.034	8909.34
881.352	8877.25
881.67	8836.12
881.988	8927.19
882.306	8900.75
882.624	8812.4
882.941	8860.76
883.259	8784.6
883.577	8706.41
883.894	8816.24
884.212	8752.51
884.529	8733.53
884.846	8720.87
885.164	8681.1
885.481	8581.44
885.798	8657.37
886.115	8610.37
886.432	8573.76
886.75	8511.84
887.067	8569.46
887.383	8526.75
887.7	8516.81
888.017	8495.79
888.334	8490.37
888.651	8479.52
888.967	8449.69
889.284	8416.47
889.6	8308.23
889.917	8284.5
890.233	8306.65
890.55	8312.75
890.866	8285.18
891.182	8271.39
891.498	8261.45
891.815	8212.64
892.131	8198.17
892.447	8169.47
892.763	8126.09
893.079	8109.36
893.395	8085.18
893.71	8135.8
894.026	8057.84
894.342	7991.17
894.657	7916.6
894.973	7979.87
895.289	7929.93
895.604	7979.2
895.92	7854.68
896.235	7912.76
896.55	7879.99
896.865	7824.62
897.181	7797.73
897.496	7822.14
897.811	7743.27
898.126	7694.68
898.441	7655.59
898.756	7681.8
899.071	7580.79
899.386	7554.8
899.7	7547.57
900.015	7554.35
900.33	7550.28
900.644	7444.97
900.959	7440.68
901.273	7439.32
901.588	7411.75
901.902	7369.04
902.216	7338.31
902.531	7327.91
902.845	7295.15
903.159	7273
903.473	7284.53
903.787	7204.98
904.101	7169.27
904.415	7176.28
904.729	7066.9
905.042	7114.81
905.356	7075.27
905.67	7041.14
905.984	7088.15
906.297	7036.62
906.611	6934.93
906.924	6974.48
907.237	6961.6
907.551	6891.99
907.864	6890.41
908.177	6889.96
908.491	6874.59
908.804	6815.39
909.117	6829.4
909.43	6767.48
909.743	6718.21
910.056	6711.89
910.368	6665.56
910.681	6617.88
910.994	6616.52
911.307	6602.06
911.619	6529.29
911.932	6575.39
912.244	6481.84
912.557	6526.35
912.869	6483.42
913.181	6452.01
913.494	6419.24
913.806	6393.7
914.118	6371.78
914.43	6322.52
914.742	6332.01
915.054	6276.64
915.366	6294.27
915.678	6264.67
915.99	6190.54
916.302	6166.59
916.613	6147.15
916.925	6167.49
917.236	6129.3
917.548	6079.81
917.859	6088.85
918.171	6019.02
918.482	5996.2
918.794	5926.14
919.105	5969.53
919.416	5927.27
919.727	5923.66
920.038	5955.52
920.349	5874.17
920.66	5817.45
920.971	5868.97
921.282	5772.93
921.593	5780.84
921.903	5729.76
922.214	5690.44
922.525	5672.59
922.835	5644.34
923.146	5620.39
923.456	5612.03
923.767	5624.23
924.077	5552.59
924.387	5519.83
924.697	5513.5
925.008	5478.25
925.318	5431.24
925.628	5484.12
925.938	5423.78
926.248	5332.03
926.558	5382.2
926.867	5362.54
927.177	5370.45
927.487	5297.91
927.796	5272.38
928.106	5288.42
928.416	5235.54
928.725	5233.73
929.034	5205.03
929.344	5248.87
929.653	5166.84
929.962	5147.86
930.271	5125.71
930.581	5074.87
930.89	5054.75
931.199	5097.69
931.508	5036.68
931.817	5024.7
932.125	4985.15
932.434	5012.72
932.743	4943.34
933.051	4909.9
933.36	4894.53
933.669	4833.97
933.977	4854.99
934.286	4835.32
934.594	4823.12
934.902	4765.27
935.21	4718.94
935.519	4732.28
935.827	4798.72
936.135	4708.32
936.443	4713.97
936.751	4697.02
937.059	4675.78
937.367	4615.67
937.674	4631.26
937.982	4610.92
938.29	4599.4
938.597	4575.9
938.905	4545.84
939.213	4574.31
939.52	4530.02
939.827	4460.65
940.135	4452.51
940.442	4453.19
940.749	4471.49
941.056	4413.42
941.363	4331.16
941.67	4392.85
941.977	4344.94
942.284	4333.42
942.591	4295.45
942.898	4291.16
943.205	4305.17
943.511	4300.42
943.818	4230.82
944.125	4248.67
944.431	4205.74
944.738	4218.39
945.044	4149.02
945.35	4181.33
945.657	4126.87
945.963	4077.83
946.269	4084.16
946.575	4108.56
946.881	4049.36
947.187	4065.85
947.493	4039.64
947.799	4019.98
948.105	3990.83
948.41	3962.35
948.716	3977.49
949.022	3985.4
949.327	3924.16
949.633	3892.3
949.938	3924.16
950.244	3893.2
950.549	3849.14
950.854	3823.6
951.16	3831.06
951.465	3830.61
951.77	3818.4
952.075	3763.94
952.38	3739.31
952.685	3736.6
952.99	3724.17
953.294	3718.97
953.599	3703.38
953.904	3677.84
954.209	3693.66
954.513	3677.62
954.818	3644.62
955.122	3637.39
955.426	3628.8
955.731	3588.13
956.035	3587.9
956.339	3596.04
956.643	3571.18
956.948	3527.34
957.252	3561.69
957.556	3534.12
957.86	3487.11
958.163	3505.42
958.467	3498.86
958.771	3442.82
959.075	3450.73
959.378	3391.07
959.682	3419.99
959.985	3382.93
960.289	3363.73
960.592	3322.14
960.896	3399.66
961.199	3361.69
961.502	3361.92
961.805	3322.6
962.108	3298.42
962.411	3290.28
962.714	3296.38
963.017	3248.47
963.32	3232.2
963.623	3194.46
963.926	3217.97
964.228	3203.5
964.531	3184.07
964.833	3154.01
965.136	3102.26
965.438	3135.26
965.741	3105.43
966.043	3087.57
966.345	3112.43
966.648	3061.13
966.95	3077.18
967.252	3056.39
967.554	3090.06
967.856	3060.46
968.158	3029.5
968.46	2999.89
968.761	2949.5
969.063	2969.61
969.365	3025.43
969.666	2988.14
969.968	2905.43
970.269	2922.61
970.571	2903.62
970.872	2904.98
971.174	2893.91
971.475	2889.16
971.776	2883.51
972.077	2866.34
972.378	2837.64
972.679	2867.02
972.98	2880.12
973.281	2802.61
973.582	2807.13
973.883	2793.57
974.183	2780.92
974.484	2766
974.785	2726.91
975.085	2758.54
975.386	2737.75
975.686	2707.92
975.986	2698.88
976.287	2686.68
976.587	2672.44
976.887	2682.61
977.187	2673.35
977.487	2653.01
977.787	2636.51
978.087	2616.85
978.387	2598.55
978.687	2598.77
978.987	2602.39
979.286	2569.17
979.586	2532.11
979.885	2571.43
980.185	2561.03
980.484	2495.05
980.784	2510.64
981.083	2519.23
981.382	2514.93
981.682	2487.36
981.981	2477.42
982.28	2451.88
982.579	2437.42
982.878	2450.08
983.177	2420.47
983.475	2406.24
983.774	2415.5
984.073	2393.13
984.372	2368.27
984.67	2366.92
984.969	2412.34
985.267	2373.47
985.566	2323.98
985.864	2360.59
986.162	2322.4
986.461	2305.22
986.759	2269.74
987.057	2272
987.355	2270.42
987.653	2292.57
987.951	2256.64
988.249	2255.96
988.547	2233.81
988.844	2230.65
989.142	2249.63
989.44	2197.2
989.737	2161.5
990.035	2178.45
990.332	2200.37
990.63	2190.87
990.927	2170.31
991.224	2167.82
991.521	2154.72
991.819	2135.73
992.116	2128.73
992.413	2103.19
992.71	2118.33
993.006	2127.15
993.303	2090.31
993.6	2086.47
993.897	2101.61
994.193	2100.48
994.49	2037.88
994.787	2051.9
995.083	2044.66
995.379	1978.45
995.676	2030.65
995.972	1970.09
996.268	1990.88
996.565	1991.56
996.861	1993.59
997.157	1954.72
997.453	2000.37
997.749	1945.68
998.044	1956.98
998.34	1952.24
998.636	1927.38
998.932	1923.54
999.227	1940.49
999.523	1907.49
999.818	1900.26
1000.114	1868.62
1000.409	1837.44
1000.704	1869.53
1001	1857.32
1001.295	1838.12
1001.59	1847.83
1001.885	1832.47
1002.18	1816.42
1002.475	1776.65
1002.77	1807.61
1003.065	1776.42
1003.359	1770.32
1003.654	1763.09
1003.949	1745.69
1004.243	1745.01
1004.538	1731.9
1004.832	1732.13
1005.127	1716.31
1005.421	1740.94
1005.715	1694.84
1006.009	1704.33
1006.304	1683.32
1006.598	1656.88
1006.892	1661.4
1007.186	1645.58
1007.48	1636.09
1007.773	1593.83
1008.067	1621.62
1008.361	1630.21
1008.655	1602.19
1008.948	1600.61
1009.242	1577.33
1009.535	1583.88
1009.829	1596.31
1010.122	1559.93
1010.415	1570.1
1010.708	1553.83
1011.001	1520.84
1011.295	1553.38
1011.588	1517.9
1011.881	1505.92
1012.173	1487.16
1012.466	1504.79
1012.759	1489.42
1013.052	1486.49
1013.344	1466.6
1013.637	1483.1
1013.93	1454.4
1014.222	1451.01
1014.514	1464.34
1014.807	1425.02
1015.099	1402.65
1015.391	1468.18
1015.683	1392.03
1015.976	1381.86
1016.268	1402.65
1016.56	1363.33
1016.851	1352.03
1017.143	1406.49
1017.435	1342.54
1017.727	1353.61
1018.018	1328.52
1018.31	1309.77
1018.602	1319.03
1018.893	1314.29
1019.185	1313.16
1019.476	1315.87
1019.767	1324
1020.058	1270.45
1020.35	1284.46
1020.641	1273.38
1020.932	1254.4
1021.223	1234.74
1021.514	1252.37
1021.804	1226.83
1022.095	1220.73
1022.386	1202.65
1022.677	1227.51
1022.967	1218.7
1023.258	1185.48
1023.548	1215.98
1023.839	1186.38
1024.129	1195.65
1024.419	1164.46
1024.709	1166.27
1025	1150.9
1025.29	1154.07
1025.58	1142.77
1025.87	1120.85
1026.16	1112.94
1026.449	1108.42
1026.739	1131.47
1027.029	1094.63
1027.319	1096.21
1027.608	1088.3
1027.898	1088.53
1028.187	1081.98
1028.477	1067.06
1028.766	1064.8
1029.055	1081.75
1029.344	1073.16
1029.634	1045.82
1029.923	1023
1030.212	1049.21
1030.501	1027.06
1030.79	1010.11
1031.078	1021.64
1031.367	995.65
1031.656	976.22
1031.945	987.06
1032.233	1001.75
1032.522	987.52
1032.81	968.08
1033.099	975.54
1033.387	975.99
1033.675	981.19
1033.963	966.5
1034.251	927.18
1034.54	950.68
1034.828	938.7
1035.116	943.45
1035.403	952.94
1035.691	907.74
1035.979	903.45
1036.267	917.91
1036.554	901.64
1036.842	901.42
1037.129	888.76
1037.417	873.17
1037.704	889.21
1037.992	876.78
1038.279	866.16
1038.566	853.51
1038.853	853.51
1039.14	853.51
