Data from hue_38_FLMS001491_00055.txt Node
Date: Tue Feb 07 17:31:41 GMT 2017
User: dcchb
Spectrometer: FLMS00149
Trigger mode: 0
Integration Time (sec): 2.000000E-2
Scans to average: 10
Electric dark correction enabled: true
Nonlinearity correction enabled: false
Boxcar width: 0
XAxis mode: Wavelengths
Number of Pixels in Spectrum: 2048
>>>>>Begin Spectral Data<<<<<
341.393	-5.73
341.776	-5.73
342.16	-5.73
342.543	-36.24
342.927	-71.95
343.31	-67.65
343.693	-70.82
344.077	-55
344.46	-45.73
344.843	-65.39
345.226	-41.67
345.61	-37.15
345.993	-18.84
346.376	-10.25
346.759	1.27
347.142	19.35
347.525	47.15
347.908	60.48
348.291	92.34
348.674	89.63
349.057	102.29
349.44	141.83
349.823	161.27
350.206	152.91
350.588	213.24
350.971	224.09
351.354	241.49
351.737	264.99
352.119	246.24
352.502	264.77
352.884	273.81
353.267	301.6
353.65	317.2
354.032	311.55
354.414	319.68
354.797	335.27
355.179	319.68
355.562	320.81
355.944	320.13
356.326	331.88
356.709	360.13
357.091	359.91
357.473	341.15
357.855	342.96
358.238	338.89
358.62	324.2
359.002	339.57
359.384	352.22
359.766	354.03
360.148	344.76
360.53	360.36
360.912	324.88
361.294	349.28
361.676	342.96
362.057	348.15
362.439	355.16
362.821	339.57
363.203	353.13
363.584	334.14
363.966	351.09
364.348	356.97
364.729	337.31
365.111	314.71
365.493	335.5
365.874	311.77
366.256	328.72
366.637	311.77
367.019	319.91
367.4	331.21
367.781	328.04
368.163	324.65
368.544	322.17
368.925	314.26
369.306	328.04
369.688	346.8
370.069	320.36
370.45	327.14
370.831	310.64
371.212	333.01
371.593	313.35
371.974	323.52
372.355	325.33
372.736	352
373.117	335.5
373.498	314.03
373.879	328.95
374.26	304.99
374.641	307.03
375.021	333.01
375.402	330.98
375.783	337.08
376.163	340.92
376.544	313.58
376.925	328.27
377.305	326.23
377.686	354.71
378.066	332.56
378.447	338.44
378.827	345.44
379.208	357.19
379.588	353.13
379.968	350.64
380.349	343.86
380.729	350.41
381.109	346.12
381.489	337.99
381.87	335.95
382.25	361.26
382.63	350.64
383.01	349.74
383.39	370.3
383.77	343.41
384.15	369.62
384.53	353.35
384.91	349.74
385.29	365.56
385.67	354.71
386.049	354.48
386.429	360.13
386.809	359.45
387.189	388.15
387.568	348.83
387.948	366.01
388.328	342.96
388.707	371.43
389.087	373.46
389.466	377.53
389.846	367.59
390.225	409.62
390.605	383.63
390.984	368.95
391.363	376.4
391.743	387.02
392.122	377.53
392.501	386.57
392.881	385.89
393.26	384.76
393.639	405.1
394.018	390.64
394.397	375.05
394.776	388.38
395.155	392.67
395.534	398.1
395.913	390.19
396.292	379.11
396.671	408.27
397.05	416.4
397.429	417.53
397.808	420.24
398.186	404.42
398.565	395.61
398.944	419.34
399.323	395.61
399.701	407.14
400.08	409.4
400.458	411.88
400.837	418.89
401.215	403.97
401.594	422.28
401.972	429.96
402.351	420.24
402.729	414.37
403.107	435.84
403.486	439.23
403.864	429.96
404.242	406.91
404.62	417.31
404.999	415.72
405.377	435.38
405.755	440.36
406.133	452.33
406.511	450.07
406.889	440.13
407.267	439.45
407.645	444.2
408.023	473.12
408.401	448.04
408.779	454.82
409.156	457.98
409.534	462.95
409.912	462.5
410.29	455.95
410.667	472.9
411.045	459.11
411.422	506.34
411.8	480.58
412.178	484.42
412.555	493.24
412.933	514.25
413.31	490.75
413.687	513.57
414.065	520.81
414.442	493.24
414.819	504.31
415.197	494.82
415.574	491.65
415.951	517.64
416.328	528.49
416.705	516.74
417.082	515.16
417.46	509.28
417.837	523.97
418.214	547.02
418.591	541.37
418.967	548.38
419.344	531.43
419.721	514.25
420.098	546.57
420.475	567.81
420.852	541.14
421.228	545.44
421.605	555.15
421.982	584.98
422.358	568.94
422.735	563.06
423.111	582.5
423.488	568.49
423.864	582.95
424.241	577.98
424.617	587.92
424.994	576.62
425.37	610.52
425.746	590.63
426.123	577.75
426.499	581.14
426.875	604.42
427.251	621.14
427.627	627.7
428.003	635.15
428.379	608.03
428.756	624.08
429.132	657.53
429.507	643.06
429.883	641.03
430.259	666.34
430.635	654.59
431.011	652.1
431.387	679.67
431.763	664.08
432.138	664.98
432.514	686.22
432.89	673.12
433.265	699.33
433.641	709.73
434.016	702.04
434.392	705.89
434.767	701.14
435.143	720.8
435.518	717.86
435.894	753.57
436.269	727.81
436.644	747.69
437.02	739.56
437.395	739.33
437.77	762.38
438.145	762.83
438.52	769.61
438.895	780.46
439.271	784.53
439.646	783.62
440.021	793.79
440.395	804.87
440.77	816.16
441.145	810.97
441.52	801.48
441.895	811.42
442.27	817.75
442.645	820.23
443.019	843.96
443.394	836.5
443.769	847.8
444.143	848.03
444.518	875.82
444.892	838.99
445.267	863.4
445.641	867.24
446.016	866.33
446.39	885.32
446.764	888.25
447.139	873.34
447.513	897.29
447.887	858.88
448.262	895.71
448.636	867.01
449.01	877.86
449.384	934.81
449.758	920.12
450.132	917.41
450.506	924.41
450.88	938.2
451.254	918.08
451.628	937.29
452.002	948.82
452.376	958.76
452.75	976.84
453.123	981.58
453.497	994.47
453.871	1008.02
454.244	1000.57
454.618	1031.75
454.992	1020.45
455.365	1061.58
455.739	1075.14
456.112	1074.92
456.486	1075.59
456.859	1064.07
457.232	1107.91
457.606	1084.63
457.979	1117.63
458.352	1133.44
458.725	1136.38
459.099	1147.23
459.472	1161.47
459.845	1152.88
460.218	1178.64
460.591	1194.69
460.964	1170.96
461.337	1208.02
461.71	1257.96
462.083	1267
462.456	1286.89
462.829	1278.98
463.201	1288.02
463.574	1315.81
463.947	1337.96
464.32	1344.96
464.692	1339.32
465.065	1339.99
465.438	1379.09
465.81	1391.74
466.183	1450.27
466.555	1468.35
466.928	1482.36
467.3	1468.35
467.672	1487.56
468.045	1523.94
468.417	1514
468.789	1546.54
469.161	1547.22
469.534	1620.89
469.906	1663.83
470.278	1677.16
470.65	1698.4
471.022	1725.97
471.394	1784.28
471.766	1788.12
472.138	1792.41
472.51	1868.57
472.882	1888.45
473.253	1911.73
473.625	1974.1
473.997	1991.95
474.369	2017.72
474.74	2031.5
475.112	2087.09
475.484	2111.27
475.855	2192.85
476.227	2212.06
476.598	2293.87
476.97	2337.03
477.341	2369.12
477.713	2436.46
478.084	2441.88
478.455	2575.21
478.827	2592.39
479.198	2720.3
479.569	2743.12
479.94	2799.84
480.311	2867.41
480.682	2979.72
481.053	3042.32
481.424	3095.2
481.795	3170
482.166	3255.2
482.537	3335.42
482.908	3423.78
483.279	3442.08
483.65	3583.78
484.021	3690.44
484.391	3775.64
484.762	3812.02
485.133	3925.46
485.503	4022.86
485.874	4112.35
486.244	4190.77
486.615	4291.55
486.985	4367.48
487.356	4527.03
487.726	4566.57
488.097	4724.54
488.467	4802.95
488.837	4920.01
489.207	5007.69
489.578	5153.45
489.948	5226.67
490.318	5361.81
490.688	5473.67
491.058	5528.81
491.428	5664.85
491.798	5788.69
492.168	5906.88
492.538	5974.22
492.908	6089.02
493.278	6226.42
493.648	6275.23
494.017	6376.24
494.387	6542.34
494.757	6685.39
495.126	6794.31
495.496	6814.88
495.866	6897.81
496.235	6985.72
496.605	7185.26
496.974	7228.43
497.344	7328.54
497.713	7421.64
498.082	7562.2
498.452	7672.03
498.821	7781.86
499.19	7871.35
499.559	7877.67
499.928	8044.68
500.298	8111.79
500.667	8209.42
501.036	8259.59
501.405	8427.94
501.774	8421.61
502.143	8548.84
502.512	8643.53
502.88	8720.59
503.249	8768.72
503.618	8906.12
503.987	8912
504.356	9004.42
504.724	9116.06
505.093	9121.48
505.462	9294.59
505.83	9359.44
506.199	9345.21
506.567	9515.82
506.936	9601.24
507.304	9699.77
507.672	9779.32
508.041	9806.21
508.409	9938.86
508.777	10098.86
509.145	10096.82
509.514	10227.44
509.882	10245.97
510.25	10297.72
510.618	10376.37
510.986	10401
511.354	10518.06
511.722	10549.92
512.09	10669.01
512.458	10670.82
512.826	10860.19
513.193	10901.78
513.561	11014.99
513.929	11007.08
514.297	11099.06
514.664	11200.07
515.032	11317.81
515.4	11322.1
515.767	11416.34
516.135	11524.58
516.502	11503.57
516.869	11640.97
517.237	11678.48
517.604	11715.77
517.972	11837.8
518.339	11901.98
518.706	11789.44
519.073	12036.89
519.44	12070.56
519.808	12138.58
520.175	12181.06
520.542	12324.34
520.909	12308.29
521.276	12391.68
521.643	12534.27
522.009	12567.95
522.376	12692.46
522.743	12744.89
523.11	12842.97
523.477	12985.79
523.843	12991.21
524.21	13215.84
524.577	13177.87
524.943	13370.64
525.31	13341.94
525.676	13449.05
526.043	13603.17
526.409	13703.96
526.776	13794.13
527.142	13811.98
527.508	13908.93
527.874	13990.51
528.241	14036.38
528.607	14106.66
528.973	14228.24
529.339	14282.25
529.705	14404.51
530.071	14489.03
530.437	14520.21
530.803	14608.12
531.169	14751.17
531.535	14689.92
531.901	14745.97
532.267	14807.44
532.632	14935.79
532.998	15012.85
533.364	15074.1
533.73	15155.9
534.095	15174.21
534.461	15336.24
534.826	15464.82
535.192	15426.63
535.557	15555.21
535.923	15599.51
536.288	15692.61
536.653	15736.9
537.019	15705.94
537.384	15801.31
537.749	15921.98
538.114	15823
538.479	15978.25
538.845	16108.87
539.21	16115.42
539.575	16087.18
539.94	16151.13
540.305	16244.91
540.67	16231.13
541.034	16335.3
541.399	16519.03
541.764	16480.61
542.129	16539.37
542.494	16519.48
542.858	16701.85
543.223	16650.32
543.587	16826.14
543.952	16790.21
544.316	16886.7
544.681	16910.88
545.045	17067.49
545.41	17061.61
545.774	17108.17
546.138	17162.63
546.503	17215.73
546.867	17177.32
547.231	17487.14
547.595	17468.16
547.959	17514.48
548.324	17586.8
548.688	17622.95
549.052	17671.77
549.416	17760.35
549.779	17686.91
550.143	17867.02
550.507	17886.22
550.871	17916.28
551.235	17989.95
551.599	18078.54
551.962	18166.22
552.326	18177.29
552.689	18395.82
553.053	18241.24
553.417	18313.78
553.78	18505.19
554.143	18475.81
554.507	18613.44
554.87	18652.31
555.234	18778.4
555.597	18763.26
555.96	18713.77
556.323	18859.98
556.686	18896.14
557.05	19008.45
557.413	19042.8
557.776	19106.31
558.139	19203.25
558.502	19251.39
558.865	19378.39
559.228	19421.55
559.59	19552.85
559.953	19511.04
560.316	19722.33
560.679	19817.93
561.041	19798.04
561.404	19863.12
561.767	20022.67
562.129	19930.01
562.492	20187.63
562.854	20138.14
563.217	20113.28
563.579	20264.24
563.941	20283.9
564.304	20314.86
564.666	20561.86
565.028	20503.56
565.39	20660.61
565.753	20909.42
566.115	20928.86
566.477	20989.65
566.839	21059.93
567.201	21129.08
567.563	21154.84
567.925	21216.08
568.287	21253.59
568.648	21268.06
569.01	21403.42
569.372	21555.51
569.734	21603.64
570.095	21641.15
570.457	21859.91
570.819	21811.32
571.18	21841.6
571.542	22077.07
571.903	22032.78
572.265	22218.31
572.626	22196.39
572.987	22326.79
573.349	22352.55
573.71	22586.67
574.071	22631.41
574.432	22782.37
574.794	22947.33
575.155	22967.67
575.516	22997.28
575.877	23079.08
576.238	23228.68
576.599	23452.41
576.96	23500.77
577.32	23562.91
577.681	23817.59
578.042	23835.45
578.403	24002
578.763	24153.86
579.124	24352.72
579.485	24527.18
579.845	24688.31
580.206	24705.25
580.566	24835.19
580.927	25023.89
581.287	25240.61
581.648	25322.19
582.008	25623.42
582.368	25745
582.728	25806.02
583.089	25991.77
583.449	26099.12
583.809	26363.97
584.169	26555.6
584.529	26659.33
584.889	27116.72
585.249	27042.82
585.609	27171.86
585.969	27598.74
586.329	27643.03
586.688	28050.03
587.048	28200.76
587.408	28313.97
587.768	28634.64
588.127	28757.8
588.487	28966.84
588.846	29273.27
589.206	29236.66
589.565	29626.25
589.925	29928.17
590.284	30090.65
590.643	30230.98
591.003	30561.15
591.362	30858.76
591.721	30959.55
592.08	31065.77
592.44	31468.01
592.799	31620.78
593.158	31771.06
593.517	32082.91
593.876	32315
594.235	32330.59
594.593	32535.78
594.952	32931.7
595.311	33030.46
595.67	33376.66
596.029	33634.29
596.387	33869.76
596.746	34073.37
597.104	34231.78
597.463	34386.13
597.822	34837.64
598.18	34752.9
598.538	34940.69
598.897	35278.54
599.255	35298.42
599.613	36050.72
599.972	35902.7
600.33	35916.94
600.688	36129.81
601.046	36435.57
601.404	36740.19
601.762	36832.62
602.12	37057.7
602.478	37060.86
602.836	37320.52
603.194	37386.05
603.552	37553.73
603.91	37524.8
604.268	38064.68
604.625	37981.74
604.983	38300.6
605.341	38277.78
605.698	38543.76
606.056	38718.22
606.413	38811.32
606.771	39063.75
607.128	39340.12
607.485	39183.74
607.843	39410.18
608.2	39726.78
608.557	39856.27
608.914	39768.14
609.272	40271.85
609.629	40201.57
609.986	40462.13
610.343	40444.5
610.7	40750.93
611.057	40649.69
611.414	40840.42
611.771	40905.73
612.127	41101.66
612.484	41298.94
612.841	41408.54
613.198	41507.98
613.554	41624.58
613.911	41880.17
614.267	41913.84
614.624	42045.82
614.98	42078.58
615.337	42348.41
615.693	42333.27
616.05	42359.93
616.406	42613.71
616.762	42665.69
617.118	42707.27
617.475	42799.02
617.831	42920.37
618.187	43017.77
618.543	43035.17
618.899	43393.35
619.255	43396.97
619.611	43374.59
619.967	43614.81
620.323	43556.74
620.678	43580.69
621.034	43511.77
621.39	43604.64
621.746	43583.85
622.101	44233.55
622.457	43856.16
622.812	44057.29
623.168	44110.39
623.523	44168.47
623.879	44198.53
624.234	44021.58
624.589	44205.31
624.945	44380.22
625.3	44369.14
625.655	44449.37
626.01	44534.11
626.365	44448.01
626.72	44495.47
627.075	44558.97
627.43	44557.16
627.785	44668.35
628.14	44655.92
628.495	44634
628.85	44712.64
629.205	44499.76
629.559	44874.89
629.914	44710.38
630.269	44765.29
630.623	44702.47
630.978	44602.13
631.332	44842.8
631.687	44882.8
632.041	44656.37
632.396	44753.09
632.75	44655.24
633.104	44778.17
633.459	44568.46
633.813	44645.52
634.167	44652.75
634.521	44664.73
634.875	44833.31
635.229	44677.61
635.583	44683.03
635.937	44676.71
636.291	44536.37
636.645	44682.36
636.999	44533.89
637.352	44825.63
637.706	44399.88
638.06	44747.21
638.413	44707.44
638.767	44588.12
639.121	44642.81
639.474	44291.86
639.828	44540.89
640.181	44375.7
640.534	44455.7
640.888	44315.59
641.241	44188.13
641.594	44415.47
641.947	44481.91
642.301	44309.48
642.654	44333.21
643.007	44417.5
643.36	44307
643.713	44163.73
644.066	44322.82
644.419	44100
644.771	43964.63
645.124	43424.54
645.477	43274.03
645.83	43312
646.182	43110.19
646.535	43103.41
646.888	43104.09
647.24	42921.27
647.593	43139.57
647.945	42997.88
648.298	42889.18
648.65	42798.79
649.002	42645.8
649.355	43019.58
649.707	42901.16
650.059	43006.24
650.411	43371.66
650.763	43459.56
651.115	43888.48
651.467	43816.39
651.819	43679.22
652.171	43711.53
652.523	43759.22
652.875	43560.8
653.227	43459.56
653.578	43782.49
653.93	43620.92
654.282	43348.83
654.633	43395.16
654.985	43446.23
655.337	43420.92
655.688	43373.46
656.039	43571.42
656.391	43348.61
656.742	43357.65
657.094	43473.12
657.445	43599.67
657.796	43488.49
658.147	43424.99
658.498	43343.86
658.849	43343.63
659.2	43436.29
659.551	43215.28
659.902	43316.74
660.253	43357.42
660.604	43311.09
660.955	43224.99
661.306	43342.5
661.656	43149.29
662.007	43226.12
662.358	43238.33
662.708	43249.85
663.059	43357.42
663.409	42932.8
663.76	43209.85
664.11	43252.79
664.461	43200.36
664.811	43140.93
665.161	43273.35
665.511	43078.1
665.862	43054.6
666.212	43213.92
666.562	43206.91
666.912	43132.11
667.262	43133.7
667.612	43107.93
667.962	43192
668.312	43116.75
668.662	43306.12
669.011	43180.47
669.361	43053.47
669.711	43152.23
670.06	43018.45
670.41	42863.87
670.76	42908.62
671.109	43105.45
671.459	42994.04
671.808	42901.39
672.157	42901.16
672.507	42806.93
672.856	42841.27
673.205	42712.92
673.554	42916.53
673.904	42743.65
674.253	43042.17
674.602	42791.11
674.951	42431.79
675.3	42199.71
675.649	42673.6
675.998	42649.64
676.346	42796.08
676.695	42799.69
677.044	42456.43
677.393	42722.86
677.741	42749.98
678.09	42585.91
678.438	42428.4
678.787	42517.67
679.135	42663.43
679.484	42342.98
679.832	42415.75
680.181	42274.74
680.529	42190.22
680.877	42335.98
681.225	42100.05
681.573	42368.74
681.922	42059.37
682.27	41985.7
682.618	41980.05
682.966	41941.64
683.314	42077.68
683.661	41900.51
684.009	41647.63
684.357	41660.97
684.705	41685.15
685.053	41676.33
685.4	41637.46
685.748	41286.51
686.095	41455.55
686.443	41220.3
686.79	41324.03
687.138	41258.72
687.485	41333.97
687.832	41232.5
688.18	41198.15
688.527	40947.99
688.874	40897.37
689.221	40868.22
689.568	40812.18
689.915	40681.11
690.262	40773.76
690.609	40465.29
690.956	40477.5
691.303	40348.91
691.65	40025.53
691.997	40298.29
692.344	40062.14
692.69	39972.2
693.037	39973.78
693.383	39612.66
693.73	39733.11
694.077	39629.83
694.423	39530.4
694.769	39517.52
695.116	39389.61
695.462	39298.77
695.808	39170.18
696.155	39366.34
696.501	39058.78
696.847	39004.77
697.193	38668.28
697.539	38802.96
697.885	38588.51
698.231	38569.3
698.577	38485.23
698.923	38427.15
699.269	38390.09
699.614	38127.27
699.96	38160.27
700.306	37974.28
700.651	37875.3
700.997	37699.71
701.342	37773.16
701.688	37720.73
702.033	37591.47
702.379	37565.71
702.724	37336.33
703.069	37538.82
703.415	37064.25
703.76	37184.93
704.105	37105.61
704.45	37097.92
704.795	36823.81
705.14	36683.02
705.485	36664.49
705.83	36530.25
706.175	36497.26
706.52	36432.18
706.865	36410.26
707.209	36305.63
707.554	36136.37
707.899	36208
708.243	36012.08
708.588	35998.29
708.932	35721.69
709.277	35787.67
709.621	35716.49
709.966	35523.27
710.31	35604.4
710.654	35424.97
710.998	35525.31
711.342	35402.15
711.687	35424.52
712.031	35055.26
712.375	34994.93
712.719	35106.11
713.063	35093.46
713.407	35046.68
713.75	34970.52
714.094	34943.86
714.438	34674.71
714.782	34810.07
715.125	34467.71
715.469	34606.91
715.812	34428.39
716.156	34267.94
716.499	34285.34
716.843	34276.08
717.186	34144.1
717.53	34252.8
717.873	34271.1
718.216	34078.79
718.559	34014.84
718.902	33672.25
719.246	33959.93
719.589	33697.79
719.932	33648.07
720.275	33804.22
720.617	33570.56
720.96	33586.83
721.303	33559.94
721.646	33526.49
721.989	33396.78
722.331	33483.55
722.674	33409.21
723.016	33482.2
723.359	33304.8
723.701	33412.14
724.044	33211.7
724.386	32917.24
724.729	33063.23
725.071	32888.77
725.413	33013.06
725.755	32889.45
726.097	32717.7
726.439	32633.41
726.782	32716.57
727.124	32812.61
727.465	32572.17
727.807	32584.82
728.149	32481.77
728.491	32400.87
728.833	32468.67
729.175	32159.52
729.516	32225.96
729.858	32235.23
730.199	32303.7
730.541	32190.93
730.882	32142.8
731.224	32212.4
731.565	31922.24
731.906	31958.85
732.248	31832.52
732.589	31854.44
732.93	31764.28
733.271	31857.16
733.612	31851.73
733.953	31781.45
734.294	31695.35
734.635	31563.61
734.976	31624.39
735.317	31487.45
735.658	31404.51
735.999	31559.99
736.339	31413.55
736.68	31543.27
737.021	31287.45
737.361	31219.43
737.702	31447.45
738.042	31087.01
738.383	31184.18
738.723	31152.77
739.063	31115.48
739.404	30964.3
739.744	31113.22
740.084	30823.29
740.424	30784.64
740.764	30856.05
741.104	30970.63
741.444	30593.69
741.784	30629.39
742.124	30759.78
742.464	30732.21
742.804	30591.43
743.143	30435.5
743.483	30457.87
743.823	30277.09
744.162	30398.44
744.502	30370.42
744.841	30306.46
745.181	30334.71
745.52	30394.6
745.86	30215.84
746.199	30117.77
746.538	30111.44
746.877	30166.35
747.216	30202.51
747.556	30053.36
747.895	29968.39
748.234	29942.86
748.573	29921.61
748.911	29885.68
749.25	29789.87
749.589	29670.55
749.928	29694.05
750.267	29834.39
750.605	29743.31
750.944	29518.46
751.283	29433.27
751.621	29554.17
751.96	29387.17
752.298	29436.66
752.636	29345.36
752.975	29293.61
753.313	29078.02
753.651	29166.38
753.989	29086.61
754.327	28974.52
754.666	28875.54
755.004	28963.22
755.342	29003.22
755.679	28846.61
756.017	28615.21
756.355	28816.11
756.693	28573.63
757.031	28665.83
757.368	28514.65
757.706	28513.52
758.044	28392.62
758.381	28502.22
758.719	28232.39
759.056	28250.47
759.394	28118.5
759.731	27946.3
760.068	27966.41
760.405	27954.21
760.743	27758.73
761.08	27866.53
761.417	27803.25
761.754	27725.97
762.091	27616.82
762.428	27534.78
762.765	27257.05
763.102	27374.34
763.438	27425.41
763.775	27211.18
764.112	27166.88
764.449	27183.61
764.785	27111.74
765.122	26899.32
765.458	26820.45
765.795	26777.97
766.131	26650.74
766.467	26541.59
766.804	26480.8
767.14	26342.05
767.476	26299.34
767.812	26266.34
768.148	26256.17
768.485	25981.83
768.821	25921.27
769.157	25832.91
769.492	25774.6
769.828	25744.55
770.164	25643.53
770.5	25448.29
770.836	25605.34
771.171	25273.38
771.507	25295.75
771.842	25119.48
772.178	25066.6
772.513	25077.9
772.849	25074.51
773.184	24859.83
773.519	24814.4
773.855	24606.95
774.19	24662.77
774.525	24489.44
774.86	24503
775.195	24464.81
775.53	24383.23
775.865	24145.27
776.2	24100.52
776.535	23983.01
776.87	23936.46
777.205	23858.95
777.539	23801.55
777.874	23732.85
778.209	23547.09
778.543	23640.65
778.878	23425.29
779.212	23372.63
779.547	23117.95
779.881	23323.82
780.215	23062.36
780.55	23268
780.884	22996.15
781.218	22765.87
781.552	22874.57
781.886	22678.87
782.22	22593.9
782.554	22585.76
782.888	22412.66
783.222	22367.69
783.556	22197.07
783.889	22101.93
784.223	22006.79
784.557	21847.02
784.89	22027.81
785.224	21898.55
785.557	21661.04
785.891	21750.53
786.224	21650.42
786.558	21669.63
786.891	21343.53
787.224	21365.68
787.557	21273.93
787.891	21147.16
788.224	21184.22
788.557	21153.48
788.89	21049.76
789.223	21088.85
789.556	20894.28
789.888	20877.78
790.221	20739.93
790.554	20679.6
790.887	20697.45
791.219	20549.43
791.552	20558.47
791.884	20366.84
792.217	20276.22
792.549	20338.82
792.882	20134.08
793.214	20112.38
793.546	20160.06
793.879	19964.36
794.211	19868.32
794.543	19913.29
794.875	19768.89
795.207	19822.22
795.539	19667.65
795.871	19774.76
796.203	19402.79
796.535	19460.87
796.867	19440.31
797.198	19357.15
797.53	19317.6
797.862	19227.66
798.193	19262.91
798.525	19062.46
798.856	19096.59
799.188	18876.71
799.519	18798.97
799.85	18752.19
800.182	18730.04
800.513	18826.09
800.844	18596.49
801.175	18772.75
801.506	18655.47
801.837	18520.33
802.168	18500.67
802.499	18523.04
802.83	18285.99
803.161	18410.05
803.491	18292.99
803.822	18239.44
804.153	18182.26
804.483	17926
804.814	17931.42
805.145	17995.83
805.475	17992.66
805.805	17880.58
806.136	17768.71
806.466	17876.06
806.796	17748.83
807.126	17610.98
807.457	17508.16
807.787	17575.27
808.117	17481.04
808.447	17395.62
808.777	17396.97
809.107	17385.67
809.436	17261.16
809.766	17366.92
810.096	17214.83
810.426	17114.04
810.755	17111.56
811.085	17152.68
811.414	17013.03
811.744	16890.54
812.073	16867.27
812.403	16877.66
812.732	16733.03
813.061	16790.89
813.39	16665.24
813.719	16598.12
814.049	16777.33
814.378	16685.35
814.707	16664.56
815.036	16597.67
815.365	16492.59
815.693	16343.67
816.022	16296.44
816.351	16317.9
816.68	16219.15
817.008	16257.11
817.337	16161.98
817.665	16083.56
817.994	16043.56
818.322	16182.54
818.651	16088.98
818.979	15950.46
819.307	16021.19
819.636	15959.27
819.964	15896.45
820.292	15857.35
820.62	15904.36
820.948	15791.59
821.276	15875.43
821.604	15814.19
821.932	15898.03
822.259	15810.12
822.587	15803.79
822.915	15675.21
823.243	15788.88
823.57	15751.37
823.898	15689.9
824.225	15704.59
824.553	15716.34
824.88	15738.48
825.207	15712.95
825.535	15707.52
825.862	15728.54
826.189	15720.86
826.516	15819.39
826.843	15808.09
827.17	15721.08
827.497	15787.97
827.824	15748.2
828.151	15746.62
828.478	15666.17
828.805	15801.53
829.131	15667.3
829.458	15723.34
829.785	15655.77
830.111	15677.47
830.438	15738.48
830.764	15709.56
831.09	15712.5
831.417	15634.76
831.743	15707.52
832.069	15658.26
832.395	15635.66
832.722	15616.23
833.048	15530.58
833.374	15617.13
833.7	15519.06
834.026	15521.09
834.351	15533.52
834.677	15547.98
835.003	15652.39
835.329	15559.28
835.654	15528.09
835.98	15452.84
836.306	15505.04
836.631	15425.05
836.956	15409.68
837.282	15489.23
837.607	15325.61
837.932	15225.5
838.258	15316.57
838.583	15307.54
838.908	15187.31
839.233	15207.88
839.558	15174.43
839.883	15114.32
840.208	15106.41
840.533	15109.35
840.858	15118.84
841.182	15025.73
841.507	14965.62
841.832	14955.23
842.156	14984.83
842.481	14911.39
842.805	14913.65
843.13	14812.18
843.454	14769.02
843.778	14773.99
844.103	14669.81
844.427	14765.85
844.751	14672.75
845.075	14564.05
845.399	14575.13
845.723	14517.73
846.047	14499.87
846.371	14447.9
846.695	14449.25
847.019	14360.22
847.343	14221.01
847.666	14214.46
847.99	14169.71
848.313	14183.5
848.637	14022.37
848.96	14036.83
849.284	13929.04
849.607	13837.97
849.931	13838.87
850.254	13708.26
850.577	13609.27
850.9	13581.71
851.223	13541.48
851.546	13506.68
851.869	13466
852.192	13420.35
852.515	13346.23
852.838	13283.86
853.161	13272.56
853.483	13260.58
853.806	13142.62
854.129	13155.05
854.451	13076.86
854.774	12999.8
855.096	13037.76
855.419	12940.82
855.741	12948.05
856.063	12843.65
856.385	12778.56
856.708	12746.02
857.03	12723.42
857.352	12716.42
857.674	12621.28
857.996	12624.44
858.318	12554.39
858.64	12534.95
858.961	12488.85
859.283	12444.56
859.605	12402.53
859.926	12453.15
860.248	12439.59
860.57	12316.88
860.891	12325.47
861.212	12329.31
861.534	12171.35
861.855	12223.55
862.176	12250.44
862.498	12214.96
862.819	12159.6
863.14	12152.82
863.461	12078.47
863.782	12043.67
864.103	12106.94
864.424	12045.25
864.745	12002.09
865.065	11970.9
865.386	12023.55
865.707	11998.92
866.027	11968.19
866.348	11906.72
866.668	11965.02
866.989	11871.92
867.309	11784.69
867.63	11824.24
867.95	11766.84
868.27	11733.62
868.59	11803.22
868.91	11666.05
869.23	11689.1
869.55	11597.35
869.87	11688.65
870.19	11608.42
870.51	11634.19
870.83	11700.85
871.15	11478.03
871.469	11591.47
871.789	11595.77
872.109	11558.26
872.428	11479.16
872.748	11467.86
873.067	11463.79
873.386	11561.65
873.706	11439.39
874.025	11403.68
874.344	11389.22
874.663	11393.51
874.982	11417.92
875.301	11403.68
875.62	11320.75
875.939	11253.63
876.258	11242.11
876.577	11287.3
876.896	11292.05
877.214	11168.89
877.533	11222.67
877.852	11261.31
878.17	11188.77
878.489	11249.34
878.807	11152.16
879.125	11076.69
879.444	11119.17
879.762	11125.27
880.08	11050.7
880.398	10994.43
880.716	11123.92
881.034	10953.53
881.352	11036.91
881.67	10976.35
881.988	10966.86
882.306	10888.44
882.624	10836.92
882.941	10814.09
883.259	10808.22
883.577	10854.55
883.894	10799.41
884.212	10746.07
884.529	10658.84
884.846	10671.05
885.164	10718.05
885.481	10701.78
885.798	10637.38
886.115	10545.4
886.432	10582.01
886.75	10589.02
887.067	10582.24
887.383	10517.38
887.7	10522.8
888.017	10495.23
888.334	10454.1
888.651	10446.65
888.967	10419.98
889.284	10358.06
889.6	10331.4
889.917	10220.89
890.233	10230.15
890.55	10265.18
890.866	10171.85
891.182	10150.16
891.498	10198.29
891.815	10144.51
892.131	10036.04
892.447	10096.15
892.763	10024.06
893.079	9923.95
893.395	10026.09
893.71	9971.86
894.026	9884.85
894.342	9864.74
894.657	9901.12
894.973	9843.27
895.289	9757.17
895.604	9785.42
895.92	9718.08
896.235	9729.38
896.55	9687.57
896.865	9615.93
897.181	9634.69
897.496	9605.54
897.811	9482.6
898.126	9477.41
898.441	9512.66
898.756	9467.24
899.071	9397.63
899.386	9357.64
899.7	9422.04
900.015	9312.44
900.33	9227.02
900.644	9245.77
900.959	9224.98
901.273	9241.93
901.588	9096.17
901.902	9155.61
902.216	9060.24
902.531	9058.89
902.845	9015.5
903.159	8977.31
903.473	8967.82
903.787	8874.03
904.101	8858.44
904.415	8895.05
904.729	8817.08
905.042	8721.72
905.356	8787.03
905.67	8701.38
905.984	8717.88
906.297	8681.04
906.611	8678.33
906.924	8590.88
907.237	8639.46
907.551	8516.53
907.864	8479.69
908.177	8421.61
908.491	8432.46
908.804	8400.6
909.117	8313.59
909.43	8258.68
909.743	8232.24
910.056	8264.1
910.368	8204.45
910.681	8192.47
910.994	8148.63
911.307	8074.05
911.619	8121.51
911.932	8086.03
912.244	8000.83
912.557	8015.3
912.869	7942.31
913.181	7868.18
913.494	7930.33
913.806	7860.73
914.118	7856.66
914.43	7786.15
914.742	7708.41
915.054	7731.46
915.366	7717.9
915.678	7661.41
915.99	7610.79
916.302	7598.81
916.613	7581.64
916.925	7487.18
917.236	7500.96
917.548	7393.85
917.859	7481.3
918.171	7409.44
918.482	7326.5
918.794	7311.36
919.105	7325.15
919.416	7285.37
919.727	7331.02
920.038	7229.1
920.349	7159.28
920.66	7134.64
920.971	7124.25
921.282	7088.77
921.593	7021.43
921.903	7004.7
922.214	6981.65
922.525	6921.54
922.835	6964.48
923.146	6906.4
923.456	6843.58
923.767	6826.85
924.077	6812.84
924.387	6846.74
924.697	6746.63
925.008	6731.49
925.318	6750.25
925.628	6707.76
925.938	6650.14
926.248	6572.62
926.558	6617.59
926.867	6579.63
927.177	6554.55
927.487	6483.36
927.796	6444.72
928.106	6527.43
928.416	6458.95
928.725	6400.65
929.034	6343.03
929.344	6400.42
929.653	6271.61
929.962	6314.78
930.271	6258.28
930.581	6224.84
930.89	6188.45
931.199	6179.41
931.508	6133.09
931.817	6179.41
932.125	6117.72
932.434	6059.19
932.743	6032.52
933.051	6008.12
933.36	5979.42
933.669	5954.33
933.977	5936.71
934.286	5893.32
934.594	5911.62
934.902	5885.64
935.21	5891.96
935.519	5831.17
935.827	5819.65
936.135	5808.58
936.443	5691.97
936.751	5721.35
937.059	5712.76
937.367	5648.13
937.674	5702.36
937.982	5628.69
938.29	5609.94
938.597	5625.3
938.905	5531.52
939.213	5544.18
939.52	5491.52
939.827	5506.66
940.135	5479.55
940.442	5447.23
940.749	5439.09
941.056	5441.13
941.363	5339.89
941.67	5333.33
941.977	5281.36
942.284	5251.08
942.591	5284.52
942.898	5221.02
943.205	5261.92
943.511	5210.17
943.818	5237.07
944.125	5153
944.431	5143.06
944.738	5134.47
945.044	5077.75
945.35	5070.97
945.657	5044.08
945.963	4997.3
946.269	5016.05
946.575	5011.08
946.881	4934.7
947.187	4950.07
947.493	4934.02
947.799	4933.8
948.105	4887.47
948.41	4895.38
948.716	4819.68
949.022	4799.34
949.327	4804.08
949.633	4770.41
949.938	4776.96
950.244	4705.78
950.549	4725.21
950.854	4705.55
951.16	4692.67
951.465	4650.41
951.77	4612.68
952.075	4611.32
952.38	4569.96
952.685	4574.94
952.99	4556.63
953.294	4553.24
953.599	4504.66
953.904	4484.09
954.209	4500.14
954.513	4458.33
954.818	4408.84
955.122	4389.86
955.426	4403.42
955.731	4355.28
956.035	4364.77
956.339	4309.18
956.643	4378.11
956.948	4280.48
957.252	4301.05
957.556	4300.59
957.86	4245
958.163	4236.19
958.467	4214.49
958.771	4191.67
959.075	4154.61
959.378	4173.82
959.682	4180.82
959.985	4141.5
960.289	4100.6
960.592	4100.15
960.896	4036.87
961.199	4036.87
961.502	4059.02
961.805	3972.92
962.108	4002.07
962.411	4004.78
962.714	3927.95
963.017	3969.98
963.32	3942.41
963.623	3919.81
963.926	3909.64
964.228	3849.31
964.531	3844.33
964.833	3844.33
965.136	3791.91
965.438	3806.59
965.741	3745.81
966.043	3757.33
966.345	3764.56
966.648	3759.14
966.95	3732.92
967.252	3700.16
967.554	3744.9
967.856	3657.9
968.158	3599.14
968.46	3669.42
968.761	3600.05
969.063	3623.55
969.365	3650.89
969.666	3586.94
969.968	3547.62
970.269	3580.61
970.571	3541.97
970.872	3508.3
971.174	3498.81
971.475	3461.97
971.776	3500.61
972.077	3488.19
972.378	3468.07
972.679	3431.69
972.98	3416.55
973.281	3396.44
973.582	3406.61
973.883	3391.01
974.183	3372.03
974.484	3353.27
974.785	3320.96
975.085	3286.83
975.386	3349.66
975.686	3228.53
975.986	3251.13
976.287	3248.42
976.587	3239.38
976.887	3218.36
977.187	3179.94
977.487	3210.45
977.787	3163.9
978.087	3169.78
978.387	3129.1
978.687	3144.69
978.987	3113.51
979.286	3106.27
979.586	3096.78
979.885	3057.91
980.185	3080.51
980.484	3073.73
980.784	3040.06
981.083	3046.39
981.382	2994.86
981.682	3007.75
981.981	2998.93
982.28	2989.22
982.579	2968.65
982.878	2955.09
983.177	2936.56
983.475	2925.94
983.774	2902.89
984.073	2884.59
984.372	2864.47
984.67	2842.78
984.969	2846.62
985.267	2858.15
985.566	2853.17
985.864	2863.57
986.162	2814.08
986.461	2779.28
986.759	2791.03
987.057	2771.59
987.355	2765.49
987.653	2708.54
987.951	2732.95
988.249	2702.22
988.547	2734.08
988.844	2718.49
989.142	2685.95
989.44	2663.57
989.737	2633.07
990.035	2642.11
990.332	2656.12
990.63	2644.59
990.927	2625.16
991.224	2594.88
991.521	2532.96
991.819	2600.75
992.116	2550.58
992.413	2550.36
992.71	2522.33
993.006	2532.28
993.303	2517.82
993.6	2502.22
993.897	2490.7
994.193	2448.21
994.49	2498.83
994.787	2454.77
995.083	2430.59
995.379	2438.5
995.676	2414.09
995.972	2397.37
996.268	2414.54
996.565	2413.64
996.861	2343.81
997.157	2375.9
997.453	2339.29
997.749	2327.99
998.044	2310.59
998.34	2331.38
998.636	2268.56
998.932	2285.5
999.227	2255.68
999.523	2243.47
999.818	2210.25
1000.114	2257.48
1000.409	2235.11
1000.704	2207.54
1001	2231.72
1001.295	2209.12
1001.59	2162.8
1001.885	2158.05
1002.18	2170.48
1002.475	2164.38
1002.77	2137.49
1003.065	2126.19
1003.359	2100.65
1003.654	2103.36
1003.949	2086.19
1004.243	2081.44
1004.538	2034.21
1004.832	2058.62
1005.127	2050.48
1005.421	2007.55
1005.715	2011.61
1006.009	1997.15
1006.304	1978.17
1006.598	1977.94
1006.892	2000.31
1007.186	1951.73
1007.48	1930.03
1007.773	1921.22
1008.067	1947.21
1008.361	1898.4
1008.655	1916.25
1008.948	1879.64
1009.242	1866.53
1009.535	1887.55
1009.829	1892.07
1010.122	1866.08
1010.415	1815.46
1010.708	1838.06
1011.001	1826.99
1011.295	1808.91
1011.588	1842.58
1011.881	1794.44
1012.173	1764.16
1012.466	1776.82
1012.759	1761.9
1013.052	1756.71
1013.344	1706.31
1013.637	1780.21
1013.93	1739.3
1014.222	1722.13
1014.514	1690.49
1014.807	1690.94
1015.099	1683.26
1015.391	1658.63
1015.683	1647.78
1015.976	1663.15
1016.268	1648.23
1016.56	1659.76
1016.851	1621.57
1017.143	1623.83
1017.435	1601.23
1017.727	1615.69
1018.018	1557.61
1018.31	1555.81
1018.602	1552.19
1018.893	1577.73
1019.185	1563.04
1019.476	1522.59
1019.767	1513.32
1020.058	1525.3
1020.35	1485.53
1020.641	1508.8
1020.932	1498.63
1021.223	1489.37
1021.514	1431.97
1021.804	1447.11
1022.095	1434
1022.386	1437.17
1022.677	1449.59
1022.967	1429.03
1023.258	1425.19
1023.548	1386.32
1023.839	1397.84
1024.129	1404.85
1024.419	1342.25
1024.709	1375.7
1025	1349.48
1025.29	1339.99
1025.58	1318.98
1025.87	1303.84
1026.16	1321.01
1026.449	1312.42
1026.739	1309.94
1027.029	1271.97
1027.319	1290.05
1027.608	1282.59
1027.898	1274.23
1028.187	1248.47
1028.477	1230.62
1028.766	1244.63
1029.055	1236.49
1029.344	1229.94
1029.634	1222.48
1029.923	1229.04
1030.212	1196.95
1030.501	1189.26
1030.79	1169.6
1031.078	1190.17
1031.367	1161.01
1031.656	1177.96
1031.945	1147
1032.233	1152.65
1032.522	1147.23
1032.81	1130.28
1033.099	1116.72
1033.387	1125.76
1033.675	1109.04
1033.963	1117.17
1034.251	1098.42
1034.54	1111.98
1034.828	1072.2
1035.116	1065.65
1035.403	1066.55
1035.691	1067.01
1035.979	1069.04
1036.267	1045.31
1036.554	1012.09
1036.842	1020
1037.129	1052.09
1037.417	1006.22
1037.704	1018.65
1037.992	1010.96
1038.279	1008.7
1038.566	1001.02
1038.853	1001.02
1039.14	1001.02
