Data from hue_250_FLMS001491_00032.txt Node
Date: Tue Feb 07 16:00:53 GMT 2017
User: dcchb
Spectrometer: FLMS00149
Trigger mode: 0
Integration Time (sec): 2.000000E-2
Scans to average: 10
Electric dark correction enabled: true
Nonlinearity correction enabled: false
Boxcar width: 0
XAxis mode: Wavelengths
Number of Pixels in Spectrum: 2048
>>>>>Begin Spectral Data<<<<<
341.393	-16.41
341.776	-16.41
342.16	-16.41
342.543	-45.56
342.927	-66.13
343.31	-78.33
343.693	-63.64
344.077	-47.6
344.46	-51.89
344.843	-46.69
345.226	-43.53
345.61	-48.28
345.993	-4.21
346.376	-32
346.759	7.77
347.142	29.91
347.525	32.17
347.908	63.59
348.291	69.69
348.674	94.55
349.057	118.5
349.44	111.04
349.823	128.89
350.206	163.7
350.588	200.08
350.971	214.99
351.354	186.97
351.737	229.46
352.119	236.46
352.502	236.91
352.884	239.4
353.267	284.15
353.65	277.59
354.032	289.34
354.414	285.73
354.797	300.87
355.179	302.45
355.562	320.75
355.944	318.27
356.326	340.64
356.709	316.46
357.091	311.94
357.473	336.12
357.855	330.25
358.238	331.83
358.62	360.3
359.002	320.98
359.384	316.23
359.766	325.73
360.148	349
360.53	337.93
360.912	311.71
361.294	318.27
361.676	336.57
362.057	319.62
362.439	326.18
362.821	324.82
363.203	313.52
363.584	311.04
363.966	303.13
364.348	313.07
364.729	303.58
365.111	305.84
365.493	302
365.874	316.01
366.256	307.65
366.637	293.41
367.019	291.83
367.4	316.69
367.781	295.9
368.163	320.75
368.544	305.16
368.925	299.29
369.306	308.78
369.688	311.49
370.069	304.26
370.45	315.78
370.831	306.74
371.212	307.42
371.593	294.54
371.974	305.84
372.355	305.16
372.736	315.56
373.117	295.9
373.498	314.2
373.879	309.91
374.26	308.1
374.641	286.63
375.021	314.2
375.402	315.33
375.783	317.36
376.163	322.56
376.544	315.56
376.925	315.78
377.305	308.55
377.686	296.8
378.066	325.5
378.447	328.66
378.827	309.46
379.208	314.43
379.588	322.34
379.968	311.04
380.349	307.42
380.729	328.66
381.109	319.85
381.489	330.92
381.87	331.83
382.25	318.49
382.63	333.18
383.01	332.28
383.39	331.6
383.77	331.83
384.15	329.57
384.53	320.75
384.91	326.63
385.29	336.12
385.67	352.62
386.049	348.78
386.429	337.93
386.809	346.97
387.189	353.97
387.568	331.6
387.948	336.35
388.328	374.09
388.707	361.43
389.087	351.26
389.466	357.82
389.846	354.43
390.225	375.67
390.605	365.72
390.984	384.26
391.363	340.87
391.743	358.49
392.122	370.7
392.501	375.22
392.881	366.63
393.26	376.35
393.639	368.21
394.018	369.11
394.397	366.63
394.776	397.81
395.155	379.51
395.534	398.94
395.913	356.69
396.292	375.89
396.671	385.39
397.05	391.03
397.429	399.17
397.808	390.58
398.186	392.16
398.565	392.84
398.944	385.39
399.323	410.02
399.701	413.63
400.08	388.78
400.458	384.26
400.837	404.59
401.215	399.17
401.594	403.01
401.972	389
402.351	428.77
402.729	387.65
403.107	429.68
403.486	443.46
403.864	431.49
404.242	424.48
404.62	438.04
404.999	439.85
405.377	444.82
405.755	451.37
406.133	416.12
406.511	442.33
406.889	450.24
407.267	462.22
407.645	451.82
408.023	462.9
408.401	468.55
408.779	457.93
409.156	508.55
409.534	488.66
409.912	491.6
410.29	495.66
410.667	500.64
411.045	503.12
411.422	527.98
411.8	525.95
412.178	522.1
412.555	526.85
412.933	527.08
413.31	533.63
413.687	541.09
414.065	538.15
414.442	559.84
414.819	568.43
415.197	586.06
415.574	553.29
415.951	584.93
416.328	592.16
416.705	577.24
417.082	591.03
417.46	617.92
417.837	601.42
418.214	610.92
418.591	620.86
418.967	624.93
419.344	614.98
419.721	635.32
420.098	652.27
420.475	665.83
420.852	659.73
421.228	652.95
421.605	688.65
421.982	718.03
422.358	687.3
422.735	696.11
423.111	701.76
423.488	725.94
423.864	736.56
424.241	753.74
424.617	748.31
424.994	732.72
425.37	782.66
425.746	774.3
426.123	804.36
426.499	816.79
426.875	818.82
427.251	814.98
427.627	845.26
428.003	842.55
428.379	843.68
428.756	873.51
429.132	845.26
429.507	857.69
429.883	898.37
430.259	880.97
430.635	903.56
431.011	922.77
431.387	919.83
431.763	930.91
432.138	967.06
432.514	946.5
432.89	963.9
433.265	992.83
433.641	1007.97
434.016	1007.74
434.392	1049.32
434.767	1061.98
435.143	1067.4
435.518	1080.51
435.894	1103.78
436.269	1110.34
436.644	1126.61
437.02	1137.46
437.395	1143.56
437.77	1165.7
438.145	1171.58
438.52	1175.65
438.895	1220.17
439.271	1241.63
439.646	1230.33
440.021	1265.81
440.395	1258.81
440.77	1277.79
441.145	1273.27
441.52	1295.87
441.895	1310.33
442.27	1360.05
442.645	1352.37
443.019	1357.11
443.394	1379.48
443.769	1356.43
444.143	1352.14
444.518	1425.58
444.892	1401.18
445.267	1419.93
445.641	1433.04
446.016	1417.22
446.39	1419.03
446.764	1420.16
447.139	1440.72
447.513	1484.79
447.887	1493.83
448.262	1484.34
448.636	1473.04
449.01	1494.28
449.384	1529.31
449.758	1539.03
450.132	1544.9
450.506	1539.03
450.88	1548.52
451.254	1564.56
451.628	1572.92
452.002	1620.83
452.376	1626.26
452.75	1617.22
453.123	1632.58
453.497	1650.66
453.871	1670.32
454.244	1694.73
454.618	1682.75
454.992	1732.24
455.365	1720.27
455.739	1758.91
456.112	1816.53
456.486	1773.37
456.859	1806.14
457.232	1866.7
457.606	1834.39
457.979	1880.71
458.352	1893.82
458.725	1901.28
459.099	1946.7
459.472	1974.5
459.845	1953.03
460.218	1981.05
460.591	1989.41
460.964	2025.34
461.337	2055.62
461.71	2089.07
462.083	2131.78
462.456	2123.19
462.829	2129.75
463.201	2187.15
463.574	2172.46
463.947	2186.47
464.32	2212.68
464.692	2219.91
465.065	2250.65
465.438	2324.54
465.81	2305.56
466.183	2345.79
466.555	2400.02
466.928	2398.67
467.3	2386.91
467.672	2437.31
468.045	2496.06
468.417	2487.7
468.789	2551.43
469.161	2550.07
469.534	2579.9
469.906	2626.23
470.278	2667.81
470.65	2639.34
471.022	2704.19
471.394	2741.93
471.766	2759.33
472.138	2814.7
472.51	2861.7
472.882	2886.34
473.253	2897.64
473.625	2946.22
473.997	3027.58
474.369	3025.32
474.74	3030.97
475.112	3068.93
475.484	3149.83
475.855	3181.24
476.227	3179.89
476.598	3265.99
476.97	3287.91
477.341	3376.04
477.713	3391.63
478.084	3394.57
478.455	3509.37
478.827	3553.66
479.198	3583.95
479.569	3629.37
479.94	3685.64
480.311	3707.33
480.682	3817.39
481.053	3889.25
481.424	3950.49
481.795	3901.45
482.166	4039.53
482.537	4069.36
482.908	4093.76
483.279	4168.79
483.65	4198.62
484.021	4260.99
484.391	4328.33
484.762	4335.34
485.133	4394.55
485.503	4422.12
485.874	4494.88
486.244	4534.65
486.615	4600.19
486.985	4656.91
487.356	4745.72
487.726	4783.01
488.097	4898.94
488.467	4849.67
488.837	4945.04
489.207	4991.37
489.578	5066.62
489.948	5065.71
490.318	5165.37
490.688	5179.16
491.058	5249.44
491.428	5284.01
491.798	5373.05
492.168	5468.42
492.538	5467.06
492.908	5517
493.278	5575.31
493.648	5559.49
494.017	5629.77
494.387	5669.99
494.757	5711.57
495.126	5770.55
495.496	5747.73
495.866	5820.27
496.235	5832.02
496.605	5864.34
496.974	5896.65
497.344	5951.79
497.713	5968.74
498.082	5996.76
498.452	6048.29
498.821	6099.81
499.19	6111.79
499.559	6184.1
499.928	6146.82
500.298	6200.37
500.667	6197.44
501.036	6177.32
501.405	6281.28
501.774	6234.72
502.143	6326.02
502.512	6323.76
502.88	6367.15
503.249	6386.13
503.618	6438.79
503.987	6408.28
504.356	6468.16
504.724	6464.1
505.093	6513.81
505.462	6586.58
505.83	6565.34
506.199	6594.49
506.567	6609.85
506.936	6668.38
507.304	6728.27
507.672	6723.3
508.041	6690.98
508.409	6780.92
508.777	6791.09
509.145	6838.55
509.514	6838.32
509.882	6818.21
510.25	6825.67
510.618	6879
510.986	6869.96
511.354	6921.94
511.722	7018.43
512.09	6982.5
512.458	7042.84
512.826	7028.15
513.193	7053.68
513.561	7111.76
513.929	7123.06
514.297	7163.96
514.664	7190.18
515.032	7186.79
515.4	7176.39
515.767	7205.32
516.135	7232.44
516.502	7186.11
516.869	7269.05
517.237	7287.8
517.604	7206.67
517.972	7331.42
518.339	7372.32
518.706	7332.77
519.073	7297.29
519.44	7352.21
519.808	7425.2
520.175	7363.05
520.542	7405.77
520.909	7510.62
521.276	7383.62
521.643	7491.64
522.009	7452.09
522.376	7591.3
522.743	7552.65
523.11	7630.62
523.477	7560.79
523.843	7610.51
524.21	7672.65
524.577	7727.57
524.943	7715.14
525.31	7736.15
525.676	7797.17
526.043	7798.3
526.409	7822.7
526.776	7858.86
527.142	7789.94
527.508	7881.23
527.874	7872.65
528.241	7898.86
528.607	7884.85
528.973	7934.79
529.339	7864.96
529.705	7951.06
530.071	7991.51
530.437	7986.99
530.803	8042.36
531.169	7979.54
531.535	8015.92
531.901	8006.2
532.267	7993.55
532.632	8013.43
532.998	8034.9
533.364	8036.26
533.73	8070.83
534.095	8088.46
534.461	8024.51
534.826	8057.05
535.192	8099.98
535.557	8106.76
535.923	8033.55
536.288	8080.32
536.653	8060.44
537.019	8073.32
537.384	8069.93
537.749	8016.82
538.114	8046.65
538.479	7982.7
538.845	8010.27
539.21	8030.83
539.575	8025.18
539.94	8003.94
540.305	8059.08
540.67	8025.41
541.034	8016.37
541.399	8025.86
541.764	8063.15
542.129	8034.45
542.494	7984.51
542.858	8051.62
543.223	8014.56
543.587	8087.1
543.952	7987.22
544.316	8045.3
544.681	7934.57
545.045	8030.16
545.41	8082.58
545.774	8074.67
546.138	7987.67
546.503	7999.42
546.867	8000.1
547.231	7998.52
547.595	7995.35
547.959	7978.63
548.324	7992.87
548.688	7961.23
549.052	8001
549.416	7975.24
549.779	8012.76
550.143	7897.73
550.507	8005.07
550.871	7924.62
551.235	7908.58
551.599	8006.65
551.962	7940.44
552.326	7931.63
552.689	7954.45
553.053	7894.57
553.417	7958.52
553.78	7989.48
554.143	7922.14
554.507	7932.98
554.87	7952.42
555.234	7993.55
555.597	8000.78
555.96	7982.47
556.323	8019.53
556.686	8022.7
557.05	8029.93
557.413	8012.98
557.776	8036.48
558.139	8024.96
558.502	8031.06
558.865	7976.37
559.228	8076.26
559.59	8095.47
559.953	8129.14
560.316	8092.08
560.679	8054.34
561.041	8132.98
561.404	8168.68
561.767	8144.73
562.129	8088.01
562.492	8223.37
562.854	8206.42
563.217	8187.44
563.579	8270.6
563.941	8258.17
564.304	8275.35
564.666	8298.85
565.028	8250.72
565.39	8314.67
565.753	8382.92
566.115	8360.09
566.477	8376.36
566.839	8392.63
567.201	8438.05
567.563	8416.81
567.925	8517.37
568.287	8520.09
568.648	8485.74
569.01	8487.32
569.372	8507.66
569.734	8499.3
570.095	8535.68
570.457	8589.69
570.819	8627.43
571.18	8615.45
571.542	8685.73
571.903	8627.43
572.265	8680.31
572.626	8664.94
572.987	8726.41
573.349	8803.92
573.71	8803.47
574.071	8761.44
574.432	8800.08
574.794	8843.02
575.155	8820.87
575.516	8868.78
575.877	8885.27
576.238	8913.07
576.599	8934.31
576.96	8867.42
577.32	8954.65
577.681	8921.43
578.042	8950.81
578.403	9024.71
578.763	8983.58
579.124	9020.19
579.485	9088.43
579.845	9099.96
580.206	9106.96
580.566	9026.74
580.927	8977.02
581.287	9106.96
581.648	9124.59
582.008	9185.61
582.368	9150.8
582.728	9187.41
583.089	9153.06
583.449	9180.41
583.809	9274.19
584.169	9231.03
584.529	9168.66
584.889	9303.12
585.249	9224.25
585.609	9279.16
585.969	9259.73
586.329	9267.19
586.688	9261.99
587.048	9294.08
587.408	9272.16
587.768	9343.79
588.127	9363.45
588.487	9309.9
588.846	9349.44
589.206	9316.9
589.565	9360.97
589.925	9391.25
590.284	9401.87
590.643	9448.42
591.003	9440.74
591.362	9512.83
591.721	9451.14
592.08	9473.51
592.44	9474.64
592.799	9492.26
593.158	9462.89
593.517	9530.46
593.876	9464.69
594.235	9456.56
594.593	9499.95
594.952	9504.02
595.311	9489.1
595.67	9553.73
596.029	9578.82
596.387	9550.34
596.746	9581.53
597.104	9490.46
597.463	9513.05
597.822	9610.91
598.18	9515.31
598.538	9531.81
598.897	9622.66
599.255	9598.7
599.613	9722.31
599.972	9600.96
600.33	9656.1
600.688	9625.14
601.046	9661.98
601.404	9666.05
601.762	9603.9
602.12	9707.85
602.478	9716.21
602.836	9729.55
603.194	9567.74
603.552	9655.88
603.91	9628.08
604.268	9695.88
604.625	9610
604.983	9742.43
605.341	9629.89
605.698	9674.86
606.056	9686.61
606.413	9667.4
606.771	9713.73
607.128	9707.63
607.485	9733.84
607.843	9682.09
608.2	9735.87
608.557	9782.88
608.914	9757.57
609.272	9807.28
609.629	9883.67
609.986	9872.59
610.343	9798.25
610.7	9856.1
611.057	9908.98
611.414	9791.24
611.771	9847.74
612.127	9882.54
612.484	9854.97
612.841	9900.84
613.198	9889.09
613.554	9855.42
613.911	9936.77
614.267	9931.58
614.624	9931.58
614.98	9926.38
615.337	9950.56
615.693	9973.16
616.05	9946.72
616.406	10008.64
616.762	10015.19
617.118	9940.16
617.475	9975.87
617.831	10001.86
618.187	9956.43
618.543	10078.01
618.899	10066.94
619.255	10011.8
619.611	10082.76
619.967	10070.1
620.323	10062.65
620.678	10088.63
621.034	10025.81
621.39	10034.17
621.746	10016.32
622.101	10144.45
622.457	10062.42
622.812	10121.85
623.168	10073.04
623.523	10142.19
623.879	10135.86
624.234	10035.75
624.589	10027.84
624.945	10057
625.3	10075.53
625.655	10057.9
626.01	10086.6
626.365	10090.67
626.72	10087.96
627.075	10105.81
627.43	10045.7
627.785	10023.32
628.14	10020.84
628.495	10046.83
628.85	10060.84
629.205	10044.11
629.559	10085.7
629.914	10001.86
630.269	10021.29
630.623	10019.03
630.978	9966.83
631.332	10010.44
631.687	9984.45
632.041	9915.98
632.396	10013.83
632.75	9966.6
633.104	9964.57
633.459	9949.88
633.813	9894.29
634.167	9872.14
634.521	9810.67
634.875	9857.68
635.229	9904.68
635.583	9829.43
635.937	9801.41
636.291	9807.06
636.645	9785.59
636.999	9741.98
637.352	9830.33
637.706	9665.14
638.06	9733.84
638.413	9736.1
638.767	9739.72
639.121	9777
639.474	9675.08
639.828	9637.57
640.181	9710.34
640.534	9683.22
640.888	9612.71
641.241	9679.15
641.594	9620.62
641.947	9712.15
642.301	9635.09
642.654	9598.48
643.007	9641.87
643.36	9539.04
643.713	9622.2
644.066	9646.84
644.419	9607.52
644.771	9571.58
645.124	9430.12
645.477	9378.14
645.83	9355.77
646.182	9318.94
646.535	9293.85
646.888	9345.6
647.24	9243.68
647.593	9311.48
647.945	9243.46
648.298	9230.58
648.65	9251.82
649.002	9232.84
649.355	9301.76
649.707	9281.65
650.059	9302.21
650.411	9430.35
650.763	9388.54
651.115	9488.87
651.467	9460.4
651.819	9532.94
652.171	9421.08
652.523	9454.75
652.875	9403.45
653.227	9391.25
653.578	9390.35
653.93	9449.33
654.282	9412.49
654.633	9339.73
654.985	9408.42
655.337	9424.92
655.688	9344.02
656.039	9445.26
656.391	9346.73
656.742	9452.72
657.094	9393.96
657.445	9407.75
657.796	9400.29
658.147	9387.18
658.498	9399.39
658.849	9461.08
659.2	9330.23
659.551	9333.85
659.902	9390.12
660.253	9412.04
660.604	9460.85
660.955	9374.3
661.306	9385.37
661.656	9393.96
662.007	9387.41
662.358	9405.49
662.708	9354.64
663.059	9381.76
663.409	9338.82
663.76	9501.98
664.11	9417.24
664.461	9395.32
664.811	9435.54
665.161	9401.42
665.511	9384.24
665.862	9436.67
666.212	9363.23
666.562	9407.07
666.912	9386.96
667.262	9424.02
667.612	9445.26
667.962	9401.87
668.312	9455.2
668.662	9485.03
669.011	9393.74
669.361	9352.61
669.711	9360.29
670.06	9384.47
670.41	9386.96
670.76	9361.42
671.109	9417.01
671.459	9388.76
671.808	9353.74
672.157	9425.83
672.507	9259.05
672.856	9296.56
673.205	9323.46
673.554	9305.83
673.904	9392.61
674.253	9384.02
674.602	9273.06
674.951	9211.37
675.3	9167.08
675.649	9301.99
675.998	9332.72
676.346	9259.95
676.695	9271.71
677.044	9210.69
677.393	9270.8
677.741	9235.77
678.09	9234.19
678.438	9174.31
678.787	9181.76
679.135	9132.95
679.484	9151.48
679.832	9139.96
680.181	9112.16
680.529	9091.15
680.877	9140.41
681.225	9124.59
681.573	9176.57
681.922	9110.35
682.27	9017.02
682.618	9052.05
682.966	9046.63
683.314	9063.35
683.661	8989
684.009	9008.89
684.357	8934.54
684.705	8944.93
685.053	8944.93
685.4	8926.18
685.748	8859.51
686.095	8860.19
686.443	8813.64
686.79	8867.65
687.138	8853.41
687.485	8887.31
687.832	8749.69
688.18	8784.26
688.527	8695
688.874	8722.79
689.221	8713.98
689.568	8604.83
689.915	8633.53
690.262	8605.28
690.609	8618.62
690.956	8546.53
691.303	8570.93
691.65	8568.22
691.997	8491.61
692.344	8400.54
692.69	8456.59
693.037	8418.62
693.383	8380.88
693.73	8435.34
694.077	8315.35
694.423	8279.64
694.769	8325.74
695.116	8315.35
695.462	8288.23
695.808	8168.91
696.155	8235.57
696.501	8165.97
696.847	8151.96
697.193	8081.45
697.539	8130.27
697.885	8092.75
698.231	8039.87
698.577	8015.92
698.923	8022.02
699.269	8016.37
699.614	7952.64
699.96	7912.65
700.306	7868.8
700.651	7861.35
700.997	7818.86
701.342	7852.08
701.688	7802.59
702.033	7726.44
702.379	7732.54
702.724	7728.7
703.069	7761.24
703.415	7686.66
703.76	7648.47
704.105	7691.86
704.45	7644.4
704.795	7594.01
705.14	7550.17
705.485	7568.25
705.83	7500.9
706.175	7503.62
706.52	7433.79
706.865	7407.8
707.209	7448.93
707.554	7435.82
707.899	7420.68
708.243	7400.57
708.588	7353.34
708.932	7246
709.277	7271.31
709.621	7269.27
709.966	7240.8
710.31	7257.97
710.654	7154.7
710.998	7154.47
711.342	7153.12
711.687	7186.56
712.031	7164.87
712.375	7087.58
712.719	7111.54
713.063	7103.4
713.407	7108.15
713.75	7048.04
714.094	7140.01
714.438	7088.26
714.782	7015.04
715.125	6955.16
715.469	7077.19
715.812	7000.13
716.156	6941.15
716.499	6938.89
716.843	6955.83
717.186	6905.67
717.53	6992.22
717.873	7014.82
718.216	6881.49
718.559	6914.25
718.902	6827.48
719.246	6846.68
719.589	6804.88
719.932	6835.61
720.275	6798.1
720.617	6775.95
720.96	6857.53
721.303	6783.86
721.646	6813.92
721.989	6719
722.331	6758.78
722.674	6804.88
723.016	6741.38
723.359	6785.44
723.701	6752.45
724.044	6689.63
724.386	6697.76
724.729	6735.5
725.071	6647.14
725.413	6768.49
725.755	6685.78
726.097	6643.3
726.439	6711.09
726.782	6635.84
727.124	6674.71
727.465	6638.55
727.807	6632.45
728.149	6666.58
728.491	6575.96
728.833	6609.4
729.175	6577.99
729.516	6588.16
729.858	6594.94
730.199	6630.42
730.541	6615.73
730.882	6612.79
731.224	6636.29
731.565	6550.65
731.906	6525.11
732.248	6555.62
732.589	6600.59
732.93	6582.74
733.271	6592.91
733.612	6620.25
733.953	6539.57
734.294	6604.43
734.635	6549.74
734.976	6554.26
735.317	6510.87
735.658	6529.18
735.999	6561.49
736.339	6527.82
736.68	6597.43
737.021	6582.06
737.361	6551.78
737.702	6545
738.042	6573.02
738.383	6548.84
738.723	6611.44
739.063	6527.82
739.404	6571.66
739.744	6549.29
740.084	6575.51
740.424	6572.79
740.764	6550.65
741.104	6645.11
741.444	6611.21
741.784	6613.02
742.124	6647.14
742.464	6636.97
742.804	6632.68
743.143	6637.88
743.483	6719.91
743.823	6680.81
744.162	6667.48
744.502	6715.16
744.841	6686.01
745.181	6729.4
745.52	6731.66
745.86	6762.62
746.199	6787.7
746.538	6813.46
746.877	6870.64
747.216	6835.39
747.556	6824.09
747.895	6937.98
748.234	6899.34
748.573	6963.52
748.911	6972.56
749.25	6992.9
749.589	7068.15
749.928	7093.23
750.267	7160.35
750.605	7182.49
750.944	7206
751.283	7256.17
751.621	7343.85
751.96	7359.67
752.298	7408.03
752.636	7446.67
752.975	7596.04
753.313	7561.24
753.651	7713.33
753.989	7681.24
754.327	7782.93
754.666	7857.28
755.004	7958.07
755.342	7996.71
755.679	8154.22
756.017	8195.8
756.355	8241.45
756.693	8341.56
757.031	8476.92
757.368	8482.12
757.706	8546.53
758.044	8705.39
758.381	8858.83
758.719	8910.13
759.056	9082.78
759.394	9061.54
759.731	9201.2
760.068	9272.38
760.405	9349.44
760.743	9439.38
761.08	9577.69
761.417	9654.75
761.754	9738.81
762.091	9958.47
762.428	9936.77
762.765	9985.81
763.102	10140.38
763.438	10277.78
763.775	10280.72
764.112	10410.88
764.449	10592.35
764.785	10634.16
765.122	10666.24
765.458	10810.42
765.795	10896.3
766.131	10955.5
766.467	11118.44
766.804	11125.89
767.14	11169.96
767.476	11281.82
767.812	11334.93
768.148	11496.73
768.485	11479.33
768.821	11498.77
769.157	11588.25
769.492	11665.09
769.828	11716.39
770.164	11742.83
770.5	11803.84
770.836	11924.07
771.171	11942.14
771.507	12102.14
771.842	11947.34
772.178	12179.2
772.513	12181.91
772.849	12151.4
773.184	12244.73
773.519	12184.62
773.855	12154.12
774.19	12286.32
774.525	12327.67
774.86	12344.39
775.195	12436.59
775.53	12457.16
775.865	12449.02
776.2	12431.17
776.535	12451.51
776.87	12388.01
777.205	12410.83
777.539	12437.72
777.874	12554.33
778.209	12370.15
778.543	12453.54
778.878	12461.68
779.212	12525.63
779.547	12505.29
779.881	12489.47
780.215	12480.89
780.55	12533.54
780.884	12535.8
781.218	12505.07
781.552	12514.11
781.886	12542.35
782.22	12396.59
782.554	12421.23
782.888	12352.53
783.222	12428.01
783.556	12357.73
783.889	12368.35
784.223	12330.16
784.557	12312.98
784.89	12356.6
785.224	12318.86
785.557	12272.3
785.891	12327.9
786.224	12306.65
786.558	12364.05
786.891	12223.72
787.224	12080.9
787.557	12136.26
787.891	12119.77
788.224	12123.83
788.557	12268.01
788.89	12127.68
789.223	12150.5
789.556	12080.67
789.888	12127.45
790.221	12021.01
790.554	11990.05
790.887	12001.8
791.219	11997.06
791.552	11896.95
791.884	11909.83
792.217	11889.49
792.549	11847.46
792.882	11829.83
793.214	11745.54
793.546	11733.56
793.879	11737.18
794.211	11672.77
794.543	11637.52
794.875	11654.47
795.207	11734.92
795.539	11617.41
795.871	11612.66
796.203	11547.58
796.535	11435.72
796.867	11524.98
797.198	11406.56
797.53	11447.24
797.862	11441.82
798.193	11461.93
798.525	11391.42
798.856	11387.81
799.188	11247.02
799.519	11236.4
799.85	11212.22
800.182	11233.24
800.513	11258.77
800.844	11183.07
801.175	11180.81
801.506	11190.75
801.837	11086.12
802.168	11099.45
802.499	11076.18
802.83	11078.44
803.161	10960.47
803.491	11014.26
803.822	11016.29
804.153	10972.9
804.483	10914.6
804.814	10888.16
805.145	10803.42
805.475	10845.68
805.805	10809.07
806.136	10832.57
806.466	10823.53
806.796	10693.14
807.126	10734.94
807.457	10714.15
807.787	10723.19
808.117	10624.66
808.447	10690.88
808.777	10619.69
809.107	10554.16
809.436	10522.29
809.766	10545.57
810.096	10562.07
810.426	10536.53
810.755	10483.42
811.085	10441.62
811.414	10405.91
811.744	10309.64
812.073	10395.52
812.403	10383.54
812.732	10267.16
813.061	10275.07
813.39	10211.12
813.719	10249.31
814.049	10245.47
814.378	10230.78
814.707	10180.16
815.036	10199.36
815.365	10037.79
815.693	10007.28
816.022	10112.81
816.351	10054.06
816.68	9966.38
817.008	9950.11
817.337	9980.61
817.665	9904.23
817.994	9912.37
818.322	9915.08
818.651	9894.51
818.979	9877.11
819.307	9942.42
819.636	9854.97
819.964	9823.1
820.292	9869.88
820.62	9893.84
820.948	9851.8
821.276	9839.6
821.604	9741.07
821.932	9815.87
822.259	9770.22
822.587	9777.91
822.915	9797.12
823.243	9760.05
823.57	9777
823.898	9824.23
824.225	9817.23
824.553	9760.05
824.88	9823.33
825.207	9853.16
825.535	9828.53
825.862	9829.66
826.189	9783.33
826.516	9853.61
826.843	9829.2
827.17	9807.06
827.497	9798.92
827.824	9909.43
828.151	9850.45
828.478	9783.33
828.805	9932.48
829.131	9796.66
829.458	9812.93
829.785	9765.03
830.111	9781.75
830.438	9866.27
830.764	9791.01
831.09	9858.81
831.417	9727.51
831.743	9848.19
832.069	9820.84
832.395	9785.36
832.722	9771.35
833.048	9761.64
833.374	9827.4
833.7	9797.57
834.026	9750.34
834.351	9844.57
834.677	9769.77
835.003	9779.49
835.329	9762.54
835.654	9699.49
835.98	9644.58
836.306	9712.82
836.631	9666.95
836.956	9714.41
837.282	9645.93
837.607	9628.31
837.932	9703.11
838.258	9665.59
838.583	9623.79
838.908	9586.5
839.233	9544.69
839.558	9528.42
839.883	9522.55
840.208	9499.95
840.533	9500.4
840.858	9446.16
841.182	9504.02
841.507	9444.36
841.832	9434.64
842.156	9442.77
842.481	9421.98
842.805	9410.23
843.13	9392.61
843.454	9335.88
843.778	9272.16
844.103	9328.88
844.427	9284.36
844.751	9328.88
845.075	9272.16
845.399	9249.79
845.723	9144.25
846.047	9135.21
846.371	9105.61
846.695	9098.6
847.019	9048.66
847.343	8974.31
847.666	8983.8
847.99	8882.56
848.313	8888.89
848.637	8817.93
848.96	8846.18
849.284	8825.84
849.607	8806.41
849.931	8786.29
850.254	8686.41
850.577	8645.51
850.9	8615.23
851.223	8611.38
851.546	8518.28
851.869	8481.44
852.192	8556.47
852.515	8446.19
852.838	8394.67
853.161	8418.39
853.483	8448.22
853.806	8364.61
854.129	8307.44
854.451	8319.64
854.774	8305.4
855.096	8261.34
855.419	8204.61
855.741	8247.55
856.063	8189.93
856.385	8155.58
856.708	8072.41
857.03	8177.72
857.352	8094.11
857.674	8042.36
857.996	8037.16
858.318	7993.09
858.64	7985.64
858.961	7962.36
859.283	7918.29
859.605	7954.45
859.926	7970.04
860.248	7944.51
860.57	7886.66
860.891	7864.06
861.212	7859.54
861.534	7853.21
861.855	7772.08
862.176	7789.71
862.498	7780.45
862.819	7812.31
863.14	7772.99
863.461	7753.78
863.782	7708.13
864.103	7756.26
864.424	7687.11
864.745	7714.46
865.065	7710.16
865.386	7628.13
865.707	7612.77
866.027	7594.69
866.348	7615.48
866.668	7644.63
866.989	7603.95
867.309	7491.41
867.63	7542.03
867.95	7576.16
868.27	7544.29
868.59	7532.99
868.91	7499.32
869.23	7476.27
869.55	7427.23
869.87	7498.19
870.19	7468.36
870.51	7472.43
870.83	7463.17
871.15	7424.97
871.469	7424.75
871.789	7452.54
872.109	7374.35
872.428	7377.74
872.748	7474.24
873.067	7361.47
873.386	7397.4
873.706	7328.48
874.025	7290.06
874.344	7332.1
874.663	7316.5
874.982	7273.79
875.301	7347.69
875.62	7274.02
875.939	7238.31
876.258	7230.86
876.577	7234.7
876.896	7205.55
877.214	7243.51
877.533	7213.45
877.852	7162.61
878.17	7257.3
878.489	7210.06
878.807	7160.35
879.125	7119.9
879.444	7127.13
879.762	7114.02
880.08	7121.48
880.398	7008.49
880.716	7111.54
881.034	7067.92
881.352	7001.71
881.67	7000.35
881.988	7031.31
882.306	7015.72
882.624	6956.74
882.941	6925.33
883.259	6942.95
883.577	6871.77
883.894	6956.06
884.212	6940.02
884.529	6908.38
884.846	6817.98
885.164	6855.72
885.481	6860.24
885.798	6822.5
886.115	6775.05
886.432	6785.67
886.75	6742.73
887.067	6776.63
887.383	6715.16
887.7	6754.48
888.017	6710.19
888.334	6658.44
888.651	6692.79
888.967	6627.26
889.284	6639.91
889.6	6616.63
889.917	6568.27
890.233	6612.79
890.55	6519.24
890.866	6562.62
891.182	6539.8
891.498	6542.29
891.815	6489.18
892.131	6464.32
892.447	6442.63
892.763	6438.79
893.079	6442.18
893.395	6427.49
893.71	6382.97
894.026	6377.54
894.342	6402.63
894.657	6302.74
894.973	6333.48
895.289	6291.22
895.604	6307.04
895.92	6263.65
896.235	6180.26
896.55	6213.93
896.865	6176.42
897.181	6227.27
897.496	6229.75
897.811	6144.33
898.126	6138.91
898.441	6066.37
898.756	6043.09
899.071	6048.74
899.386	6015.07
899.7	6029.53
900.015	5980.94
900.33	5970.32
900.644	5915.64
900.959	5943.88
901.273	5919.93
901.588	5870.89
901.902	5888.52
902.216	5835.64
902.531	5775.98
902.845	5813.94
903.159	5760.61
903.473	5782.08
903.787	5710.67
904.101	5603.55
904.415	5679.48
904.729	5688.97
905.042	5620.95
905.356	5629.54
905.67	5668.18
905.984	5601.52
906.297	5602.88
906.611	5539.37
906.924	5529.88
907.237	5485.59
907.551	5499.6
907.864	5424.12
908.177	5482.65
908.491	5469.77
908.804	5372.37
909.117	5406.72
909.43	5325.14
909.743	5352.71
910.056	5329.66
910.368	5283.79
910.681	5272.04
910.994	5242.21
911.307	5192.72
911.619	5162.43
911.932	5194.75
912.244	5165.82
912.557	5150.68
912.869	5130.8
913.181	5121.31
913.494	5029.56
913.806	5056.45
914.118	5076.79
914.43	4990.24
914.742	5010.57
915.054	5017.58
915.366	4954.98
915.678	4976.45
915.99	4945.04
916.302	4912.95
916.613	4878.37
916.925	4874.31
917.236	4854.87
917.548	4825.04
917.859	4845.83
918.171	4801.54
918.482	4773.07
918.794	4769.68
919.105	4731.94
919.416	4717.25
919.727	4698.04
920.038	4681.77
920.349	4674.76
920.66	4684.93
920.971	4679.06
921.282	4593.41
921.593	4591.83
921.903	4571.72
922.214	4570.81
922.525	4514.09
922.835	4542.56
923.146	4517.03
923.456	4536.91
923.767	4493.75
924.077	4491.94
924.387	4412.62
924.697	4416.24
925.008	4379.18
925.318	4431.61
925.628	4381.21
925.938	4381.44
926.248	4327.88
926.558	4303.93
926.867	4333.08
927.177	4282.01
927.487	4258.5
927.796	4257.15
928.106	4249.92
928.416	4254.44
928.725	4234.78
929.034	4164.95
929.344	4194.32
929.653	4161.11
929.962	4145.51
930.271	4083.82
930.581	4114.78
930.89	4080.66
931.199	4049.7
931.508	4051.28
931.817	4060.77
932.125	4040.2
932.434	4016.02
932.743	3972.41
933.051	3973.99
933.36	3951.17
933.669	3920.43
933.977	3898.06
934.286	3929.25
934.594	3891.96
934.902	3845.86
935.21	3863.49
935.519	3864.62
935.827	3865.29
936.135	3774.9
936.443	3778.52
936.751	3783.04
937.059	3773.32
937.367	3754.34
937.674	3782.36
937.982	3771.51
938.29	3743.04
938.597	3727.44
938.905	3687.67
939.213	3675.92
939.52	3670.72
939.827	3645.41
940.135	3625.07
940.442	3590.05
940.749	3624.85
941.056	3616.94
941.363	3525.42
941.67	3546.43
941.977	3551.4
942.284	3523.83
942.591	3491.97
942.898	3456.27
943.205	3512.08
943.511	3517.28
943.818	3444.74
944.125	3437.51
944.431	3429.83
944.738	3462.59
945.044	3404.74
945.35	3406.32
945.657	3372.43
945.963	3349.83
946.269	3339.43
946.575	3320.45
946.881	3295.59
947.187	3288.36
947.493	3265.76
947.799	3287.23
948.105	3278.64
948.41	3205.65
948.716	3244.75
949.022	3231.86
949.327	3213.79
949.633	3184.41
949.938	3146.67
950.244	3174.24
950.549	3157.74
950.854	3126.78
951.16	3137.86
951.465	3082.26
951.77	3090.85
952.075	3065.77
952.38	3098.08
952.685	3089.04
952.99	3028.71
953.294	3022.38
953.599	3024.64
953.904	3012.89
954.209	3007.46
954.513	2951.65
954.818	2962.49
955.122	2964.98
955.426	2960.91
955.731	2936.28
956.035	2937.41
956.339	2910.52
956.643	2908.71
956.948	2885.66
957.252	2842.04
957.556	2847.92
957.86	2826
958.163	2842.5
958.467	2833.68
958.771	2797.07
959.075	2836.17
959.378	2792.78
959.682	2778.32
959.985	2774.48
960.289	2788.94
960.592	2761.14
960.896	2720.92
961.199	2748.26
961.502	2709.39
961.805	2720.92
962.108	2727.02
962.411	2661.71
962.714	2616.51
963.017	2654.7
963.32	2697.41
963.623	2628.49
963.926	2642.95
964.228	2590.98
964.531	2616.97
964.833	2572.67
965.136	2593.24
965.438	2546.01
965.741	2595.27
966.043	2557.53
966.345	2555.27
966.648	2519.57
966.95	2505.1
967.252	2495.84
967.554	2525.89
967.856	2483.18
968.158	2464.88
968.46	2452
968.761	2454.71
969.063	2440.47
969.365	2445.67
969.666	2432.56
969.968	2400.02
970.269	2386.24
970.571	2387.37
970.872	2393.92
971.174	2362.73
971.475	2360.02
971.776	2372.45
972.077	2347.59
972.378	2324.54
972.679	2345.79
972.98	2329.29
973.281	2330.19
973.582	2306.46
973.883	2332
974.183	2294.71
974.484	2280.48
974.785	2262.85
975.085	2239.35
975.386	2256.3
975.686	2204.77
975.986	2231.89
976.287	2205.68
976.587	2186.92
976.887	2184.66
977.187	2168.16
977.487	2202.29
977.787	2140.14
978.087	2142.63
978.387	2124.55
978.687	2118.67
978.987	2128.62
979.286	2130.2
979.586	2129.97
979.885	2129.07
980.185	2060.6
980.484	2085.91
980.784	2075.74
981.083	2054.95
981.382	2059.69
981.682	2030.54
981.981	2042.29
982.28	2028.28
982.579	2016.98
982.878	2016.75
983.177	2003.87
983.475	1984.44
983.774	1985.12
984.073	1962.97
984.372	1964.1
984.67	1950.99
984.969	1950.32
985.267	1960.49
985.566	1931.33
985.864	1970.43
986.162	1934.5
986.461	1918.23
986.759	1928.62
987.057	1865.57
987.355	1870.77
987.653	1928.85
987.951	1883.88
988.249	1853.14
988.547	1864.44
988.844	1845.69
989.142	1840.94
989.44	1862.86
989.737	1803.88
990.035	1807.04
990.332	1810.21
990.63	1800.49
990.927	1807.95
991.224	1784.67
991.521	1767.27
991.819	1789.42
992.116	1777.89
992.413	1783.77
992.71	1737.67
993.006	1753.26
993.303	1746.25
993.6	1706.93
993.897	1740.15
994.193	1723.2
994.49	1682.07
994.787	1680.04
995.083	1721.4
995.379	1707.38
995.676	1682.75
995.972	1668.52
996.268	1629.65
996.565	1628.97
996.861	1629.65
997.157	1632.36
997.453	1611.34
997.749	1609.76
998.044	1649.53
998.34	1576.54
998.636	1632.58
998.932	1587.61
999.227	1571.34
999.523	1567.28
999.818	1551.23
1000.114	1571.57
1000.409	1548.52
1000.704	1540.38
1001	1555.75
1001.295	1494.28
1001.59	1484.34
1001.885	1548.52
1002.18	1494.73
1002.475	1515.53
1002.77	1470.33
1003.065	1470.33
1003.359	1489.31
1003.654	1464.45
1003.949	1471.68
1004.243	1452.25
1004.538	1445.92
1004.832	1421.52
1005.127	1448.86
1005.421	1456.32
1005.715	1426.71
1006.009	1422.65
1006.304	1394.62
1006.598	1384.23
1006.892	1377.9
1007.186	1375.42
1007.48	1382.2
1007.773	1383.55
1008.067	1383.1
1008.361	1332.48
1008.655	1346.04
1008.948	1334.74
1009.242	1345.13
1009.535	1324.8
1009.829	1312.59
1010.122	1299.03
1010.415	1305.36
1010.708	1314.85
1011.001	1288.19
1011.295	1291.8
1011.588	1268.07
1011.881	1299.03
1012.173	1283.44
1012.466	1266.94
1012.759	1276.21
1013.052	1264.68
1013.344	1224.01
1013.637	1236.89
1013.93	1229.66
1014.222	1212.93
1014.514	1221.3
1014.807	1187.4
1015.099	1182.88
1015.391	1214.06
1015.683	1192.82
1015.976	1192.37
1016.268	1149.89
1016.56	1152.14
1016.851	1164.8
1017.143	1158.92
1017.435	1164.8
1017.727	1140.39
1018.018	1122.54
1018.31	1126.83
1018.602	1117.12
1018.893	1118.02
1019.185	1083.22
1019.476	1113.5
1019.767	1113.73
1020.058	1092.94
1020.35	1065.14
1020.641	1066.5
1020.932	1071.47
1021.223	1050.68
1021.514	1062.43
1021.804	1081.64
1022.095	1023.33
1022.386	1041.87
1022.677	1043.67
1022.967	1026.5
1023.258	1015.65
1023.548	1006.61
1023.839	1012.04
1024.129	1010.23
1024.419	982.43
1024.709	1003.9
1025	973.84
1025.29	969.1
1025.58	969.32
1025.87	971.36
1026.16	946.27
1026.449	941.3
1026.739	942.88
1027.029	951.7
1027.319	935.88
1027.608	939.72
1027.898	909.44
1028.187	907.41
1028.477	908.31
1028.766	903.34
1029.055	899.95
1029.344	891.81
1029.634	908.08
1029.923	893.62
1030.212	908.54
1030.501	890.46
1030.79	858.59
1031.078	904.92
1031.367	881.19
1031.656	861.76
1031.945	870.8
1032.233	862.21
1032.522	840.06
1032.81	838.48
1033.099	856.56
1033.387	830.35
1033.675	838.03
1033.963	804.58
1034.251	807.52
1034.54	818.14
1034.828	809.78
1035.116	788.99
1035.403	795.32
1035.691	790.35
1035.979	803
1036.267	786.5
1036.554	763
1036.842	778.82
1037.129	764.13
1037.417	771.59
1037.704	753.74
1037.992	743.12
1038.279	776.79
1038.566	744.92
1038.853	744.92
1039.14	744.92
