Data from hue_130_FLMS001491_00027.txt Node
Date: Tue Feb 07 16:57:23 GMT 2017
User: dcchb
Spectrometer: FLMS00149
Trigger mode: 0
Integration Time (sec): 2.000000E-2
Scans to average: 10
Electric dark correction enabled: true
Nonlinearity correction enabled: false
Boxcar width: 0
XAxis mode: Wavelengths
Number of Pixels in Spectrum: 2048
>>>>>Begin Spectral Data<<<<<
341.393	-9.67
341.776	-9.67
342.16	-9.67
342.543	-52.16
342.927	-63.23
343.31	-68.66
343.693	-68.2
344.077	-69.11
344.46	-63.91
344.843	-56.23
345.226	-56.68
345.61	-21.65
345.993	-20.52
346.376	8.4
346.759	0.27
347.142	22.41
347.525	50.66
347.908	59.25
348.291	76.88
348.674	105.8
349.057	101.28
349.44	112.36
349.823	130.43
350.206	163.65
350.588	200.94
350.971	214.73
351.354	231
351.737	225.57
352.119	255.18
352.502	249.98
352.884	294.5
353.267	280.49
353.65	279.13
354.032	297.21
354.414	323.65
354.797	325.91
355.179	331.11
355.562	316.87
355.944	292.69
356.326	343.31
356.709	341.05
357.091	331.33
357.473	335.85
357.855	334.72
358.238	346.93
358.62	359.81
359.002	357.1
359.384	340.15
359.766	346.7
360.148	335.17
360.53	344.21
360.912	345.34
361.294	335.63
361.676	312.35
362.057	332.46
362.439	323.65
362.821	321.62
363.203	316.64
363.584	317.32
363.966	320.03
364.348	315.74
364.729	318.23
365.111	315.74
365.493	280.94
365.874	325.23
366.256	313.71
366.637	309.86
367.019	326.36
367.4	305.35
367.781	313.71
368.163	327.27
368.544	315.29
368.925	325.01
369.306	318.23
369.688	310.54
370.069	296.76
370.45	293.59
370.831	304.89
371.212	324.33
371.593	329.53
371.974	304.22
372.355	303.09
372.736	296.53
373.117	322.75
373.498	324.33
373.879	318.68
374.26	315.74
374.641	297.21
375.021	329.53
375.402	323.42
375.783	329.3
376.163	341.05
376.544	325.01
376.925	307.83
377.305	335.85
377.686	328.62
378.066	326.59
378.447	336.08
378.827	313.93
379.208	325.68
379.588	343.08
379.968	316.19
380.349	340.15
380.729	316.42
381.109	337.66
381.489	351.22
381.87	330.43
382.25	358.9
382.63	333.37
383.01	353.48
383.39	347.15
383.77	341.28
384.15	353.03
384.53	339.24
384.91	365.46
385.29	366.81
385.67	348.73
386.049	361.61
386.429	347.83
386.809	355.06
387.189	356.42
387.568	364.78
387.948	359.58
388.328	345.8
388.707	372.01
389.087	373.37
389.466	351.9
389.846	364.1
390.225	349.41
390.605	381.95
390.984	377.66
391.363	390.54
391.743	397.32
392.122	372.24
392.501	375.17
392.881	375.85
393.26	371.33
393.639	387.15
394.018	386.47
394.397	398.45
394.776	367.49
395.155	379.24
395.534	384.89
395.913	390.31
396.292	387.83
396.671	395.29
397.05	392.8
397.429	407.94
397.808	393.48
398.186	411.11
398.565	388.28
398.944	388.96
399.323	388.28
399.701	406.36
400.08	402.29
400.458	391.44
400.837	399.13
401.215	418.34
401.594	406.81
401.972	408.85
402.351	425.12
402.729	425.34
403.107	417.43
403.486	415.4
403.864	414.04
404.242	421.5
404.62	432.57
404.999	420.82
405.377	419.24
405.755	444.1
406.133	441.61
406.511	438.67
406.889	440.48
407.267	450.65
407.645	463.53
408.023	468.28
408.401	450.88
408.779	464.66
409.156	447.04
409.534	446.36
409.912	456.53
410.29	479.8
410.667	458.34
411.045	462.4
411.422	480.48
411.8	491.55
412.178	490.42
412.555	485
412.933	489.97
413.31	478.67
413.687	485.45
414.065	493.81
414.442	504.44
414.819	497.2
415.197	528.84
415.574	529.29
415.951	533.81
416.328	524.1
416.705	504.66
417.082	534.94
417.46	519.35
417.837	533.81
418.214	531.55
418.591	538.56
418.967	541.72
419.344	551.44
419.721	539.01
420.098	542.18
420.475	567.26
420.852	577.65
421.228	557.54
421.605	574.04
421.982	574.49
422.358	583.76
422.735	586.24
423.111	570.42
423.488	585.56
423.864	593.47
424.241	611.55
424.617	584.21
424.994	608.16
425.37	608.61
425.746	617.65
426.123	609.52
426.499	616.3
426.875	615.39
427.251	619.46
427.627	635.05
428.003	631.44
428.379	637.31
428.756	645.9
429.132	658.33
429.507	676.18
429.883	660.36
430.259	700.59
430.635	685.67
431.011	687.03
431.387	706.92
431.763	680.7
432.138	691.55
432.514	685.22
432.89	721.83
433.265	733.36
433.641	729.74
434.016	734.03
434.392	738.55
434.767	766.12
435.143	753.02
435.518	767.48
435.894	753.69
436.269	790.3
436.644	785.78
437.02	787.37
437.395	777.65
437.77	808.16
438.145	824.88
438.52	804.32
438.895	798.21
439.271	828.5
439.646	837.53
440.021	814.94
440.395	838.89
440.77	837.08
441.145	869.17
441.52	860.36
441.895	859.45
442.27	876.86
442.645	858.55
443.019	885.67
443.394	898.1
443.769	872.79
444.143	900.13
444.518	916.4
444.892	900.58
445.267	900.58
445.641	922.96
446.016	944.42
446.39	916.18
446.764	916.63
447.139	915.27
447.513	941.94
447.887	948.49
448.262	955.95
448.636	954.14
449.01	968.6
449.384	988.04
449.758	967.93
450.132	976.51
450.506	986.23
450.88	1009.73
451.254	1031.43
451.628	1028.26
452.002	1027.13
452.376	1041.37
452.75	1061.03
453.123	1040.24
453.497	1058.55
453.871	1078.21
454.244	1094.7
454.618	1111.65
454.992	1111.88
455.365	1138.32
455.739	1155.27
456.112	1154.14
456.486	1185.55
456.859	1173.8
457.232	1202.95
457.606	1219.9
457.979	1211.99
458.352	1245.43
458.725	1258.77
459.099	1266.22
459.472	1275.26
459.845	1303.51
460.218	1318.2
460.591	1304.41
460.964	1327.24
461.337	1361.36
461.71	1374.02
462.083	1386.22
462.456	1390.97
462.829	1392.32
463.201	1432.55
463.574	1462.83
463.947	1431.64
464.32	1498.53
464.692	1522.04
465.065	1528.59
465.438	1530.4
465.81	1570.62
466.183	1604.29
466.555	1628.02
466.928	1647.46
467.3	1660.11
467.672	1688.13
468.045	1734.23
468.417	1733.33
468.789	1755.25
469.161	1790.5
469.534	1820.79
469.906	1867.11
470.278	1899.88
470.65	1916.15
471.022	1945.08
471.394	1990.72
471.766	2054.68
472.138	2045.64
472.51	2122.02
472.882	2155.01
473.253	2213.09
473.625	2251.06
473.997	2325.63
474.369	2341.45
474.74	2362.01
475.112	2423.48
475.484	2479.75
475.855	2530.15
476.227	2593.42
476.598	2686.53
476.97	2710.71
477.341	2805.62
477.713	2850.36
478.084	2899.18
478.455	3016.46
478.827	3065.72
479.198	3178.94
479.569	3190.01
479.94	3356.11
480.311	3347.52
480.682	3494.41
481.053	3621.19
481.424	3714.97
481.795	3775.54
482.166	3896.21
482.537	3982.31
482.908	4108.63
483.279	4191.34
483.65	4359.7
484.021	4470.89
484.391	4543.65
484.762	4657.32
485.133	4723.76
485.503	4862.51
485.874	5043.75
486.244	5127.14
486.615	5267.02
486.985	5355.61
487.356	5614.36
487.726	5660.01
488.097	5860
488.467	5884.63
488.837	6051.63
489.207	6185.42
489.578	6390.38
489.948	6526.42
490.318	6667.66
490.688	6702.01
491.058	6864.95
491.428	7069.69
491.798	7162.79
492.168	7405.72
492.538	7541.76
492.908	7672.38
493.278	7835.54
493.648	7932.26
494.017	8134.97
494.387	8245.02
494.757	8272.37
495.126	8482.98
495.496	8593.26
495.866	8760.72
496.235	8862.18
496.605	9071.44
496.974	9159.8
497.344	9287.48
497.713	9442.96
498.082	9564.31
498.452	9695.15
498.821	9817.86
499.19	9869.16
499.559	9968.82
499.928	10121.13
500.298	10178.08
500.667	10393.22
501.036	10451.97
501.405	10555.25
501.774	10633.89
502.143	10652.64
502.512	10858.97
502.88	10954.56
503.249	11015.35
503.618	11116.81
503.987	11210.82
504.356	11342.57
504.724	11408.56
505.093	11436.58
505.462	11528.78
505.83	11589.34
506.199	11798.6
506.567	11879.96
506.936	11918.15
507.304	12023.91
507.672	12165.37
508.041	12152.94
508.409	12307.74
508.777	12381.64
509.145	12484.23
509.514	12534.18
509.882	12590.22
510.25	12669.99
510.618	12702.08
510.986	12761.51
511.354	12885.81
511.722	12984.33
512.09	13087.61
512.458	13005.8
512.826	13160.15
513.193	13157.89
513.561	13268.39
513.929	13286.02
514.297	13479.91
514.664	13525.11
515.032	13517.2
515.4	13643.75
515.767	13643.75
516.135	13706.12
516.502	13577.09
516.869	13831.77
517.237	13860.47
517.604	13730.3
517.972	13875.61
518.339	14022.27
518.706	14008.94
519.073	14043.06
519.44	14020.69
519.808	14173
520.175	14172.1
520.542	14304.98
520.909	14302.04
521.276	14295.94
521.643	14310.63
522.009	14407.12
522.376	14467.68
522.743	14547
523.11	14610.51
523.477	14674.23
523.843	14699.99
524.21	14812.76
524.577	14854.57
524.943	14913.55
525.31	14984.73
525.676	14906.32
526.043	15077.61
526.409	15012.53
526.776	15120.77
527.142	15215.69
527.508	15104.96
527.874	15167.1
528.241	15277.15
528.607	15236.7
528.973	15329.58
529.339	15230.38
529.705	15309.24
530.071	15425.85
530.437	15380.88
530.803	15377.72
531.169	15417.04
531.535	15472.63
531.901	15358.06
532.267	15431.28
532.632	15326.65
532.998	15387.43
533.364	15441.22
533.73	15427.66
534.095	15522.8
534.461	15410.48
534.826	15512.18
535.192	15468.34
535.557	15527.09
535.923	15442.12
536.288	15501.1
536.653	15431.28
537.019	15410.48
537.384	15341.79
537.749	15342.24
538.114	15299.08
538.479	15317.15
538.845	15321.45
539.21	15230.6
539.575	15211.85
539.94	15176.82
540.305	15200.32
540.67	15190.6
541.034	15119.19
541.399	15082.58
541.764	15120.32
542.129	15116.26
542.494	15114.67
542.858	15100.66
543.223	15045.75
543.587	14995.35
543.952	14951.97
544.316	14936.37
544.681	14870.61
545.045	15016.14
545.41	14913.77
545.774	14889.14
546.138	14836.49
546.503	14798.98
546.867	14736.83
547.231	14831.06
547.595	14778.86
547.959	14787.45
548.324	14662.26
548.688	14659.09
549.052	14559.89
549.416	14691.86
549.779	14538.64
550.143	14561.69
550.507	14603.95
550.871	14536.38
551.235	14478.76
551.599	14553.78
551.962	14398.76
552.326	14424.97
552.689	14512.2
553.053	14353.11
553.417	14345.88
553.78	14491.86
554.143	14325.32
554.507	14396.05
554.87	14393.34
555.234	14455.71
555.597	14341.59
555.96	14338.65
556.323	14276.5
556.686	14261.81
557.05	14316.73
557.413	14292.77
557.776	14286.9
558.139	14337.29
558.502	14266.11
558.865	14250.52
559.228	14205.09
559.59	14298.42
559.953	14238.09
560.316	14428.59
560.679	14296.16
561.041	14250.06
561.404	14361.25
561.767	14412.32
562.129	14311.76
562.492	14435.37
562.854	14396.5
563.217	14322.6
563.579	14365.09
563.941	14434.01
564.304	14337.97
564.666	14382.26
565.028	14461.36
565.39	14491.86
565.753	14471.3
566.115	14476.27
566.477	14468.81
566.839	14526.44
567.201	14553.56
567.563	14549.94
567.925	14610.51
568.287	14706.32
568.648	14635.59
569.01	14643.05
569.372	14634.69
569.734	14621.58
570.095	14757.39
570.457	14759.43
570.819	14660.45
571.18	14664.52
571.542	14757.85
571.903	14655.93
572.265	14819.54
572.626	14827.68
572.987	14809.37
573.349	14895.7
573.71	14857.96
574.071	14952.42
574.432	14922.59
574.794	14927.56
575.155	14904.96
575.516	14802.59
575.877	14932.08
576.238	14886.43
576.599	15003.26
576.96	14967.78
577.32	14895.24
577.681	14936.15
578.042	14962.36
578.403	15006.65
578.763	14911.29
579.124	15023.6
579.485	15044.84
579.845	15034.68
580.206	15013.43
580.566	14893.44
580.927	14972.08
581.287	15051.62
581.648	14870.61
582.008	15060.21
582.368	14968.91
582.728	15003.04
583.089	15006.65
583.449	14953.1
583.809	14943.38
584.169	14983.6
584.529	14978.18
584.889	15017.95
585.249	14966.65
585.609	14889.82
585.969	15002.13
586.329	14847.34
586.688	15009.37
587.048	14861.8
587.408	14877.17
587.768	14807.79
588.127	14834.23
588.487	14856.6
588.846	14801.69
589.206	14772.76
589.565	14824.74
589.925	14739.09
590.284	14815.02
590.643	14833.1
591.003	14737.06
591.362	14874.68
591.721	14763.95
592.08	14760.78
592.44	14865.87
592.799	14837.62
593.158	14745.19
593.517	14775.47
593.876	14760.78
594.235	14689.83
594.593	14694.12
594.952	14839.65
595.311	14730.95
595.67	14674.46
596.029	14797.39
596.387	14843.27
596.746	14844.62
597.104	14803.27
597.463	14723.05
597.822	14737.96
598.18	14640.34
598.538	14692.31
598.897	14799.43
599.255	14590.39
599.613	14749.94
599.972	14714.01
600.33	14731.18
600.688	14600.79
601.046	14806.66
601.404	14843.04
601.762	14734.12
602.12	14826.09
602.478	14792.42
602.836	14760.11
603.194	14696.61
603.552	14675.59
603.91	14680.56
604.268	14764.17
604.625	14690.05
604.983	14787
605.341	14660.45
605.698	14710.62
606.056	14754.68
606.413	14780.67
606.771	14796.49
607.128	14735.25
607.485	14716.72
607.843	14690.73
608.2	14754.23
608.557	14816.83
608.914	14785.19
609.272	14850.95
609.629	14805.08
609.986	14858.41
610.343	14778.86
610.7	14952.19
611.057	14852.31
611.414	14881.23
611.771	14798.75
612.127	14903.38
612.484	14820.44
612.841	14947.22
613.198	14846.88
613.554	14954.45
613.911	15008.69
614.267	14957.84
614.624	14971.4
614.98	14979.08
615.337	15043.94
615.693	15023.83
616.05	14919.42
616.406	15074.22
616.762	15066.76
617.118	15031.96
617.475	15024.73
617.831	15082.58
618.187	15028.57
618.543	15118.06
618.899	15134.79
619.255	15162.36
619.611	15057.5
619.967	15112.87
620.323	15216.14
620.678	15166.88
621.034	15115.58
621.39	15175.91
621.746	15052.3
622.101	15276.7
622.457	15121.23
622.812	15185.86
623.168	15224.73
623.523	15185.63
623.879	15229.02
624.234	15098.4
624.589	15242.58
624.945	15170.72
625.3	15230.15
625.655	15210.94
626.01	15224.73
626.365	15227.89
626.72	15135.24
627.075	15170.26
627.43	15205.07
627.785	15089.59
628.14	15130.49
628.495	15212.75
628.85	15203.71
629.205	15150.83
629.559	15084.17
629.914	15078.29
630.269	15012.08
630.623	15043.94
630.978	15047.78
631.332	15053.43
631.687	15098.18
632.041	15048.01
632.396	14995.35
632.75	14957.39
633.104	14974.79
633.459	15026.54
633.813	15002.81
634.167	14897.28
634.521	14987.44
634.875	14955.36
635.229	14850.5
635.583	14918.52
635.937	14870.16
636.291	14817.73
636.645	14825.19
636.999	14736.38
637.352	14837.84
637.706	14641.24
638.06	14822.7
638.413	14703.84
638.767	14629.94
639.121	14658.41
639.474	14598.98
639.828	14665.19
640.181	14621.8
640.534	14662.48
640.888	14578.64
641.241	14676.27
641.594	14597.85
641.947	14661.58
642.301	14596.04
642.654	14604.86
643.007	14630.39
643.36	14578.42
643.713	14530.96
644.066	14580.22
644.419	14504.75
644.771	14446.22
645.124	14353.34
645.477	14275.83
645.83	14289.38
646.182	14166.68
646.535	14093.68
646.888	14172.1
647.24	13979.79
647.593	14072.89
647.945	14052.55
648.298	13984.08
648.65	13935.27
649.002	14033.8
649.355	14002.39
649.707	14028.37
650.059	14088.94
650.411	14263.4
650.763	14278.54
651.115	14333.22
651.467	14403.51
651.819	14324.19
652.171	14301.59
652.523	14307.69
652.875	14374.35
653.227	14275.15
653.578	14304.3
653.93	14354.92
654.282	14241.93
654.633	14233.57
654.985	14297.75
655.337	14362.15
655.688	14370.06
656.039	14375.03
656.391	14253.45
656.742	14297.29
657.094	14347.46
657.445	14389.72
657.796	14358.08
658.147	14328.93
658.498	14340.68
658.849	14388.14
659.2	14346.33
659.551	14251.87
659.902	14467.91
660.253	14363.05
660.604	14415.03
660.955	14362.38
661.306	14459.1
661.656	14433.56
662.007	14455.93
662.358	14411.64
662.708	14463.16
663.059	14398.76
663.409	14236.5
663.76	14403.73
664.11	14368.25
664.461	14423.17
664.811	14418.65
665.161	14385.43
665.511	14337.52
665.862	14422.71
666.212	14484.41
666.562	14436.5
666.912	14370.06
667.262	14335.71
667.612	14346.11
667.962	14400.12
668.312	14405.99
668.662	14384.97
669.011	14332.55
669.361	14321.47
669.711	14333.68
670.06	14322.38
670.41	14375.48
670.76	14370.96
671.109	14378.65
671.459	14345.65
671.808	14331.19
672.157	14363.05
672.507	14288.03
672.856	14299.33
673.205	14320.8
673.554	14364.41
673.904	14270.85
674.253	14363.05
674.602	14222.72
674.951	14143.4
675.3	13982.5
675.649	14245.32
675.998	14212.32
676.346	14274.47
676.695	14219.1
677.044	14071.99
677.393	14212.78
677.741	14180.69
678.09	14116.96
678.438	14051.42
678.787	14211.87
679.135	14206.22
679.484	14017.3
679.832	14112.44
680.181	13933.01
680.529	14032.89
680.877	13946.57
681.225	13877.19
681.573	13947.7
681.922	13875.16
682.27	13843.97
682.618	13813.92
682.966	13789.96
683.314	13807.14
683.661	13826.8
684.009	13715.84
684.357	13680.13
684.705	13629.29
685.053	13713.81
685.4	13593.36
685.748	13567.37
686.095	13547.26
686.443	13492.12
686.79	13523.98
687.138	13515.39
687.485	13445.56
687.832	13426.81
688.18	13475.62
688.527	13337.54
688.874	13259.13
689.221	13286.7
689.568	13257.55
689.915	13250.99
690.262	13210.54
690.609	13210.77
690.956	13071.56
691.303	13033.6
691.65	12940.72
691.997	12995.86
692.344	12950.66
692.69	12893.94
693.037	12798.35
693.383	12729.65
693.73	12808.52
694.077	12714.74
694.423	12655.98
694.769	12655.3
695.116	12584.57
695.462	12547.06
695.808	12539.37
696.155	12514.97
696.501	12472.48
696.847	12367.63
697.193	12395.65
697.539	12377.12
697.885	12370.56
698.231	12245.37
698.577	12232.49
698.923	12228.65
699.269	12134.64
699.614	12041.08
699.96	12014.87
700.306	12093.06
700.651	11967.64
700.997	11871.82
701.342	11938.71
701.688	11836.12
702.033	11744.37
702.379	11796.79
702.724	11771.03
703.069	11768.77
703.415	11646.06
703.76	11701.43
704.105	11625.95
704.45	11502.56
704.795	11518.38
705.14	11446.97
705.485	11416.01
705.83	11286.3
706.175	11319.97
706.52	11371.04
706.865	11327.2
707.209	11265.51
707.554	11234.1
707.899	11268.9
708.243	11212.63
708.588	11108.22
708.932	11091.05
709.277	11056.02
709.621	11063.25
709.966	11085.85
710.31	10952.52
710.654	10911.85
710.998	10952.75
711.342	10998.17
711.687	10826.88
712.031	10835.24
712.375	10780.32
712.719	10861.68
713.063	10718.18
713.407	10811.28
713.75	10795.69
714.094	10713.21
714.438	10710.5
714.782	10654.45
715.125	10603.15
715.469	10702.59
715.812	10594.57
716.156	10605.64
716.499	10559.09
716.843	10528.81
717.186	10467.79
717.53	10494.46
717.873	10529.93
718.216	10453.1
718.559	10383.27
718.902	10358.19
719.246	10381.24
719.589	10344.63
719.932	10335.14
720.275	10317.96
720.617	10332.88
720.96	10348.92
721.303	10322.93
721.646	10261.92
721.989	10268.25
722.331	10279.32
722.674	10241.36
723.016	10315.93
723.359	10268.92
723.701	10253.11
724.044	10202.49
724.386	10239.55
724.729	10209.04
725.071	10217.63
725.413	10192.99
725.755	10224.63
726.097	10116.84
726.439	10119.1
726.782	10087.91
727.124	10147.8
727.465	10074.81
727.807	10069.38
728.149	10052.66
728.491	10112.54
728.833	10082.94
729.175	10097.4
729.516	10069.16
729.858	10062.38
730.199	10088.59
730.541	10009.5
730.882	9986.67
731.224	10121.81
731.565	10007.01
731.906	9964.98
732.248	9964.3
732.589	10021.7
732.93	9953.23
733.271	9964.75
733.612	9976.28
733.953	9988.71
734.294	9993.68
734.635	9948.48
734.976	10020.57
735.317	9928.82
735.658	9934.02
735.999	9991.87
736.339	9988.48
736.68	10098.76
737.021	10027.8
737.361	9993.23
737.702	10006.78
738.042	9941.48
738.383	9999.1
738.723	10056.5
739.063	9990.51
739.404	10075.71
739.744	10032.09
740.084	10028.03
740.424	10118.65
740.764	10087.91
741.104	10102.15
741.444	10019.89
741.784	10108.25
742.124	10165.88
742.464	10173.11
742.804	10093.56
743.143	10155.71
743.483	10198.87
743.823	10107.35
744.162	10201.58
744.502	10292.43
744.841	10231.41
745.181	10315.03
745.52	10306.66
745.86	10393.89
746.199	10435.02
746.538	10379.66
746.877	10523.83
747.216	10529.03
747.556	10630.72
747.895	10615.36
748.234	10626.88
748.573	10650.61
748.911	10673.89
749.25	10801.57
749.589	10809.25
749.928	10926.31
750.267	11078.4
750.605	11064.38
750.944	11160.88
751.283	11191.39
751.621	11303.02
751.96	11268.9
752.298	11466.63
752.636	11498.95
752.975	11678.61
753.313	11688.55
753.651	11915.44
753.989	11966.06
754.327	12015.77
754.666	12084.24
755.004	12287.85
755.342	12389.55
755.679	12557.23
756.017	12586.83
756.355	12804.45
756.693	12948.18
757.031	12998.12
757.368	13193.59
757.706	13316.53
758.044	13475.17
758.381	13601.49
758.719	13711.32
759.056	13947.25
759.394	14113.57
759.731	14120.8
760.068	14325.77
760.405	14467.68
760.743	14661.35
761.08	14824.29
761.417	14989.48
761.754	15140.89
762.091	15215.24
762.428	15466.75
762.765	15417.49
763.102	15799.63
763.438	15867.87
763.775	16053.86
764.112	16213.85
764.449	16306.96
764.785	16474.64
765.122	16619.27
765.458	16619.04
765.795	16831.46
766.131	17060.16
766.467	17134.73
766.804	17190.1
767.14	17352.35
767.476	17415.86
767.812	17570.43
768.148	17776.75
768.485	17789.41
768.821	17878.22
769.157	18068.27
769.492	18241.37
769.828	18210.64
770.164	18276.17
770.5	18387.81
770.836	18563.4
771.171	18595.71
771.507	18696.27
771.842	18698.99
772.178	18759.78
772.513	18886.33
772.849	18959.32
773.184	19044.29
773.519	19130.16
773.855	19108.69
774.19	19093.55
774.525	19193.44
774.86	19360.89
775.195	19355.69
775.53	19445.86
775.865	19415.8
776.2	19371.74
776.535	19357.73
776.87	19448.12
777.205	19479.08
777.539	19480.21
777.874	19588.68
778.209	19451.51
778.543	19492.41
778.878	19493.99
779.212	19469.81
779.547	19547.55
779.881	19635.46
780.215	19592.3
780.55	19603.37
780.884	19552.75
781.218	19672.07
781.552	19598.62
781.886	19589.13
782.22	19458.51
782.554	19639.75
782.888	19544.16
783.222	19401.34
783.556	19445.18
783.889	19501.9
784.223	19230.95
784.557	19437.05
784.89	19430.04
785.224	19332.87
785.557	19333.77
785.891	19185.07
786.224	19312.3
786.558	19326.77
786.891	19196.83
787.224	19185.07
787.557	19068.02
787.891	19171.74
788.224	19165.64
788.557	19189.37
788.89	19110.27
789.223	19014.01
789.556	18992.31
789.888	18956.83
790.221	18926.78
790.554	18804.29
790.887	18884.29
791.219	18753.22
791.552	18865.54
791.884	18652.21
792.217	18716.39
792.549	18650.17
792.882	18508.71
793.214	18568.14
793.546	18522.27
793.879	18454.92
794.211	18411.76
794.543	18496.96
794.875	18402.04
795.207	18435.49
795.539	18340.8
795.871	18398.43
796.203	18256.74
796.535	18106.46
796.867	18060.13
797.198	18056.29
797.53	18073.24
797.862	17981.04
798.193	18044.99
798.525	17891.55
798.856	17935.16
799.188	17725
799.519	17670.76
799.85	17683.87
800.182	17664.44
800.513	17655.62
800.844	17512.8
801.175	17560.71
801.506	17558.9
801.837	17507.83
802.168	17478.9
802.499	17433.03
802.83	17360.26
803.161	17324.78
803.491	17306.93
803.822	17372.92
804.153	17228.74
804.483	17103.1
804.814	16992.36
805.145	17095.64
805.475	16990.78
805.805	16918.92
806.136	17063.32
806.466	16947.39
806.796	16895.64
807.126	16739.49
807.457	16736.78
807.787	16811.13
808.117	16726.61
808.447	16615.88
808.777	16664.91
809.107	16642.32
809.436	16546.95
809.766	16620.85
810.096	16531.81
810.426	16414.53
810.755	16524.35
811.085	16344.47
811.414	16431.47
811.744	16234.64
812.073	16335.43
812.403	16329.78
812.732	16163.01
813.061	16224.47
813.39	16101.09
813.719	16088.21
814.049	16194.19
814.378	16141.31
814.707	16014.54
815.036	16003.69
815.365	15839.85
815.693	15857.48
816.022	15865.61
816.351	15767.54
816.68	15643.25
817.008	15824.49
817.337	15597.15
817.665	15624.04
817.994	15674.88
818.322	15563.7
818.651	15588.56
818.979	15504.72
819.307	15601.44
819.636	15419.75
819.964	15465.17
820.292	15513.53
820.62	15449.13
820.948	15386.08
821.276	15388.56
821.604	15387.66
821.932	15394.44
822.259	15427.21
822.587	15397.15
822.915	15259.08
823.243	15518.05
823.57	15379.52
823.898	15318.06
824.225	15326.65
824.553	15394.44
824.88	15383.37
825.207	15425.63
825.535	15371.84
825.862	15457.04
826.189	15311.05
826.516	15368.45
826.843	15522.12
827.17	15418.17
827.497	15381.56
827.824	15375.46
828.151	15477.15
828.478	15427.66
828.805	15433.31
829.131	15427.66
829.458	15386.08
829.785	15281.45
830.111	15348.57
830.438	15423.37
830.764	15506.98
831.09	15518.05
831.417	15244.61
831.743	15382.69
832.069	15337.27
832.395	15276.48
832.722	15296.82
833.048	15290.04
833.374	15365.74
833.7	15228.79
834.026	15222.24
834.351	15256.59
834.677	15205.97
835.003	15201.68
835.329	15229.7
835.654	15157.16
835.98	15079.87
836.306	15288
836.631	15178.85
836.956	15161.23
837.282	15230.83
837.607	15137.5
837.932	15016.14
838.258	15087.56
838.583	15050.72
838.908	14975.92
839.233	15004.85
839.558	14937.28
839.883	15031.96
840.208	14855.92
840.533	14895.24
840.858	14883.04
841.182	14862.93
841.507	14769.15
841.832	14723.05
842.156	14689.15
842.481	14715.81
842.805	14664.97
843.13	14657.06
843.454	14550.17
843.778	14565.08
844.103	14556.04
844.427	14450.51
844.751	14475.37
845.075	14512.2
845.399	14410.06
845.723	14349.04
846.047	14348.14
846.371	14250.52
846.695	14237.41
847.019	14127.13
847.343	14087.13
847.666	13980.24
847.99	13965.55
848.313	13956.06
848.637	13864.54
848.96	13812.56
849.284	13755.39
849.607	13687.37
849.931	13691.66
850.254	13554.94
850.577	13550.19
850.9	13491.67
851.223	13519.91
851.546	13323.76
851.869	13252.8
852.192	13431.1
852.515	13221.62
852.838	13113.14
853.161	13121.05
853.483	13127.83
853.806	13131.9
854.129	12980.94
854.451	12933.26
854.774	12960.15
855.096	12888.97
855.419	12786.6
855.741	12776.66
856.063	12755.19
856.385	12693.49
856.708	12670.44
857.03	12596.1
857.352	12634.51
857.674	12585.7
857.996	12497.57
858.318	12394.52
858.64	12453.5
858.961	12459.15
859.283	12334.41
859.605	12292.15
859.926	12324.24
860.248	12294.86
860.57	12287.85
860.891	12225.94
861.212	12100.06
861.534	12099.84
861.855	12061.19
862.176	12126.5
862.498	12067.3
862.819	12096
863.14	12073.85
863.461	12022.33
863.782	11930.12
864.103	12006.51
864.424	11971.48
864.745	11992.72
865.065	11936
865.386	11811.26
865.707	11753.63
866.027	11827.53
866.348	11769.22
866.668	11793.18
866.989	11741.43
867.309	11672.28
867.63	11751.82
867.95	11684.93
868.27	11639.96
868.59	11667.98
868.91	11700.75
869.23	11579.17
869.55	11550.47
869.87	11637.25
870.19	11572.85
870.51	11657.81
870.83	11526.97
871.15	11528.78
871.469	11492.4
871.789	11524.03
872.109	11443.81
872.428	11435
872.748	11417.14
873.067	11464.15
873.386	11408.1
873.706	11335.56
874.025	11304.83
874.344	11292.17
874.663	11354.09
874.982	11276.13
875.301	11257.37
875.62	11265.51
875.939	11230.03
876.258	11270.93
876.577	11145.06
876.896	11185.06
877.214	11181.67
877.533	11148.45
877.852	11129.24
878.17	11091.5
878.489	11077.72
878.807	11049.47
879.125	11051.96
879.444	10992.3
879.762	10969.92
880.08	11027.1
880.398	10869.14
880.716	10961.79
881.034	10929.25
881.352	10962.24
881.67	10898.29
881.988	10895.8
882.306	10823.71
882.624	10768.12
882.941	10741.91
883.259	10736.94
883.577	10734.45
883.894	10736.26
884.212	10661.23
884.529	10660.33
884.846	10652.64
885.164	10654.45
885.481	10529.26
885.798	10593.44
886.115	10499.88
886.432	10529.03
886.75	10456.72
887.067	10457.62
887.383	10451.52
887.7	10457.62
888.017	10427.56
888.334	10443.61
888.651	10332.2
888.967	10342.37
889.284	10272.99
889.6	10298.53
889.917	10174.01
890.233	10187.35
890.55	10138.31
890.866	10145.54
891.182	10150.51
891.498	10120.45
891.815	10109.16
892.131	10055.82
892.447	9990.29
892.763	9935.6
893.079	9941.02
893.395	9946.22
893.71	9918.2
894.026	9817.86
894.342	9824.64
894.657	9729.05
894.973	9699
895.289	9722.95
895.604	9737.41
895.92	9626.23
896.235	9577.87
896.55	9569.28
896.865	9515.5
897.181	9474.82
897.496	9556.18
897.811	9420.81
898.126	9434.6
898.441	9407.93
898.756	9328.84
899.071	9300.81
899.386	9323.64
899.7	9256.75
900.015	9151.89
900.33	9118.67
900.644	9163.42
900.959	9189.18
901.273	9096.75
901.588	9059.01
901.902	8979.24
902.216	8947.6
902.531	8916.64
902.845	8939.47
903.159	8885.68
903.473	8896.98
903.787	8819.7
904.101	8765.91
904.415	8768.63
904.729	8748.51
905.042	8693.15
905.356	8678.23
905.67	8678.91
905.984	8586.48
906.297	8559.59
906.611	8513.49
906.924	8522.08
907.237	8492.25
907.551	8405.92
907.864	8469.65
908.177	8395.08
908.491	8367.28
908.804	8308.3
909.117	8259.71
909.43	8228.53
909.743	8200.96
910.056	8229.43
910.368	8126.61
910.681	8168.42
910.994	8115.08
911.307	8001.64
911.619	7942.21
911.932	8004.35
912.244	7914.41
912.557	7941.53
912.869	7848.42
913.181	7810.23
913.494	7811.81
913.806	7757.8
914.118	7770.23
914.43	7709.67
914.742	7701.99
915.054	7574.08
915.366	7641.2
915.678	7557.81
915.99	7610.46
916.302	7439.39
916.613	7532.73
916.925	7415.89
917.236	7403.92
917.548	7377.02
917.859	7344.48
918.171	7314.88
918.482	7277.37
918.794	7243.69
919.105	7255.44
919.416	7185.16
919.727	7170.48
920.038	7174.32
920.349	7114.43
920.66	7089.35
920.971	7034.21
921.282	7030.82
921.593	7023.36
921.903	6944.49
922.214	6967.77
922.525	6910.6
922.835	6862.01
923.146	6862.46
923.456	6819.52
923.767	6797.83
924.077	6803.25
924.387	6753.99
924.697	6681.9
925.008	6716.7
925.318	6633.31
925.628	6678.74
925.938	6601.68
926.248	6577.95
926.558	6545.41
926.867	6542.02
927.177	6532.07
927.487	6443.94
927.796	6410.72
928.106	6389.03
928.416	6382.7
928.725	6402.36
929.034	6303.38
929.344	6377.95
929.653	6311.06
929.962	6264.28
930.271	6198.52
930.581	6224.06
930.89	6174.34
931.199	6139.99
931.508	6110.84
931.817	6165.08
932.125	6141.35
932.434	6069.94
932.743	6044.86
933.051	5979.77
933.36	6023.84
933.669	5959.66
933.977	5915.59
934.286	5943.61
934.594	5884.41
934.902	5871.3
935.21	5832.43
935.519	5812.09
935.827	5798.53
936.135	5747.46
936.443	5769.83
936.751	5728.93
937.059	5743.17
937.367	5687.8
937.674	5677.18
937.982	5627.69
938.29	5587.92
938.597	5580.69
938.905	5561.48
939.213	5488.94
939.52	5494.14
939.827	5454.59
940.135	5447.58
940.442	5436.96
940.749	5412.78
941.056	5433.8
941.363	5338.89
941.67	5369.39
941.977	5334.59
942.284	5256.4
942.591	5248.72
942.898	5235.61
943.205	5222.73
943.511	5185.89
943.818	5166.23
944.125	5120.13
944.431	5157.65
944.738	5124.2
945.044	5045.79
945.35	5072.68
945.657	4986.35
945.963	4996.07
946.269	4966.92
946.575	4978.22
946.881	4931.66
947.187	4939.35
947.493	4907.26
947.799	4852.12
948.105	4866.36
948.41	4834.27
948.716	4846.69
949.022	4795.17
949.327	4833.81
949.633	4720.82
949.938	4756.75
950.244	4728.05
950.549	4697.55
950.854	4688.73
951.16	4691.67
951.465	4645.34
951.77	4616.19
952.075	4604.22
952.38	4567.61
952.685	4601.05
952.99	4545.46
953.294	4523.77
953.599	4502.3
953.904	4501.62
954.209	4477.66
954.513	4481.28
954.818	4374.84
955.122	4399.7
955.426	4376.42
955.731	4372.58
956.035	4380.49
956.339	4406.03
956.643	4335.75
956.948	4317.22
957.252	4242.87
957.556	4280.38
957.86	4250.55
958.163	4238.8
958.467	4170.55
958.771	4198.58
959.075	4206.94
959.378	4164.23
959.682	4143.66
959.985	4123.32
960.289	4124.45
960.592	4126.49
960.896	4103.44
961.199	4047.62
961.502	3992.48
961.805	4015.98
962.108	3980.5
962.411	3990.45
962.714	3954.06
963.017	4002.42
963.32	3912.93
963.623	3899.15
963.926	3926.27
964.228	3898.02
964.531	3865.48
964.833	3855.31
965.136	3838.59
965.438	3823.67
965.741	3815.76
966.043	3767.17
966.345	3748.87
966.648	3754.97
966.95	3743.22
967.252	3692.6
967.554	3689.44
967.856	3684.01
968.158	3631.81
968.46	3709.55
968.761	3635.43
969.063	3642.21
969.365	3603.56
969.666	3564.02
969.968	3551.36
970.269	3536.9
970.571	3538.71
970.872	3556.11
971.174	3490.35
971.475	3493.28
971.776	3542.77
972.077	3481.76
972.378	3492.61
972.679	3415.55
972.98	3412.61
973.281	3407.18
973.582	3378.94
973.883	3412.61
974.183	3336.45
974.484	3354.53
974.785	3306.85
975.085	3330.8
975.386	3324.93
975.686	3275.89
975.986	3272.95
976.287	3264.14
976.587	3240.18
976.887	3253.97
977.187	3242.44
977.487	3239.51
977.787	3184.59
978.087	3192.05
978.387	3163.58
978.687	3161.09
978.987	3090.81
979.286	3093.07
979.586	3090.13
979.885	3078.38
980.185	3055.33
980.484	3033.18
980.784	3037.93
981.083	3039.06
981.382	3058.04
981.682	3034.76
981.981	2987.31
982.28	2973.75
982.579	2974.88
982.878	2992.73
983.177	2953.19
983.475	2933.3
983.774	2935.11
984.073	2927.65
984.372	2882.9
984.67	2862.11
984.969	2841.55
985.267	2847.43
985.566	2847.43
985.864	2853.75
986.162	2809.91
986.461	2786.64
986.759	2796.13
987.057	2738.95
987.355	2737.82
987.653	2750.25
987.951	2745.73
988.249	2695.11
988.547	2695.79
988.844	2680.88
989.142	2660.09
989.44	2672.06
989.737	2637.04
990.035	2625.96
990.332	2609.92
990.63	2600.88
990.927	2606.75
991.224	2595.45
991.521	2559.75
991.819	2560.65
992.116	2546.64
992.413	2571.27
992.71	2546.42
993.006	2516.81
993.303	2523.14
993.6	2519.3
993.897	2487.66
994.193	2478.85
994.49	2472.29
994.787	2468
995.083	2430.49
995.379	2403.37
995.676	2406.53
995.972	2440.43
996.268	2367.89
996.565	2383.93
996.861	2375.8
997.157	2400.88
997.453	2329.7
997.749	2348.91
998.044	2317.72
998.34	2324.5
998.636	2297.38
998.932	2333.77
999.227	2274.11
999.523	2268.01
999.818	2208.57
1000.114	2237.27
1000.409	2225.29
1000.704	2223.26
1001	2183.04
1001.295	2168.35
1001.59	2191.62
1001.885	2173.32
1002.18	2147.33
1002.475	2173.09
1002.77	2131.74
1003.065	2104.85
1003.359	2122.47
1003.654	2099.42
1003.949	2066.43
1004.243	2069.37
1004.538	2065.98
1004.832	2074.34
1005.127	2049.25
1005.421	2056.71
1005.715	2022.81
1006.009	2042.47
1006.304	2009.03
1006.598	1980.78
1006.892	2004.74
1007.186	1953.21
1007.48	1930.84
1007.773	1924.51
1008.067	1913.21
1008.361	1919.31
1008.655	1909.82
1008.948	1889.71
1009.242	1903.72
1009.535	1891.52
1009.829	1872.99
1010.122	1858.75
1010.415	1841.35
1010.708	1826.21
1011.001	1821.92
1011.295	1810.39
1011.588	1816.27
1011.881	1767.45
1012.173	1773.1
1012.466	1750.5
1012.759	1754.35
1013.052	1737.4
1013.344	1723.61
1013.637	1752.99
1013.93	1730.39
1014.222	1670.28
1014.514	1708.25
1014.807	1661.69
1015.099	1668.02
1015.391	1694.46
1015.683	1628.7
1015.976	1649.04
1016.268	1626.67
1016.56	1605.2
1016.851	1639.32
1017.143	1642.26
1017.435	1607.46
1017.727	1590.28
1018.018	1596.38
1018.31	1578.98
1018.602	1562.71
1018.893	1583.96
1019.185	1545.31
1019.476	1519.55
1019.767	1515.71
1020.058	1490.17
1020.35	1466.9
1020.641	1514.58
1020.932	1489.72
1021.223	1486.56
1021.514	1450.85
1021.804	1451.98
1022.095	1439.1
1022.386	1418.76
1022.677	1419.67
1022.967	1401.59
1023.258	1431.19
1023.548	1436.61
1023.839	1397.97
1024.129	1395.94
1024.419	1377.41
1024.709	1347.8
1025	1318.43
1025.29	1322.72
1025.58	1322.27
1025.87	1325.88
1026.16	1305.77
1026.449	1294.02
1026.739	1296.05
1027.029	1287.01
1027.319	1273.23
1027.608	1291.99
1027.898	1245.21
1028.187	1230.07
1028.477	1223.51
1028.766	1247.92
1029.055	1239.11
1029.344	1220.8
1029.634	1210.63
1029.923	1206.56
1030.212	1194.59
1030.501	1199.11
1030.79	1183.74
1031.078	1181.03
1031.367	1159.56
1031.656	1157.98
1031.945	1158.66
1032.233	1149.62
1032.522	1158.66
1032.81	1134.25
1033.099	1101.93
1033.387	1122.05
1033.675	1128.15
1033.963	1112.33
1034.251	1110.3
1034.54	1075.95
1034.828	1105.78
1035.116	1054.93
1035.403	1061.26
1035.691	1037.3
1035.979	1054.25
1036.267	1041.82
1036.554	1004.76
1036.842	1010.41
1037.129	1015.38
1037.417	1018.32
1037.704	1011.77
1037.992	993.46
1038.279	992.33
1038.566	1004.31
1038.853	1004.31
1039.14	1004.31
