Data from hue_40_FLMS001491_31.txt Node
Date: Mon Feb 06 15:07:48 GMT 2017
User: dcchb
Spectrometer: FLMS00149
Trigger mode: 0
Integration Time (sec): 2.000000E-2
Scans to average: 10
Electric dark correction enabled: true
Nonlinearity correction enabled: false
Boxcar width: 0
XAxis mode: Wavelengths
Number of Pixels in Spectrum: 2048
>>>>>Begin Spectral Data<<<<<
341.393	0.14
341.776	0.14
342.16	0.14
342.543	-40.76
342.927	-60.87
343.31	-65.17
343.693	-69.91
344.077	-80.31
344.46	-71.04
344.843	-63.59
345.226	-55.68
345.61	-12.74
345.993	-24.72
346.376	11.21
346.759	-5.51
347.142	25.68
347.525	64.32
347.908	34.72
348.291	92.79
348.674	97.54
349.057	122.4
349.44	130.53
349.823	144.32
350.206	145.45
350.588	182.06
350.971	204.43
351.354	232.9
351.737	240.36
352.119	231.1
352.502	247.14
352.884	279.23
353.267	263.86
353.65	294.82
354.032	306.8
354.414	291.88
354.797	322.62
355.179	330.75
355.562	330.98
355.944	329.17
356.326	348.38
356.709	352.67
357.091	335.5
357.473	326.69
357.855	349.96
358.238	362.17
358.62	340.25
359.002	327.14
359.384	330.75
359.766	353.58
360.148	346.12
360.53	341.6
360.912	346.35
361.294	327.59
361.676	345.89
362.057	341.38
362.439	333.47
362.821	338.44
363.203	339.57
363.584	327.59
363.966	313.81
364.348	333.69
364.729	330.75
365.111	292.79
365.493	314.03
365.874	325.33
366.256	330.75
366.637	332.56
367.019	305.44
367.4	318.32
367.781	321.94
368.163	312
368.544	312.22
368.925	311.32
369.306	316.29
369.688	302.28
370.069	303.86
370.45	300.47
370.831	310.87
371.212	313.81
371.593	322.17
371.974	308.61
372.355	310.19
372.736	319.45
373.117	301.38
373.498	335.95
373.879	338.66
374.26	312.68
374.641	324.43
375.021	319.45
375.402	300.47
375.783	321.49
376.163	337.31
376.544	322.39
376.925	313.35
377.305	332.79
377.686	315.61
378.066	365.1
378.447	340.92
378.827	326.69
379.208	367.36
379.588	332.11
379.968	332.11
380.349	320.36
380.729	322.62
381.109	361.49
381.489	338.89
381.87	346.12
382.25	321.94
382.63	342.96
383.01	328.72
383.39	321.94
383.77	334.37
384.15	350.41
384.53	340.47
384.91	344.09
385.29	337.08
385.67	355.61
386.049	352.45
386.429	357.19
386.809	353.35
387.189	345.89
387.568	338.44
387.948	338.66
388.328	360.58
388.707	364.65
389.087	313.58
389.466	366.46
389.846	352
390.225	367.82
390.605	346.35
390.984	351.09
391.363	358.1
391.743	362.39
392.122	379.57
392.501	363.75
392.881	356.06
393.26	380.7
393.639	376.18
394.018	377.53
394.397	386.12
394.776	357.65
395.155	353.35
395.534	375.27
395.913	376.63
396.292	396.06
396.671	373.46
397.05	372.33
397.429	380.24
397.808	392.67
398.186	371.43
398.565	387.7
398.944	379.34
399.323	386.35
399.701	369.4
400.08	387.02
400.458	392.67
400.837	385.67
401.215	403.97
401.594	395.16
401.972	398.32
402.351	410.07
402.729	408.49
403.107	399.9
403.486	397.87
403.864	402.16
404.242	406.23
404.62	398.32
404.999	405.33
405.377	415.05
405.755	412.56
406.133	411.88
406.511	416.18
406.889	439.9
407.267	398.32
407.645	409.85
408.023	403.29
408.401	404.88
408.779	432.45
409.156	416.18
409.534	436.74
409.912	423.18
410.29	457.3
410.667	437.19
411.045	441.26
411.422	429.51
411.8	444.2
412.178	430.64
412.555	423.41
412.933	437.42
413.31	471.32
413.687	439
414.065	436.74
414.442	482.84
414.819	471.09
415.197	462.05
415.574	454.14
415.951	491.2
416.328	473.12
416.705	453.01
417.082	470.41
417.46	490.52
417.837	471.99
418.214	479.22
418.591	486.23
418.967	487.13
419.344	492.56
419.721	482.84
420.098	463.41
420.475	501.82
420.852	503.63
421.228	510.64
421.605	508.83
421.982	501.82
422.358	539.34
422.735	526.68
423.111	508.38
423.488	514.7
423.864	510.86
424.241	503.63
424.617	525.33
424.994	529.84
425.37	530.52
425.746	519
426.123	557.64
426.499	549.28
426.875	539.79
427.251	521.71
427.627	538.88
428.003	568.26
428.379	568.71
428.756	558.77
429.132	571.2
429.507	553.35
429.883	580.01
430.259	603.74
430.635	572.33
431.011	562.84
431.387	616.17
431.763	593.12
432.138	592.89
432.514	599.9
432.89	607.58
433.265	610.52
433.641	626.11
434.016	615.49
434.392	608.94
434.767	632.44
435.143	615.04
435.518	613.46
435.894	640.8
436.269	640.8
436.644	642.16
437.02	671.08
437.395	642.38
437.77	645.32
438.145	660.24
438.52	680.12
438.895	689.16
439.271	709.95
439.646	691.2
440.021	684.64
440.395	662.27
440.77	662.5
441.145	697.75
441.52	680.12
441.895	702.27
442.27	698.88
442.645	680.35
443.019	697.3
443.394	706.79
443.769	729.39
444.143	699.78
444.518	716.28
444.892	723.74
445.267	733
445.641	728.71
446.016	713.12
446.39	738.43
446.764	753.57
447.139	753.79
447.513	740.23
447.887	757.64
448.262	762.83
448.636	773.45
449.01	757.64
449.384	742.95
449.758	770.29
450.132	783.62
450.506	786.56
450.88	760.35
451.254	808.03
451.628	789.27
452.002	783.4
452.376	791.08
452.75	800.8
453.123	827.24
453.497	821.36
453.871	821.81
454.244	831.31
454.618	846.45
454.992	836.5
455.365	835.6
455.739	878.08
456.112	886.67
456.486	897.07
456.859	886.9
457.232	907.46
457.606	885.32
457.979	914.69
458.352	910.85
458.725	937.07
459.099	923.73
459.472	982.49
459.845	954.01
460.218	979.32
460.591	970.51
460.964	975.93
461.337	982.04
461.71	1010.51
462.083	1022.94
462.456	990.62
462.829	1020.68
463.201	1025.2
463.574	1060
463.947	1068.36
464.32	1100.45
464.692	1087.34
465.065	1105.2
465.438	1129.38
465.81	1133.44
466.183	1172.09
466.555	1176.61
466.928	1174.35
467.3	1163.27
467.672	1206.89
468.045	1210.5
468.417	1205.76
468.789	1258.41
469.161	1257.06
469.534	1289.37
469.906	1308.58
470.278	1315.13
470.65	1324.63
471.022	1364.63
471.394	1390.16
471.766	1438.3
472.138	1433.78
472.51	1425.19
472.882	1497.5
473.253	1522.36
473.625	1561.46
473.997	1614.34
474.369	1595.81
474.74	1632.64
475.112	1643.49
475.484	1662.92
475.855	1733.65
476.227	1775.69
476.598	1811.39
476.97	1829.02
477.341	1881.9
477.713	1936.59
478.084	1999.41
478.455	2034.44
478.827	2065.4
479.198	2143.14
479.569	2165.28
479.94	2233.75
480.311	2313.07
480.682	2344.94
481.053	2431.04
481.424	2496.12
481.795	2519.4
482.166	2583.58
482.537	2668.09
482.908	2711.93
483.279	2820.41
483.65	2873.74
484.021	2976.79
484.391	3007.07
484.762	3054.52
485.133	3105.82
485.503	3227.4
485.874	3362.09
486.244	3418.58
486.615	3463.55
486.985	3620.16
487.356	3692.93
487.726	3778.57
488.097	3876.65
488.467	3931.56
488.837	4043.88
489.207	4134.27
489.578	4214.04
489.948	4314.83
490.318	4408.16
490.688	4505.33
491.058	4612.22
491.428	4678.21
491.798	4755.95
492.168	4937.19
492.538	4980.58
492.908	5103.51
493.278	5222.6
493.648	5238.87
494.017	5361.81
494.387	5503.5
494.757	5517.28
495.126	5672.08
495.496	5729.48
495.866	5749.82
496.235	5900.55
496.605	5991.17
496.974	6058.51
497.344	6185.06
497.713	6285.85
498.082	6376.47
498.452	6471.16
498.821	6564.04
499.19	6538.5
499.559	6714.09
499.928	6790.92
500.298	6839.96
500.667	6901.88
501.036	6960.64
501.405	7070.24
501.774	7107.3
502.143	7254.64
502.512	7312.94
502.88	7351.59
503.249	7405.14
503.618	7569.43
503.987	7573.73
504.356	7660.5
504.724	7752.48
505.093	7816.21
505.462	7868.41
505.83	7903.44
506.199	8026.6
506.567	8165.12
506.936	8155.86
507.304	8347.04
507.672	8409.41
508.041	8386.59
508.409	8475.62
508.777	8577.09
509.145	8653.92
509.514	8662.06
509.882	8777.31
510.25	8814.37
510.618	8885.11
510.986	8914.26
511.354	9037.42
511.722	9166
512.09	9208.49
512.458	9207.81
512.826	9303.17
513.193	9365.32
513.561	9403.51
513.929	9458.65
514.297	9510.4
514.664	9570.51
515.032	9688.93
515.4	9740.22
515.767	9808.24
516.135	9808.24
516.502	9785.19
516.869	9979.77
517.237	10073.55
517.604	10045.98
517.972	10134.34
518.339	10197.61
518.706	10243.49
519.073	10258.18
519.44	10379.98
519.808	10437.38
520.175	10449.36
520.542	10588.11
520.909	10656.13
521.276	10655.45
521.643	10764.83
522.009	10867.88
522.376	10943.36
522.743	10946.75
523.11	11057.03
523.477	11145.61
523.843	11222.67
524.21	11327.08
524.577	11421.76
524.943	11507.64
525.31	11524.58
525.676	11650.68
526.043	11707.18
526.409	11671.25
526.776	11817.91
527.142	11824.69
527.508	11939.71
527.874	12084.12
528.241	12126.6
528.607	12219.03
528.973	12263.1
529.339	12234.17
529.705	12436.2
530.071	12510.09
530.437	12532.02
530.803	12683.65
531.169	12597.32
531.535	12706.7
531.901	12763.2
532.267	12789.41
532.632	12983.98
532.998	12992.79
533.364	13057.65
533.73	13080.93
534.095	13163.64
534.461	13171.32
534.826	13260.58
535.192	13260.13
535.557	13482.95
535.923	13375.38
536.288	13529.5
536.653	13609.5
537.019	13533.12
537.384	13679.56
537.749	13687.92
538.114	13706
538.479	13790.74
538.845	13886.33
539.21	13786.67
539.575	13971.3
539.94	13978.3
540.305	14104.4
540.67	14038.64
541.034	14077.29
541.399	14171.97
541.764	14249.71
542.129	14278.86
542.494	14303.49
542.858	14453.55
543.223	14359.54
543.587	14445.41
543.952	14540.55
544.316	14560.89
544.681	14615.58
545.045	14676.59
545.41	14754.33
545.774	14770.83
546.138	14782.13
546.503	14831.62
546.867	14966.75
547.231	15089.91
547.595	15110.7
547.959	15058.73
548.324	15185.5
548.688	15185.05
549.052	15312.06
549.416	15233.64
549.779	15322.45
550.143	15386.63
550.507	15501.43
550.871	15580.97
551.235	15572.16
551.599	15647.87
551.962	15667.98
552.326	15782.78
552.689	15876.79
553.053	15821.42
553.417	15912.27
553.78	15983
554.143	15936.9
554.507	16037.01
554.87	16101.86
555.234	16211.92
555.597	16199.94
555.96	16345.02
556.323	16320.62
556.686	16398.35
557.05	16522.64
557.413	16524
557.776	16540.05
558.139	16637.22
558.502	16656.88
558.865	16667.95
559.228	16777.55
559.59	16888.06
559.953	16906.36
560.316	17193.59
560.679	17026.13
561.041	17217.32
561.404	17229.97
561.767	17373.02
562.129	17344.77
562.492	17554.71
562.854	17478.33
563.217	17510.64
563.579	17596.97
563.941	17626.57
564.304	17817.07
564.666	17837.19
565.028	17838.54
565.39	17952.89
565.753	17983.85
566.115	18009.16
566.477	18194.69
566.839	18163.51
567.201	18319.21
567.563	18329.6
567.925	18460.67
568.287	18469.71
568.648	18530.28
569.01	18709.48
569.372	18730.5
569.734	18746.31
570.095	18826.09
570.457	18980.89
570.819	18900.21
571.18	18988.34
571.542	19214.1
571.903	19222.91
572.265	19264.04
572.626	19317.15
572.987	19508.1
573.349	19426.98
573.71	19521.89
574.071	19606.41
574.432	19768.89
574.794	19876.23
575.155	19971.82
575.516	19986.96
575.877	20144.7
576.238	20184.24
576.599	20328.87
576.96	20433.5
577.32	20434.63
577.681	20649.32
578.042	20737.9
578.403	20834.62
578.763	20894.06
579.124	21006.82
579.485	21071.45
579.845	21293.82
580.206	21379.69
580.566	21419.01
580.927	21602.06
581.287	21771.32
581.648	21819.91
582.008	22076.4
582.368	22122.95
582.728	22309.39
583.089	22328.59
583.449	22472.32
583.809	22663.27
584.169	22808.81
584.529	22954.57
584.889	23269.36
585.249	23266.2
585.609	23470.94
585.969	23812.4
586.329	23719.07
586.688	23957.93
587.048	24020.53
587.408	24132.61
587.768	24343.91
588.127	24501.87
588.487	24690.34
588.846	24960.61
589.206	25012.36
589.565	25146.82
589.925	25539.36
590.284	25549.53
590.643	25822.51
591.003	26045.33
591.362	26363.97
591.721	26454.36
592.08	26528.71
592.44	26805.54
592.799	26947
593.158	27064.51
593.517	27265.86
593.876	27513.54
594.235	27599.64
594.593	27917.6
594.952	28195.11
595.311	28098.16
595.67	28459.73
596.029	28626.51
596.387	28764.81
596.746	29044.8
597.104	29068.76
597.463	29125.48
597.822	29525.24
598.18	29484.11
598.538	29632.13
598.897	29968.62
599.255	29760.94
599.613	30446.12
599.972	30520.02
600.33	30602.95
600.688	30587.59
601.046	30933.11
601.404	31212.88
601.762	31181.24
602.12	31482.48
602.478	31484.29
602.836	31633.43
603.194	31684.96
603.552	31924.73
603.91	31971.73
604.268	32124.72
604.625	32126.3
604.983	32340.53
605.341	32362.45
605.698	32700.98
606.056	32859.62
606.413	32945.49
606.771	33024.58
607.128	33132.38
607.485	33128.08
607.843	33284.46
608.2	33489.2
608.557	33646.04
608.914	33782.08
609.272	33871.79
609.629	33968.51
609.986	34264.1
610.343	34329.63
610.7	34410.08
611.057	34459.12
611.414	34574.6
611.771	34676.29
612.127	34867.25
612.484	34946.79
612.841	35126.68
613.198	35064.3
613.554	35170.29
613.911	35294.13
614.267	35403.28
614.624	35586.32
614.98	35657.06
615.337	35853.89
615.693	35793.78
616.05	35826.09
616.406	36171.17
616.762	35921.23
617.118	35972.53
617.475	36104.5
617.831	36358.06
618.187	36308.57
618.543	36535.9
618.899	36693.41
619.255	36652.96
619.611	36599.18
619.967	36934.09
620.323	36909.91
620.678	36943.8
621.034	36852.28
621.39	36866.06
621.746	36932.5
622.101	37358.48
622.457	37079.84
622.812	37162.78
623.168	37385.6
623.523	37283
623.879	37556.89
624.234	37167.75
624.589	37375.66
624.945	37593.96
625.3	37638.47
625.655	37628.08
626.01	37615.88
626.365	37860.84
626.72	37686.16
627.075	37728.19
627.43	37844.34
627.785	37599.15
628.14	37801.63
628.495	37745.59
628.85	37839.37
629.205	37756.66
629.559	38012.48
629.914	37864.23
630.269	37851.12
630.623	37753.72
630.978	37783.33
631.332	37981.97
631.687	38055.86
632.041	37737.23
632.396	37983.1
632.75	37838.02
633.104	37874.4
633.459	37821.52
633.813	37887.51
634.167	37714.18
634.521	37822.88
634.875	37821.52
635.229	37803.89
635.583	37595.99
635.937	37727.06
636.291	37732.48
636.645	37730.67
636.999	37545.37
637.352	37798.92
637.706	37429.89
638.06	37751.69
638.413	37602.77
638.767	37643.67
639.121	37570.23
639.474	37260.18
639.828	37567.74
640.181	37468.53
640.534	37565.03
640.888	37366.84
641.241	37262.89
641.594	37381.76
641.947	37428.31
642.301	37425.82
642.654	37347.63
643.007	37295.43
643.36	37385.15
643.713	37262.66
644.066	37480.06
644.419	37227.86
644.771	36933.18
645.124	36600.53
645.477	36599.4
645.83	36353.08
646.182	36211.84
646.535	36107.44
646.888	36260.88
647.24	36100.21
647.593	36360.54
647.945	36096.59
648.298	35998.29
648.65	35879.42
649.002	35887.79
649.355	36067.44
649.707	35898.63
650.059	36118.51
650.411	36471.95
650.763	36543.14
651.115	36835.56
651.467	36698.16
651.819	36726.41
652.171	36723.02
652.523	36645.73
652.875	36726.63
653.227	36513.08
653.578	36788.78
653.93	36727.54
654.282	36527.54
654.633	36489.8
654.985	36622.23
655.337	36542.23
655.688	36504.49
656.039	36913.52
656.391	36362.12
656.742	36476.7
657.094	36414.33
657.445	36575.45
657.796	36391.5
658.147	36425.17
658.498	36356.47
658.849	36452.97
659.2	36501.33
659.551	36333.2
659.902	36436.02
660.253	36281.9
660.604	36414.1
660.955	36242.35
661.306	36329.13
661.656	36263.37
662.007	36398.51
662.358	36349.92
662.708	36319.41
663.059	36208.45
663.409	35952.19
663.76	36237.83
664.11	36254.56
664.461	36327.77
664.811	36302.46
665.161	36125.07
665.511	36172.3
665.862	36178.4
666.212	36250.49
666.562	36343.37
666.912	36240.54
667.262	36186.31
667.612	36159.19
667.962	36227.44
668.312	36113.77
668.662	36280.32
669.011	36199.87
669.361	36072.41
669.711	36015.01
670.06	36067.22
670.41	35967.33
670.76	35928.69
671.109	36078.06
671.459	36075.12
671.808	35975.01
672.157	36030.15
672.507	35817.73
672.856	35903.83
673.205	35884.17
673.554	35991.06
673.904	35760.56
674.253	36124.84
674.602	35886.2
674.951	35443.5
675.3	35261.59
675.649	35796.04
675.998	35716.72
676.346	35854.79
676.695	35842.59
677.044	35682.37
677.393	35843.94
677.741	35789.48
678.09	35803.49
678.438	35630.16
678.787	35594.46
679.135	35676.94
679.484	35454.58
679.832	35507.68
680.181	35441.02
680.529	35417.52
680.877	35408.7
681.225	35326.67
681.573	35665.87
681.922	35224.53
682.27	35196.73
682.618	35211.42
682.966	35173.68
683.314	35127.35
683.661	34998.99
684.009	34892.33
684.357	34868.15
684.705	34836.97
685.053	34818.89
685.4	34740.02
685.748	34561.72
686.095	34723.97
686.443	34548.84
686.79	34423.42
687.138	34561.49
687.485	34588.84
687.832	34376.41
688.18	34431.55
688.527	34128.28
688.874	34146.36
689.221	34186.81
689.568	34142.07
689.915	33888.97
690.262	34054.84
690.609	33807.61
690.956	33699.14
691.303	33732.36
691.65	33649.43
691.997	33544.57
692.344	33437.91
692.69	33351.58
693.037	33416.21
693.383	33127.63
693.73	33404.69
694.077	33036.33
694.423	33109.55
694.769	32982.32
695.116	32822.33
695.462	32776
695.808	32667.76
696.155	32684.71
696.501	32429.35
696.847	32559.29
697.193	32369.91
697.539	32438.16
697.885	32149.13
698.231	32094.89
698.577	32160.43
698.923	31994.33
699.269	31933.99
699.614	31634.34
699.96	31650.38
700.306	31695.81
700.651	31623.94
700.997	31489.93
701.342	31471.4
701.688	31446.09
702.033	31232.54
702.379	31227.34
702.724	31235.93
703.069	31161.13
703.415	30767.47
703.76	30837.3
704.105	30806.79
704.45	30823.51
704.795	30628.49
705.14	30499.23
705.485	30495.16
705.83	30389.85
706.175	30429.62
706.52	30301.72
706.865	30235.96
707.209	30121.16
707.554	29988.28
707.899	30257.2
708.243	30086.81
708.588	29966.13
708.932	29682.52
709.277	29711.45
709.621	29729.08
709.966	29562.08
710.31	29710.77
710.654	29360.05
710.998	29528.4
711.342	29459.03
711.687	29327.96
712.031	29237.56
712.375	29054.52
712.719	29317.79
713.063	29123.9
713.407	29164.8
713.75	29044.12
714.094	28956.44
714.438	28886.16
714.782	28914.64
715.125	28662.44
715.469	28726.39
715.812	28693.85
716.156	28553.74
716.499	28636.68
716.843	28621.76
717.186	28343.8
717.53	28393.52
717.873	28485.27
718.216	28421.09
718.559	28304.93
718.902	28081.89
719.246	28272.62
719.589	28004.38
719.932	27935
720.275	27894.55
720.617	27906.75
720.96	27909.24
721.303	27788.79
721.646	27796.92
721.989	27727.32
722.331	27742.69
722.674	27644.61
723.016	27707.44
723.359	27579.98
723.701	27660.43
724.044	27504.5
724.386	27284.85
724.729	27469.25
725.071	27323.04
725.413	27292.3
725.755	27375.01
726.097	27380.89
726.439	27088.24
726.782	27104.51
727.124	27275.13
727.465	27088.47
727.807	27081.92
728.149	26967.34
728.491	26864.75
728.833	26830.85
729.175	26884.63
729.516	26676.5
729.858	26729.16
730.199	26754.47
730.541	26706.11
730.882	26710.17
731.224	26643.73
731.565	26482.83
731.906	26492.78
732.248	26550.63
732.589	26432.89
732.93	26342.95
733.271	26407.58
733.612	26330.52
733.953	26292.33
734.294	26139.57
734.635	26225.67
734.976	26256.17
735.317	26123.52
735.658	26014.6
735.999	25999.23
736.339	25972.34
736.68	26113.13
737.021	25963.75
737.361	25763.31
737.702	25910.19
738.042	25824.55
738.383	25918.33
738.723	25935.96
739.063	25780.48
739.404	25810.31
739.744	25716.3
740.084	25564.67
740.424	25565.12
740.764	25508.62
741.104	25503.65
741.444	25447.38
741.784	25342.07
742.124	25371.9
742.464	25412.13
742.804	25385.24
743.143	25278.8
743.483	25221.62
743.823	25167.84
744.162	25088.97
744.502	25182.3
744.841	25095.98
745.181	25188.86
745.52	25070.89
745.86	25000.84
746.199	24945.7
746.538	24988.41
746.877	24989.54
747.216	24881.52
747.556	24848.3
747.895	24808.08
748.234	24739.83
748.573	24708.87
748.911	24720.4
749.25	24648.08
749.589	24514.3
749.928	24517.69
750.267	24561.76
750.605	24498.71
750.944	24415.77
751.283	24388.43
751.621	24336.45
751.96	24272.72
752.298	24239.28
752.636	24195.89
752.975	24171.26
753.313	24059.17
753.651	24270.92
753.989	24032.5
754.327	24013.75
754.666	23840.64
755.004	23976.69
755.342	23933.07
755.679	23835.45
756.017	23721.55
756.355	23717.26
756.693	23722.23
757.031	23697.15
757.368	23486.98
757.706	23436.59
758.044	23351.39
758.381	23425.51
758.719	23341.45
759.056	23369.24
759.394	23191.4
759.731	23192.07
760.068	23167.67
760.405	22930.61
760.743	22921.12
761.08	22962.02
761.417	22878.86
761.754	22847
762.091	22678.19
762.428	22709.15
762.765	22538.31
763.102	22584.41
763.438	22479.1
763.775	22283.4
764.112	22367.46
764.449	22315.26
764.785	22288.82
765.122	22092.44
765.458	22035.04
765.795	22064.42
766.131	22030.3
766.467	21873.01
766.804	21820.36
767.14	21699.01
767.476	21664.88
767.812	21552.34
768.148	21680.93
768.485	21467.37
768.821	21426.02
769.157	21367.94
769.492	21349.86
769.828	21231.22
770.164	21052.02
770.5	21010.21
770.836	21066.03
771.171	20805.7
771.507	20791.68
771.842	20725.92
772.178	20661.52
772.513	20733.16
772.849	20610.9
773.184	20415.88
773.519	20390.57
773.855	20431.24
774.19	20283.22
774.525	20161.65
774.86	20368.42
775.195	20187.86
775.53	20115.09
775.865	20007.98
776.2	19904.7
776.535	19720.75
776.87	19623.81
777.205	19590.36
777.539	19620.64
777.874	19553.98
778.209	19430.59
778.543	19357.15
778.878	19202.35
779.212	19231.27
779.547	19092.29
779.881	19179.3
780.215	19034.22
780.55	19050.94
780.884	18962.58
781.218	18829.02
781.552	18873.32
781.886	18702.02
782.22	18580.67
782.554	18593.78
782.888	18423.39
783.222	18363.05
783.556	18336.38
783.889	18220.23
784.223	18087.12
784.557	18062.94
784.89	18087.35
785.224	17984.3
785.557	17875.38
785.891	17879.22
786.224	17843.06
786.558	17835.83
786.891	17610.3
787.224	17592.22
787.557	17533.92
787.891	17446.91
788.224	17416.63
788.557	17497.31
788.89	17308.39
789.223	17380.02
789.556	17193.81
789.888	17218.67
790.221	17069.97
790.554	16925.8
790.887	16988.17
791.219	16901.84
791.552	16823.2
791.884	16847.38
792.217	16724.45
792.549	16705.24
792.882	16561.74
793.214	16539.82
793.546	16477.9
793.879	16460.73
794.211	16318.58
794.543	16375.08
794.875	16272.93
795.207	16329.2
795.539	16240.17
795.871	16205.14
796.203	16034.97
796.535	15953.85
796.867	15960.4
797.198	15860.52
797.53	15844.47
797.862	15790.23
798.193	15780.74
798.525	15677.24
798.856	15717.47
799.188	15580.75
799.519	15533.74
799.85	15389.79
800.182	15439.96
800.513	15405.84
800.844	15304.37
801.175	15386.4
801.506	15347.99
801.837	15179.86
802.168	15175.79
802.499	15098.05
802.83	15096.69
803.161	15071.16
803.491	15053.08
803.822	14971.95
804.153	14914.55
804.483	14848.34
804.814	14788.68
805.145	14741.9
805.475	14744.61
805.805	14692.41
806.136	14688.79
806.466	14633.43
806.796	14623.49
807.126	14414.9
807.457	14499.2
807.787	14461.46
808.117	14335.81
808.447	14300.78
808.777	14367.45
809.107	14281.35
809.436	14273.89
809.766	14200.22
810.096	14123.84
810.426	14162.93
810.755	14076.61
811.085	14084.97
811.414	13995.71
811.744	13932.66
812.073	13936.95
812.403	13970.17
812.732	13793.68
813.061	13820.57
813.39	13726.79
813.719	13704.87
814.049	13712.32
814.378	13592.78
814.707	13655.15
815.036	13583.51
815.365	13641.59
815.693	13494.25
816.022	13511.88
816.351	13417.64
816.68	13393.24
817.008	13386.68
817.337	13174.03
817.665	13269.4
817.994	13264.43
818.322	13283.18
818.651	13217.19
818.979	13124.77
819.307	13224.65
819.636	13124.77
819.964	12994.15
820.292	13080.02
820.62	13070.98
820.948	13064.2
821.276	13103.07
821.604	12927.71
821.932	13007.03
822.259	13017.88
822.587	12932.46
822.915	12993.92
823.243	13012.68
823.57	12952.57
823.898	12993.25
824.225	12939.69
824.553	12946.47
824.88	12985.34
825.207	13030.76
825.535	12905.11
825.862	12962.96
826.189	12933.81
826.516	12986.47
826.843	13000.48
827.17	13073.02
827.497	12989.86
827.824	13002.96
828.151	12990.31
828.478	12966.35
828.805	12955.96
829.131	12918.67
829.458	12933.13
829.785	12882.06
830.111	12901.72
830.438	12891.1
830.764	12865.79
831.09	12922.29
831.417	12815.17
831.743	12958.9
832.069	12799.35
832.395	12806.58
832.722	12819.69
833.048	12819.69
833.374	12881.61
833.7	12852.01
834.026	12815.4
834.351	12708.28
834.677	12734.27
835.003	12736.98
835.329	12701.95
835.654	12671.22
835.98	12701.95
836.306	12708.96
836.631	12624.44
836.956	12699.92
837.282	12668.73
837.607	12634.61
837.932	12570.88
838.258	12599.13
838.583	12548.29
838.908	12577.66
839.233	12519.36
839.558	12515.74
839.883	12457.89
840.208	12441.17
840.533	12381.06
840.858	12402.98
841.182	12411.57
841.507	12358.23
841.832	12296.32
842.156	12306.26
842.481	12294.28
842.805	12282.76
843.13	12229.88
843.454	12215.87
843.778	12099.26
844.103	12177.45
844.427	12126.6
844.751	12068.52
845.075	12074.85
845.399	12006.38
845.723	11953.95
846.047	11987.85
846.371	11830.79
846.695	11838.7
847.019	11793.05
847.343	11742.88
847.666	11731.13
847.99	11570.91
848.313	11603.9
848.637	11584.02
848.96	11466.73
849.284	11409.78
849.607	11370.24
849.931	11339.73
850.254	11330.24
850.577	11231.94
850.9	11140.41
851.223	11115.56
851.546	11116.69
851.869	11001.66
852.192	11118.27
852.515	11080.75
852.838	11024.48
853.161	10957.59
853.483	10926.86
853.806	10834.43
854.129	10808.22
854.451	10793.98
854.774	10734.1
855.096	10739.75
855.419	10712.63
855.741	10688.67
856.063	10601.9
856.385	10584.27
856.708	10498.17
857.03	10473.31
857.352	10496.36
857.674	10505.85
857.996	10432.64
858.318	10323.26
858.64	10344.5
858.961	10332.3
859.283	10301.11
859.605	10236.71
859.926	10246.65
860.248	10245.75
860.57	10163.49
860.891	10203.71
861.212	10175.69
861.534	10103.15
861.855	10066.09
862.176	10098.41
862.498	10087.33
862.819	10112.42
863.14	10048.46
863.461	9983.38
863.782	9953.78
864.103	9956.94
864.424	9901.8
864.745	9981.12
865.065	9910.16
865.386	9864.51
865.707	9861.35
866.027	9797.62
866.348	9829.71
866.668	9761.24
866.989	9793.33
867.309	9754.46
867.63	9862.25
867.95	9712.2
868.27	9639.89
868.59	9686.21
868.91	9743.16
869.23	9612.32
869.55	9683.28
869.87	9660.9
870.19	9557.86
870.51	9549.04
870.83	9617.29
871.15	9567.8
871.469	9514.92
871.789	9521.25
872.109	9605.76
872.428	9496.84
872.748	9528.7
873.067	9513.34
873.386	9500.68
873.706	9420.01
874.025	9508.59
874.344	9449.84
874.663	9383.85
874.982	9382.95
875.301	9360.8
875.62	9330.52
875.939	9326.9
876.258	9363.74
876.577	9276.28
876.896	9376.39
877.214	9289.39
877.533	9281.48
877.852	9259.11
878.17	9224.98
878.489	9218.43
878.807	9265.43
879.125	9173.91
879.444	9153.12
879.762	9114.93
880.08	9136.62
880.398	9093.24
880.716	9143.4
881.034	9062.95
881.352	9074.25
881.67	9031.54
881.988	9037.87
882.306	9050.07
882.624	8886.46
882.941	8948.83
883.259	8906.57
883.577	8966.01
883.894	8897.08
884.212	8875.39
884.529	8875.39
884.846	8878.1
885.164	8803.07
885.481	8798.1
885.798	8843.52
886.115	8725.11
886.432	8780.93
886.75	8674.94
887.067	8735.73
887.383	8643.53
887.7	8670.42
888.017	8610.76
888.334	8656.41
888.651	8580.25
888.967	8559.92
889.284	8556.75
889.6	8515.4
889.917	8415.51
890.233	8520.14
890.55	8422.29
890.866	8454.16
891.182	8363.99
891.498	8387.72
891.815	8354.95
892.131	8340.49
892.447	8318.34
892.763	8289.19
893.079	8212.81
893.395	8267.27
893.71	8221.17
894.026	8142.75
894.342	8203.99
894.657	8094.17
894.973	8070.89
895.289	8112.92
895.604	8079.93
895.92	7991.8
896.235	7959.71
896.55	8062.3
896.865	7917.67
897.181	7874.51
897.496	7910.67
897.811	7899.14
898.126	7894.17
898.441	7741.86
898.756	7841.29
899.071	7756.1
899.386	7724.23
899.7	7672.71
900.015	7643.78
900.33	7578.02
900.644	7559.26
900.959	7644.01
901.273	7610.11
901.588	7566.27
901.902	7489.89
902.216	7456.67
902.531	7447.18
902.845	7469.1
903.159	7467.74
903.473	7360.63
903.787	7348.42
904.101	7278.14
904.415	7300.74
904.729	7306.39
905.042	7227.97
905.356	7238.37
905.67	7143.23
905.984	7184.59
906.297	7208.31
906.611	7064.14
906.924	7121.31
907.237	7119.05
907.551	6971.03
907.864	7006.51
908.177	7005.38
908.491	6946.4
908.804	6940.3
909.117	6965.83
909.43	6881.32
909.743	6800.19
910.056	6800.41
910.368	6838.83
910.681	6759.96
910.994	6748.89
911.307	6713.64
911.619	6631.61
911.932	6652.4
912.244	6561.55
912.557	6599.97
912.869	6590.48
913.181	6570.36
913.494	6516.35
913.806	6475.23
914.118	6507.54
914.43	6437.71
914.742	6379.86
915.054	6447.43
915.366	6394.1
915.678	6326.75
915.99	6319.52
916.302	6312.97
916.613	6232.97
916.925	6230.71
917.236	6194.1
917.548	6160.21
917.859	6158.4
918.171	6176.02
918.482	6076.59
918.794	6096.25
919.105	6071.39
919.416	6003.37
919.727	6031.4
920.038	6000.89
920.349	5954.56
920.66	5945.97
920.971	5935.13
921.282	5898.52
921.593	5826.2
921.903	5817.16
922.214	5819.2
922.525	5757.73
922.835	5759.31
923.146	5671.86
923.456	5708.01
923.767	5687.68
924.077	5691.97
924.387	5616.94
924.697	5602.93
925.008	5592.08
925.318	5597.06
925.628	5547.57
925.938	5589.6
926.248	5481.81
926.558	5492.43
926.867	5454.24
927.177	5447.91
927.487	5395.48
927.796	5382.15
928.106	5341.7
928.416	5331.3
928.725	5320
929.034	5294.92
929.344	5364.52
929.653	5220.12
929.962	5218.31
930.271	5216.5
930.581	5232.09
930.89	5154.36
931.199	5164.75
931.508	5134.02
931.817	5132.44
932.125	5141.02
932.434	5070.74
932.743	5081.14
933.051	5041.14
933.36	5016.28
933.669	4957.75
933.977	4926.79
934.286	4907.58
934.594	4904.42
934.902	4872.56
935.21	4836.4
935.519	4828.49
935.827	4825.33
936.135	4834.36
936.443	4788.04
936.751	4734.93
937.059	4749.39
937.367	4718.66
937.674	4733.58
937.982	4682.96
938.29	4659.68
938.597	4642.73
938.905	4609.74
939.213	4601.38
939.52	4579
939.827	4563.86
940.135	4555.5
940.442	4509.18
940.749	4478.44
941.056	4456.52
941.363	4413.36
941.67	4437.76
941.977	4429.86
942.284	4398.44
942.591	4376.52
942.898	4348.5
943.205	4356.18
943.511	4300.82
943.818	4308.5
944.125	4268.5
944.431	4297.2
944.738	4290.88
945.044	4209.3
945.35	4212.69
945.657	4209.97
945.963	4207.71
946.269	4123.2
946.575	4170.43
946.881	4143.76
947.187	4106.25
947.493	4059.92
947.799	4067.15
948.105	4072.12
948.41	4020.6
948.716	4070.32
949.022	4017.89
949.327	4028.51
949.633	3966.36
949.938	3974.73
950.244	3963.43
950.549	3931.79
950.854	3924.33
951.16	3885.46
951.465	3913.48
951.77	3883.2
952.075	3826.71
952.38	3815.86
952.685	3799.82
952.99	3807.27
953.294	3805.69
953.599	3732.92
953.904	3749.2
954.209	3727.95
954.513	3720.72
954.818	3681.85
955.122	3651.8
955.426	3725.47
955.731	3696.09
956.035	3623.1
956.339	3606.6
956.643	3616.32
956.948	3621.51
957.252	3573.83
957.556	3578.8
957.86	3562.99
958.163	3573.83
958.467	3536.09
958.771	3514.85
959.075	3494.51
959.378	3463.55
959.682	3454.29
959.985	3440.05
960.289	3422.2
960.592	3432.82
960.896	3350.34
961.199	3366.15
961.502	3345.36
961.805	3360.96
962.108	3349.66
962.411	3322.54
962.714	3316.66
963.017	3327.29
963.32	3328.87
963.623	3284.57
963.926	3269.21
964.228	3267.63
964.531	3240.28
964.833	3217.46
965.136	3243.45
965.438	3203.67
965.741	3160.28
966.043	3141.3
966.345	3126.16
966.648	3132.71
966.95	3138.14
967.252	3130.45
967.554	3127.29
967.856	3080.51
968.158	3051.36
968.46	3064.92
968.761	3030.57
969.063	3045.48
969.365	2991.48
969.666	3017.01
969.968	2948.99
970.269	2958.93
970.571	2953.28
970.872	2981.76
971.174	2911.93
971.475	2929.78
971.776	2913.51
972.077	2881.65
972.378	2890.91
972.679	2904.25
972.98	2841.2
973.281	2867.64
973.582	2884.36
973.883	2820.41
974.183	2790.8
974.484	2796.45
974.785	2779.5
975.085	2763.23
975.386	2782.89
975.686	2746.96
975.986	2734.08
976.287	2706.28
976.587	2686.62
976.887	2695.89
977.187	2701.31
977.487	2697.92
977.787	2649.34
978.087	2619.96
978.387	2652.95
978.687	2649.79
978.987	2622.22
979.286	2593.97
979.586	2563.69
979.885	2565.5
980.185	2582.45
980.484	2560.75
980.784	2551.71
981.083	2549.23
981.382	2531.6
981.682	2539.51
981.981	2536.8
982.28	2530.02
982.579	2504.93
982.878	2479.62
983.177	2471.04
983.475	2470.58
983.774	2457.7
984.073	2429.23
984.372	2432.39
984.67	2398.95
984.969	2418.61
985.267	2423.35
985.566	2408.44
985.864	2382.9
986.162	2378.84
986.461	2349.01
986.759	2354.43
987.057	2342.68
987.355	2325.05
987.653	2295.67
987.951	2309.69
988.249	2268.78
988.547	2305.17
988.844	2289.35
989.142	2289.8
989.44	2259.97
989.737	2255.9
990.035	2223.13
990.332	2212.06
990.63	2246.86
990.927	2193.98
991.224	2196.47
991.521	2148.33
991.819	2182.91
992.116	2184.72
992.413	2160.76
992.71	2136.13
993.006	2140.2
993.303	2132.74
993.6	2119.18
993.897	2125.96
994.193	2139.52
994.49	2074.89
994.787	2060.65
995.083	2078.96
995.379	2019.3
995.676	2050.26
995.972	2035.12
996.268	2025.17
996.565	1999.18
996.861	2016.13
997.157	1985.85
997.453	1978.85
997.749	1977.04
998.044	1992.18
998.34	1960.77
998.636	1956.47
998.932	1953.08
999.227	1930.94
999.523	1929.58
999.818	1905.85
1000.114	1917.83
1000.409	1891.62
1000.704	1894.55
1001	1860.66
1001.295	1878.51
1001.59	1847.1
1001.885	1866.98
1002.18	1843.03
1002.475	1815.91
1002.77	1811.85
1003.065	1809.59
1003.359	1821.79
1003.654	1802.35
1003.949	1788.79
1004.243	1803.94
1004.538	1717.38
1004.832	1744.5
1005.127	1754.22
1005.421	1746.54
1005.715	1720.55
1006.009	1706.76
1006.304	1729.81
1006.598	1716.03
1006.892	1671.28
1007.186	1683.49
1007.48	1678.29
1007.773	1659.53
1008.067	1652.3
1008.361	1634.67
1008.655	1605.52
1008.948	1626.99
1009.242	1582.7
1009.535	1614.34
1009.829	1624.73
1010.122	1592.64
1010.415	1558.29
1010.708	1565.75
1011.001	1572.76
1011.295	1539.31
1011.588	1550.61
1011.881	1542.7
1012.173	1516.71
1012.466	1514
1012.759	1517.62
1013.052	1495.92
1013.344	1508.8
1013.637	1507.9
1013.93	1478.52
1014.222	1485.53
1014.514	1452.53
1014.807	1451.85
1015.099	1410.73
1015.391	1448.46
1015.683	1424.96
1015.976	1411.63
1016.268	1423.61
1016.56	1411.4
1016.851	1401.91
1017.143	1391.29
1017.435	1402.36
1017.727	1364.85
1018.018	1333.44
1018.31	1340.67
1018.602	1358.52
1018.893	1331.86
1019.185	1350.61
1019.476	1300.67
1019.767	1308.58
1020.058	1317.17
1020.35	1302.25
1020.641	1264.74
1020.932	1287.79
1021.223	1274.01
1021.514	1254.35
1021.804	1279.43
1022.095	1243.05
1022.386	1232.43
1022.677	1254.57
1022.967	1221.58
1023.258	1224.52
1023.548	1196.49
1023.839	1182.26
1024.129	1209.83
1024.419	1166.44
1024.709	1168.02
1025	1168.25
1025.29	1156.27
1025.58	1164.63
1025.87	1145.2
1026.16	1160.79
1026.449	1146.1
1026.739	1162.14
1027.029	1128.02
1027.319	1116.72
1027.608	1123.28
1027.898	1142.94
1028.187	1089.83
1028.477	1094.35
1028.766	1063.62
1029.055	1071.07
1029.344	1061.81
1029.634	1074.01
1029.923	1056.84
1030.212	1053.9
1030.501	1038.31
1030.79	1046.44
1031.078	1031.98
1031.367	1036.72
1031.656	1045.54
1031.945	1013.45
1032.233	1010.96
1032.522	1017.74
1032.81	996.05
1033.099	998.99
1033.387	984.52
1033.675	969.83
1033.963	931.42
1034.251	976.61
1034.54	958.31
1034.828	933.22
1035.116	942.04
1035.403	959.21
1035.691	920.12
1035.979	908.82
1036.267	923.05
1036.554	929.38
1036.842	872.21
1037.129	911.08
1037.417	908.14
1037.704	901.36
1037.992	907.01
1038.279	876.73
1038.566	873.56
1038.853	873.56
1039.14	873.56
