Data from hue_22_FLMS001491_00003.txt Node
Date: Tue Feb 07 17:09:24 GMT 2017
User: dcchb
Spectrometer: FLMS00149
Trigger mode: 0
Integration Time (sec): 2.000000E-2
Scans to average: 10
Electric dark correction enabled: true
Nonlinearity correction enabled: false
Boxcar width: 0
XAxis mode: Wavelengths
Number of Pixels in Spectrum: 2048
>>>>>Begin Spectral Data<<<<<
341.393	0.03
341.776	0.03
342.16	0.03
342.543	-42
342.927	-67.31
343.31	-85.17
343.693	-60.99
344.077	-63.02
344.46	-41.1
344.843	-58.73
345.226	-27.77
345.61	-30.71
345.993	-11.72
346.376	-29.12
346.759	15.17
347.142	25.34
347.525	64.21
347.908	33.25
348.291	60.14
348.674	90.87
349.057	119.35
349.44	132.91
349.823	144.43
350.206	142.4
350.588	193.92
350.971	198.44
351.354	230.53
351.737	225.11
352.119	272.56
352.502	244.32
352.884	285.9
353.267	282.96
353.65	291.55
354.032	314.6
354.414	300.13
354.797	314.6
355.179	322.05
355.562	318.21
355.944	339.68
356.326	334.03
356.709	329.96
357.091	338.55
357.473	345.56
357.855	330.87
358.238	350.08
358.62	339
359.002	340.36
359.384	350.98
359.766	344.43
360.148	325.9
360.53	337.19
360.912	342.39
361.294	339.68
361.676	331.77
362.057	331.09
362.439	336.52
362.821	331.32
363.203	338.55
363.584	316.18
363.966	327.7
364.348	328.38
364.729	334.71
365.111	327.7
365.493	330.64
365.874	315.73
366.256	327.7
366.637	317.53
367.019	305.33
367.4	340.81
367.781	309.62
368.163	309.62
368.544	326.8
368.925	315.27
369.306	336.97
369.688	307.14
370.069	314.6
370.45	309.62
370.831	326.35
371.212	295.16
371.593	337.42
371.974	318.66
372.355	297.42
372.736	312.56
373.117	307.36
373.498	329.06
373.879	332.67
374.26	313.69
374.641	320.92
375.021	315.95
375.402	332.22
375.783	315.5
376.163	322.05
376.544	340.13
376.925	354.82
377.305	313.92
377.686	329.29
378.066	338.32
378.447	312.11
378.827	340.13
379.208	337.87
379.588	324.09
379.968	331.09
380.349	339.45
380.729	339
381.109	342.17
381.489	331.32
381.87	357.08
382.25	363.18
382.63	331.32
383.01	354.37
383.39	341.71
383.77	341.71
384.15	331.32
384.53	344.65
384.91	346.46
385.29	333.58
385.67	345.33
386.049	365.67
386.429	342.39
386.809	349.4
387.189	332.22
387.568	339.91
387.948	353.24
388.328	363.86
388.707	354.14
389.087	352.56
389.466	356.86
389.846	357.98
390.225	369.74
390.605	352.34
390.984	342.62
391.363	356.18
391.743	355.95
392.122	356.63
392.501	393.69
392.881	349.62
393.26	377.19
393.639	389.62
394.018	373.58
394.397	397.53
394.776	373.13
395.155	367.02
395.534	381.49
395.913	364.99
396.292	395.27
396.671	401.83
397.05	383.97
397.429	388.04
397.808	388.49
398.186	394.82
398.565	356.63
398.944	378.32
399.323	386.91
399.701	372.9
400.08	401.37
400.458	389.17
400.837	396.85
401.215	393.24
401.594	399.34
401.972	427.59
402.351	398.66
402.729	382.84
403.107	407.02
403.486	416.06
403.864	412.9
404.242	394.59
404.62	410.64
404.999	396.85
405.377	412.67
405.755	403.63
406.133	419.68
406.511	419
406.889	429.62
407.267	415.61
407.645	447.7
408.023	421.71
408.401	419
408.779	444.31
409.156	433.01
409.534	422.16
409.912	426.01
410.29	446.12
410.667	451.09
411.045	443.63
411.422	441.37
411.8	441.82
412.178	444.99
412.555	447.7
412.933	450.19
413.31	444.54
413.687	471.43
414.065	476.63
414.442	444.54
414.819	476.4
415.197	486.57
415.574	461.03
415.951	469.85
416.328	454.93
416.705	472.11
417.082	474.82
417.46	497.19
417.837	508.04
418.214	485.67
418.591	499.9
418.967	520.24
419.344	515.72
419.721	496.06
420.098	515.04
420.475	502.16
420.852	508.04
421.228	510.52
421.605	512.56
421.982	499.22
422.358	520.92
422.735	522.05
423.111	515.72
423.488	521.14
423.864	546.23
424.241	540.8
424.617	532.9
424.994	551.65
425.37	560.47
425.746	529.51
426.123	544.87
426.499	538.77
426.875	564.53
427.251	578.09
427.627	553.91
428.003	573.8
428.379	566.57
428.756	578.09
429.132	564.76
429.507	572.67
429.883	577.64
430.259	591.88
430.635	576.74
431.011	601.59
431.387	590.07
431.763	614.48
432.138	614.93
432.514	631.65
432.89	602.05
433.265	635.49
433.641	659.22
434.016	641.59
434.392	630.97
434.767	640.46
435.143	661.48
435.518	666.45
435.894	644.31
436.269	666.9
436.644	667.36
437.02	684.53
437.395	668.03
437.77	682.27
438.145	692.89
438.52	685.21
438.895	702.83
439.271	664.87
439.646	687.47
440.021	713
440.395	703.06
440.77	730.4
441.145	705.32
441.52	758.2
441.895	734.02
442.27	744.64
442.645	717.75
443.019	734.7
443.394	741.25
443.769	729.27
444.143	736.96
444.518	766.56
444.892	739.44
445.267	744.42
445.641	775.83
446.016	763.85
446.39	744.19
446.764	783.28
447.139	783.96
447.513	769.73
447.887	776.05
448.262	783.06
448.636	783.51
449.01	793.23
449.384	803.62
449.758	812.66
450.132	828.03
450.506	811.76
450.88	826.45
451.254	818.31
451.628	805.66
452.002	822.38
452.376	839.78
452.75	867.35
453.123	845.43
453.497	869.84
453.871	873.45
454.244	870.97
454.618	884.75
454.992	896.5
455.365	912.32
455.739	913.68
456.112	936.05
456.486	918.42
456.859	944.86
457.232	922.04
457.606	941.25
457.979	952.55
458.352	964.97
458.725	997.97
459.099	990.51
459.472	1003.62
459.845	1029.38
460.218	1032.32
460.591	1023.96
460.964	985.99
461.337	1018.31
461.71	1065.99
462.083	1054.24
462.456	1056.05
462.829	1080.23
463.201	1085.65
463.574	1061.92
463.947	1093.33
464.32	1128.81
464.692	1122.03
465.065	1106.44
465.438	1145.76
465.81	1188.02
466.183	1165.65
466.555	1192.31
466.928	1201.13
467.3	1193.22
467.672	1233.22
468.045	1250.84
468.417	1274.35
468.789	1257.4
469.161	1297.17
469.534	1287.23
469.906	1314.8
470.278	1312.08
470.65	1321.8
471.022	1368.81
471.394	1401.8
471.766	1414.23
472.138	1383.95
472.51	1442.93
472.882	1453.1
473.253	1470.72
473.625	1512.08
473.997	1551.17
474.369	1531.29
474.74	1524.51
475.112	1566.99
475.484	1618.97
475.855	1636.82
476.227	1641.57
476.598	1670.27
476.97	1699.19
477.341	1718.63
477.713	1784.16
478.084	1783.94
478.455	1837.72
478.827	1857.83
479.198	1898.96
479.569	1922.46
479.94	1958.62
480.311	1954.1
480.682	2038.39
481.053	2083.59
481.424	2106.64
481.795	2132.85
482.166	2160.88
482.537	2182.57
482.908	2230.25
483.279	2267.54
483.65	2318.61
484.021	2349.12
484.391	2391.38
484.762	2412.39
485.133	2435.67
485.503	2487.42
485.874	2559.06
486.244	2569.23
486.615	2648.77
486.985	2662.11
487.356	2734.19
487.726	2716.57
488.097	2805.38
488.467	2823.46
488.837	2921.31
489.207	2891.03
489.578	2965.6
489.948	3011.47
490.318	3053.51
490.688	3085.14
491.058	3153.17
491.428	3188.19
491.798	3203.11
492.168	3291.24
492.538	3301.64
492.908	3347.06
493.278	3341.64
493.648	3390
494.017	3464.57
494.387	3472.25
494.757	3505.47
495.126	3571.01
495.496	3570.56
495.866	3576.88
496.235	3638.35
496.605	3699.14
496.974	3721.96
497.344	3742.08
497.713	3790.44
498.082	3799.02
498.452	3791.34
498.821	3917.89
499.19	3883.09
499.559	3909.98
499.928	3974.61
500.298	4002.41
500.667	4028.4
501.036	3974.84
501.405	4057.1
501.774	4101.84
502.143	4129.19
502.512	4099.81
502.88	4193.59
503.249	4230.65
503.618	4135.74
503.987	4234.49
504.356	4273.36
504.724	4311.1
505.093	4319.01
505.462	4313.36
505.83	4367.37
506.199	4397.43
506.567	4418.9
506.936	4432
507.304	4454.6
507.672	4528.04
508.041	4533.47
508.409	4554.48
508.777	4614.6
509.145	4583.64
509.514	4577.54
509.882	4617.08
510.25	4641.49
510.618	4690.3
510.986	4749.73
511.354	4736.4
511.722	4779.79
512.09	4801.03
512.458	4783.41
512.826	4865.44
513.193	4881.26
513.561	4873.35
513.929	4881.03
514.297	4942.05
514.664	4940.69
515.032	4964.87
515.4	5018.43
515.767	4977.75
516.135	5045.09
516.502	5043.06
516.869	5073.57
517.237	5120.35
517.604	5086.9
517.972	5119.22
518.339	5164.19
518.706	5184.3
519.073	5182.04
519.44	5164.19
519.808	5246.44
520.175	5228.59
520.542	5293.9
520.909	5337.52
521.276	5269.72
521.643	5381.58
522.009	5365.08
522.376	5387.68
522.743	5438.98
523.11	5434.24
523.477	5553.33
523.843	5556.94
524.21	5666.55
524.577	5643.95
524.943	5668.13
525.31	5665.64
525.676	5716.94
526.043	5744.51
526.409	5752.65
526.776	5869.93
527.142	5817.28
527.508	5854.79
527.874	5849.59
528.241	5910.38
528.607	5961.91
528.973	6032.64
529.339	6017.05
529.705	6084.39
530.071	6069.47
530.437	6101.56
530.803	6125.52
531.169	6183.82
531.535	6131.17
531.901	6218.62
532.267	6212.29
532.632	6256.36
532.998	6318.05
533.364	6341.1
533.73	6372.52
534.095	6422.01
534.461	6454.77
534.826	6466.07
535.192	6475.34
535.557	6545.84
535.923	6551.27
536.288	6608.67
536.653	6573.41
537.019	6578.84
537.384	6581.1
537.749	6600.98
538.114	6669.91
538.479	6609.57
538.845	6728.89
539.21	6693.19
539.575	6704.71
539.94	6715.78
540.305	6822
540.67	6800.75
541.034	6800.75
541.399	6885.72
541.764	6901.99
542.129	6861.77
542.494	6937.47
542.858	6975.21
543.223	6999.17
543.587	7004.82
543.952	7011.6
544.316	7099.95
544.681	7097.24
545.045	7197.58
545.41	7209.33
545.774	7206.17
546.138	7200.52
546.503	7232.83
546.867	7201.19
547.231	7314.86
547.595	7315.32
547.959	7359.38
548.324	7395.09
548.688	7357.35
549.052	7411.81
549.416	7466.05
549.779	7477.35
550.143	7474.63
550.507	7552.6
550.871	7577.23
551.235	7597.12
551.599	7571.81
551.962	7619.49
552.326	7710.11
552.689	7718.92
553.053	7727.96
553.417	7781.52
553.78	7852.03
554.143	7797.56
554.507	7810.44
554.87	7847.05
555.234	7868.75
555.597	7888.41
555.96	7891.8
556.323	7972.02
556.686	7951.46
557.05	7997.56
557.413	8034.17
557.776	7997.78
558.139	8055.41
558.502	8096.31
558.865	8059.48
559.228	8153.49
559.59	8135.18
559.953	8265.8
560.316	8320.26
560.679	8281.62
561.041	8358.68
561.404	8374.05
561.767	8414.04
562.129	8380.82
562.492	8412.91
562.854	8470.77
563.217	8443.42
563.579	8537.88
563.941	8545.79
564.304	8574.49
564.666	8665.34
565.028	8619.91
565.39	8683.87
565.753	8768.39
566.115	8755.5
566.477	8762.51
566.839	8870.08
567.201	8882.51
567.563	8859.91
567.925	8966.8
568.287	8974.26
568.648	9020.36
569.01	8993.46
569.372	9051.99
569.734	9003.63
570.095	9138.32
570.457	9140.58
570.819	9242.95
571.18	9185.1
571.542	9324.75
571.903	9306.9
572.265	9417.18
572.626	9450.18
572.987	9463.73
573.349	9532.43
573.71	9513.9
574.071	9584.41
574.432	9668.02
574.794	9744.86
575.155	9750.73
575.516	9720.22
575.877	9871.86
576.238	9911.63
576.599	9969.94
576.96	10039.99
577.32	10090.61
577.681	10154.79
578.042	10270.72
578.403	10352.3
578.763	10479.53
579.124	10495.8
579.485	10655.34
579.845	10734.89
580.206	10774.21
580.566	10818.95
580.927	11004.03
581.287	11173.97
581.648	11221.88
582.008	11360.63
582.368	11469.11
582.728	11593.4
583.089	11734.86
583.449	11860.73
583.809	12119.94
584.169	12264.11
584.529	12311.34
584.889	12651
585.249	12695.74
585.609	12803.31
585.969	13183.18
586.329	13226.8
586.688	13467.02
587.048	13639.44
587.408	13925.76
587.768	14116.72
588.127	14360.78
588.487	14455.69
588.846	14937.71
589.206	15066.98
589.565	15248.67
589.925	15552.16
590.284	15773.62
590.643	16131.13
591.003	16367.51
591.362	16660.16
591.721	16839.81
592.08	17139.46
592.44	17525.44
592.799	17756.4
593.158	18014.47
593.517	18337.85
593.876	18670.95
594.235	18846.54
594.593	19162.69
594.952	19533.75
595.311	19799.96
595.67	20131.7
596.029	20585.7
596.387	20842.19
596.746	21229.07
597.104	21465
597.463	21750.19
597.822	22196.73
598.18	22431.3
598.538	22705.19
598.897	23132.98
599.255	23278.74
599.613	23900.42
599.972	24091.15
600.33	24369.78
600.688	24575.2
601.046	25155.07
601.404	25410.21
601.762	25593.71
602.12	25986.24
602.478	26208.15
602.836	26560.23
603.194	26650.85
603.552	27118.86
603.91	27326.09
604.268	27764.27
604.625	27931.5
604.983	28299.17
605.341	28513.63
605.698	29031.13
606.056	29351.12
606.413	29403.55
606.771	29870.66
607.128	30183.19
607.485	30201.95
607.843	30439
608.2	30860.69
608.557	31204.63
608.914	31356.94
609.272	31791.73
609.629	31993.09
609.986	32252.29
610.343	32412.06
610.7	32807.53
611.057	32965.26
611.414	33223.56
611.771	33425.36
612.127	33661.74
612.484	33865.35
612.841	34062.86
613.198	34304.66
613.554	34336.3
613.911	34826.91
614.267	34896.74
614.624	35164.98
614.98	35400.23
615.337	35746.66
615.693	35646.77
616.05	35924.06
616.406	36263.71
616.762	36191.62
617.118	36373.76
617.475	36685.84
617.831	36926.97
618.187	37018.04
618.543	37104.59
618.899	37440.17
619.255	37528.76
619.611	37580.06
619.967	37970.1
620.323	38101.63
620.678	38004.68
621.034	38147.5
621.39	38163.09
621.746	38238.8
622.101	38773.25
622.457	38672.23
622.812	38714.72
623.168	39047.82
623.523	39070.64
623.879	39212.56
624.234	39160.58
624.589	39401.7
624.945	39535.26
625.3	39744.97
625.655	39542.04
626.01	39779.1
626.365	39804.86
626.72	39997.85
627.075	39924.85
627.43	39966.89
627.785	40053.89
628.14	40194
628.495	40227.45
628.85	40426.31
629.205	40154.9
629.559	40580.2
629.914	40339.08
630.269	40500.88
630.623	40481.22
630.978	40527.55
631.332	40686.64
631.687	40828.11
632.041	40539.3
632.396	40827.66
632.75	40666.98
633.104	40678.28
633.459	40623.82
633.813	40684.38
634.167	40731.39
634.521	40702.91
634.875	40858.84
635.229	40725.06
635.583	40662.91
635.937	40902.68
636.291	40693.42
636.645	40566.19
636.999	40760.31
637.352	40824.04
637.706	40613.65
638.06	40823.59
638.413	40713.08
638.767	40793.08
639.121	40711.27
639.474	40579.53
639.828	40577.49
640.181	40811.16
640.534	40710.6
640.888	40650.94
641.241	40573.42
641.594	40627.43
641.947	40741.78
642.301	40647.55
642.654	40710.82
643.007	40633.08
643.36	40760.31
643.713	40597.83
644.066	40848.22
644.419	40607.77
644.771	40335.69
645.124	40118.75
645.477	39893.67
645.83	39701.58
646.182	39751.98
646.535	39584.98
646.888	39719.44
647.24	39467.69
647.593	39835.82
647.945	39504.53
648.298	39481.48
648.65	39376.39
649.002	39208.94
649.355	39431.76
649.707	39515.37
650.059	39517.18
650.411	40093.66
650.763	40066.09
651.115	40432.64
651.467	40337.95
651.819	40328.01
652.171	40263.15
652.523	40255.69
652.875	40283.71
653.227	40131.4
653.578	40467.66
653.93	40158.29
654.282	40092.53
654.633	40008.24
654.985	40208.24
655.337	40168.01
655.688	40239.2
656.039	40167.79
656.391	39907.91
656.742	40188.35
657.094	40003.95
657.445	40201.23
657.796	40083.49
658.147	40162.36
658.498	40011.41
658.849	40197.62
659.2	39881.24
659.551	39883.05
659.902	40071.74
660.253	39936.61
660.604	40005.76
660.955	39928.24
661.306	40159.88
661.656	39892.99
662.007	40012.99
662.358	40005.08
662.708	40013.21
663.059	39906.78
663.409	39655.93
663.76	40012.76
664.11	39912.88
664.461	40032.65
664.811	39996.94
665.161	39895.93
665.511	39936.15
665.862	39904.29
666.212	40003.95
666.562	39876.27
666.912	39823.16
667.262	39859.32
667.612	39856.38
667.962	39886.21
668.312	39728.02
668.662	39995.59
669.011	39804.63
669.361	39714.46
669.711	39801.69
670.06	39608.7
670.41	39681.7
670.76	39688.48
671.109	39845.53
671.459	39877.85
671.808	39638.99
672.157	39750.62
672.507	39581.36
672.856	39498.42
673.205	39573.9
673.554	39747.23
673.904	39570.51
674.253	39765.99
674.602	39689.15
674.951	39136.17
675.3	38832
675.649	39470.4
675.998	39417.07
676.346	39490.06
676.695	39568.03
677.044	39225.21
677.393	39392.89
677.741	39423.4
678.09	39345.66
678.438	39327.58
678.787	39438.09
679.135	39273.12
679.484	39097.08
679.832	39213.46
680.181	39062.96
680.529	39062.5
680.877	39080.58
681.225	38977.99
681.573	39103.86
681.922	38974.37
682.27	38886.92
682.618	38882.17
682.966	38782.06
683.314	38832.91
683.661	38777.99
684.009	38360.6
684.357	38561.27
684.705	38377.55
685.053	38547.72
685.4	38293.71
685.748	38158.8
686.095	38238.8
686.443	38141.17
686.79	38044.9
687.138	38137.33
687.485	38071.34
687.832	37989.99
688.18	38032.7
688.527	37810.11
688.874	37776.66
689.221	37693.73
689.568	37573.73
689.915	37473.62
690.262	37535.99
690.609	37367.41
690.956	37444.24
691.303	37309.1
691.65	37083.57
691.997	37073.86
692.344	37071.6
692.69	36881.32
693.037	36888.55
693.383	36674.77
693.73	36778.95
694.077	36540.76
694.423	36687.88
694.769	36353.65
695.116	36362.69
695.462	36326.98
695.808	36090.15
696.155	36258.51
696.501	36019.87
696.847	35945.75
697.193	35779.43
697.539	35845.64
697.885	35637.06
698.231	35641.8
698.577	35564.74
698.923	35327.01
699.269	35346.44
699.614	35075.49
699.96	35153.68
700.306	35184.41
700.651	34857.42
700.997	34750.3
701.342	34688.61
701.688	34636.63
702.033	34762.96
702.379	34538.33
702.724	34415.85
703.069	34508.27
703.415	34299.69
703.76	34237.09
704.105	34217.21
704.45	33963.2
704.795	33967.04
705.14	33949.64
705.485	33845.47
705.83	33626.49
706.175	33850.66
706.52	33781.29
706.865	33571.35
707.209	33483.67
707.554	33330.9
707.899	33395.53
708.243	33072.83
708.588	33260.85
708.932	32976.79
709.277	33063.79
709.621	32890.01
709.966	32782.22
710.31	32711.71
710.654	32475.78
710.998	32738.6
711.342	32662.45
711.687	32519.4
712.031	32460.42
712.375	32295.9
712.719	32332.74
713.063	32284.6
713.407	32461.77
713.75	32201.22
714.094	32113.99
714.438	32083.25
714.782	32071.95
715.125	31912.18
715.469	31959.41
715.812	31748.35
716.156	31690.04
716.499	31662.7
716.843	31645.3
717.186	31575.92
717.53	31628.8
717.873	31632.19
718.216	31525.3
718.559	31330.96
718.902	31156.72
719.246	31251.41
719.589	31141.13
719.932	31021.59
720.275	31009.83
720.617	30932.1
720.96	30929.38
721.303	30897.75
721.646	30961.7
721.989	30657.53
722.331	30748.6
722.674	30764.64
723.016	30664.08
723.359	30698.88
723.701	30629.96
724.044	30484.88
724.386	30351.77
724.729	30497.53
725.071	30237.43
725.413	30361.72
725.755	30272.23
726.097	30172.79
726.439	30071.55
726.782	30118.56
727.124	30202.17
727.465	30058.45
727.807	30003.99
728.149	30014.38
728.491	30011.44
728.833	29851.9
729.175	29891.9
729.516	29739.13
729.858	29738
730.199	29829.3
730.541	29616.2
730.882	29598.8
731.224	29642.64
731.565	29403.32
731.906	29456.88
732.248	29532.81
732.589	29389.31
732.93	29302.31
733.271	29298.47
733.612	29296.89
733.953	29243.55
734.294	29136.44
734.635	29161.75
734.976	29262.99
735.317	28840.63
735.658	29028.19
735.999	29040.17
736.339	28962.2
736.68	29104.8
737.021	28930.57
737.361	28792.49
737.702	28945.93
738.042	28685.38
738.383	28744.58
738.723	28744.13
739.063	28567.86
739.404	28651.93
739.744	28599.5
740.084	28535.32
740.424	28590.91
740.764	28471.37
741.104	28726.73
741.444	28473.4
741.784	28299.17
742.124	28488.32
742.464	28326.97
742.804	28236.8
743.143	28222.79
743.483	28279.51
743.823	28032.29
744.162	28022.57
744.502	28094.43
744.841	27919.97
745.181	28041.55
745.52	27956.13
745.86	28043.13
746.199	27889.69
746.538	27841.1
746.877	28027.31
747.216	27878.62
747.556	27864.15
747.895	27744.38
748.234	27710.71
748.573	27595.01
748.911	27509.36
749.25	27631.39
749.589	27561.11
749.928	27517.95
750.267	27561.34
750.605	27381.68
750.944	27418.06
751.283	27195.92
751.621	27344.39
751.96	27318.86
752.298	27132.2
752.636	27164.06
752.975	27048.81
753.313	26954.57
753.651	27032.54
753.989	26934.69
754.327	26854.01
754.666	26802.71
755.004	26905.99
755.342	26795.71
755.679	26716.84
756.017	26547.35
756.355	26656.95
756.693	26524.3
757.031	26514.13
757.368	26375.38
757.706	26503.74
758.044	26221.26
758.381	26343.29
758.719	26099.91
759.056	26173.13
759.394	26199.34
759.731	25970.87
760.068	25970.42
760.405	25881.61
760.743	25761.16
761.08	25833.02
761.417	25807.03
761.754	25650.65
762.091	25640.71
762.428	25501.5
762.765	25367.95
763.102	25413.6
763.438	25215.41
763.775	25198.91
764.112	25274.84
764.449	25132.25
764.785	25016.77
765.122	24848.41
765.458	24949.88
765.795	24726.61
766.131	24746.72
766.467	24686.16
766.804	24572.26
767.14	24389.67
767.476	24429.89
767.812	24327.07
768.148	24418.37
768.485	24196.91
768.821	24069.45
769.157	24006.85
769.492	23938.16
769.828	23934.31
770.164	23742
770.5	23638.95
770.836	23705.17
771.171	23503.14
771.507	23454.33
771.842	23224.28
772.178	23344.5
772.513	23251.17
772.849	23181.11
773.184	23166.88
773.519	23118.52
773.855	22959.2
774.19	22814.57
774.525	22785.87
774.86	22819.77
775.195	22772.99
775.53	22537.06
775.865	22402.38
776.2	22275.15
776.535	22179.11
776.87	22185.43
777.205	22070.86
777.539	22047.81
777.874	22009.85
778.209	21824.09
778.543	21776.4
778.878	21765.56
779.212	21586.81
779.547	21562.85
779.881	21623.19
780.215	21416.19
780.55	21328.73
780.884	21232.69
781.218	21275.85
781.552	21215.97
781.886	21093.26
782.22	20938.46
782.554	20969.42
782.888	20744.57
783.222	20675.42
783.556	20664.57
783.889	20597.45
784.223	20401.75
784.557	20426.16
784.89	20413.28
785.224	20288.08
785.557	20187.07
785.891	20092.38
786.224	20097.8
786.558	20095.32
786.891	19864.14
787.224	19770.81
787.557	19724.93
787.891	19817.36
788.224	19763.12
788.557	19671.15
788.89	19628.21
789.223	19620.98
789.556	19423.92
789.888	19445.62
790.221	19266.64
790.554	19146.64
790.887	19245.4
791.219	19024.39
791.552	18996.36
791.884	18844.5
792.217	18883.83
792.549	18799.76
792.882	18773.77
793.214	18622.36
793.546	18702.36
793.879	18615.58
794.211	18474.57
794.543	18468.47
794.875	18383.05
795.207	18459.43
795.539	18362.48
795.871	18306.89
796.203	18233
796.535	18000.23
796.867	18002.27
797.198	17985.54
797.53	17973.34
797.862	17767.47
798.193	17843.63
798.525	17759.11
798.856	17716.85
799.188	17574.26
799.519	17424.2
799.85	17366.8
800.182	17314.6
800.513	17422.17
800.844	17206.58
801.175	17360.48
801.506	17285.9
801.837	17186.69
802.168	17075.06
802.499	17102.18
802.83	17006.81
803.161	16946.25
803.491	16982.18
803.822	16939.02
804.153	16829.42
804.483	16812.47
804.814	16624.9
805.145	16682.75
805.475	16669.42
805.805	16548.75
806.136	16522.53
806.466	16554.62
806.796	16469.2
807.126	16386.72
807.457	16407.05
807.787	16340.62
808.117	16238.47
808.447	16189.21
808.777	16264.23
809.107	16032.6
809.436	16117.8
809.766	16035.09
810.096	15975.65
810.426	15998.7
810.755	15951.47
811.085	15957.57
811.414	15843.45
811.744	15777.47
812.073	15768.65
812.403	15725.04
812.732	15581.31
813.061	15617.02
813.39	15570.92
813.719	15515.1
814.049	15528.66
814.378	15448.44
814.707	15433.07
815.036	15433.97
815.365	15321.66
815.693	15260.64
816.022	15269.68
816.351	15126.18
816.68	15130.48
817.008	15091.61
817.337	14928.45
817.665	14888.9
817.994	14933.87
818.322	14971.84
818.651	14939.52
818.979	14828.56
819.307	14919.41
819.636	14819.98
819.964	14754.89
820.292	14798.51
820.62	14714.67
820.948	14730.26
821.276	14770.49
821.604	14639.19
821.932	14824.27
822.259	14658.85
822.587	14633.99
822.915	14589.7
823.243	14690.04
823.57	14624.95
823.898	14668.12
824.225	14576.82
824.553	14653.88
824.88	14629.02
825.207	14686.65
825.535	14593.09
825.862	14719.19
826.189	14613.88
826.516	14673.09
826.843	14722.13
827.17	14672.64
827.497	14637.16
827.824	14673.09
828.151	14699.08
828.478	14672.18
828.805	14687.55
829.131	14602.13
829.458	14560.1
829.785	14596.03
830.111	14631.51
830.438	14639.64
830.764	14663.15
831.09	14603.26
831.417	14609.59
831.743	14662.24
832.069	14681.45
832.395	14510.83
832.722	14533.66
833.048	14555.8
833.374	14509.93
833.7	14420.44
834.026	14430.61
834.351	14511.74
834.677	14479.42
835.003	14437.39
835.329	14390.84
835.654	14392.64
835.98	14362.14
836.306	14331.18
836.631	14259.54
836.956	14341.12
837.282	14358.97
837.607	14238.75
837.932	14282.36
838.258	14251.18
838.583	14165.31
838.908	14097.74
839.233	14134.8
839.558	14037.4
839.883	14023.84
840.208	13982.49
840.533	13988.81
840.858	14037.85
841.182	14010.51
841.507	13995.59
841.832	13970.06
842.156	13893.9
842.481	13901.81
842.805	13841.92
843.13	13863.84
843.454	13788.14
843.778	13738.65
844.103	13686.67
844.427	13630.18
844.751	13633.57
845.075	13534.14
845.399	13584.98
845.723	13469.73
846.047	13454.36
846.371	13429.05
846.695	13427.02
847.019	13275.39
847.343	13234.48
847.666	13156.97
847.99	13069.97
848.313	13142.73
848.637	13011.21
848.96	13052.79
849.284	12955.62
849.607	12891.21
849.931	12883.53
850.254	12727.6
850.577	12733.93
850.9	12619.13
851.223	12599.47
851.546	12512.47
851.869	12482.64
852.192	12563.09
852.515	12428.18
852.838	12376.88
853.161	12429.31
853.483	12309.31
853.806	12273.38
854.129	12262.3
854.451	12155.87
854.774	12070.45
855.096	12060.05
855.419	12056.66
855.741	11980.5
856.063	11875.42
856.385	11897.12
856.708	11792.03
857.03	11826.38
857.352	11917.23
857.674	11829.77
857.996	11706.39
858.318	11688.53
858.64	11683.34
858.961	11697.35
859.283	11607.18
859.605	11599.95
859.926	11531.02
860.248	11590.68
860.57	11549.56
860.891	11551.36
861.212	11396.11
861.534	11355.89
861.855	11365.61
862.176	11360.41
862.498	11368.09
862.819	11348.43
863.14	11310.69
863.461	11337.58
863.782	11286.06
864.103	11211.71
864.424	11171.94
864.745	11208.55
865.065	11138.04
865.386	11211.94
865.707	11110.7
866.027	11177.14
866.348	11061.88
866.668	11045.84
866.989	11045.16
867.309	11036.35
867.63	11034.99
867.95	11079.96
868.27	10962.68
868.59	11053.07
868.91	10932.62
869.23	10933.07
869.55	10882.45
869.87	10913.64
870.19	10899.63
870.51	10817.6
870.83	10875.22
871.15	10740.08
871.469	10788.22
871.789	10823.92
872.109	10757.71
872.428	10710.03
872.748	10744.83
873.067	10713.64
873.386	10705.74
873.706	10682.91
874.025	10605.85
874.344	10563.59
874.663	10641.1
874.982	10491.05
875.301	10587.32
875.62	10577.83
875.939	10480.2
876.258	10460.09
876.577	10481.79
876.896	10419.19
877.214	10409.7
877.533	10441.56
877.852	10471.17
878.17	10418.29
878.489	10351.39
878.807	10413.09
879.125	10376.7
879.444	10330.6
879.762	10379.42
880.08	10355.69
880.398	10266.2
880.716	10353.2
881.034	10243.15
881.352	10231.4
881.67	10205.64
881.988	10180.55
882.306	10142.81
882.624	10110.5
882.941	10093.77
883.259	10086.32
883.577	10058.29
883.894	10018.3
884.212	10042.48
884.529	9955.92
884.846	9983.95
885.164	9922.93
885.481	9910.05
885.798	9929.48
886.115	9917.96
886.432	9903.95
886.75	9818.75
887.067	9788.47
887.383	9831.41
887.7	9807.23
888.017	9708.7
888.334	9771.97
888.651	9697.63
888.967	9717.06
889.284	9715.03
889.6	9643.84
889.917	9611.07
890.233	9615.59
890.55	9525.88
890.866	9518.87
891.182	9516.16
891.498	9522.72
891.815	9406.33
892.131	9435.03
892.447	9359.1
892.763	9341.03
893.079	9295.15
893.395	9348.71
893.71	9279.33
894.026	9272.78
894.342	9205.44
894.657	9162.95
894.973	9112.33
895.289	9113.69
895.604	9091.54
895.92	9054.93
896.235	9010.41
896.55	8987.81
896.865	8936.52
897.181	8912.34
897.496	8941.26
897.811	8854.94
898.126	8883.86
898.441	8808.38
898.756	8855.39
899.071	8816.29
899.386	8790.76
899.7	8683.42
900.015	8726.35
900.33	8564.77
900.644	8584.89
900.959	8575.4
901.273	8581.5
901.588	8503.99
901.902	8532.69
902.216	8462.63
902.531	8462.18
902.845	8418.79
903.159	8359.81
903.473	8329.07
903.787	8325.69
904.101	8275.52
904.415	8263.31
904.729	8194.84
905.042	8163.43
905.356	8159.81
905.67	8143.99
905.984	8164.11
906.297	8121.85
906.611	8051.12
906.924	8031.91
907.237	8015.18
907.551	7990.78
907.864	7889.54
908.177	7852.48
908.491	7846.15
908.804	7769.54
909.117	7733.16
909.43	7720.28
909.743	7649.09
910.056	7716.21
910.368	7627.17
910.681	7627.85
910.994	7558.47
911.307	7489.77
911.619	7490.68
911.932	7486.39
912.244	7473.28
912.557	7456.78
912.869	7358.25
913.181	7370.23
913.494	7353.28
913.806	7311.25
914.118	7284.36
914.43	7265.15
914.742	7303.79
915.054	7200.29
915.366	7183.57
915.678	7106.96
915.99	7089.56
916.302	7026.96
916.613	7030.13
916.925	7079.39
917.236	6993.29
917.548	6966.62
917.859	6986.96
918.171	6893.86
918.482	6849.79
918.794	6887.3
919.105	6801.43
919.416	6798.49
919.727	6759.85
920.038	6779.51
920.349	6756.01
920.66	6672.4
920.971	6698.61
921.282	6664.26
921.593	6619.74
921.903	6600.98
922.214	6544.26
922.525	6535.22
922.835	6504.72
923.146	6436.7
923.456	6446.41
923.767	6391.5
924.077	6427.2
924.387	6308.79
924.697	6310.6
925.008	6295
925.318	6262.24
925.628	6266.76
925.938	6229.24
926.248	6209.81
926.558	6130.49
926.867	6106.31
927.177	6117.38
927.487	6090.04
927.796	5985.86
928.106	5990.38
928.416	6043.49
928.725	5975.92
929.034	5974.79
929.344	5966.88
929.653	5984.05
929.962	5889.59
930.271	5873.09
930.581	5826.54
930.89	5781.57
931.199	5766.43
931.508	5785.19
931.817	5714
932.125	5667.68
932.434	5669.94
932.743	5649.82
933.051	5586.77
933.36	5588.36
933.669	5570.5
933.977	5544.52
934.286	5563.95
934.594	5552.65
934.902	5501.35
935.21	5487.34
935.519	5448.02
935.827	5443.73
936.135	5412.99
936.443	5368.47
936.751	5375.03
937.059	5341.13
937.367	5301.36
937.674	5300.23
937.982	5238.31
938.29	5187.01
938.597	5300
938.905	5173.45
939.213	5176.39
939.52	5127.13
939.827	5130.29
940.135	5086.22
940.442	5069.5
940.749	5078.09
941.056	5043.96
941.363	5003.96
941.67	4976.85
941.977	4951.54
942.284	4913.12
942.591	4933.91
942.898	4939.79
943.205	4941.37
943.511	4900.69
943.818	4906.11
944.125	4809.17
944.431	4840.8
944.738	4787.47
945.044	4783.63
945.35	4697.98
945.657	4731.43
945.963	4690.3
946.269	4701.6
946.575	4683.07
946.881	4599
947.187	4636.52
947.493	4573.69
947.799	4561.94
948.105	4600.59
948.41	4540.02
948.716	4542.06
949.022	4544.54
949.327	4491.66
949.633	4425.22
949.938	4462.06
950.244	4478.78
950.549	4388.84
950.854	4398.78
951.16	4377.54
951.465	4362.17
951.77	4330.08
952.075	4299.58
952.38	4261.61
952.685	4302.97
952.99	4238.56
953.294	4220.93
953.599	4213.7
953.904	4192.01
954.209	4139.58
954.513	4160.82
954.818	4147.49
955.122	4133.93
955.426	4090.77
955.731	4085.34
956.035	4054.16
956.339	4069.75
956.643	4050.77
956.948	4010.54
957.252	3973.48
957.556	3979.13
957.86	3994.5
958.163	3991.34
958.467	3925.35
958.771	3943.65
959.075	3903.88
959.378	3839.02
959.682	3869.31
959.985	3891.9
960.289	3829.76
960.592	3826.37
960.896	3819.59
961.199	3774.84
961.502	3764.22
961.805	3778.69
962.108	3723.32
962.411	3709.08
962.714	3681.97
963.017	3716.31
963.32	3661.63
963.623	3685.13
963.926	3662.3
964.228	3620.05
964.531	3648.07
964.833	3638.58
965.136	3557.9
965.438	3552.7
965.741	3514.74
966.043	3516.32
966.345	3511.57
966.648	3514.74
966.95	3511.12
967.252	3454.4
967.554	3428.64
967.856	3406.27
968.158	3432.48
968.46	3388.64
968.761	3379.37
969.063	3323.33
969.365	3391.13
969.666	3395.42
969.968	3308.87
970.269	3297.57
970.571	3308.64
970.872	3313.39
971.174	3268.64
971.475	3304.57
971.776	3212.37
972.077	3251.92
972.378	3231.58
972.679	3185.93
972.98	3172.37
973.281	3145.71
973.582	3140.96
973.883	3165.37
974.183	3135.99
974.484	3124.01
974.785	3103.9
975.085	3078.59
975.386	3111.13
975.686	3065.94
975.986	3042.89
976.287	3093.96
976.587	3024.13
976.887	3033.62
977.187	3023.68
977.487	2995.66
977.787	2973.06
978.087	2971.25
978.387	2950.23
978.687	2956.79
978.987	2933.51
979.286	2916.34
979.586	2925.6
979.885	2868.65
980.185	2840.86
980.484	2873.85
980.784	2875.21
981.083	2844.47
981.382	2803.57
981.682	2792.27
981.981	2814.64
982.28	2755.66
982.579	2753.85
982.878	2769.22
983.177	2748.66
983.475	2715.21
983.774	2754.98
984.073	2725.38
984.372	2686.51
984.67	2701.43
984.969	2677.7
985.267	2692.39
985.566	2697.58
985.864	2652.16
986.162	2638.15
986.461	2656.91
986.759	2626.4
987.057	2602.22
987.355	2568.32
987.653	2533.75
987.951	2554.76
988.249	2524.48
988.547	2547.31
988.844	2525.61
989.142	2522
989.44	2454.43
989.737	2480.64
990.035	2457.14
990.332	2481.09
990.63	2484.71
990.927	2454.43
991.224	2410.13
991.521	2392.51
991.819	2405.39
992.116	2404.71
992.413	2399.74
992.71	2391.38
993.006	2357.93
993.303	2328.55
993.6	2337.82
993.897	2339.85
994.193	2314.54
994.49	2305.5
994.787	2282.45
995.083	2295.56
995.379	2260.99
995.676	2296.69
995.972	2270.03
996.268	2263.25
996.565	2245.17
996.861	2220.53
997.157	2217.37
997.453	2207.88
997.749	2183.93
998.044	2195.68
998.34	2204.94
998.636	2146.86
998.932	2162.23
999.227	2153.64
999.523	2118.16
999.818	2072.06
1000.114	2125.4
1000.409	2075
1000.704	2098.5
1001	2052.63
1001.295	2075.91
1001.59	2065.51
1001.885	2043.59
1002.18	2035
1002.475	2038.17
1002.77	2001.78
1003.065	1993.2
1003.359	1998.85
1003.654	1993.42
1003.949	1999.75
1004.243	1971.5
1004.538	1955.68
1004.832	1953.65
1005.127	1940.32
1005.421	1912.29
1005.715	1902.58
1006.009	1896.25
1006.304	1865.06
1006.598	1877.27
1006.892	1861
1007.186	1827.1
1007.48	1802.01
1007.773	1829.13
1008.067	1795.24
1008.361	1805.63
1008.655	1790.49
1008.948	1786.42
1009.242	1780.55
1009.535	1774.22
1009.829	1743.71
1010.122	1742.58
1010.415	1743.49
1010.708	1717.72
1011.001	1710.49
1011.295	1689.48
1011.588	1692.19
1011.881	1665.97
1012.173	1671.85
1012.466	1662.13
1012.759	1659.42
1013.052	1693.54
1013.344	1628.46
1013.637	1646.09
1013.93	1631.4
1014.222	1610.16
1014.514	1588.01
1014.807	1618.06
1015.099	1589.36
1015.391	1568.12
1015.683	1567.22
1015.976	1556.15
1016.268	1541
1016.56	1560.21
1016.851	1518.18
1017.143	1546.88
1017.435	1513.66
1017.727	1502.59
1018.018	1504.4
1018.31	1494.9
1018.602	1480.22
1018.893	1461.01
1019.185	1452.87
1019.476	1442.7
1019.767	1444.74
1020.058	1424.4
1020.35	1409.03
1020.641	1388.24
1020.932	1420.78
1021.223	1400.9
1021.514	1395.25
1021.804	1384.85
1022.095	1366.55
1022.386	1373.33
1022.677	1349.15
1022.967	1327.68
1023.258	1306.21
1023.548	1330.16
1023.839	1284.51
1024.129	1316.38
1024.419	1324.29
1024.709	1305.98
1025	1279.77
1025.29	1268.24
1025.58	1262.37
1025.87	1248.36
1026.16	1229.83
1026.449	1243.39
1026.739	1231.41
1027.029	1219.88
1027.319	1202.26
1027.608	1227.11
1027.898	1216.04
1028.187	1210.62
1028.477	1190.96
1028.766	1185.31
1029.055	1170.62
1029.344	1172.88
1029.634	1158.19
1029.923	1150.28
1030.212	1164.07
1030.501	1139.66
1030.79	1119.55
1031.078	1111.64
1031.367	1117.74
1031.656	1096.5
1031.945	1071.86
1032.233	1105.31
1032.522	1090.17
1032.81	1072.54
1033.099	1057.85
1033.387	1067.57
1033.675	1055.82
1033.963	1059.21
1034.251	1058.31
1034.54	1054.24
1034.828	1028.7
1035.116	1012.43
1035.403	1027.12
1035.691	1013.33
1035.979	999.32
1036.267	1010.62
1036.554	1004.52
1036.842	986.67
1037.129	1002.49
1037.417	970.85
1037.704	977.4
1037.992	964.97
1038.279	958.65
1038.566	950.29
1038.853	950.29
1039.14	950.29
