Data from hue_10_FLMS001491_15.txt Node
Date: Mon Feb 06 15:31:29 GMT 2017
User: dcchb
Spectrometer: FLMS00149
Trigger mode: 0
Integration Time (sec): 2.000000E-2
Scans to average: 10
Electric dark correction enabled: true
Nonlinearity correction enabled: false
Boxcar width: 0
XAxis mode: Wavelengths
Number of Pixels in Spectrum: 2048
>>>>>Begin Spectral Data<<<<<
341.393	-5.79
341.776	-5.79
342.16	-5.79
342.543	-47.6
342.927	-76.75
343.31	-67.71
343.693	-74.04
344.077	-64.55
344.46	-70.87
344.843	-50.08
345.226	-54.6
345.61	-34.04
345.993	-25.9
346.376	10.48
346.759	20.88
347.142	15.68
347.525	48.45
347.908	58.84
348.291	79.63
348.674	99.07
349.057	108.78
349.44	135.45
349.823	141.55
350.206	156.01
350.588	182.68
350.971	191.27
351.354	226.97
351.737	253.19
352.119	253.19
352.502	241.66
352.884	246.63
353.267	287.31
353.65	291.38
354.032	302
354.414	295.67
354.797	306.74
355.179	319.62
355.562	339.28
355.944	304.48
356.326	320.75
356.709	333.18
357.091	334.77
357.473	352.17
357.855	335.44
358.238	322.56
358.62	330.02
359.002	341.32
359.384	319.85
359.766	323.47
360.148	316.69
360.53	324.82
360.912	353.52
361.294	335.44
361.676	340.41
362.057	338.38
362.439	347.65
362.821	317.82
363.203	341.54
363.584	332.96
363.966	334.99
364.348	319.85
364.729	277.14
365.111	319.62
365.493	319.85
365.874	332.73
366.256	309.46
366.637	322.11
367.019	308.55
367.4	325.27
367.781	329.79
368.163	314.2
368.544	314.65
368.925	331.15
369.306	296.57
369.688	316.01
370.069	323.69
370.45	311.49
370.831	290.47
371.212	317.59
371.593	320.3
371.974	326.4
372.355	323.47
372.736	311.26
373.117	339.51
373.498	315.78
373.879	320.75
374.26	314.43
374.641	291.15
375.021	313.97
375.402	322.34
375.783	324.37
376.163	303.13
376.544	320.98
376.925	313.75
377.305	295.44
377.686	319.85
378.066	330.25
378.447	323.69
378.827	325.27
379.208	310.13
379.588	330.47
379.968	336.8
380.349	328.21
380.729	322.11
381.109	339.28
381.489	332.05
381.87	323.01
382.25	329.79
382.63	315.1
383.01	332.73
383.39	328.89
383.77	332.73
384.15	334.99
384.53	338.38
384.91	344.71
385.29	344.48
385.67	330.25
386.049	325.05
386.429	348.1
386.809	328.21
387.189	354.2
387.568	348.1
387.948	342.45
388.328	342.22
388.707	346.52
389.087	328.21
389.466	353.97
389.846	353.07
390.225	343.35
390.605	356.91
390.984	353.07
391.363	372.05
391.743	365.5
392.122	366.4
392.501	354.65
392.881	368.66
393.26	351.26
393.639	370.92
394.018	370.47
394.397	355.78
394.776	338.38
395.155	353.52
395.534	368.44
395.913	386.74
396.292	391.94
396.671	348.55
397.05	372.5
397.429	356.23
397.808	358.27
398.186	356.69
398.565	366.63
398.944	389.23
399.323	367.76
399.701	378.38
400.08	381.77
400.458	360.75
400.837	393.29
401.215	385.39
401.594	374.31
401.972	389
402.351	375.44
402.729	381.32
403.107	385.39
403.486	372.5
403.864	392.62
404.242	401.66
404.62	385.84
404.999	395.33
405.377	397.36
405.755	407.08
406.133	396.01
406.511	393.07
406.889	394.42
407.267	401.88
407.645	418.15
408.023	401.2
408.401	407.31
408.779	402.79
409.156	428.32
409.534	430.13
409.912	400.3
410.29	418.6
410.667	434.65
411.045	418.15
411.422	439.62
411.8	426.29
412.178	429.68
412.555	426.06
412.933	432.16
413.31	424.25
413.687	431.71
414.065	436.46
414.442	456.12
414.819	433.07
415.197	449.11
415.574	446.4
415.951	477.81
416.328	457.25
416.705	458.15
417.082	463.12
417.46	463.58
417.837	476.46
418.214	463.8
418.591	459.73
418.967	485.72
419.344	466.51
419.721	472.84
420.098	469.68
420.475	482.33
420.852	469.45
421.228	501.54
421.605	493.41
421.982	483.69
422.358	509.45
422.735	493.18
423.111	478.49
423.488	496.12
423.864	500.86
424.241	502.9
424.617	485.72
424.994	522.33
425.37	515.78
425.746	515.55
426.123	518.49
426.499	519.39
426.875	537.02
427.251	519.39
427.627	525.04
428.003	528.66
428.379	539.73
428.756	553.97
429.132	535.21
429.507	546.96
429.883	557.81
430.259	573.63
430.635	563.23
431.011	561.88
431.387	551.93
431.763	574.08
432.138	585.15
432.514	574.76
432.89	580.18
433.265	583.57
433.641	594.42
434.016	589.67
434.392	584.48
434.767	614.08
435.143	613.4
435.518	612.72
435.894	581.76
436.269	622.44
436.644	628.54
437.02	635.77
437.395	625.15
437.77	624.93
438.145	641.88
438.52	641.2
438.895	661.54
439.271	650.24
439.646	652.5
440.021	676.9
440.395	648.2
440.77	635.55
441.145	670.35
441.52	691.14
441.895	676.23
442.27	676.9
442.645	671.03
443.019	667.64
443.394	689.33
443.769	689.33
444.143	674.87
444.518	693.63
444.892	706.28
445.267	699.73
445.641	675.55
446.016	694.08
446.39	693.85
446.764	694.3
447.139	697.24
447.513	733.17
447.887	722.1
448.262	721.2
448.636	744.47
449.01	731.36
449.384	730.91
449.758	745.15
450.132	751.93
450.506	720.07
450.88	748.54
451.254	743.34
451.628	768.43
452.002	754.87
452.376	766.84
452.75	775.21
453.123	781.99
453.497	788.09
453.871	779.95
454.244	809.78
454.618	806.62
454.992	795.54
455.365	802.55
455.739	828.76
456.112	817.69
456.486	828.31
456.859	852.72
457.232	838.03
457.606	871.02
457.979	876.45
458.352	866.05
458.725	882.55
459.099	877.8
459.472	872.15
459.845	872.15
460.218	898.37
460.591	911.02
460.964	942.66
461.337	930.46
461.71	948.08
462.083	913.51
462.456	944.24
462.829	977.01
463.201	973.17
463.574	964.35
463.947	983.79
464.32	1020.85
464.692	1005.93
465.065	1040.74
465.438	1046.16
465.81	1021.53
466.183	1023.33
466.555	1080.51
466.928	1061.75
467.3	1095.42
467.672	1070.79
468.045	1120.28
468.417	1110.11
468.789	1131.58
469.161	1139.72
469.534	1143.33
469.906	1177.68
470.278	1175.65
470.65	1184.69
471.022	1204.35
471.394	1263.55
471.766	1264.68
472.138	1257.23
472.51	1282.31
472.882	1317.79
473.253	1315.98
473.625	1341.74
473.997	1358.69
474.369	1348.75
474.74	1377.9
475.112	1400.95
475.484	1434.62
475.855	1484.79
476.227	1477.56
476.598	1520.04
476.97	1510.1
477.341	1555.98
477.713	1563.43
478.084	1584.45
478.455	1656.99
478.827	1684.11
479.198	1701.96
479.569	1699.93
479.94	1780.15
480.311	1773.82
480.682	1805.24
481.053	1854.95
481.424	1913.48
481.795	1911.45
482.166	1939.92
482.537	1994.61
482.908	2021.95
483.279	2040.71
483.65	2082.52
484.021	2151.44
484.391	2158.67
484.762	2194.15
485.133	2224.89
485.503	2220.59
485.874	2289.52
486.244	2316.86
486.615	2399.57
486.985	2416.07
487.356	2482.05
487.726	2498.78
488.097	2517.53
488.467	2552.11
488.837	2636.17
489.207	2689.73
489.578	2717.53
489.948	2723.4
490.318	2763.18
490.688	2783.74
491.058	2810.86
491.428	2887.01
491.798	2930.18
492.168	2950.52
492.538	2947.13
492.908	3057.86
493.278	3060.34
493.648	3068.25
494.017	3125.2
494.387	3119.55
494.757	3169.49
495.126	3237.29
495.496	3250.62
495.866	3256.04
496.235	3277.29
496.605	3343.05
496.974	3320.45
497.344	3389.6
497.713	3411.75
498.082	3469.15
498.452	3488.81
498.821	3477.51
499.19	3492.42
499.559	3585.3
499.928	3575.81
500.298	3603.38
500.667	3668.01
501.036	3632.53
501.405	3636.83
501.774	3679.76
502.143	3735.35
502.512	3701
502.88	3725.41
503.249	3759.76
503.618	3796.82
503.987	3791.17
504.356	3853.99
504.724	3857.61
505.093	3871.17
505.462	3896.93
505.83	3895.8
506.199	3921.56
506.567	3990.04
506.936	3949.36
507.304	4006.31
507.672	4033.88
508.041	4072.29
508.409	4055.57
508.777	4097.38
509.145	4092.63
509.514	4119.07
509.882	4187.77
510.25	4131.95
510.618	4154.33
510.986	4192.29
511.354	4184.16
511.722	4209.01
512.09	4279.75
512.458	4268.9
512.826	4286.98
513.193	4280.88
513.561	4252.4
513.929	4277.49
514.297	4351.16
514.664	4402
515.032	4383.7
515.4	4414.88
515.767	4414.66
516.135	4407.88
516.502	4416.92
516.869	4448.33
517.237	4516.8
517.604	4456.01
517.972	4464.83
518.339	4500.08
518.706	4490.59
519.073	4522.68
519.44	4582.11
519.808	4548.89
520.175	4560.42
520.542	4653.52
520.909	4639.51
521.276	4640.41
521.643	4627.31
522.009	4666.85
522.376	4694.65
522.743	4701.66
523.11	4794.31
523.477	4844.03
523.843	4792.95
524.21	4809.45
524.577	4873.63
524.943	4903.91
525.31	4871.14
525.676	4936.9
526.043	4937.36
526.409	4976.45
526.776	5027.3
527.142	5032.04
527.508	5059.84
527.874	5110.68
528.241	5121.31
528.607	5113.4
528.973	5178.25
529.339	5192.49
529.705	5201.08
530.071	5188.65
530.437	5256.22
530.803	5277.69
531.169	5319.04
531.535	5317.46
531.901	5390.45
532.267	5392.03
532.632	5397.46
532.998	5425.03
533.364	5444.46
533.73	5485.36
534.095	5540.96
534.461	5477.23
534.826	5534.63
535.192	5523.1
535.557	5564.68
535.923	5613.04
536.288	5554.29
536.653	5614.85
537.019	5639.71
537.384	5630.67
537.749	5674.74
538.114	5733.49
538.479	5718.58
538.845	5713.38
539.21	5763.55
539.575	5796.09
539.94	5775.3
540.305	5841.29
540.67	5813.49
541.034	5831.34
541.399	5916.54
541.764	5886.94
542.129	5934.39
542.494	5972.81
542.858	5990.66
543.223	6033.82
543.587	6038.34
543.952	6060.49
544.316	6064.33
544.681	6086.48
545.045	6160.6
545.41	6190.88
545.774	6233.59
546.138	6185.68
546.503	6186.14
546.867	6226.81
547.231	6307.72
547.595	6330.31
547.959	6352.23
548.324	6360.37
548.688	6375.51
549.052	6420.93
549.416	6433.81
549.779	6426.58
550.143	6450.76
550.507	6461.38
550.871	6515.17
551.235	6484.21
551.599	6562.85
551.962	6628.16
552.326	6584.32
552.689	6595.62
553.053	6687.37
553.417	6587.26
553.78	6688.72
554.143	6672.45
554.507	6689.17
554.87	6701.6
555.234	6745.44
555.597	6768.04
555.96	6798.55
556.323	6780.92
556.686	6793.35
557.05	6836.29
557.413	6820.7
557.776	6893.24
558.139	6973.23
558.502	6861.6
558.865	6905.44
559.228	7005.78
559.59	7001.03
559.953	7049.16
560.316	7099.56
560.679	7123.06
561.041	7118.32
561.404	7120.8
561.767	7126.9
562.129	7110.18
562.492	7188.6
562.854	7235.6
563.217	7171.42
563.579	7239.67
563.941	7258.65
564.304	7310.63
564.666	7341.13
565.028	7420
565.39	7399.89
565.753	7361.47
566.115	7418.42
566.477	7463.84
566.839	7438.31
567.201	7481.7
567.563	7554.69
567.925	7611.86
568.287	7599.88
568.648	7596.04
569.01	7745.19
569.372	7655.25
569.734	7668.58
570.095	7779.54
570.457	7823.83
570.819	7880.56
571.18	7884.62
571.542	7883.04
571.903	7921.46
572.265	7978.41
572.626	8009.37
572.987	8038.52
573.349	8092.98
573.71	8144.73
574.071	8166.65
574.432	8205.52
574.794	8246.42
575.155	8377.94
575.516	8327.32
575.877	8407.77
576.238	8430.6
576.599	8576.13
576.96	8681.66
577.32	8692.29
577.681	8754.66
578.042	8863.81
578.403	8871.94
578.763	8908.55
579.124	9052.95
579.485	9167.53
579.845	9294.76
580.206	9338.6
580.566	9498.59
580.927	9554.41
581.287	9687.97
581.648	9808.64
582.008	9909.43
582.368	10069.65
582.728	10197.56
583.089	10344.67
583.449	10499.7
583.809	10605.68
584.169	10796.19
584.529	10904.2
584.889	11175.61
585.249	11294.03
585.609	11450.86
585.969	11718.42
586.329	11871.41
586.688	12035.02
587.048	12217.16
587.408	12364.28
587.768	12711.61
588.127	12847.88
588.487	13066.86
588.846	13431.14
589.206	13527.19
589.565	13757.69
589.925	14049.88
590.284	14314.74
590.643	14542.08
591.003	14753.82
591.362	15101.61
591.721	15313.81
592.08	15557.87
592.44	15961.47
592.799	16210.51
593.158	16387.9
593.517	16693.43
593.876	16958.06
594.235	17326.63
594.593	17581.54
594.952	17786.28
595.311	18146.95
595.67	18485.7
596.029	18842.08
596.387	19135.4
596.746	19348.95
597.104	19584.88
597.463	19857.19
597.822	20309.83
598.18	20453.78
598.538	20701.46
598.897	21136.7
599.255	21176.7
599.613	21927.19
599.972	22028.66
600.33	22291.93
600.688	22541.19
601.046	22908.41
601.404	23239.25
601.762	23404.89
602.12	23793.58
602.478	24130.3
602.836	24361.03
603.194	24454.36
603.552	24924.18
603.91	25029.26
604.268	25400.77
604.625	25649.81
604.983	25982.68
605.341	26163.24
605.698	26486.39
606.056	26765.93
606.413	26848.42
606.771	27344
607.128	27434.84
607.485	27638
607.843	27922.51
608.2	28228.04
608.557	28458.55
608.914	28695.83
609.272	28994.8
609.629	29120.45
609.986	29529.7
610.343	29645.41
610.7	29950.94
611.057	30162.23
611.414	30238.84
611.771	30550.24
612.127	30761.99
612.484	30937.12
612.841	31329.43
613.198	31209.43
613.554	31413.27
613.911	31830.89
614.267	31900.04
614.624	32142.06
614.98	32313.59
615.337	32433.81
615.693	32570.75
616.05	32769.62
616.406	33075.83
616.762	33160.57
617.118	33264.75
617.475	33375.03
617.831	33678.52
618.187	33737.05
618.543	33860.44
618.899	34372.06
619.255	34240.31
619.611	34329.35
619.967	34553.98
620.323	34622.23
620.678	34684.14
621.034	34656.12
621.39	34879.17
621.746	34976.34
622.101	35411.81
622.457	35299.04
622.812	35486.84
623.168	35703.33
623.523	35737.45
623.879	35852.48
624.234	35697.68
624.589	35948.74
624.945	36000.49
625.3	36078.01
625.655	36299.02
626.01	36359.58
626.365	36576.52
626.72	36489.52
627.075	36531.1
627.43	36558.67
627.785	36652.68
628.14	36748.72
628.495	36749.17
628.85	36864.88
629.205	36712.34
629.559	37016.96
629.914	36887.48
630.269	36936.74
630.623	36946.46
630.978	36909.17
631.332	37113.01
631.687	37065.1
632.041	37096.51
632.396	37104.65
632.75	37077.08
633.104	37215.38
633.459	37084.08
633.813	37139.9
634.167	37063.29
634.521	37231.65
634.875	37281.36
635.229	37269.61
635.583	37161.82
635.937	37115.04
636.291	37259.22
636.645	37253.79
636.999	37284.08
637.352	37356.39
637.706	37146
638.06	37361.36
638.413	37256.28
638.767	37183.06
639.121	37242.27
639.474	36939.68
639.828	37265.55
640.181	37200.46
640.534	37473.9
640.888	37161.37
641.241	37008.83
641.594	37095.38
641.947	37288.6
642.301	37148.94
642.654	37058.32
643.007	37336.5
643.36	37080.69
643.713	37141.03
644.066	37329.05
644.419	37100.58
644.771	36832.79
645.124	36528.16
645.477	36481.84
645.83	36312.12
646.182	36042.98
646.535	36132.69
646.888	36179.02
647.24	36004.11
647.593	36116.2
647.945	36168.17
648.298	36034.17
648.65	35902.42
649.002	35813.15
649.355	36080.49
649.707	35965.24
650.059	36171.56
650.411	36550.31
650.763	36575.62
651.115	36935.84
651.467	36751.43
651.819	36856.97
652.171	36772.23
652.523	36592.79
652.875	36809.29
653.227	36656.07
653.578	36781.26
653.93	36775.16
654.282	36514.38
654.633	36552.8
654.985	36578.78
655.337	36692
655.688	36553.93
656.039	36703.75
656.391	36455.85
656.742	36494.04
657.094	36476.87
657.445	36752.34
657.796	36680.93
658.147	36549.63
658.498	36454.27
658.849	36551.67
659.2	36558.45
659.551	36427.6
659.902	36605
660.253	36490.65
660.604	36520.25
660.955	36337.89
661.306	36500.14
661.656	36300.15
662.007	36496.75
662.358	36431.67
662.708	36515.73
663.059	36534.04
663.409	36078.68
663.76	36515.28
664.11	36350.77
664.461	36296.53
664.811	36549.86
665.161	36421.95
665.511	36381.05
665.862	36293.14
666.212	36454.27
666.562	36575.17
666.912	36359.81
667.262	36514.6
667.612	36366.36
667.962	36214.5
668.312	36404.78
668.662	36493.81
669.011	36389.41
669.361	36396.64
669.711	36264.89
670.06	36368.85
670.41	36194.16
670.76	36185.35
671.109	36275.97
671.459	36305.34
671.808	36159.59
672.157	36183.77
672.507	36095.41
672.856	36082.3
673.205	36362.29
673.554	36275.97
673.904	36219.25
674.253	36328.17
674.602	36138.8
674.951	35577.45
675.3	35597.57
675.649	36128.85
675.998	36102.41
676.346	36065.8
676.695	36258.34
677.044	35854.28
677.393	36042.53
677.741	36045.69
678.09	35948.74
678.438	35892.25
678.787	35945.35
679.135	35856.09
679.484	35770.67
679.832	35858.8
680.181	35701.29
680.529	35804.12
680.877	35704.23
681.225	35565.25
681.573	35689.77
681.922	35572.93
682.27	35421.53
682.618	35503.11
682.966	35321.19
683.314	35458.81
683.661	35359.61
684.009	35146.96
684.357	35055.89
684.705	34992.39
685.053	35017.47
685.4	35075.77
685.748	34881.65
686.095	34838.94
686.443	34685.95
686.79	34718.04
687.138	34760.53
687.485	34855.21
687.832	34708.78
688.18	34750.58
688.527	34567.54
688.874	34516.47
689.221	34349.69
689.568	34259.52
689.915	34281.44
690.262	34226.76
690.609	34120.54
690.956	34133.42
691.303	34059.75
691.65	33875.8
691.997	33810.27
692.344	33592.87
692.69	33697.28
693.037	33689.37
693.383	33397.4
693.73	33493.67
694.077	33368.25
694.423	33324.63
694.769	33288.25
695.116	33150.85
695.462	33008.03
695.808	32921.48
696.155	33022.04
696.501	32792.89
696.847	32715.38
697.193	32396.52
697.539	32704.99
697.885	32568.49
698.231	32402.4
698.577	32359.91
698.923	32129.41
699.269	32164.66
699.614	31959.7
699.96	31969.19
700.306	32037.43
700.651	31760.15
700.997	31664.79
701.342	31659.82
701.688	31763.32
702.033	31561.51
702.379	31468.18
702.724	31515.87
703.069	31578.01
703.415	31143.67
703.76	31048.53
704.105	31111.36
704.45	31087.85
704.795	30903.9
705.14	30826.39
705.485	30819.84
705.83	30700.52
706.175	30713.4
706.52	30593.18
706.865	30449.68
707.209	30481.54
707.554	30333.75
707.899	30339.17
708.243	30283.58
708.588	30206.3
708.932	30074.32
709.277	29993.65
709.621	29963.14
709.966	29853.54
710.31	29925.63
710.654	29533.32
710.998	29668.68
711.342	29721.11
711.687	29600.66
712.031	29468.24
712.375	29419.2
712.719	29535.58
713.063	29405.64
713.407	29429.14
713.75	29195.93
714.094	29224.63
714.438	29075.7
714.782	29173.33
715.125	29047.68
715.469	29058.3
715.812	28900.34
716.156	28786.9
716.499	28832.55
716.843	28823.28
717.186	28631.87
717.53	28873.45
717.873	28775.37
718.216	28578.54
718.559	28429.39
718.902	28346.91
719.246	28357.98
719.589	28388.49
719.932	28231.43
720.275	28172.68
720.617	28232.11
720.96	28107.14
721.303	28138.1
721.646	28145.33
721.989	27797.09
722.331	27945.79
722.674	27986.24
723.016	27913.02
723.359	27917.32
723.701	27839.13
724.044	27653.59
724.386	27626.03
724.729	27737.43
725.071	27652.69
725.413	27656.08
725.755	27513.26
726.097	27565.91
726.439	27328.41
726.782	27322.98
727.124	27438.46
727.465	27300.16
727.807	27249.31
728.149	27274.17
728.491	27195.08
728.833	27276.2
729.175	27033.27
729.516	27021.07
729.858	27006.83
730.199	26979.04
730.541	27038.47
730.882	26918.92
731.224	26970.68
731.565	26858.81
731.906	26868.08
732.248	26830.34
732.589	26651.36
732.93	26605.94
733.271	26565.49
733.612	26598.03
733.953	26609.78
734.294	26528.43
734.635	26401.42
734.976	26490.24
735.317	26320.52
735.658	26333.4
735.999	26410.24
736.339	26303.57
736.68	26238.72
737.021	26196.23
737.361	26180.87
737.702	26266.74
738.042	26053.19
738.383	26149.45
738.723	26174.76
739.063	25958.72
739.404	26065.84
739.744	26035.56
740.084	25899.74
740.424	26014.09
740.764	25848.67
741.104	25855.9
741.444	25830.82
741.784	25765.51
742.124	25814.32
742.464	25648.22
742.804	25646.19
743.143	25590.82
743.483	25666.08
743.823	25539.3
744.162	25584.95
744.502	25546.53
744.841	25423.15
745.181	25475.35
745.52	25360.77
745.86	25365.29
746.199	25369.36
746.538	25354.67
746.877	25388.57
747.216	25406.65
747.556	25192.19
747.895	25156.03
748.234	25245.97
748.573	25163.04
748.911	25041.23
749.25	25050.05
749.589	24976.83
749.928	25137.28
750.267	25079.43
750.605	24888.92
750.944	24839.66
751.283	24788.13
751.621	24840.79
751.96	24657.06
752.298	24673.56
752.636	24694.12
752.975	24583.62
753.313	24505.88
753.651	24640.79
753.989	24489.84
754.327	24369.61
754.666	24376.84
755.004	24460.46
755.342	24326.68
755.679	24409.39
756.017	24246.68
756.355	24231.09
756.693	24090.75
757.031	24237.41
757.368	23996.74
757.706	23986.12
758.044	23911.32
758.381	23947.93
758.719	23867.93
759.056	23886.91
759.394	23747.93
759.731	23680.37
760.068	23624.77
760.405	23539.35
760.743	23412.12
761.08	23452.35
761.417	23427.72
761.754	23416.42
762.091	23267.04
762.428	23152.24
762.765	23077.22
763.102	23089.87
763.438	23015.75
763.775	22949.54
764.112	22985.47
764.449	22957.67
764.785	22846.94
765.122	22752.48
765.458	22764.23
765.795	22505.03
766.131	22574.86
766.467	22517.68
766.804	22409.89
767.14	22226.62
767.476	22294.41
767.812	22167.19
768.148	22237.24
768.485	22012.16
768.821	21910.7
769.157	21941.2
769.492	21870.47
769.828	21904.14
770.164	21650.14
770.5	21616.47
770.836	21517.03
771.171	21415.11
771.507	21483.59
771.842	21295.8
772.178	21266.64
772.513	21085.18
772.849	21052.41
773.184	21052.19
773.519	21042.92
773.855	20926.09
774.19	20792.31
774.525	20791.4
774.86	20663.27
775.195	20629.37
775.53	20615.59
775.865	20362.94
776.2	20338.98
776.535	20211.76
776.87	20234.13
777.205	20221.02
777.539	20079.33
777.874	20087.47
778.209	19960.69
778.543	19841.14
778.878	19743.52
779.212	19712.56
779.547	19631.21
779.881	19722.05
780.215	19544.43
780.55	19518.22
780.884	19454.04
781.218	19355.06
781.552	19354.38
781.886	19327.94
782.22	19186.02
782.554	19099.7
782.888	18864.45
783.222	18771.12
783.556	18785.58
783.889	18804.56
784.223	18623.55
784.557	18599.6
784.89	18697.22
785.224	18507.62
785.557	18409.32
785.891	18325.25
786.224	18380.84
786.558	18266.5
786.891	18102.66
787.224	18079.61
787.557	17932.04
787.891	17980.4
788.224	17913.51
788.557	17958.26
788.89	17894.76
789.223	17851.59
789.556	17760.75
789.888	17599.62
790.221	17615.89
790.554	17441.21
790.887	17438.95
791.219	17366.41
791.552	17353.75
791.884	17224.49
792.217	17155.79
792.549	17199.18
792.882	17001.45
793.214	16935.46
793.546	17006.64
793.879	16872.64
794.211	16836.25
794.543	16828.12
794.875	16648.46
795.207	16780.21
795.539	16636.48
795.871	16624.05
796.203	16501.35
796.535	16488.46
796.867	16430.16
797.198	16349.71
797.53	16316.49
797.862	16203.27
798.193	16218.87
798.525	16099.32
798.856	16178.64
799.188	16029.49
799.519	15860.68
799.85	15845.32
800.182	15925.09
800.513	15890.29
800.844	15709.73
801.175	15769.39
801.506	15772.78
801.837	15639.67
802.168	15585.89
802.499	15528.04
802.83	15528.49
803.161	15420.92
803.491	15458.89
803.822	15375.95
804.153	15234.71
804.483	15257.99
804.814	15216.41
805.145	15155.17
805.475	15148.16
805.805	15155.84
806.136	15074.94
806.466	15082.85
806.796	15044.43
807.126	14938.9
807.457	14830.66
807.787	14848.96
808.117	14702.3
808.447	14727.38
808.777	14752.01
809.107	14686.93
809.436	14582.07
809.766	14585.01
810.096	14568.97
810.426	14521.51
810.755	14485.35
811.085	14463.43
811.414	14408.52
811.744	14280.39
812.073	14326.26
812.403	14317.67
812.732	14216.89
813.061	14182.08
813.39	14187.28
813.719	14117.23
814.049	14173.27
814.378	14063.22
814.707	13987.74
815.036	14063.44
815.365	13982.54
815.693	13897.12
816.022	13841.08
816.351	13838.59
816.68	13693.28
817.008	13745.71
817.337	13685.83
817.665	13565.15
817.994	13655.77
818.322	13653.96
818.651	13552.04
818.979	13585.72
819.307	13540.97
819.636	13538.03
819.964	13442.44
820.292	13449.45
820.62	13465.49
820.948	13427.08
821.276	13435.66
821.604	13392.27
821.932	13336.23
822.259	13364.48
822.587	13362.45
822.915	13295.55
823.243	13286.29
823.57	13326.29
823.898	13299.85
824.225	13242.9
824.553	13312.96
824.88	13223.24
825.207	13380.3
825.535	13254.88
825.862	13323.8
826.189	13257.36
826.516	13334.65
826.843	13321.99
827.17	13384.82
827.497	13326.74
827.824	13343.46
828.151	13317.47
828.478	13369.68
828.805	13339.17
829.131	13213.52
829.458	13238.61
829.785	13245.16
830.111	13247.87
830.438	13341.88
830.764	13303.46
831.09	13264.82
831.417	13258.72
831.743	13352.95
832.069	13242.22
832.395	13244.71
832.722	13166.29
833.048	13198.83
833.374	13176.91
833.7	13206.07
834.026	13146.18
834.351	13181.89
834.677	13117.93
835.003	13177.59
835.329	13174.2
835.654	13022.34
835.98	13119.74
836.306	13077.03
836.631	13044.49
836.956	13072.51
837.282	13069.8
837.607	13020.76
837.932	12940.99
838.258	12926.3
838.583	12914.32
838.908	12900.99
839.233	12827.09
839.558	12835.23
839.883	12829.35
840.208	12737.6
840.533	12757.94
840.858	12756.59
841.182	12772.63
841.507	12771.5
841.832	12669.81
842.156	12658.73
842.481	12571.73
842.805	12637.49
843.13	12563.14
843.454	12566.76
843.778	12489.47
844.103	12500.1
844.427	12433.88
844.751	12389.36
845.075	12395.01
845.399	12312.53
845.723	12309.37
846.047	12315.69
846.371	12173.32
846.695	12204.28
847.019	12048.13
847.343	12005.87
847.666	11974.23
847.99	11968.36
848.313	11924.74
848.637	11770.85
848.96	11866.67
849.284	11823.73
849.607	11647.91
849.931	11651.76
850.254	11595.71
850.577	11559.33
850.9	11544.19
851.223	11552.78
851.546	11435.94
851.869	11355.72
852.192	11381.48
852.515	11308.26
852.838	11248.83
853.161	11264.87
853.483	11087.02
853.806	11114.37
854.129	11122.73
854.451	11062.84
854.774	11039.57
855.096	11023.52
855.419	10969.29
855.741	10953.7
856.063	10910.76
856.385	10870.76
856.708	10824.88
857.03	10802.96
857.352	10797.09
857.674	10769.29
857.996	10732.23
858.318	10631.44
858.64	10628.73
858.961	10556.42
859.283	10633.25
859.605	10506.93
859.926	10551.67
860.248	10456.53
860.57	10393.48
860.891	10501.5
861.212	10451.79
861.534	10460.83
861.855	10393.03
862.176	10360.94
862.498	10335.41
862.819	10340.83
863.14	10305.8
863.461	10290.21
863.782	10235.52
864.103	10242.98
864.424	10160.04
864.745	10243.66
865.065	10142.64
865.386	10102.87
865.707	10138.8
866.027	10138.35
866.348	10049.76
866.668	10053.15
866.989	10062.65
867.309	9972.93
867.63	10102.19
867.95	10066.03
868.27	9930.22
868.59	9906.94
868.91	9965.25
869.23	10010.89
869.55	9850.22
869.87	9966.83
870.19	9909.65
870.51	9867.62
870.83	9955.3
871.15	9823.33
871.469	9871.24
871.789	9769.55
872.109	9820.62
872.428	9708.76
872.748	9784.46
873.067	9775.19
873.386	9784.69
873.706	9766.61
874.025	9643.67
874.344	9663.33
874.663	9648.64
874.982	9703.78
875.301	9582.21
875.62	9564.35
875.939	9523.22
876.258	9558.25
876.577	9544.24
876.896	9533.39
877.214	9501.08
877.533	9515.77
877.852	9480.51
878.17	9595.54
878.489	9508.76
878.807	9511.47
879.125	9402.55
879.444	9399.16
879.762	9418.37
880.08	9365.26
880.398	9406.17
880.716	9354.42
881.034	9373.62
881.352	9320.97
881.67	9328.43
881.988	9310.35
882.306	9274.42
882.624	9269.9
882.941	9226.06
883.259	9234.42
883.577	9174.08
883.894	9079.17
884.212	9112.61
884.529	9115.55
884.846	9054.99
885.164	9078.94
885.481	9018.6
885.798	9030.36
886.115	9009.79
886.432	8979.74
886.75	8932.96
887.067	8966.18
887.383	8958.95
887.7	8944.93
888.017	8944.93
888.334	8889.79
888.651	8876.69
888.967	8835.78
889.284	8865.16
889.6	8743.81
889.917	8682.79
890.233	8721.21
890.55	8643.7
890.866	8715.11
891.182	8648.9
891.498	8620.42
891.815	8615
892.131	8535
892.447	8497.04
892.763	8510.14
893.079	8491.84
893.395	8430.37
893.71	8448.22
894.026	8464.04
894.342	8415.46
894.657	8321.22
894.973	8360.77
895.289	8370.26
895.604	8303.82
895.92	8249.36
896.235	8217.72
896.55	8253.65
896.865	8207.33
897.181	8084.39
897.496	8141.79
897.811	8052.3
898.126	8041.23
898.441	8023.83
898.756	8052.75
899.071	8001.91
899.386	7977.05
899.7	7892.53
900.015	7870.61
900.33	7784.29
900.644	7807.11
900.959	7830.84
901.273	7810.27
901.588	7706.32
901.902	7711.52
902.216	7664.29
902.531	7713.33
902.845	7649.15
903.159	7572.77
903.473	7547.23
903.787	7598.76
904.101	7461.81
904.415	7534.8
904.729	7449.15
905.042	7436.27
905.356	7366.44
905.67	7382.72
905.984	7372.77
906.297	7290.74
906.611	7306.11
906.924	7307.01
907.237	7278.99
907.551	7229.05
907.864	7207.35
908.177	7163.74
908.491	7153.12
908.804	7140.91
909.117	7060.92
909.43	7037.19
909.743	6946.57
910.056	6997.41
910.368	6945.89
910.681	6898.43
910.994	6886.23
911.307	6899.34
911.619	6821.37
911.932	6829.28
912.244	6820.24
912.557	6786.57
912.869	6685.56
913.181	6714.03
913.494	6691.89
913.806	6705.45
914.118	6674.94
914.43	6578.89
914.742	6590.65
915.054	6568.27
915.366	6531.66
915.678	6525.79
915.99	6452.34
916.302	6465.9
916.613	6410.99
916.925	6371.89
917.236	6390.65
917.548	6284.67
917.859	6348.17
918.171	6284.44
918.482	6261.16
918.794	6204.44
919.105	6241.05
919.416	6164.22
919.727	6173.71
920.038	6204.89
920.349	6098.46
920.66	6058.91
920.971	6096.2
921.282	6039.93
921.593	6006.03
921.903	6005.12
922.214	5908.18
922.525	5952.47
922.835	5930.78
923.146	5889.65
923.456	5884.45
923.767	5860.5
924.077	5840.84
924.387	5877.9
924.697	5753.61
925.008	5721.74
925.318	5709.54
925.628	5732.59
925.938	5687.39
926.248	5598.58
926.558	5603.78
926.867	5616.43
927.177	5586.83
927.487	5577.57
927.796	5501.41
928.106	5512.26
928.416	5472.26
928.725	5469.32
929.034	5436.78
929.344	5431.81
929.653	5387.06
929.962	5346.16
930.271	5346.84
930.581	5298.02
930.89	5279.27
931.199	5266.39
931.508	5257.8
931.817	5245.14
932.125	5234.3
932.434	5180.51
932.743	5141.87
933.051	5123.11
933.36	5151.36
933.669	5059.61
933.977	4999.5
934.286	5074.08
934.594	5004.7
934.902	4991.82
935.21	4961.54
935.519	4980.52
935.827	4972.38
936.135	4960.41
936.443	4879.28
936.751	4875.89
937.059	4881.09
937.367	4838.15
937.674	4825.04
937.982	4811.48
938.29	4785.27
938.597	4810.35
938.905	4736.46
939.213	4722.45
939.52	4693.29
939.827	4720.64
940.135	4719.96
940.442	4613.07
940.749	4615.1
941.056	4628.44
941.363	4560.42
941.67	4537.59
941.977	4502.34
942.284	4497.14
942.591	4520.42
942.898	4484.49
943.205	4466.18
943.511	4429.35
943.818	4455.11
944.125	4406.52
944.431	4380.53
944.738	4364.49
945.044	4362.68
945.35	4326.75
945.657	4303.02
945.963	4297.6
946.269	4278.16
946.575	4287.66
946.881	4264.83
947.187	4226.41
947.493	4188
947.799	4172.18
948.105	4183.48
948.41	4126.08
948.716	4150.26
949.022	4103.25
949.327	4089.24
949.633	4104.84
949.938	4086.76
950.244	4023.93
950.549	4030.04
950.854	4030.49
951.16	4023.71
951.465	3971.96
951.77	3951.85
952.075	3926.08
952.38	3956.36
952.685	3909.81
952.99	3914.56
953.294	3866.88
953.599	3882.92
953.904	3850.38
954.209	3826.88
954.513	3829.81
954.818	3809.93
955.122	3783.26
955.426	3755.01
955.731	3789.82
956.035	3722.47
956.339	3721.57
956.643	3688.58
956.948	3637.96
957.252	3642.47
957.556	3681.8
957.86	3626.66
958.163	3599.99
958.467	3576.26
958.771	3601.12
959.075	3621.68
959.378	3548.69
959.682	3571.06
959.985	3530.16
960.289	3504.63
960.592	3489.03
960.896	3500.56
961.199	3470.28
961.502	3469.82
961.805	3465.3
962.108	3419.2
962.411	3421.92
962.714	3425.08
963.017	3406.32
963.32	3425.76
963.623	3345.76
963.926	3306.44
964.228	3302.82
964.531	3314.57
964.833	3315.03
965.136	3308.92
965.438	3294.01
965.741	3263.5
966.043	3225.08
966.345	3220.79
966.648	3233.45
966.95	3194.13
967.252	3167.46
967.554	3185.54
967.856	3156.84
968.158	3115.48
968.46	3109.83
968.761	3120.68
969.063	3070.51
969.365	3083.62
969.666	3062.6
969.968	3014.24
970.269	3011.53
970.571	3034.81
970.872	3025.77
971.174	2970.63
971.475	3006.79
971.776	2988.48
972.077	2989.38
972.378	2952.55
972.679	2964.53
972.98	2934.02
973.281	2940.57
973.582	2888.14
973.883	2920.01
974.183	2883.85
974.484	2867.81
974.785	2855.38
975.085	2822.16
975.386	2889.27
975.686	2823.51
975.986	2777.64
976.287	2812.67
976.587	2789.62
976.887	2757.98
977.187	2749.84
977.487	2782.38
977.787	2721.82
978.087	2699
978.387	2697.41
978.687	2704.19
978.987	2684.99
979.286	2684.08
979.586	2665.78
979.885	2640.92
980.185	2597.3
980.484	2633.91
980.784	2637.3
981.083	2596.4
981.382	2583.75
981.682	2598.43
981.981	2562.73
982.28	2564.09
982.579	2554.14
982.878	2558.21
983.177	2550.3
983.475	2517.08
983.774	2539
984.073	2464.88
984.372	2501.94
984.67	2486.35
984.969	2478.89
985.267	2447.7
985.566	2481.6
985.864	2448.83
986.162	2442.28
986.461	2400.02
986.759	2421.49
987.057	2383.3
987.355	2354.15
987.653	2347.37
987.951	2362.28
988.249	2372.68
988.547	2345.79
988.844	2325.9
989.142	2307.14
989.44	2296.75
989.737	2260.36
990.035	2299.91
990.332	2255.84
990.63	2239.35
990.927	2230.08
991.224	2236.86
991.521	2241.61
991.819	2219.91
992.116	2212
992.413	2194.38
992.71	2205.45
993.006	2193.02
993.303	2162.74
993.6	2122.06
993.897	2131.55
994.193	2179.24
994.49	2104.44
994.787	2153.47
995.083	2112.57
995.379	2105.34
995.676	2103.76
995.972	2083.65
996.268	2096.07
996.565	2050.43
996.861	2052.91
997.157	2064.66
997.453	2003.2
997.749	2005.68
998.044	2012.91
998.34	2009.07
998.636	2017.43
998.932	1981.05
999.227	1992.12
999.523	1949.19
999.818	1945.57
1000.114	1922.75
1000.409	1942.41
1000.704	1910.09
1001	1925.68
1001.295	1885.68
1001.59	1920.03
1001.885	1904.44
1002.18	1898.11
1002.475	1870.54
1002.77	1856.76
1003.065	1839.81
1003.359	1869.19
1003.654	1828.74
1003.949	1852.24
1004.243	1811.56
1004.538	1816.53
1004.832	1779.25
1005.127	1787.38
1005.421	1776.76
1005.715	1759.59
1006.009	1743.09
1006.304	1734.73
1006.598	1766.37
1006.892	1716.88
1007.186	1724.79
1007.48	1698.57
1007.773	1670.55
1008.067	1701.51
1008.361	1645.47
1008.655	1661.06
1008.948	1685.46
1009.242	1640.72
1009.535	1633.71
1009.829	1607.05
1010.122	1616.99
1010.415	1619.03
1010.708	1590.1
1011.001	1593.04
1011.295	1611.79
1011.588	1594.17
1011.881	1551.91
1012.173	1529.08
1012.466	1542.42
1012.759	1543.77
1013.052	1496.32
1013.344	1538.35
1013.637	1564.56
1013.93	1504.9
1014.222	1504.23
1014.514	1473.04
1014.807	1488.86
1015.099	1469.2
1015.391	1444.11
1015.683	1453.61
1015.976	1450.89
1016.268	1423.32
1016.56	1435.98
1016.851	1422.42
1017.143	1414.28
1017.435	1405.47
1017.727	1423.55
1018.018	1382.42
1018.31	1384.23
1018.602	1394.62
1018.893	1351.46
1019.185	1337.22
1019.476	1363.66
1019.767	1350.33
1020.058	1355.3
1020.35	1325.47
1020.641	1345.59
1020.932	1303.55
1021.223	1301.29
1021.514	1323.44
1021.804	1290.22
1022.095	1272.14
1022.386	1256.55
1022.677	1268.98
1022.967	1266.72
1023.258	1255.87
1023.548	1221.52
1023.839	1242.99
1024.129	1217.23
1024.419	1224.46
1024.709	1196.66
1025	1184.01
1025.29	1181.07
1025.58	1169.55
1025.87	1172.03
1026.16	1167.96
1026.449	1142.43
1026.739	1169.77
1027.029	1159.83
1027.319	1118.7
1027.608	1136.33
1027.898	1117.12
1028.187	1139.94
1028.477	1111.92
1028.766	1108.08
1029.055	1075.99
1029.344	1094.97
1029.634	1065.37
1029.923	1068.76
1030.212	1069.44
1030.501	1087.97
1030.79	1082.99
1031.078	1050
1031.367	1033.73
1031.656	1038.02
1031.945	1024.92
1032.233	1008.87
1032.522	1006.84
1032.81	1014.97
1033.099	1003.67
1033.387	973.84
1033.675	987.63
1033.963	970.23
1034.251	1011.13
1034.54	975.2
1034.828	973.84
1035.116	966.61
1035.403	933.39
1035.691	979.95
1035.979	948.76
1036.267	914.19
1036.554	913.51
1036.842	928.65
1037.129	917.57
1037.417	896.56
1037.704	913.73
1037.992	898.14
1038.279	894.98
1038.566	902.89
1038.853	902.89
1039.14	902.89
