Data from hue_220_FLMS001491_00049.txt Node
Date: Tue Feb 07 16:39:32 GMT 2017
User: dcchb
Spectrometer: FLMS00149
Trigger mode: 0
Integration Time (sec): 2.000000E-2
Scans to average: 10
Electric dark correction enabled: true
Nonlinearity correction enabled: false
Boxcar width: 0
XAxis mode: Wavelengths
Number of Pixels in Spectrum: 2048
>>>>>Begin Spectral Data<<<<<
341.393	-30.54
341.776	-30.54
342.16	-30.54
342.543	-50.2
342.927	-75.73
343.31	-62.63
343.693	-60.37
344.077	-68.05
344.46	-68.5
344.843	-52
345.226	-48.39
345.61	-52.91
345.993	-9.29
346.376	-6.36
346.759	17.82
347.142	37.71
347.525	59.41
347.908	66.18
348.291	65.28
348.674	103.7
349.057	78.39
349.44	120.42
349.823	131.04
350.206	169.23
350.588	200.42
350.971	199.97
351.354	208.55
351.737	229.57
352.119	220.76
352.502	257.59
352.884	280.64
353.267	283.58
353.65	263.24
354.032	285.84
354.414	316.57
354.797	310.92
355.179	317.48
355.562	323.58
355.944	322.45
356.326	331.26
356.709	339.85
357.091	335.78
357.473	348.89
357.855	335.78
358.238	349.12
358.62	357.93
359.002	330.36
359.384	333.3
359.766	362
360.148	347.76
360.53	346.63
360.912	333.3
361.294	354.76
361.676	332.62
362.057	339.62
362.439	328.78
362.821	311.38
363.203	337.82
363.584	331.26
363.966	334.2
364.348	319.29
364.729	312.51
365.111	303.24
365.493	312.51
365.874	304.6
366.256	335.33
366.637	324.26
367.019	316.8
367.4	318.16
367.781	319.96
368.163	320.87
368.544	307.53
368.925	327.87
369.306	311.15
369.688	312.05
370.069	312.73
370.45	314.09
370.831	303.01
371.212	311.83
371.593	323.13
371.974	313.41
372.355	336.01
372.736	324.03
373.117	330.58
373.498	295.33
373.879	321.77
374.26	319.29
374.641	325.84
375.021	312.28
375.402	323.58
375.783	337.14
376.163	324.26
376.544	314.99
376.925	340.53
377.305	330.13
377.686	332.39
378.066	336.69
378.447	327.87
378.827	334.2
379.208	341.66
379.588	324.93
379.968	344.37
380.349	352.5
380.729	345.05
381.109	345.73
381.489	352.05
381.87	326.74
382.25	351.6
382.63	332.17
383.01	363.58
383.39	365.61
383.77	352.73
384.15	344.82
384.53	358.15
384.91	354.76
385.29	354.09
385.67	357.48
386.049	364.48
386.429	360.41
386.809	365.61
387.189	373.3
387.568	340.3
387.948	359.96
388.328	355.44
388.707	374.2
389.087	370.36
389.466	366.52
389.846	377.36
390.225	387.53
390.605	370.13
390.984	364.71
391.363	373.97
391.743	352.05
392.122	377.59
392.501	394.31
392.881	389.34
393.26	399.74
393.639	387.98
394.018	375.33
394.397	403.8
394.776	385.95
395.155	390.92
395.534	384.82
395.913	396.12
396.292	398.38
396.671	406.51
397.05	390.92
397.429	391.37
397.808	385.27
398.186	406.74
398.565	389.57
398.944	390.92
399.323	434.76
399.701	412.16
400.08	437.93
400.458	430.02
400.837	413.52
401.215	428.21
401.594	422.11
401.972	428.89
402.351	429.34
402.729	436.12
403.107	463.01
403.486	429.11
403.864	442.9
404.242	447.64
404.62	464.37
404.999	484.93
405.377	469.34
405.755	477.02
406.133	477.7
406.511	449.68
406.889	494.87
407.267	472.95
407.645	504.37
408.023	493.52
408.401	502.56
408.779	507.3
409.156	523.8
409.534	533.52
409.912	515.44
410.29	543.69
410.667	549.34
411.045	565.38
411.422	551.6
411.8	579.62
412.178	558.15
412.555	574.87
412.933	575.78
413.31	588.88
413.687	580.75
414.065	620.52
414.442	622.78
414.819	627.98
415.197	643.8
415.574	641.54
415.951	652.61
416.328	681.99
416.705	697.13
417.082	697.13
417.46	701.42
417.837	700.74
418.214	699.16
418.591	728.54
418.967	710.46
419.344	717.02
419.721	740.52
420.098	748.43
420.475	759.73
420.852	759.95
421.228	801.08
421.605	792.72
421.982	805.37
422.358	799.05
422.735	824.81
423.111	821.87
423.488	877.46
423.864	871.59
424.241	904.13
424.617	878.37
424.994	915.2
425.37	916.33
425.746	933.73
426.123	951.81
426.499	947.52
426.875	982.54
427.251	998.14
427.627	983.22
428.003	1017.12
428.379	1012.37
428.756	1034.29
429.132	1065.71
429.507	1054.18
429.883	1062.09
430.259	1105.25
430.635	1107.51
431.011	1128.08
431.387	1125.14
431.763	1138.25
432.138	1170.79
432.514	1135.76
432.89	1230.67
433.265	1246.72
433.641	1259.15
434.016	1241.3
434.392	1284.01
434.767	1310.67
435.143	1316.1
435.518	1340.28
435.894	1380.27
436.269	1405.81
436.644	1428.86
437.02	1434.96
437.395	1449.65
437.77	1474.96
438.145	1511.57
438.52	1521.06
438.895	1528.07
439.271	1561.06
439.646	1592.25
440.021	1609.87
440.395	1647.61
440.77	1604.68
441.145	1641.28
441.52	1674.96
441.895	1692.13
442.27	1705.01
442.645	1717.21
443.019	1759.47
443.394	1765.58
443.769	1770.55
444.143	1745.91
444.518	1794.5
444.892	1817.33
445.267	1834.5
445.641	1839.02
446.016	1880.6
446.39	1888.51
446.764	1936.19
447.139	1907.94
447.513	1938.23
447.887	1928.73
448.262	1970.99
448.636	1948.17
449.01	1973.48
449.384	2004.66
449.758	2022.29
450.132	2055.74
450.506	2065.45
450.88	2053.03
451.254	2083.98
451.628	2075.4
452.002	2107.49
452.376	2138.67
452.75	2153.59
453.123	2157.88
453.497	2214.15
453.871	2203.53
454.244	2259.8
454.618	2289.86
454.992	2303.19
455.365	2310.65
455.739	2352.45
456.112	2382.06
456.486	2412.79
456.859	2410.76
457.232	2460.47
457.606	2477.42
457.979	2418.44
458.352	2501.6
458.725	2533.01
459.099	2571.2
459.472	2621.6
459.845	2628.6
460.218	2642.39
460.591	2673.35
460.964	2703.18
461.337	2749.5
461.71	2735.27
462.083	2768.49
462.456	2814.14
462.829	2843.96
463.201	2857.98
463.574	2898.65
463.947	2942.49
464.32	2971.42
464.692	3011.42
465.065	3024.98
465.438	3072.66
465.81	3103.62
466.183	3141.13
466.555	3191.3
466.928	3233.33
467.3	3236.5
467.672	3258.42
468.045	3356.04
468.417	3334.8
468.789	3366.89
469.161	3405.98
469.534	3457.51
469.906	3544.74
470.278	3544.06
470.65	3538.41
471.022	3646.2
471.394	3682.59
471.766	3723.72
472.138	3767.56
472.51	3840.32
472.882	3878.51
473.253	3859.98
473.625	3947.89
473.997	4037.38
474.369	4083.03
474.74	4151.5
475.112	4163.03
475.484	4266.53
475.855	4242.8
476.227	4286.64
476.598	4390.14
476.97	4432.4
477.341	4502.68
477.713	4559.63
478.084	4570.93
478.455	4693.86
478.827	4688.66
479.198	4842.56
479.569	4876.45
479.94	5024.92
480.311	4979.05
480.682	5113.51
481.053	5207.29
481.424	5266.5
481.795	5299.72
482.166	5392.6
482.537	5477.57
482.908	5567.51
483.279	5583.55
483.65	5626.94
484.021	5797.79
484.391	5845.02
484.762	5829.65
485.133	5934.96
485.503	5991.23
485.874	6077.1
486.244	6080.04
486.615	6195.97
486.985	6313.25
487.356	6362.74
487.726	6432.34
488.097	6534.04
488.467	6538.1
488.837	6659.46
489.207	6724.99
489.578	6774.03
489.948	6883.41
490.318	6921.37
490.688	6944.87
491.058	7040.01
491.428	7139.9
491.798	7172.44
492.168	7344.19
492.538	7312.1
492.908	7345.09
493.278	7455.82
493.648	7440.91
494.017	7538.98
494.387	7565.87
494.757	7640
495.126	7741.46
495.496	7777.17
495.866	7744.4
496.235	7802.03
496.605	7919.31
496.974	7977.39
497.344	8012.19
497.713	8024.17
498.082	8096.26
498.452	8112.53
498.821	8146.2
499.19	8184.84
499.559	8221.45
499.928	8276.14
500.298	8298.51
500.667	8374.44
501.036	8268.23
501.405	8371.28
501.774	8355.01
502.143	8432.74
502.512	8406.76
502.88	8556.36
503.249	8484.27
503.618	8556.36
503.987	8571.5
504.356	8550.71
504.724	8638.16
505.093	8639.52
505.462	8729.23
505.83	8689.91
506.199	8737.37
506.567	8869.34
506.936	8892.39
507.304	8897.36
507.672	8852.17
508.041	8928.78
508.409	8939.17
508.777	8983.46
509.145	9025.95
509.514	9005.38
509.882	9044.71
510.25	8979.17
510.618	9025.05
510.986	9046.74
511.354	9159.96
511.722	9236.79
512.09	9249.22
512.458	9140.07
512.826	9232.27
513.193	9307.07
513.561	9271.14
513.929	9304.81
514.297	9399.72
514.664	9392.72
515.032	9385.49
515.4	9385.49
515.767	9471.81
516.135	9445.83
516.502	9371.7
516.869	9445.37
517.237	9493.96
517.604	9463.9
517.972	9456.67
518.339	9460.74
518.706	9538.03
519.073	9466.62
519.44	9453.73
519.808	9596.78
520.175	9498.03
520.542	9545.94
520.909	9619.61
521.276	9555.43
521.643	9664.35
522.009	9636.55
522.376	9658.47
522.743	9671.58
523.11	9797.45
523.477	9787.06
523.843	9724.91
524.21	9811.01
524.577	9838.13
524.943	9801.07
525.31	9815.08
525.676	9884.91
526.043	9912.93
526.409	9844.46
526.776	9968.52
527.142	9961.74
527.508	10015.75
527.874	9998.35
528.241	10032.93
528.607	9950.44
528.973	10027.5
529.339	10002.42
529.705	10068.41
530.071	10082.19
530.437	10088.29
530.803	10062.53
531.169	10091.91
531.535	10008.07
531.901	10062.53
532.267	9961.74
532.632	10009.65
532.998	10029.31
533.364	10031.35
533.73	10020.73
534.095	10113.38
534.461	10066.6
534.826	9996.55
535.192	9996.09
535.557	9991.12
535.923	10037.67
536.288	9947.96
536.653	9973.72
537.019	9912.25
537.384	9941.63
537.749	9937.34
538.114	9922.42
538.479	9968.07
538.845	9902.54
539.21	9834.97
539.575	9891.92
539.94	9824.8
540.305	9823.89
540.67	9835.42
541.034	9835.42
541.399	9770.56
541.764	9774.4
542.129	9700.06
542.494	9785.93
542.858	9740.51
543.223	9727.4
543.587	9752.03
543.952	9702.32
544.316	9685.82
544.681	9632.94
545.045	9600.85
545.41	9670.68
545.774	9594.97
546.138	9604.46
546.503	9561.53
546.867	9556.78
547.231	9555.2
547.595	9531.25
547.959	9555.43
548.324	9449.89
548.688	9448.76
549.052	9447.18
549.416	9479.5
549.779	9357.92
550.143	9439.5
550.507	9399.5
550.871	9444.7
551.235	9336
551.599	9328.09
551.962	9344.58
552.326	9401.31
552.689	9351.36
553.053	9274.53
553.417	9285.83
553.78	9385.94
554.143	9277.02
554.507	9247.41
554.87	9232.5
555.234	9331.25
555.597	9198.37
555.96	9271.14
556.323	9248.54
556.686	9191.37
557.05	9259.62
557.413	9251.48
557.776	9273.4
558.139	9201.09
558.502	9247.64
558.865	9257.13
559.228	9214.64
559.59	9260.75
559.953	9184.59
560.316	9317.92
560.679	9243.34
561.041	9244.47
561.404	9307.98
561.767	9275.43
562.129	9240.18
562.492	9323.57
562.854	9284.47
563.217	9260.75
563.579	9303.46
563.941	9287.64
564.304	9339.39
564.666	9364.47
565.028	9309.78
565.39	9355.88
565.753	9405.6
566.115	9310.69
566.477	9399.72
566.839	9391.82
567.201	9399.5
567.563	9500.29
567.925	9473.39
568.287	9489.21
568.648	9462.1
569.01	9439.5
569.372	9581.19
569.734	9457.8
570.095	9529.44
570.457	9542.55
570.819	9601.08
571.18	9577.8
571.542	9611.7
571.903	9599.27
572.265	9638.14
572.626	9682.88
572.987	9630
573.349	9711.58
573.71	9672.49
574.071	9740.28
574.432	9747.06
574.794	9807.4
575.155	9773.05
575.516	9727.4
575.877	9874.29
576.238	9847.62
576.599	9874.74
576.96	9847.4
577.32	9892.37
577.681	9859.37
578.042	9924.23
578.403	9919.48
578.763	9965.81
579.124	9971.23
579.485	10009.2
579.845	10025.02
580.206	10015.3
580.566	10098.46
580.927	10068.86
581.287	10078.58
581.648	10060.72
582.008	10125.81
582.368	10119.71
582.728	10136.88
583.089	10152.25
583.449	10145.02
583.809	10216.65
584.169	10207.61
584.529	10199.93
584.889	10297.78
585.249	10177.33
585.609	10233.37
585.969	10235.18
586.329	10268.63
586.688	10313.6
587.048	10304.33
587.408	10309.08
587.768	10262.75
588.127	10354.73
588.487	10269.31
588.846	10430.88
589.206	10325.12
589.565	10357.89
589.925	10409.64
590.284	10397.89
590.643	10482.18
591.003	10438.79
591.362	10499.13
591.721	10431.56
592.08	10428.85
592.44	10516.53
592.799	10481.28
593.158	10511.33
593.517	10455.74
593.876	10518.34
594.235	10586.36
594.593	10523.76
594.952	10511.33
595.311	10574.83
595.67	10583.42
596.029	10586.13
596.387	10566.93
596.746	10648.73
597.104	10568.96
597.463	10581.39
597.822	10614.83
598.18	10469.3
598.538	10547.94
598.897	10670.65
599.255	10576.42
599.613	10759.46
599.972	10674.04
600.33	10614.61
600.688	10572.8
601.046	10638.56
601.404	10737.54
601.762	10703.87
602.12	10787.48
602.478	10730.31
602.836	10820.7
603.194	10774.15
603.552	10691.67
603.91	10675.62
604.268	10759.24
604.625	10655.74
604.983	10787.94
605.341	10712.46
605.698	10664.1
606.056	10770.08
606.413	10727.83
606.771	10841.95
607.128	10770.31
607.485	10744.55
607.843	10815.28
608.2	10822.06
608.557	10884.21
608.914	10856.41
609.272	10889.18
609.629	10815.51
609.986	10950.87
610.343	10843.08
610.7	10934.15
611.057	10963.98
611.414	10907.48
611.771	10975.95
612.127	10977.76
612.484	10969.4
612.841	11038.55
613.198	10982.06
613.554	10996.52
613.911	11059.79
614.267	11072.67
614.624	10998.33
614.98	11024.09
615.337	11029.74
615.693	11035.61
616.05	11031.32
616.406	11058.66
616.762	11081.71
617.118	11095.95
617.475	11107.93
617.831	11155.84
618.187	11089.85
618.543	11154.25
618.899	11134.59
619.255	11180.47
619.611	11208.49
619.967	11183.18
620.323	11229.96
620.678	11193.12
621.034	11131.2
621.39	11167.59
621.746	11045.11
622.101	11249.62
622.457	11188.38
622.812	11143.18
623.168	11179.79
623.523	11160.58
623.879	11214.59
624.234	11130.53
624.589	11193.35
624.945	11211.88
625.3	11257.08
625.655	11136.4
626.01	11177.3
626.365	11171.88
626.72	11212.33
627.075	11149.28
627.43	11184.76
627.785	11161.03
628.14	11152.45
628.495	11161.26
628.85	11143.63
629.205	11140.47
629.559	11175.05
629.914	11173.01
630.269	11125.55
630.623	11060.02
630.978	11072.45
631.332	11106.35
631.687	11138.21
632.041	11003.07
632.396	11038.1
632.75	11024.77
633.104	11024.31
633.459	11033.35
633.813	10983.41
634.167	10987.48
634.521	10994.48
634.875	10977.76
635.229	10942.28
635.583	10907.48
635.937	10887.37
636.291	10809.18
636.645	10881.27
636.999	10773.7
637.352	10909.29
637.706	10876.07
638.06	10922.62
638.413	10834.72
638.767	10806.24
639.121	10801.27
639.474	10788.39
639.828	10767.82
640.181	10768.05
640.534	10757.2
640.888	10742.29
641.241	10696.87
641.594	10705.9
641.947	10795.39
642.301	10653.7
642.654	10717.66
643.007	10792.91
643.36	10752.01
643.713	10713.81
644.066	10709.97
644.419	10674.95
644.771	10620.94
645.124	10570.32
645.477	10497.55
645.83	10495.74
646.182	10408.29
646.535	10438.79
646.888	10389.53
647.24	10335.29
647.593	10365.8
647.945	10309.08
648.298	10331.9
648.65	10200.61
649.002	10225.01
649.355	10301.4
649.707	10288.74
650.059	10370.09
650.411	10500.94
650.763	10476.76
651.115	10547.72
651.467	10542.29
651.819	10577.55
652.171	10569.86
652.523	10485.35
652.875	10566.47
653.227	10477.21
653.578	10607.15
653.93	10559.02
654.282	10452.58
654.633	10538.45
654.985	10505.68
655.337	10545.01
655.688	10600.82
656.039	10542.75
656.391	10430.21
656.742	10533.03
657.094	10503.42
657.445	10593.59
657.796	10568.28
658.147	10563.08
658.498	10561.05
658.849	10529.86
659.2	10558.11
659.551	10608.05
659.902	10541.16
660.253	10581.39
660.604	10608.28
660.955	10527.6
661.306	10520.15
661.656	10566.7
662.007	10521.05
662.358	10557.89
662.708	10568.73
663.059	10585.68
663.409	10490.09
663.76	10575.06
664.11	10542.07
664.461	10579.13
664.811	10582.74
665.161	10623.65
665.511	10544.78
665.862	10584.1
666.212	10599.92
666.562	10575.06
666.912	10570.99
667.262	10529.41
667.612	10524.44
667.962	10596.53
668.312	10530.54
668.662	10618
669.011	10556.76
669.361	10530.77
669.711	10488.06
670.06	10542.75
670.41	10528.28
670.76	10494.61
671.109	10585.46
671.459	10529.41
671.808	10450.54
672.157	10570.99
672.507	10470.66
672.856	10497.55
673.205	10460.26
673.554	10553.82
673.904	10450.09
674.253	10495.06
674.602	10493.71
674.951	10349.08
675.3	10261.4
675.649	10440.6
675.998	10361.06
676.346	10408.29
676.695	10404.67
677.044	10351.56
677.393	10307.72
677.741	10429.08
678.09	10338.01
678.438	10340.26
678.787	10365.12
679.135	10390.88
679.484	10240.38
679.832	10299.36
680.181	10283.54
680.529	10284.9
680.877	10251.45
681.225	10194.96
681.573	10248.74
681.922	10138.01
682.27	10144.34
682.618	10167.61
682.966	10102.76
683.314	10157.22
683.661	10109.76
684.009	10058.01
684.357	9971.46
684.705	10046.26
685.053	10071.35
685.4	10005.58
685.748	9946.83
686.095	9967.17
686.443	9893.27
686.79	9874.06
687.138	9922.87
687.485	9961.07
687.832	9810.11
688.18	9841.75
688.527	9772.82
688.874	9725.82
689.221	9732.15
689.568	9771.01
689.915	9674.29
690.262	9692.6
690.609	9621.87
690.956	9602.21
691.303	9525.15
691.65	9580.74
691.997	9555.43
692.344	9524.92
692.69	9429.55
693.037	9452.15
693.383	9347.52
693.73	9352.72
694.077	9261.42
694.423	9225.49
694.769	9252.61
695.116	9264.36
695.462	9254.19
695.808	9165.61
696.155	9180.52
696.501	9120.86
696.847	9143.01
697.193	9037.93
697.539	9070.02
697.885	8970.81
698.231	8901.43
698.577	8905.27
698.923	8959.06
699.269	8875.22
699.614	8893.52
699.96	8816.69
700.306	8764.71
700.651	8771.94
700.997	8722.68
701.342	8716.13
701.688	8665.96
702.033	8564.72
702.379	8578.96
702.724	8605.62
703.069	8585.28
703.415	8503.03
703.76	8493.99
704.105	8529.01
704.45	8504.15
704.795	8382.35
705.14	8380.09
705.485	8370.37
705.83	8341.45
706.175	8301.9
706.52	8293.54
706.865	8237.5
707.209	8250.6
707.554	8189.13
707.899	8272.07
708.243	8188.23
708.588	8140.32
708.932	8147.33
709.277	8126.09
709.621	8078.18
709.966	8079.99
710.31	8016.71
710.654	7962.02
710.998	8010.61
711.342	7978.97
711.687	7972.87
712.031	7877.05
712.375	7879.09
712.719	7899.65
713.063	7910.27
713.407	7903.72
713.75	7786.43
714.094	7780.56
714.438	7798.18
714.782	7869.82
715.125	7785.53
715.469	7782.59
715.812	7738.07
716.156	7695.14
716.499	7725.42
716.843	7722.03
717.186	7647.45
717.53	7741.69
717.873	7668.47
718.216	7640.9
718.559	7578.76
718.902	7628.47
719.246	7591.18
719.589	7547.57
719.932	7583.5
720.275	7607.91
720.617	7595.03
720.96	7528.14
721.303	7534.01
721.646	7568.13
721.989	7489.27
722.331	7479.78
722.674	7566.78
723.016	7545.76
723.359	7491.53
723.701	7486.33
724.044	7440.91
724.386	7439.55
724.729	7479.32
725.071	7432.09
725.413	7440
725.755	7455.37
726.097	7451.3
726.439	7396.16
726.782	7390.51
727.124	7467.8
727.465	7341.02
727.807	7318.2
728.149	7394.13
728.491	7395.26
728.833	7393.9
729.175	7322.04
729.516	7327.69
729.858	7345.77
730.199	7406.33
730.541	7335.82
730.882	7386.44
731.224	7394.58
731.565	7337.18
731.906	7386.9
732.248	7335.6
732.589	7345.54
732.93	7344.86
733.271	7316.39
733.612	7358.2
733.953	7391.87
734.294	7332.43
734.635	7345.09
734.976	7371.08
735.317	7320.01
735.658	7321.81
735.999	7372.43
736.339	7341.93
736.68	7388.93
737.021	7383.05
737.361	7364.52
737.702	7390.29
738.042	7357.52
738.383	7373.34
738.723	7413.56
739.063	7410.4
739.404	7444.3
739.744	7456.72
740.084	7418.31
740.424	7472.77
740.764	7388.48
741.104	7524.29
741.444	7486.33
741.784	7452.21
742.124	7438.87
742.464	7479.55
742.804	7499.21
743.143	7513.22
743.483	7591.18
743.823	7564.29
744.162	7561.13
744.502	7604.52
744.841	7588.92
745.181	7628.7
745.52	7685.42
745.86	7717.51
746.199	7730.16
746.538	7760.67
746.877	7804.96
747.216	7866.66
747.556	8012.64
747.895	7900.78
748.234	8003.83
748.573	8065.97
748.911	8085.63
749.25	8147.1
749.589	8201.34
749.928	8237.5
750.267	8351.84
750.605	8275.23
750.944	8440.88
751.283	8493.76
751.621	8649.24
751.96	8673.42
752.298	8743.92
752.636	8895.33
752.975	8923.58
753.313	9016.46
753.651	9175.55
753.989	9185.94
754.327	9268.65
754.666	9436.56
755.004	9596.33
755.342	9666.61
755.679	9840.39
756.017	9867.73
756.355	10061.63
756.693	10143.43
757.031	10362.41
757.368	10418.68
757.706	10584.55
758.044	10725.34
758.381	10899.57
758.719	11037.87
759.056	11218.89
759.394	11317.87
759.731	11426.79
760.068	11595.37
760.405	11721.47
760.743	11977.51
761.08	12167.79
761.417	12292.76
761.754	12423.6
762.091	12644.84
762.428	12806.41
762.765	12966.18
763.102	13165.5
763.438	13242.34
763.775	13445.95
764.112	13707.86
764.449	13728.65
764.785	13911.02
765.122	14039.83
765.458	14265.81
765.795	14447.95
766.131	14623.32
766.467	14707.83
766.804	14945.34
767.14	15014.49
767.476	15199.12
767.812	15314.37
768.148	15543.74
768.485	15589.39
768.821	15690.86
769.157	15855.83
769.492	15985.31
769.828	16104.63
770.164	16171.52
770.5	16272.99
770.836	16497.39
771.171	16535.81
771.507	16699.65
771.842	16762.47
772.178	16883.6
772.513	17010.82
772.849	17058.73
773.184	17143.02
773.519	17315.67
773.855	17313.41
774.19	17451.94
774.525	17372.4
774.86	17555.67
775.195	17757.02
775.53	17690.35
775.865	17719.96
776.2	17673.18
776.535	17722.22
776.87	17830.46
777.205	17881.76
777.539	17917.92
777.874	18049.89
778.209	18034.75
778.543	18032.94
778.878	18054.19
779.212	18102.32
779.547	18083.79
779.881	18226.16
780.215	18198.14
780.55	18352.48
780.884	18263.67
781.218	18291.24
781.552	18354.07
781.886	18428.64
782.22	18203.33
782.554	18279.72
782.888	18259.6
783.222	18219.83
783.556	18215.76
783.889	18118.59
784.223	18160.17
784.557	18092.83
784.89	18232.26
785.224	18194.52
785.557	18117.69
785.891	18151.58
786.224	18208.98
786.558	18222.09
786.891	18113.62
787.224	18128.99
787.557	18074.98
787.891	18091.93
788.224	18154.07
788.557	18103
788.89	18104.13
789.223	18163.11
789.556	18084.24
789.888	17989.33
790.221	18063.23
790.554	17921.99
790.887	17895.77
791.219	17816
791.552	17880.63
791.884	17713.86
792.217	17772.84
792.549	17814.64
792.882	17747.3
793.214	17596.12
793.546	17728.32
793.879	17691.26
794.211	17564.71
794.543	17579.17
794.875	17666.17
795.207	17607.19
795.539	17507.99
795.871	17542.11
796.203	17495.56
796.535	17266.41
796.867	17296.47
797.198	17316.58
797.53	17275.45
797.862	17200.42
798.193	17312.51
798.525	17201.33
798.856	17242.23
799.188	16987.32
799.519	16915.01
799.85	16915.23
800.182	17014.67
800.513	16934.22
800.844	16847.44
801.175	16995.68
801.506	16898.74
801.837	16819.87
802.168	16828.68
802.499	16716.37
802.83	16675.47
803.161	16688.57
803.491	16649.93
803.822	16579.2
804.153	16549.82
804.483	16472.76
804.814	16362.93
805.145	16454.45
805.475	16426.21
805.805	16316.83
806.136	16374.46
806.466	16318.86
806.796	16286.78
807.126	16187.79
807.457	16106.89
807.787	16114.12
808.117	16128.36
808.447	16050.17
808.777	16139.43
809.107	15891.08
809.436	15892.21
809.766	15986.67
810.096	15860.12
810.426	15812.89
810.755	15825.54
811.085	15796.62
811.414	15732.89
811.744	15698.99
812.073	15581.71
812.403	15717.52
812.732	15529.96
813.061	15630.75
813.39	15594.59
813.719	15522.5
814.049	15593.46
814.378	15458.55
814.707	15421.94
815.036	15495.61
815.365	15388.72
815.693	15244.09
816.022	15283.19
816.351	15325.22
816.68	15240.02
817.008	15357.31
817.337	15139.69
817.665	15145.11
817.994	15117.09
818.322	15136.52
818.651	15057.2
818.979	15008.39
819.307	15045.23
819.636	15028.73
819.964	14973.59
820.292	15050.2
820.62	14961.39
820.948	14917.32
821.276	14949.41
821.604	14915.29
821.932	15025.34
822.259	14949.86
822.587	15007.71
822.915	14895.63
823.243	14935.17
823.57	14913.25
823.898	14988.96
824.225	14912.57
824.553	14885.23
824.88	14882.29
825.207	14956.19
825.535	14918.45
825.862	14984.66
826.189	14910.09
826.516	14938.79
826.843	15034.6
827.17	15017.43
827.497	15019.69
827.824	14952.35
828.151	14961.61
828.478	14960.48
828.805	14986.24
829.131	14933.82
829.458	14925.23
829.785	14909.18
830.111	14917.55
830.438	14967.49
830.764	14905.79
831.09	14987.37
831.417	14882.74
831.743	14916.19
832.069	14968.62
832.395	14812.92
832.722	14952.12
833.048	14844.55
833.374	14859.24
833.7	14885.46
834.026	14866.7
834.351	14877.55
834.677	14874.16
835.003	14829.86
835.329	14935.85
835.654	14817.21
835.98	14762.97
836.306	14828.73
836.631	14740.83
836.956	14795.74
837.282	14786.02
837.607	14673.26
837.932	14600.49
838.258	14692.24
838.583	14694.05
838.908	14626.93
839.233	14634.84
839.558	14511.91
839.883	14549.42
840.208	14539.02
840.533	14488.86
840.858	14492.92
841.182	14537.89
841.507	14417.45
841.832	14313.72
842.156	14308.07
842.481	14298.8
842.805	14331.35
843.13	14330.89
843.454	14273.04
843.778	14138.81
844.103	14123.67
844.427	14155.31
844.751	14146.72
845.075	14178.13
845.399	14048.19
845.723	14025.82
846.047	14056.33
846.371	13868.53
846.695	13848.65
847.019	13744.02
847.343	13666.96
847.666	13623.12
847.99	13624.47
848.313	13565.94
848.637	13467.19
848.96	13545.6
849.284	13448.88
849.607	13395.55
849.931	13361.43
850.254	13311.94
850.577	13153.98
850.9	13056.35
851.223	13099.97
851.546	13020.42
851.869	13010.03
852.192	12963.02
852.515	12903.14
852.838	12817.04
853.161	12795.34
853.483	12736.59
853.806	12738.62
854.129	12634.67
854.451	12708.34
854.774	12485.97
855.096	12568.45
855.419	12447.33
855.741	12507.21
856.063	12394
856.385	12427.22
856.708	12271.97
857.03	12299.99
857.352	12312.87
857.674	12211.85
857.996	12178.63
858.318	12142.93
858.64	12170.27
858.961	12110.16
859.283	12019.54
859.605	12005.31
859.926	12034.91
860.248	11930.51
860.57	11915.36
860.891	11961.47
861.212	11822.71
861.534	11794.69
861.855	11818.42
862.176	11809.6
862.498	11808.7
862.819	11804.41
863.14	11712.66
863.461	11719.66
863.782	11656.84
864.103	11679.66
864.424	11620.91
864.745	11647.58
865.065	11606.22
865.386	11466.79
865.707	11493.45
866.027	11536.62
866.348	11555.83
866.668	11514.7
866.989	11516.73
867.309	11444.64
867.63	11455.04
867.95	11428.15
868.27	11407.81
868.59	11316.74
868.91	11338.66
869.23	11361.93
869.55	11287.36
869.87	11401.71
870.19	11324.19
870.51	11290.52
870.83	11248.72
871.15	11267.02
871.469	11203.07
871.789	11206.68
872.109	11249.62
872.428	11077.65
872.748	11162.16
873.067	11132.79
873.386	11108.38
873.706	11051.43
874.025	11029.74
874.344	10993.58
874.663	11034.71
874.982	11006.69
875.301	10974.37
875.62	10963.75
875.939	10973.24
876.258	10927.37
876.577	10869.29
876.896	10975.73
877.214	10896.63
877.533	10908.16
877.852	10819.8
878.17	10880.36
878.489	10869.97
878.807	10855.28
879.125	10789.52
879.444	10806.69
879.762	10714.94
880.08	10723.53
880.398	10697.09
880.716	10737.77
881.034	10660.03
881.352	10648.28
881.67	10618.45
881.988	10597.66
882.306	10534.16
882.624	10506.36
882.941	10498.68
883.259	10532.12
883.577	10472.46
883.894	10521.5
884.212	10486.48
884.529	10428.62
884.846	10328.74
885.164	10368.06
885.481	10351.56
885.798	10362.41
886.115	10213.04
886.432	10215.75
886.75	10258.46
887.067	10269.98
887.383	10164
887.7	10146.37
888.017	10117.45
888.334	10158.35
888.651	10149.31
888.967	10037.22
889.284	10005.36
889.6	10032.7
889.917	9903.44
890.233	9985.92
890.55	9831.58
890.866	9884.68
891.182	9884.46
891.498	9877.23
891.815	9764.46
892.131	9773.27
892.447	9751.35
892.763	9702.99
893.079	9733.05
893.395	9647.4
893.71	9639.04
894.026	9616.89
894.342	9613.96
894.657	9545.48
894.973	9500.06
895.289	9442.21
895.604	9431.81
895.92	9393.85
896.235	9349.56
896.55	9367.41
896.865	9309.11
897.181	9299.61
897.496	9264.36
897.811	9255.1
898.126	9209.9
898.441	9194.31
898.756	9147.3
899.071	9073.63
899.386	9158.38
899.7	9034.31
900.015	8969.23
900.33	8907.76
900.644	8932.84
900.959	8914.99
901.273	8930.36
901.588	8888.33
901.902	8824.82
902.216	8781.66
902.531	8775.11
902.845	8719.29
903.159	8698.5
903.473	8552.74
903.787	8504.83
904.101	8515.68
904.415	8485.62
904.729	8480.43
905.042	8423.03
905.356	8396.14
905.67	8452.86
905.984	8425.29
906.297	8353.88
906.611	8333.31
906.924	8304.84
907.237	8276.14
907.551	8259.42
907.864	8192.3
908.177	8150.72
908.491	8160.44
908.804	8058.74
909.117	8043.15
909.43	8038.4
909.743	7957.5
910.056	7952.76
910.368	7896.26
910.681	7863.49
910.994	7830.5
911.307	7833.66
911.619	7832.08
911.932	7746.21
912.244	7610.17
912.557	7698.3
912.869	7628.25
913.181	7639.77
913.494	7620.34
913.806	7520.9
914.118	7528.81
914.43	7474.35
914.742	7488.59
915.054	7432.77
915.366	7454.69
915.678	7420.12
915.99	7406.33
916.302	7325.43
916.613	7254.47
916.925	7241.36
917.236	7255.6
917.548	7180.8
917.859	7229.84
918.171	7135.38
918.482	7117.75
918.794	7067.13
919.105	7059.45
919.416	6981.94
919.727	6973.35
920.038	6992.1
920.349	6988.49
920.66	6907.59
920.971	6901.26
921.282	6877.53
921.593	6796.4
921.903	6809.06
922.214	6775.61
922.525	6728.61
922.835	6674.82
923.146	6699.91
923.456	6700.13
923.767	6644.77
924.077	6608.84
924.387	6594.15
924.697	6534.26
925.008	6526.35
925.318	6565.45
925.628	6430.54
925.938	6428.28
926.248	6413.59
926.558	6426.24
926.867	6411.1
927.177	6353.93
927.487	6336.75
927.796	6253.82
928.106	6294.27
928.416	6279.13
928.725	6207.27
929.034	6221.05
929.344	6141.28
929.653	6157.55
929.962	6116.2
930.271	6054.95
930.581	6079.13
930.89	6089.08
931.199	5988.29
931.508	5972.47
931.817	6003.2
932.125	5958.46
932.434	5881.63
932.743	5882.3
933.051	5875.98
933.36	5848.18
933.669	5826.71
933.977	5819.48
934.286	5765.7
934.594	5722.31
934.902	5699.26
935.21	5713.04
935.519	5705.58
935.827	5692.48
936.135	5633.72
936.443	5556.89
936.751	5578.13
937.059	5574.06
937.367	5504.69
937.674	5540.17
937.982	5486.16
938.29	5491.8
938.597	5462.43
938.905	5382.43
939.213	5434.86
939.52	5374.97
939.827	5335.65
940.135	5322.77
940.442	5262.66
940.749	5275.31
941.056	5298.14
941.363	5242.77
941.67	5219.27
941.977	5204.13
942.284	5151.02
942.591	5157.8
942.898	5101.98
943.205	5131.59
943.511	5079.16
943.818	5051.59
944.125	5025.6
944.431	5017.69
944.738	4979.05
945.044	4961.88
945.35	4913.74
945.657	4929.79
945.963	4892.95
946.269	4905.38
946.575	4893.18
946.881	4860.86
947.187	4844.36
947.493	4796
947.799	4781.09
948.105	4777.7
948.41	4710.81
948.716	4704.48
949.022	4713.52
949.327	4725.27
949.633	4665.16
949.938	4645.73
950.244	4645.73
950.549	4634.65
950.854	4590.36
951.16	4564.37
951.465	4543.81
951.77	4524.6
952.075	4516.46
952.38	4510.59
952.685	4485.96
952.99	4442.57
953.294	4475.79
953.599	4417.93
953.904	4409.35
954.209	4374.09
954.513	4407.31
954.818	4360.31
955.122	4317.82
955.426	4332.29
955.731	4277.83
956.035	4295.9
956.339	4274.66
956.643	4252.52
956.948	4220.43
957.252	4198.96
957.556	4161.9
957.86	4168.45
958.163	4153.08
958.467	4142.01
958.771	4125.51
959.075	4104.5
959.378	4056.14
959.682	4072.86
959.985	4034.67
960.289	4029.92
960.592	4008.68
960.896	3970.94
961.199	3962.58
961.502	3955.8
961.805	3940.89
962.108	3861.11
962.411	3863.15
962.714	3861.79
963.017	3887.1
963.32	3855.69
963.623	3846.65
963.926	3807.56
964.228	3808.91
964.531	3799.19
964.833	3799.87
965.136	3761.23
965.438	3754.9
965.741	3710.38
966.043	3733.21
966.345	3688.69
966.648	3626.32
966.95	3669.93
967.252	3639.2
967.554	3602.14
967.856	3610.72
968.158	3589.93
968.46	3540.44
968.761	3534.57
969.063	3579.99
969.365	3547.9
969.666	3480.78
969.968	3467.68
970.269	3477.62
970.571	3471.52
970.872	3450.5
971.174	3434.01
971.475	3430.39
971.776	3409.83
972.077	3368.92
972.378	3386.55
972.679	3369.83
972.98	3366.89
973.281	3331.86
973.582	3301.58
973.883	3277.85
974.183	3312.2
974.484	3260.45
974.785	3248.25
975.085	3251.64
975.386	3233.56
975.686	3199.89
975.986	3200.57
976.287	3211.19
976.587	3180.68
976.887	3119.66
977.187	3153.11
977.487	3203.5
977.787	3135.48
978.087	3111.75
978.387	3103.62
978.687	3071.98
978.987	3075.6
979.286	3055.03
979.586	3060
979.885	2981.14
980.185	3022.72
980.484	3012.77
980.784	2987.24
981.083	2967.13
981.382	2947.01
981.682	2948.59
981.981	2944.75
982.28	2926.45
982.579	2927.35
982.878	2887.35
983.177	2862.5
983.475	2878.99
983.774	2857.52
984.073	2832.21
984.372	2816.62
984.67	2819.11
984.969	2790.41
985.267	2806
985.566	2775.04
985.864	2768.49
986.162	2767.58
986.461	2741.59
986.759	2700.24
987.057	2725.55
987.355	2693.01
987.653	2707.7
987.951	2641.03
988.249	2655.04
988.547	2674.93
988.844	2667.25
989.142	2654.82
989.44	2603.75
989.737	2594.48
990.035	2582.95
990.332	2572.11
990.63	2586.12
990.927	2533.24
991.224	2560.81
991.521	2491.88
991.819	2531.2
992.116	2505.89
992.413	2477.42
992.71	2492.56
993.006	2486.23
993.303	2452.79
993.6	2469.96
993.897	2394.26
994.193	2421.83
994.49	2426.12
994.787	2375.05
995.083	2392
995.379	2361.49
995.676	2393.36
995.972	2354.49
996.268	2347.03
996.565	2299.12
996.861	2314.04
997.157	2336.86
997.453	2291.44
997.749	2317.65
998.044	2293.47
998.34	2283.98
998.636	2277.2
998.932	2250.76
999.227	2209.86
999.523	2230.2
999.818	2186.35
1000.114	2175.73
1000.409	2167.82
1000.704	2163.76
1001	2182.97
1001.295	2153.36
1001.59	2157.66
1001.885	2101.16
1002.18	2133.02
1002.475	2145
1002.77	2090.76
1003.065	2063.87
1003.359	2051.67
1003.654	2049.41
1003.949	2050.09
1004.243	2032.46
1004.538	2019.35
1004.832	2001.95
1005.127	2027.26
1005.421	1970.32
1005.715	1974.16
1006.009	1976.87
1006.304	1954.5
1006.598	1926.47
1006.892	1924.89
1007.186	1917.21
1007.48	1891.45
1007.773	1904.1
1008.067	1909.75
1008.361	1867.49
1008.655	1865.69
1008.948	1880.6
1009.242	1856.65
1009.535	1833.6
1009.829	1816.2
1010.122	1822.52
1010.415	1800.38
1010.708	1790.43
1011.001	1748.85
1011.295	1766.03
1011.588	1740.72
1011.881	1756.99
1012.173	1786.82
1012.466	1758.34
1012.759	1720.6
1013.052	1725.35
1013.344	1728.29
1013.637	1685.58
1013.93	1684.67
1014.222	1680.83
1014.514	1678.8
1014.807	1646.03
1015.099	1641.51
1015.391	1666.14
1015.683	1636.54
1015.976	1630.66
1016.268	1630.44
1016.56	1577.56
1016.851	1603.32
1017.143	1569.65
1017.435	1598.57
1017.727	1547.5
1018.018	1558.8
1018.31	1549.31
1018.602	1512.7
1018.893	1541.63
1019.185	1537.78
1019.476	1512.25
1019.767	1480.38
1020.058	1483.1
1020.35	1491.46
1020.641	1454.4
1020.932	1440.84
1021.223	1457.33
1021.514	1440.84
1021.804	1398.35
1022.095	1376.66
1022.386	1420.5
1022.677	1387.51
1022.967	1411.23
1023.258	1379.14
1023.548	1369.2
1023.839	1359.71
1024.129	1347.05
1024.419	1322.42
1024.709	1345.47
1025	1326.94
1025.29	1337.79
1025.58	1299.6
1025.87	1279.49
1026.16	1281.07
1026.449	1262.76
1026.739	1279.49
1027.029	1281.07
1027.319	1277.9
1027.608	1259.83
1027.898	1248.75
1028.187	1237.45
1028.477	1220.05
1028.766	1249.2
1029.055	1202.2
1029.344	1209.21
1029.634	1216.89
1029.923	1176.21
1030.212	1161.52
1030.501	1187.74
1030.79	1158.13
1031.078	1172.6
1031.367	1154.52
1031.656	1190.45
1031.945	1155.42
1032.233	1145.7
1032.522	1121.98
1032.81	1108.87
1033.099	1085.14
1033.387	1101.41
1033.675	1062.32
1033.963	1070
1034.251	1093.95
1034.54	1068.19
1034.828	1060.73
1035.116	1051.7
1035.403	1045.37
1035.691	1033.16
1035.979	1055.54
1036.267	1032.94
1036.554	1013.96
1036.842	1022.54
1037.129	1009.66
1037.417	999.95
1037.704	1003.56
1037.992	1010.34
1038.279	986.61
1038.566	959.72
1038.853	959.72
1039.14	959.72
