Data from hue_130_FLMS001491_00025.txt Node
Date: Tue Feb 07 16:57:23 GMT 2017
User: dcchb
Spectrometer: FLMS00149
Trigger mode: 0
Integration Time (sec): 2.000000E-2
Scans to average: 10
Electric dark correction enabled: true
Nonlinearity correction enabled: false
Boxcar width: 0
XAxis mode: Wavelengths
Number of Pixels in Spectrum: 2048
>>>>>Begin Spectral Data<<<<<
341.393	11.74
341.776	11.74
342.16	11.74
342.543	-68.94
342.927	-67.13
343.31	-84.76
343.693	-59
344.077	-66.91
344.46	-60.35
344.843	-65.55
345.226	-31.2
345.61	-25.32
345.993	-20.58
346.376	-2.73
346.759	21.23
347.142	18.74
347.525	17.84
347.908	60.78
348.291	93.09
348.674	95.58
349.057	109.14
349.44	126.08
349.823	130.83
350.206	161.11
350.588	197.72
350.971	199.08
351.354	218.06
351.737	228.91
352.119	252.63
352.502	260.09
352.884	262.58
353.267	268.68
353.65	282.92
354.032	297.61
354.414	305.29
354.797	296.93
355.179	323.14
355.562	327.21
355.944	331.05
356.326	323.82
356.709	330.15
357.091	335.34
357.473	346.19
357.855	332.18
358.238	340.32
358.62	326.76
359.002	329.69
359.384	327.66
359.766	314.55
360.148	347.1
360.53	360.43
360.912	327.21
361.294	327.43
361.676	321.56
362.057	328.79
362.439	299.86
362.821	345.74
363.203	356.13
363.584	331.5
363.966	318.4
364.348	308.45
364.729	306.64
365.111	310.71
365.493	318.4
365.874	313.88
366.256	335.57
366.637	338.51
367.019	304.16
367.4	317.94
367.781	297.83
368.163	325.4
368.544	322.01
368.925	315.23
369.306	366.53
369.688	320.2
370.069	310.49
370.45	313.88
370.831	317.27
371.212	328.79
371.593	306.64
371.974	333.08
372.355	310.26
372.736	307.1
373.117	298.74
373.498	327.66
373.879	299.64
374.26	309.13
374.641	309.58
375.021	303.93
375.402	301.22
375.783	310.03
376.163	329.02
376.544	315.01
376.925	323.59
377.305	307.55
377.686	336.25
378.066	298.28
378.447	315.68
378.827	335.57
379.208	328.79
379.588	334.21
379.968	325.85
380.349	347.55
380.729	331.28
381.109	335.8
381.489	344.38
381.87	327.89
382.25	347.77
382.63	338.06
383.01	342.12
383.39	336.47
383.77	352.29
384.15	340.32
384.53	340.09
384.91	346.87
385.29	350.26
385.67	361.78
386.049	338.06
386.429	349.36
386.809	349.81
387.189	346.87
387.568	359.52
387.948	375.12
388.328	354.55
388.707	348.68
389.087	366.76
389.466	366.98
389.846	384.16
390.225	361.78
390.605	367.66
390.984	372.41
391.363	361.78
391.743	373.76
392.122	359.98
392.501	360.2
392.881	385.06
393.26	379.64
393.639	383.25
394.018	392.74
394.397	379.86
394.776	389.13
395.155	399.75
395.534	387.55
395.913	375.8
396.292	381.9
396.671	395
397.05	387.77
397.429	396.13
397.808	416.47
398.186	395.23
398.565	408.56
398.944	411.05
399.323	381.9
399.701	426.19
400.08	410.14
400.458	406.98
400.837	437.26
401.215	397.26
401.594	400.65
401.972	400.43
402.351	398.62
402.729	417.83
403.107	409.92
403.486	408.34
403.864	409.92
404.242	426.87
404.62	425.96
404.999	410.6
405.377	422.8
405.755	444.95
406.133	439.52
406.511	435.45
406.889	431.84
407.267	431.16
407.645	448.11
408.023	444.72
408.401	457.37
408.779	468.9
409.156	455.79
409.534	447.66
409.912	459.18
410.29	477.04
410.667	469.13
411.045	461.44
411.422	471.39
411.8	493.76
412.178	481.56
412.555	483.36
412.933	485.85
413.31	491.5
413.687	496.24
414.065	488.56
414.442	504.83
414.819	491.27
415.197	533.31
415.574	494.21
415.951	518.84
416.328	519.52
416.705	507.54
417.082	530.14
417.46	507.77
417.837	520.42
418.214	542.57
418.591	527.43
418.967	549.8
419.344	540.54
419.721	554.77
420.098	550.25
420.475	560.2
420.852	549.35
421.228	557.49
421.605	573.98
421.982	532.18
422.358	566.3
422.735	589.12
423.111	554.55
423.488	599.29
423.864	596.81
424.241	607.88
424.617	610.82
424.994	611.72
425.37	592.06
425.746	607.88
426.123	595.9
426.499	601.78
426.875	627.54
427.251	631.83
427.627	636.13
428.003	638.39
428.379	625.96
428.756	629.35
429.132	663.02
429.507	642.68
429.883	663.7
430.259	675.22
430.635	684.94
431.011	679.06
431.387	689.91
431.763	681.55
432.138	701.89
432.514	705.96
432.89	709.8
433.265	747.08
433.641	718.16
434.016	708.44
434.392	718.16
434.767	757.25
435.143	750.93
435.518	765.39
435.894	786.86
436.269	765.16
436.644	788.67
437.02	802.22
437.395	792.06
437.77	806.74
438.145	778.72
438.52	819.4
438.895	821.43
439.271	815.33
439.646	817.37
440.021	831.38
440.395	844.48
440.77	858.95
441.145	865.27
441.52	834.31
441.895	888.55
442.27	884.03
442.645	885.84
443.019	876.12
443.394	864.6
443.769	906.4
444.143	877.93
444.518	931.26
444.892	913.63
445.267	908.44
445.641	916.35
446.016	910.24
446.39	923.35
446.764	910.02
447.139	935.78
447.513	925.16
447.887	960.64
448.262	954.99
448.636	965.16
449.01	979.4
449.384	1010.13
449.758	988.66
450.132	975.55
450.506	999.06
450.88	1009.68
451.254	1028.43
451.628	1039.51
452.002	1052.39
452.376	1038.6
452.75	1043.35
453.123	1056.23
453.497	1063.69
453.871	1064.36
454.244	1094.87
454.618	1081.54
454.992	1114.53
455.365	1126.06
455.739	1137.58
456.112	1150.24
456.486	1149.11
456.859	1172.16
457.232	1190.24
457.606	1204.93
457.979	1232.95
458.352	1241.76
458.725	1224.59
459.099	1254.87
459.472	1251.93
459.845	1279.27
460.218	1286.96
460.591	1323.11
460.964	1313.17
461.337	1347.52
461.71	1383.68
462.083	1364.7
462.456	1399.5
462.829	1436.56
463.201	1436.78
463.574	1430
463.947	1450.8
464.32	1491.47
464.692	1491.92
465.065	1528.76
465.438	1559.94
465.81	1573.96
466.183	1580.74
466.555	1635.65
466.928	1657.12
467.3	1642.65
467.672	1661.19
468.045	1733.27
468.417	1700.73
468.789	1745.25
469.161	1801.07
469.534	1816.44
469.906	1891.01
470.278	1879.26
470.65	1886.49
471.022	1929.43
471.394	1988.41
471.766	2005.13
472.138	2076.09
472.51	2119.7
472.882	2144.56
473.253	2216.65
473.625	2203.09
473.997	2270.89
474.369	2322.64
474.74	2374.84
475.112	2451.45
475.484	2475.4
475.855	2531.22
476.227	2558.34
476.598	2686.69
476.97	2763.76
477.341	2799.01
477.713	2875.84
478.084	2886.92
478.455	3074.71
478.827	3057.53
479.198	3138.89
479.569	3229.51
479.94	3367.81
480.311	3384.98
480.682	3468.6
481.053	3621.36
481.424	3738.19
481.795	3797.63
482.166	3878.53
482.537	3995.59
482.908	4087.11
483.279	4193.55
483.65	4308.12
484.021	4476.7
484.391	4514.9
484.762	4670.37
485.133	4700.65
485.503	4895.45
485.874	5016.58
486.244	5144.03
486.615	5273.07
486.985	5416.79
487.356	5541.76
487.726	5643
488.097	5863.56
488.467	5908.31
488.837	6093.84
489.207	6224.91
489.578	6333.6
489.948	6534.05
490.318	6682.75
490.688	6713.26
491.058	6960.03
491.428	7117.54
491.798	7289.96
492.168	7512.1
492.538	7524.76
492.908	7706.22
493.278	7851.76
493.648	7942.38
494.017	8105.54
494.387	8196.38
494.757	8392.31
495.126	8508.46
495.496	8643.37
495.866	8728.57
496.235	8812.18
496.605	9028
496.974	9188.22
497.344	9259.18
497.713	9400.87
498.082	9535.55
498.452	9692.84
498.821	9843.34
499.19	9865.26
499.559	9990.68
499.928	10111.81
500.298	10254.41
500.667	10320.62
501.036	10397.9
501.405	10513.38
501.774	10567.84
502.143	10747.95
502.512	10784.56
502.88	10991.11
503.249	11020.49
503.618	11151.33
503.987	11209.63
504.356	11289.63
504.724	11440.14
505.093	11375.51
505.462	11524.2
505.83	11704.54
506.199	11818.21
506.567	11961.48
506.936	11894.36
507.304	12063.62
507.672	12176.39
508.041	12200.34
508.409	12275.82
508.777	12416.83
509.145	12476.49
509.514	12488.7
509.882	12607.11
510.25	12609.6
510.618	12776.6
510.986	12773.21
511.354	12901.79
511.722	12986.99
512.09	13063.37
512.458	13083.71
512.826	13153.99
513.193	13222.24
513.561	13185.63
513.929	13322.57
514.297	13451.16
514.664	13510.82
515.032	13511.95
515.4	13617.71
515.767	13602.11
516.135	13717.14
516.502	13570.93
516.869	13816.12
517.237	13851.37
517.604	13762.79
517.972	13862.67
518.339	13924.37
518.706	13994.19
519.073	14016.11
519.44	14088.88
519.808	14225.83
520.175	14122.1
520.542	14223.11
520.909	14301.3
521.276	14271.48
521.643	14357.35
522.009	14475.54
522.376	14445.93
522.743	14511.47
523.11	14553.73
523.477	14656.55
523.843	14731.35
524.21	14767.06
524.577	14885.24
524.943	14899.26
525.31	14876.43
525.676	14954.85
526.043	14977.22
526.409	14963.43
526.776	15169.3
527.142	15123.88
527.508	15105.58
527.874	15202.52
528.241	15304.67
528.607	15212.24
528.973	15241.62
529.339	15207.95
529.705	15304.44
530.071	15368.4
530.437	15423.76
530.803	15390.32
531.169	15406.59
531.535	15366.81
531.901	15320.94
532.267	15389.41
532.632	15431.9
532.998	15377.43
533.364	15423.31
533.73	15363.65
534.095	15562.29
534.461	15394.61
534.826	15467.83
535.192	15429.41
535.557	15506.7
535.923	15292.92
536.288	15428.73
536.653	15453.14
537.019	15381.95
537.384	15322.97
537.749	15409.3
538.114	15369.75
538.479	15259.47
538.845	15271.9
539.21	15224.22
539.575	15198.68
539.94	15142.86
540.305	15236.65
540.67	15176.99
541.034	15157.55
541.399	15100.61
541.764	15061.74
542.129	15092.92
542.494	15049.76
542.858	15019.03
543.223	14944.23
543.587	15112.81
543.952	14960.5
544.316	14892.02
544.681	14808.86
545.045	14845.7
545.41	14982.64
545.774	14885.02
546.138	14796.88
546.503	14764.12
546.867	14766.15
547.231	14802.31
547.595	14729.32
547.959	14703.1
548.324	14668.3
548.688	14694.74
549.052	14608.64
549.416	14547.85
549.779	14581.75
550.143	14579.49
550.507	14525.03
550.871	14512.82
551.235	14456.1
551.599	14461.3
551.962	14392.15
552.326	14499.27
552.689	14510.56
553.053	14368.87
553.417	14290.01
553.78	14507.85
554.143	14334.98
554.507	14382.66
554.87	14295.66
555.234	14467.4
555.597	14296.56
555.96	14298.14
556.323	14269.22
556.686	14300.85
557.05	14300.17
557.413	14259.72
557.776	14283
558.139	14272.83
558.502	14284.13
558.865	14238.48
559.228	14247.29
559.59	14261.31
559.953	14293.85
560.316	14342.89
560.679	14263.57
561.041	14370.46
561.404	14346.73
561.767	14410.45
562.129	14182.21
562.492	14423.56
562.854	14359.61
563.217	14330
563.579	14378.14
563.941	14380.4
564.304	14372.72
564.666	14433.28
565.028	14371.36
565.39	14448.42
565.753	14427.4
566.115	14418.36
566.477	14414.07
566.839	14498.81
567.201	14531.36
567.563	14553.05
567.925	14609.09
568.287	14638.92
568.648	14525.25
569.01	14682.76
569.372	14708.98
569.734	14648.19
570.095	14654.74
570.457	14747.17
570.819	14637.12
571.18	14630.11
571.542	14702.65
571.903	14720.95
572.265	14761.86
572.626	14791.01
572.987	14819.48
573.349	14811.57
573.71	14842.53
574.071	14791.46
574.432	14805.02
574.794	14943.32
575.155	14903.55
575.516	14821.52
575.877	14887.28
576.238	14895.87
576.599	14986.48
576.96	14936.09
577.32	14961.4
577.681	14977.22
578.042	15043.21
578.403	14948.52
578.763	14887.96
579.124	14945.36
579.485	15074.62
579.845	15033.49
580.206	15061.51
580.566	14985.13
580.927	14842.08
581.287	15059.93
581.648	14842.08
582.008	14939.25
582.368	14856.77
582.728	14962.3
583.089	14861.06
583.449	14937.67
583.809	14992.59
584.169	14974.06
584.529	14923.44
584.889	15018.35
585.249	14882.31
585.609	14837.34
585.969	15024.22
586.329	14862.19
586.688	14891.12
587.048	14870.78
587.408	14795.08
587.768	14819.48
588.127	14826.26
588.487	14791.46
588.846	14871.23
589.206	14750.56
589.565	14771.35
589.925	14825.36
590.284	14775.42
590.643	14885.92
591.003	14834.85
591.362	14794.63
591.721	14755.3
592.08	14812.7
592.44	14755.53
592.799	14810.44
593.158	14781.52
593.517	14675.08
593.876	14800.95
594.235	14728.41
594.593	14766.6
594.952	14700.84
595.311	14710.79
595.67	14722.08
596.029	14770.9
596.387	14682.54
596.746	14852.7
597.104	14735.19
597.463	14739.71
597.822	14712.14
598.18	14657.23
598.538	14663.33
598.897	14702.42
599.255	14583.78
599.613	14739.49
599.972	14723.21
600.33	14733.38
600.688	14630.56
601.046	14794.63
601.404	14761.18
601.762	14772.93
602.12	14736.1
602.478	14785.36
602.836	14732.48
603.194	14678.92
603.552	14680.96
603.91	14754.85
604.268	14791.24
604.625	14661.3
604.983	14653.16
605.341	14627.62
605.698	14705.59
606.056	14684.12
606.413	14665.81
606.771	14701.75
607.128	14837.79
607.485	14624.46
607.843	14657.23
608.2	14767.06
608.557	14806.38
608.914	14763.89
609.272	14780.39
609.629	14845.7
609.986	14826.94
610.343	14759.15
610.7	14818.81
611.057	14775.87
611.414	14838.47
611.771	14882.53
612.127	14881.63
612.484	14887.96
612.841	14872.82
613.198	14853.83
613.554	14877.33
613.911	14953.49
614.267	14953.94
614.624	14950.33
614.98	14961.4
615.337	15036.2
615.693	14973.38
616.05	14925.47
616.406	15101.28
616.762	14858.35
617.118	14985.13
617.475	14956.43
617.831	15077.33
618.187	15040.95
618.543	15001.85
618.899	15149.42
619.255	15021.29
619.611	15142.64
619.967	15149.42
620.323	15175.86
620.678	15085.01
621.034	15103.54
621.39	15064.67
621.746	15132.47
622.101	15233.26
622.457	15006.37
622.812	15125.69
623.168	15176.99
623.523	15072.13
623.879	15211.56
624.234	15183.77
624.589	15075.07
624.945	15150.32
625.3	15178.12
625.655	15114.84
626.01	15171.79
626.365	15140.15
626.72	15108.97
627.075	15047.95
627.43	15074.17
627.785	15064
628.14	15214.05
628.495	15201.17
628.85	15171.79
629.205	15106.93
629.559	15198.68
629.914	15153.03
630.269	15111
630.623	15062.19
630.978	15059.7
631.332	15092.24
631.687	15148.06
632.041	14938.8
632.396	15031.68
632.75	14921.85
633.104	15010.44
633.459	14951.46
633.813	14854.06
634.167	14847.05
634.521	14927.95
634.875	14906.26
635.229	14985.81
635.583	14802.99
635.937	14890.67
636.291	14775.19
636.645	14741.97
636.999	14702.88
637.352	14778.13
637.706	14696.32
638.06	14733.16
638.413	14698.36
638.767	14584.24
639.121	14627.62
639.474	14653.61
639.828	14594.63
640.181	14664.46
640.534	14718.47
640.888	14555.31
641.241	14604.12
641.594	14585.37
641.947	14645.25
642.301	14602.54
642.654	14638.02
643.007	14600.73
643.36	14560.73
643.713	14529.55
644.066	14549.21
644.419	14560.51
644.771	14429.21
645.124	14261.53
645.477	14275.32
645.83	14202.1
646.182	14073.06
646.535	14066.96
646.888	14095.21
647.24	13986.96
647.593	14066.96
647.945	14034.65
648.298	13988.54
648.65	13917.36
649.002	13906.74
649.355	13990.8
649.707	14044.81
650.059	14092.95
650.411	14218.14
650.763	14227.63
651.115	14310.34
651.467	14332.26
651.819	14241.87
652.171	14306.28
652.523	14360.29
652.875	14341.53
653.227	14229.22
653.578	14337.01
653.93	14273.51
654.282	14298.37
654.633	14293.62
654.985	14313.06
655.337	14279.84
655.688	14279.38
656.039	14346.05
656.391	14281.64
656.742	14295.2
657.094	14283.9
657.445	14331.36
657.796	14245.04
658.147	14273.51
658.498	14308.99
658.849	14330.46
659.2	14322.1
659.551	14306.28
659.902	14377.01
660.253	14337.69
660.604	14319.38
660.955	14280.97
661.306	14465.37
661.656	14346.95
662.007	14343.56
662.358	14367.97
662.708	14388.53
663.059	14456.1
663.409	14326.61
663.76	14419.04
664.11	14370.68
664.461	14376.11
664.811	14365.94
665.161	14325.48
665.511	14428.08
665.862	14332.26
666.212	14361.42
666.562	14399.16
666.912	14336.56
667.262	14365.26
667.612	14336.33
667.962	14332.94
668.312	14327.29
668.662	14379.04
669.011	14370.46
669.361	14342.21
669.711	14324.81
670.06	14221.31
670.41	14295.2
670.76	14278.03
671.109	14325.71
671.459	14286.39
671.808	14275.32
672.157	14370.91
672.507	14262.44
672.856	14209.33
673.205	14241.87
673.554	14309.89
673.904	14249.33
674.253	14220.63
674.602	14285.94
674.951	14155.32
675.3	13958.94
675.649	14188.54
675.998	14203
676.346	14233.96
676.695	14265.83
677.044	14044.81
677.393	14147.86
677.741	14133.85
678.09	14183.57
678.438	14071.25
678.787	14085.04
679.135	14097.47
679.484	13944.48
679.832	13971.14
680.181	13936.34
680.529	13898.83
680.877	13934.31
681.225	13865.84
681.573	13932.05
681.922	13872.62
682.27	13752.84
682.618	13814.31
682.966	13851.83
683.314	13788.32
683.661	13810.92
684.009	13645.05
684.357	13704.03
684.705	13624.94
685.053	13691.15
685.4	13666.52
685.748	13575.22
686.095	13582.23
686.443	13527.31
686.79	13417.71
687.138	13469.69
687.485	13483.02
687.832	13445.28
688.18	13400.31
688.527	13363.02
688.874	13186.08
689.221	13305.17
689.568	13234.21
689.915	13260.2
690.262	13224.27
690.609	13154.89
690.956	13062.02
691.303	13036.71
691.65	12929.59
691.997	13062.47
692.344	12898.86
692.69	12904.96
693.037	12883.26
693.383	12783.83
693.73	12844.39
694.077	12702.93
694.423	12747.9
694.769	12637.85
695.116	12561.01
695.462	12594.01
695.808	12555.36
696.155	12471.3
696.501	12433.33
696.847	12461.35
697.193	12297.06
697.539	12349.49
697.885	12258.19
698.231	12229.04
698.577	12234.92
698.923	12095.04
699.269	12203.28
699.614	12026.79
699.96	12046.67
700.306	12042.83
700.651	11975.04
700.997	11867.47
701.342	11857.3
701.688	11808.94
702.033	11805.1
702.379	11758.32
702.724	11681.03
703.069	11635.61
703.415	11581.83
703.76	11606.69
704.105	11607.14
704.45	11492.57
704.795	11482.85
705.14	11392
705.485	11467.93
705.83	11407.82
706.175	11418.22
706.52	11258.45
706.865	11345.68
707.209	11242.85
707.554	11249.86
707.899	11248.5
708.243	11218
708.588	11188.17
708.932	11055.74
709.277	11079.69
709.621	11046.02
709.966	11028.85
710.31	11010.77
710.654	10867.04
710.998	10938.68
711.342	10915.63
711.687	10897.78
712.031	10839.25
712.375	10824.11
712.719	10841.28
713.063	10751.12
713.407	10792.02
713.75	10733.26
714.094	10676.99
714.438	10573.04
714.782	10668.18
715.125	10660.04
715.469	10709.76
715.812	10582.76
716.156	10472.25
716.499	10560.84
716.843	10558.35
717.186	10493.95
717.53	10551.8
717.873	10542.76
718.216	10494.17
718.559	10416.21
718.902	10319.04
719.246	10341.41
719.589	10363.1
719.932	10249.43
720.275	10331.01
720.617	10319.26
720.96	10270.45
721.303	10292.14
721.646	10287.62
721.989	10205.14
722.331	10292.6
722.674	10267.96
723.016	10239.49
723.359	10251.02
723.701	10225.93
724.044	10184.35
724.386	10136.22
724.729	10172.83
725.071	10219.83
725.413	10164.92
725.755	10198.81
726.097	10142.54
726.439	10077.46
726.782	10066.16
727.124	10171.7
727.465	10086.95
727.807	10081.98
728.149	10076.56
728.491	10015.77
728.833	10026.39
729.175	10031.81
729.516	10100.74
729.858	10020.51
730.199	10101.19
730.541	10053.96
730.882	10012.38
731.224	10112.26
731.565	9979.38
731.906	10006.05
732.248	10062.77
732.589	9945.26
732.93	9960.63
733.271	9919.05
733.612	10019.16
733.953	10009.44
734.294	9938.93
734.635	9970.12
734.976	10008.31
735.317	9905.71
735.658	9961.08
735.999	10013.06
736.339	10013.73
736.68	10015.99
737.021	9999.27
737.361	9935.09
737.702	10047.41
738.042	10041.53
738.383	9990.23
738.723	10038.82
739.063	10052.6
739.404	9993.4
739.744	10012.6
740.084	9992.72
740.424	10050.57
740.764	10073.39
741.104	10126.95
741.444	10055.31
741.784	10107.74
742.124	10068.65
742.464	10130.11
742.804	10139.61
743.143	10185.03
743.483	10140.06
743.823	10117.23
744.162	10218.7
744.502	10291.01
744.841	10296.66
745.181	10302.77
745.52	10344.8
745.86	10298.47
746.199	10394.29
746.538	10426.15
746.877	10490.11
747.216	10571.01
747.556	10498.47
747.895	10601.06
748.234	10627.73
748.573	10738.69
748.911	10729.42
749.25	10797.44
749.589	10854.39
749.928	10893.03
750.267	10984.78
750.605	11057.1
750.944	11129.18
751.283	11188.17
751.621	11255.06
751.96	11328.05
752.298	11483.98
752.636	11584.77
752.975	11612.79
753.313	11714.93
753.651	11895.49
753.989	11861.37
754.327	12026.34
754.666	12148.37
755.004	12280.79
755.342	12343.84
755.679	12501.58
756.017	12555.81
756.355	12733.21
756.693	12883.94
757.031	13097.95
757.368	13102.01
757.706	13234.21
758.044	13465.17
758.381	13605.73
758.719	13756.91
759.056	13916.46
759.394	14041.65
759.731	14195.54
760.068	14318.93
760.405	14499.94
760.743	14619.26
761.08	14876.66
761.417	14997.56
761.754	15110.1
762.091	15250.43
762.428	15344.22
762.765	15470.09
763.102	15792.34
763.438	15880.02
763.775	15957.31
764.112	16183.52
764.449	16403.85
764.785	16484.07
765.122	16583.05
765.458	16738.3
765.795	16876.6
766.131	16963.83
766.467	17081.8
766.804	17234.56
767.14	17373.31
767.476	17555
767.812	17569.24
768.148	17727.2
768.485	17795.22
768.821	17877.48
769.157	17968.33
769.492	18168.1
769.828	18347.53
770.164	18316.11
770.5	18340.29
770.836	18568.31
771.171	18556.79
771.507	18711.58
771.842	18711.36
772.178	18861.18
772.513	19027.73
772.849	18924.69
773.184	18995.87
773.519	19115.64
773.855	19180.5
774.19	19127.17
774.525	19320.16
774.86	19305.69
775.195	19358.35
775.53	19499.59
775.865	19474.05
776.2	19374.84
776.535	19365.13
776.87	19498.68
777.205	19496.87
777.539	19401.74
777.874	19555.18
778.209	19497.55
778.543	19526.93
778.878	19485.8
779.212	19643.54
779.547	19606.02
779.881	19636.76
780.215	19591.79
780.55	19682.18
780.884	19572.13
781.218	19607.15
781.552	19748.39
781.886	19605.12
782.22	19514.05
782.554	19455.07
782.888	19505.91
783.222	19458.68
783.556	19500.72
783.889	19443.77
784.223	19345.69
784.557	19365.35
784.89	19441.28
785.224	19346.82
785.557	19218.24
785.891	19269.99
786.224	19380.04
786.558	19343.66
786.891	19095.08
787.224	19161.52
787.557	19288.74
787.891	19170.33
788.224	19209.42
788.557	19131.23
788.89	19168.97
789.223	19114.06
789.556	19124
789.888	19057.11
790.221	18946.61
790.554	18811.47
790.887	18820.28
791.219	18844.91
791.552	18763.33
791.884	18688.53
792.217	18683.56
792.549	18742.77
792.882	18508.2
793.214	18559.05
793.546	18613.96
793.879	18443.57
794.211	18314.08
794.543	18477.01
794.875	18415.55
795.207	18504.58
795.539	18381.42
795.871	18377.13
796.203	18216
796.535	18080.87
796.867	18042.9
797.198	18075.22
797.53	18071.15
797.862	17916.58
798.193	17965.16
798.525	17822.79
798.856	17936.92
799.188	17762.91
799.519	17738.73
799.85	17684.27
800.182	17717.94
800.513	17664.83
800.844	17462.58
801.175	17644.72
801.506	17600.43
801.837	17484.72
802.168	17457.15
802.499	17435.23
802.83	17379.64
803.161	17301.23
803.491	17341.68
803.822	17250.15
804.153	17238.63
804.483	17130.61
804.814	17110.27
805.145	16990.05
805.475	17051.06
805.805	16992.76
806.136	16895.36
806.466	17037.05
806.796	16938.3
807.126	16723.61
807.457	16683.16
807.787	16819.66
808.117	16705.76
808.447	16717.74
808.777	16703.05
809.107	16614.24
809.436	16540.12
809.766	16582.37
810.096	16518.65
810.426	16437.52
810.755	16523.39
811.085	16392.55
811.414	16468.48
811.744	16301.48
812.073	16275.94
812.403	16268.48
812.732	16245.89
813.061	16157.75
813.39	16173.8
813.719	16037.98
814.049	16152.56
814.378	16042.95
814.707	16079.11
815.036	15975.39
815.365	15936.52
815.693	15883.64
816.022	15816.97
816.351	15851.55
816.68	15695.39
817.008	15738.78
817.337	15609.74
817.665	15582.4
817.994	15673.92
818.322	15638.9
818.651	15539.24
818.979	15475.74
819.307	15566.58
819.636	15554.15
819.964	15439.13
820.292	15556.41
820.62	15532.91
820.948	15360.03
821.276	15418.11
821.604	15341.28
821.932	15475.29
822.259	15384.89
822.587	15425.34
822.915	15442.97
823.243	15439.35
823.57	15387.15
823.898	15479.58
824.225	15333.37
824.553	15369.53
824.88	15372.24
825.207	15540.14
825.535	15340.83
825.862	15487.26
826.189	15333.14
826.516	15386.7
826.843	15487.94
827.17	15447.26
827.497	15472.8
827.824	15357.77
828.151	15452.23
828.478	15474.38
828.805	15490.2
829.131	15479.35
829.458	15397.77
829.785	15318.45
830.111	15369.3
830.438	15478.22
830.764	15358.45
831.09	15484.32
831.417	15398.68
831.743	15445.91
832.069	15393.71
832.395	15309.19
832.722	15381.5
833.048	15325.46
833.374	15286.36
833.7	15248.17
834.026	15290.21
834.351	15291.11
834.677	15215.18
835.003	15289.08
835.329	15277.78
835.654	15279.81
835.98	15201.85
836.306	15164.78
836.631	15193.94
836.956	15193.71
837.282	15137.89
837.607	15114.62
837.932	15156.42
838.258	15119.36
838.583	14986.71
838.908	15005.02
839.233	15032.13
839.558	14965.47
839.883	14896.54
840.208	14800.05
840.533	14867.17
840.858	14917.56
841.182	14913.04
841.507	14854.51
841.832	14735.87
842.156	14779.03
842.481	14742.42
842.805	14693.84
843.13	14725.02
843.454	14617.45
843.778	14685.25
844.103	14569.09
844.427	14542.65
844.751	14575.2
845.075	14462.66
845.399	14429.89
845.723	14400.96
846.047	14374.3
846.371	14333.62
846.695	14284.36
847.019	14146.96
847.343	14088.43
847.666	14089.78
847.99	14002.56
848.313	13945.83
848.637	13862.22
848.96	13897.47
849.284	13791.04
849.607	13692.73
849.931	13605.96
850.254	13514.43
850.577	13563.7
850.9	13449.12
851.223	13525.96
851.546	13325.96
851.869	13223.37
852.192	13406.86
852.515	13247.32
852.838	13158.74
853.161	13182.24
853.483	13128.68
853.806	13072.18
854.129	13020.21
854.451	12964.84
854.774	12930.95
855.096	12873.09
855.419	12822.02
855.741	12844.62
856.063	12806.2
856.385	12749.71
856.708	12678.97
857.03	12614.8
857.352	12627
857.674	12552.2
857.996	12524.85
858.318	12485.31
858.64	12454.35
858.961	12433.78
859.283	12352.43
859.605	12256.84
859.926	12331.87
860.248	12296.16
860.57	12197.41
860.891	12277.4
861.212	12177.07
861.534	12137.75
861.855	12092.1
862.176	12136.39
862.498	12166.45
862.819	12116.73
863.14	12031.76
863.461	12007.35
863.782	11935.72
864.103	12002.16
864.424	11905.44
864.745	11903.18
865.065	11823.86
865.386	11827.25
865.707	11808.26
866.027	11782.95
866.348	11832.44
866.668	11718.55
866.989	11748.6
867.309	11712.9
867.63	11660.02
867.95	11705.67
868.27	11640.13
868.59	11602.84
868.91	11592
869.23	11662.05
869.55	11570.98
869.87	11620.7
870.19	11614.82
870.51	11585.22
870.83	11612.56
871.15	11508.61
871.469	11533.47
871.789	11576.18
872.109	11498.67
872.428	11457.76
872.748	11483.07
873.067	11421.83
873.386	11414.6
873.706	11429.06
874.025	11356.52
874.344	11273.59
874.663	11333.25
874.982	11211.44
875.301	11312.23
875.62	11291.21
875.939	11288.5
876.258	11228.84
876.577	11217.09
876.896	11216.19
877.214	11077.43
877.533	11122.18
877.852	11090.32
878.17	11080.37
878.489	11062.52
878.807	11075.17
879.125	10984.1
879.444	10996.53
879.762	10986.82
880.08	11023.42
880.398	10925.57
880.716	10943.65
881.034	10856.88
881.352	10947.04
881.67	10862.53
881.988	10835.41
882.306	10896.2
882.624	10791.11
882.941	10779.59
883.259	10760.61
883.577	10720.61
883.894	10646.49
884.212	10693.49
884.529	10709.76
884.846	10694.17
885.164	10614.62
885.481	10597.22
885.798	10606.49
886.115	10437.23
886.432	10519.48
886.75	10470.45
887.067	10496.43
887.383	10441.75
887.7	10563.1
888.017	10405.81
888.334	10407.17
888.651	10379.15
888.967	10336.21
889.284	10319.04
889.6	10225.71
889.917	10222.32
890.233	10157.46
890.55	10228.42
890.866	10122.88
891.182	10143.22
891.498	10108.65
891.815	10060.06
892.131	10066.84
892.447	9973.06
892.763	9852.83
893.079	9966.96
893.395	9913.85
893.71	9905.71
894.026	9850.57
894.342	9847.41
894.657	9773.74
894.973	9794.76
895.289	9698.49
895.604	9791.82
895.92	9609.22
896.235	9618.26
896.55	9534.88
896.865	9562.22
897.181	9505.95
897.496	9511.15
897.811	9442.9
898.126	9467.99
898.441	9390.93
898.756	9373.75
899.071	9314.09
899.386	9372.85
899.7	9208.11
900.015	9218.73
900.33	9077.26
900.644	9116.58
900.959	9092.85
901.273	9121.55
901.588	9118.39
901.902	8951.84
902.216	8950.94
902.531	8982.8
902.845	8898.06
903.159	8887.66
903.473	8804.5
903.787	8814.67
904.101	8705.52
904.415	8806.76
904.729	8720.21
905.042	8700.32
905.356	8630.72
905.67	8651.51
905.984	8588.91
906.297	8651.96
906.611	8580.78
906.924	8499.2
907.237	8499.65
907.551	8427.11
907.864	8404.06
908.177	8389.37
908.491	8351.86
908.804	8279.99
909.117	8239.09
909.43	8219.88
909.743	8130.85
910.056	8115.93
910.368	8124.29
910.681	8109.83
910.994	8100.56
911.307	8072.99
911.619	7974.01
911.932	8003.62
912.244	7925.88
912.557	7908.93
912.869	7876.61
913.181	7884.07
913.494	7805.66
913.806	7809.27
914.118	7773.34
914.43	7691.54
914.742	7675.04
915.054	7641.82
915.366	7643.85
915.678	7571.99
915.99	7521.82
916.302	7456.96
916.613	7454.25
916.925	7499.68
917.236	7381.71
917.548	7397.98
917.859	7423.07
918.171	7306.69
918.482	7280.47
918.794	7271.43
919.105	7228.5
919.416	7147.37
919.727	7183.53
920.038	7127.26
920.349	7047.26
920.66	7090.87
920.971	7110.31
921.282	7099.69
921.593	6963.42
921.903	6935.85
922.214	6920.71
922.525	6916.41
922.835	6855.62
923.146	6839.35
923.456	6837.55
923.767	6828.73
924.077	6781.05
924.387	6711.9
924.697	6720.49
925.008	6716.65
925.318	6668.29
925.628	6683.43
925.938	6611.79
926.248	6565.46
926.558	6539.25
926.867	6482.08
927.177	6512.58
927.487	6462.19
927.796	6446.14
928.106	6432.36
928.416	6313.49
928.725	6377.22
929.034	6320.27
929.344	6339.25
929.653	6320.05
929.962	6272.36
930.271	6186.26
930.581	6191.24
930.89	6186.94
931.199	6201.4
931.508	6111.69
931.817	6090.45
932.125	6055.65
932.434	6067.17
932.743	6061.3
933.051	5983.78
933.36	5946.04
933.669	5985.37
933.977	5954.18
934.286	5902.43
934.594	5902.88
934.902	5822.88
935.21	5831.24
935.519	5803
935.827	5788.76
936.135	5753.05
936.443	5713.51
936.751	5721.42
937.059	5716.67
937.367	5664.47
937.674	5667.63
937.982	5660.63
938.29	5595.77
938.597	5565.72
938.905	5457.24
939.213	5542.21
939.52	5521.42
939.827	5490.91
940.135	5401.88
940.442	5396
940.749	5413.85
941.056	5387.19
941.363	5316.23
941.67	5339.73
941.977	5334.31
942.284	5269.45
942.591	5237.14
942.898	5258.6
943.205	5165.5
943.511	5198.49
943.818	5146.29
944.125	5088.44
944.431	5124.37
944.738	5137.93
945.044	5104.03
945.35	5044.6
945.657	4996.46
945.963	5017.93
946.269	4994.2
946.575	4967.76
946.881	4941.55
947.187	4910.37
947.493	4886.86
947.799	4886.86
948.105	4859.75
948.41	4832.85
948.716	4824.27
949.022	4810.93
949.327	4811.16
949.633	4756.7
949.938	4765.96
950.244	4735.45
950.549	4749.01
950.854	4661.33
951.16	4673.31
951.465	4614.33
951.77	4626.98
952.075	4609.36
952.38	4624.95
952.685	4623.37
952.99	4584.5
953.294	4484.61
953.599	4491.17
953.904	4493.2
954.209	4431.96
954.513	4433.77
954.818	4428.34
955.122	4422.24
955.426	4361.68
955.731	4351.96
956.035	4353.32
956.339	4339.08
956.643	4361.68
956.948	4260.44
957.252	4298.63
957.556	4300.21
957.86	4213.89
958.163	4207.78
958.467	4216.37
958.771	4214.79
959.075	4233.77
959.378	4129.14
959.682	4149.93
959.985	4150.61
960.289	4112.65
960.592	4105.64
960.896	4063.38
961.199	4075.81
961.502	4017.73
961.805	4029.94
962.108	4012.31
962.411	3972.76
962.714	3954.91
963.017	3937.06
963.32	3901.58
963.623	3907.91
963.926	3893.89
964.228	3892.76
964.531	3848.02
964.833	3847.12
965.136	3827.91
965.438	3820.45
965.741	3811.64
966.043	3792.43
966.345	3731.19
966.648	3774.8
966.95	3746.55
967.252	3713.33
967.554	3710.17
967.856	3687.8
968.158	3653.9
968.46	3640.12
968.761	3628.14
969.063	3648.03
969.365	3595.37
969.666	3568.93
969.968	3567.58
970.269	3526.22
970.571	3523.74
970.872	3524.19
971.174	3511.08
971.475	3521.93
971.776	3462.27
972.077	3447.58
972.378	3454.13
972.679	3452.32
972.98	3396.73
973.281	3432.89
973.582	3383.17
973.883	3385.89
974.183	3357.19
974.484	3358.99
974.785	3349.73
975.085	3324.19
975.386	3313.8
975.686	3307.47
975.986	3269.96
976.287	3253.69
976.587	3249.17
976.887	3226.57
977.187	3209.39
977.487	3199
977.787	3220.92
978.087	3166
978.387	3164.65
978.687	3170.3
978.987	3135.72
979.286	3119.45
979.586	3107.47
979.885	3078.77
980.185	3066.12
980.484	3056.18
980.784	3053.69
981.083	3027.02
981.382	2979.79
981.682	3009.17
981.981	2985.22
982.28	2949.29
982.579	2972.11
982.878	2950.42
983.177	2920.59
983.475	2939.57
983.774	2918.78
984.073	2844.2
984.372	2868.84
984.67	2905.22
984.969	2857.76
985.267	2802.17
985.566	2830.19
985.864	2811.66
986.162	2825.22
986.461	2820.7
986.759	2786.35
987.057	2763.08
987.355	2741.83
987.653	2768.5
987.951	2721.27
988.249	2706.13
988.547	2705.68
988.844	2704.77
989.142	2669.29
989.44	2653.02
989.737	2626.13
990.035	2639.92
990.332	2638.56
990.63	2651.67
990.927	2595.85
991.224	2573.48
991.521	2622.29
991.819	2605.34
992.116	2563.99
992.413	2543.2
992.71	2561.27
993.006	2550.43
993.303	2514.72
993.6	2510.43
993.897	2453.48
994.193	2496.87
994.49	2470.66
994.787	2464.55
995.083	2432.46
995.379	2446.7
995.676	2415.06
995.972	2389.75
996.268	2383.65
996.565	2365.12
996.861	2346.59
997.157	2358.12
997.453	2349.08
997.749	2309.08
998.044	2296.42
998.34	2313.6
998.636	2320.83
998.932	2275.63
999.227	2277.21
999.523	2263.88
999.818	2246.71
1000.114	2260.04
1000.409	2215.29
1000.704	2213.94
1001	2202.41
1001.295	2190.89
1001.59	2199.93
1001.885	2169.87
1002.18	2163.77
1002.475	2119.03
1002.77	2103.66
1003.065	2126.26
1003.359	2115.41
1003.654	2098.24
1003.949	2090.1
1004.243	2117.9
1004.538	2029.99
1004.832	2044.45
1005.127	2034.28
1005.421	2058.69
1005.715	2001.52
1006.009	1986.83
1006.304	2020.72
1006.598	1994.96
1006.892	1969.43
1007.186	1938.24
1007.48	1947.28
1007.773	1948.41
1008.067	1941.18
1008.361	1890.11
1008.655	1934.4
1008.948	1852.59
1009.242	1856.43
1009.535	1869.32
1009.829	1861.18
1010.122	1856.66
1010.415	1854.4
1010.708	1842.88
1011.001	1807.85
1011.295	1797.45
1011.588	1793.84
1011.881	1785.93
1012.173	1794.29
1012.466	1788.41
1012.759	1751.8
1013.052	1768.75
1013.344	1742.99
1013.637	1714.97
1013.93	1698.7
1014.222	1704.12
1014.514	1660.73
1014.807	1683.78
1015.099	1688.08
1015.391	1680.85
1015.683	1663.9
1015.976	1676.78
1016.268	1641.98
1016.56	1621.86
1016.851	1593.62
1017.143	1601.53
1017.435	1567.85
1017.727	1559.72
1018.018	1574.86
1018.31	1562.2
1018.602	1568.76
1018.893	1556.1
1019.185	1548.19
1019.476	1551.36
1019.767	1535.54
1020.058	1501.19
1020.35	1512.26
1020.641	1485.6
1020.932	1481.08
1021.223	1482.43
1021.514	1489.44
1021.804	1454.18
1022.095	1442.66
1022.386	1393.85
1022.677	1410.57
1022.967	1402.43
1023.258	1382.1
1023.548	1388.2
1023.839	1374.19
1024.129	1385.71
1024.419	1370.35
1024.709	1358.82
1025	1345.04
1025.29	1325.83
1025.58	1346.84
1025.87	1310.01
1026.16	1280.63
1026.449	1305.26
1026.739	1300.97
1027.029	1277.01
1027.319	1281.08
1027.608	1271.82
1027.898	1267.07
1028.187	1239.95
1028.477	1211.25
1028.766	1210.58
1029.055	1258.94
1029.344	1218.03
1029.634	1179.16
1029.923	1205.15
1030.212	1181.2
1030.501	1213.51
1030.79	1168.99
1031.078	1199.05
1031.367	1158.83
1031.656	1157.24
1031.945	1160.41
1032.233	1132.39
1032.522	1146.62
1032.81	1127.64
1033.099	1120.86
1033.387	1117.24
1033.675	1116.57
1033.963	1073.18
1034.251	1073.4
1034.54	1100.07
1034.828	1075.21
1035.116	1071.14
1035.403	1068.43
1035.691	1076.12
1035.979	1049.68
1036.267	1023.24
1036.554	1025.72
1036.842	1013.29
1037.129	1016.46
1037.417	988.66
1037.704	1016.46
1037.992	1006.06
1038.279	973.75
1038.566	988.21
1038.853	988.21
1039.14	988.21
