Data from hue_290_FLMS001491_00023.txt Node
Date: Tue Feb 07 15:52:31 GMT 2017
User: dcchb
Spectrometer: FLMS00149
Trigger mode: 0
Integration Time (sec): 2.000000E-2
Scans to average: 10
Electric dark correction enabled: true
Nonlinearity correction enabled: false
Boxcar width: 0
XAxis mode: Wavelengths
Number of Pixels in Spectrum: 2048
>>>>>Begin Spectral Data<<<<<
341.393	-13.8
341.776	-13.8
342.16	-13.8
342.543	-47.47
342.927	-52.89
343.31	-68.71
343.693	-75.04
344.077	-66.91
344.46	-67.36
344.843	-28.94
345.226	-29.39
345.61	-28.71
345.993	-6.57
346.376	-16.28
346.759	1.12
347.142	23.04
347.525	44.96
347.908	63.26
348.291	69.36
348.674	80.44
349.057	105.75
349.44	122.69
349.823	160.43
350.206	146.65
350.588	180.32
350.971	202.24
351.354	231.84
351.737	242.47
352.119	234.56
352.502	241.79
352.884	269.36
353.267	266.19
353.65	285.18
354.032	305.74
354.414	309.36
354.797	301.45
355.179	311.39
355.562	327.89
355.944	336.93
356.326	315.23
356.709	335.57
357.091	347.32
357.473	342.12
357.855	334.44
358.238	344.38
358.62	314.33
359.002	320.2
359.384	316.14
359.766	318.4
360.148	331.5
360.53	334.67
360.912	335.8
361.294	325.63
361.676	343.03
362.057	355.68
362.439	339.64
362.821	336.47
363.203	317.72
363.584	323.82
363.966	315.01
364.348	323.82
364.729	323.82
365.111	319.98
365.493	326.3
365.874	315.23
366.256	328.79
366.637	315.68
367.019	303.93
367.4	310.26
367.781	300.32
368.163	309.13
368.544	325.85
368.925	298.74
369.306	302.58
369.688	319.07
370.069	325.18
370.45	295.12
370.831	318.17
371.212	318.4
371.593	310.94
371.974	315.01
372.355	322.46
372.736	324.72
373.117	307.32
373.498	316.36
373.879	308.45
374.26	337.6
374.641	323.37
375.021	329.69
375.402	344.84
375.783	311.84
376.163	315.91
376.544	330.6
376.925	315.23
377.305	303.48
377.686	330.6
378.066	317.72
378.447	318.4
378.827	336.93
379.208	338.96
379.588	336.7
379.968	343.48
380.349	338.96
380.729	335.34
381.109	326.08
381.489	332.18
381.87	343.71
382.25	336.25
382.63	334.44
383.01	335.57
383.39	330.37
383.77	325.4
384.15	343.25
384.53	322.92
384.91	351.39
385.29	340.54
385.67	340.99
386.049	338.51
386.429	360.43
386.809	341.22
387.189	366.08
387.568	368.34
387.948	354.1
388.328	357.26
388.707	358.85
389.087	372.41
389.466	357.26
389.846	342.12
390.225	370.82
390.605	368.56
390.984	358.39
391.363	384.61
391.743	380.99
392.122	368.79
392.501	380.09
392.881	343.71
393.26	376.7
393.639	366.53
394.018	383.25
394.397	376.7
394.776	385.96
395.155	381.67
395.534	412.63
395.913	396.59
396.292	395.23
396.671	388.9
397.05	404.5
397.429	389.35
397.808	398.62
398.186	412.63
398.565	413.76
398.944	420.77
399.323	403.59
399.701	404.72
400.08	392.52
400.458	420.77
400.837	435.68
401.215	440.43
401.594	403.82
401.972	417.6
402.351	440.88
402.729	434.32
403.107	417.6
403.486	427.77
403.864	444.95
404.242	445.4
404.62	456.47
404.999	449.92
405.377	468
405.755	451.95
406.133	460.76
406.511	479.52
406.889	482.23
407.267	451.95
407.645	479.97
408.023	497.15
408.401	489.69
408.779	477.26
409.156	477.94
409.534	491.27
409.912	506.41
410.29	531.05
410.667	522.46
411.045	537.15
411.422	530.14
411.8	532.85
412.178	529.46
412.555	561.1
412.933	561.55
413.31	572.17
413.687	585.73
414.065	590.7
414.442	587.09
414.819	607.2
415.197	603.81
415.574	609.91
415.951	627.77
416.328	619.18
416.705	634.32
417.082	613.76
417.46	649.23
417.837	645.62
418.214	663.25
418.591	659.63
418.967	684.71
419.344	680.65
419.721	677.48
420.098	704.15
420.475	699.18
420.852	709.35
421.228	720.19
421.605	725.16
421.982	737.37
422.358	748.67
422.735	762
423.111	770.81
423.488	805.39
423.864	758.16
424.241	783.02
424.617	816.69
424.994	804.48
425.37	838.38
425.746	828.21
426.123	852.84
426.499	858.49
426.875	832.05
427.251	857.59
427.627	906.85
428.003	905.95
428.379	922.45
428.756	909.79
429.132	924.03
429.507	923.58
429.883	932.62
430.259	943.24
430.635	970.36
431.011	950.7
431.387	988.43
431.763	990.47
432.138	1018.04
432.514	1015.55
432.89	1028.21
433.265	1064.59
433.641	1082.67
434.016	1087.19
434.392	1096.91
434.767	1096.23
435.143	1100.75
435.518	1112.5
435.894	1128.09
436.269	1140.07
436.644	1160.86
437.02	1190.69
437.395	1200.41
437.77	1197.92
438.145	1205.15
438.52	1209.67
438.895	1231.82
439.271	1225.26
439.646	1270.91
440.021	1266.62
440.395	1290.35
440.77	1285.83
441.145	1263.46
441.52	1313.85
441.895	1297.35
442.27	1332.61
442.645	1324.92
443.019	1338.71
443.394	1321.08
443.769	1345.71
444.143	1349.78
444.518	1367.18
444.892	1347.75
445.267	1357.92
445.641	1407.18
446.016	1390.23
446.39	1406.05
446.764	1398.14
447.139	1430
447.513	1428.87
447.887	1410.34
448.262	1436.78
448.636	1420.51
449.01	1436.33
449.384	1454.86
449.758	1466.61
450.132	1481.75
450.506	1469.33
450.88	1487.63
451.254	1470
451.628	1497.12
452.002	1507.74
452.376	1523.79
452.75	1511.81
453.123	1543.22
453.497	1561.07
453.871	1574.86
454.244	1567.85
454.618	1580.74
454.992	1635.2
455.365	1610.34
455.739	1625.48
456.112	1630.23
456.486	1636.1
456.859	1637.23
457.232	1681.52
457.606	1681.75
457.979	1692.6
458.352	1738.47
458.725	1708.87
459.099	1706.83
459.472	1743.67
459.845	1801.29
460.218	1814.4
460.591	1817.34
460.964	1802.65
461.337	1833.38
461.71	1841.97
462.083	1862.31
462.456	1884.46
462.829	1869.09
463.201	1883.1
463.574	1895.98
463.947	1939.37
464.32	1999.48
464.692	1985.92
465.065	1999.03
465.438	2000.16
465.81	2004.9
466.183	2036.77
466.555	2033.83
466.928	2060.95
467.3	2070.21
467.672	2100.95
468.045	2160.61
468.417	2132.81
468.789	2170.32
469.161	2139.59
469.534	2178.01
469.906	2215.75
470.278	2258.01
470.65	2248.51
471.022	2272.47
471.394	2294.16
471.766	2317.89
472.138	2339.13
472.51	2400.15
472.882	2410.77
473.253	2414.39
473.625	2443.54
473.997	2491.67
474.369	2513.59
474.74	2519.47
475.112	2525.57
475.484	2576.64
475.855	2624.78
476.227	2618.45
476.598	2717.43
476.97	2676.75
477.341	2739.12
477.713	2792.23
478.084	2747.26
478.455	2838.78
478.827	2837.88
479.198	2895.5
479.569	2921.94
479.94	2984.99
480.311	3023.86
480.682	3059.57
481.053	3101.6
481.424	3124.65
481.795	3119.9
482.166	3133.91
482.537	3189.73
482.908	3249.17
483.279	3283.97
483.65	3324.87
484.021	3371.65
484.391	3380.46
484.762	3423.85
485.133	3423.62
485.503	3441.25
485.874	3513.34
486.244	3538.42
486.615	3573.45
486.985	3615.71
487.356	3656.84
487.726	3667.23
488.097	3739.77
488.467	3784.29
488.837	3794.01
489.207	3838.08
489.578	3862.03
489.948	3878.08
490.318	3974.34
490.688	3942.48
491.058	3972.76
491.428	4004.85
491.798	4064.96
492.168	4145.41
492.538	4117.62
492.908	4137.73
493.278	4252.53
493.648	4216.6
494.017	4257.5
494.387	4287.33
494.757	4311.96
495.126	4325.52
495.496	4358.29
495.866	4366.65
496.235	4398.74
496.605	4432.86
496.974	4434.45
497.344	4499.53
497.713	4464.5
498.082	4534.56
498.452	4572.3
498.821	4568.91
499.19	4561.9
499.559	4670.82
499.928	4639.41
500.298	4671.5
500.667	4720.09
501.036	4644.84
501.405	4673.31
501.774	4705.85
502.143	4781.78
502.512	4748.79
502.88	4813.42
503.249	4778.84
503.618	4808.9
503.987	4829.69
504.356	4916.01
504.724	4873.53
505.093	4873.53
505.462	4878.95
505.83	4894.77
506.199	5009.35
506.567	4984.26
506.936	4925.05
507.304	4989.01
507.672	5051.15
508.041	5038.05
508.409	5116.01
508.777	5106.74
509.145	5110.81
509.514	5101.77
509.882	5132.73
510.25	5164.6
510.618	5192.62
510.986	5220.64
511.354	5233.52
511.722	5257.25
512.09	5262.22
512.458	5302.22
512.826	5370.69
513.193	5287.08
513.561	5338.6
513.929	5336.79
514.297	5347.42
514.664	5401.88
515.032	5413.18
515.4	5421.76
515.767	5432.16
516.135	5464.25
516.502	5447.07
516.869	5496.34
517.237	5461.54
517.604	5477.58
517.972	5525.49
518.339	5555.55
518.706	5520.29
519.073	5566.62
519.44	5595.09
519.808	5617.01
520.175	5614.3
520.542	5654.07
520.909	5652.27
521.276	5615.21
521.643	5743.34
522.009	5733.62
522.376	5765.03
522.743	5763.9
523.11	5812.26
523.477	5832.83
523.843	5889.55
524.21	5927.06
524.577	5923.9
524.943	5940.62
525.31	6002.09
525.676	6051.58
526.043	6013.61
526.409	6057.68
526.776	6114.85
527.142	6104.68
527.508	6160.5
527.874	6150.33
528.241	6185.81
528.607	6208.41
528.973	6312.59
529.339	6202.31
529.705	6267.17
530.071	6310.33
530.437	6328.63
530.803	6325.92
531.169	6401.17
531.535	6405.24
531.901	6408.86
532.267	6422.87
532.632	6461.51
532.998	6466.71
533.364	6550.77
533.73	6532.47
534.095	6556.88
534.461	6607.72
534.826	6575.63
535.192	6599.81
535.557	6638.23
535.923	6631.45
536.288	6706.93
536.653	6703.99
537.019	6656.08
537.384	6719.13
537.749	6740.15
538.114	6744.22
538.479	6730.43
538.845	6814.72
539.21	6808.39
539.575	6784.21
539.94	6832.57
540.305	6807.94
540.67	6849.75
541.034	6907.37
541.399	6968.39
541.764	6912.8
542.129	6953.7
542.494	6922.29
542.858	7051.33
543.223	6960.71
543.587	7101.49
543.952	7058.11
544.316	7111.21
544.681	7125.45
545.045	7169.29
545.41	7146.92
545.774	7160.02
546.138	7187.14
546.503	7186.24
546.867	7200.7
547.231	7221.04
547.595	7265.33
547.959	7335.61
548.324	7273.92
548.688	7277.53
549.052	7313.01
549.416	7381.94
549.779	7335.16
550.143	7389.4
550.507	7448.38
550.871	7463.97
551.235	7424.65
551.599	7451.77
551.962	7433.46
552.326	7480.02
552.689	7460.58
553.053	7460.13
553.417	7459.68
553.78	7635.27
554.143	7574.7
554.507	7572.22
554.87	7546
555.234	7631.42
555.597	7633.23
555.96	7653.8
556.323	7685.21
556.686	7658.54
557.05	7715.04
557.413	7730.86
557.776	7692.21
558.139	7800.01
558.502	7730.86
558.865	7781.93
559.228	7840.23
559.59	7890.63
559.953	7881.59
560.316	7943.51
560.679	8011.3
561.041	8018.31
561.404	8013.79
561.767	8013.11
562.129	7935.37
562.492	8059.43
562.854	8070.51
563.217	8045.65
563.579	8052.66
563.941	8190.73
564.304	8232.54
564.666	8240.22
565.028	8161.35
565.39	8295.36
565.753	8321.35
566.115	8247.45
566.477	8294.01
566.839	8284.29
567.201	8403.38
567.563	8407.22
567.925	8485.86
568.287	8475.92
568.648	8489.71
569.01	8534.22
569.372	8582.13
569.734	8604.51
570.095	8615.13
570.457	8619.87
570.819	8684.05
571.18	8633.88
571.542	8701.68
571.903	8821
572.265	8813.09
572.626	8800.66
572.987	8846.31
573.349	8855.35
573.71	8959.07
574.071	8976.7
574.432	9032.52
574.794	9110.25
575.155	9113.42
575.516	9104.61
575.877	9152.74
576.238	9192.74
576.599	9268.67
576.96	9322.68
577.32	9411.26
577.681	9400.42
578.042	9512.05
578.403	9590.02
578.763	9537.81
579.124	9659.62
579.485	9695.55
579.845	9745.27
580.206	9801.08
580.566	9869.1
580.927	9980.29
581.287	10041.98
581.648	10119.27
582.008	10201.07
582.368	10278.59
582.728	10348.87
583.089	10396.32
583.449	10555.87
583.809	10664.11
584.169	10732.13
584.529	10854.39
584.889	10986.36
585.249	11044.89
585.609	11099.58
585.969	11236.3
586.329	11306.13
586.688	11403.08
587.048	11507.71
587.408	11619.79
587.768	11802.61
588.127	11879.45
588.487	11982.5
588.846	12186.78
589.206	12197.18
589.565	12401.24
589.925	12598.75
590.284	12569.82
590.643	12836.71
591.003	12930.27
591.362	13115.8
591.721	13198.51
592.08	13323.93
592.44	13479.18
592.799	13643.02
593.158	13669.23
593.517	13903.12
593.876	13993.74
594.235	14138.82
594.593	14303.56
594.952	14396.22
595.311	14471.02
595.67	14684.35
596.029	14851.8
596.387	15041.17
596.746	15142.19
597.104	15161.17
597.463	15339.47
597.822	15565.9
598.18	15497.66
598.538	15710.53
598.897	15880.02
599.255	15914.6
599.613	16314.81
599.972	16348.03
600.33	16432.1
600.688	16451.76
601.046	16709.6
601.404	16771.52
601.762	16917.51
602.12	17058.97
602.478	17121.8
602.836	17233.21
603.194	17158.86
603.552	17357.04
603.91	17490.15
604.268	17595.68
604.625	17660.09
604.983	17740.31
605.341	17799.74
605.698	18057.59
606.056	18161.54
606.413	18152.73
606.771	18182.56
607.128	18303.91
607.485	18423
607.843	18395.21
608.2	18580.74
608.557	18737.57
608.914	18846.04
609.272	18906.16
609.629	19058.69
609.986	19128.52
610.343	19158.8
610.7	19322.64
611.057	19358.12
611.414	19382.75
611.771	19476.76
612.127	19612.8
612.484	19605.57
612.841	19755.62
613.198	19720.82
613.554	19785.91
613.911	19905.9
614.267	19981.83
614.624	19916.98
614.98	20146.8
615.337	20154.03
615.693	20285.33
616.05	20363.52
616.406	20424.31
616.762	20450.75
617.118	20421.14
617.475	20421.82
617.831	20595.6
618.187	20671.08
618.543	20666.56
618.899	20822.94
619.255	20870.17
619.611	20776.39
619.967	20982.71
620.323	21033.56
620.678	20954.01
621.034	20982.49
621.39	21010.05
621.746	20934.8
622.101	21227.68
622.457	21098.64
622.812	21153.78
623.168	21248.69
623.523	21260.9
623.879	21404.85
624.234	21256.38
624.589	21265.87
624.945	21445.52
625.3	21401.23
625.655	21332.98
626.01	21481.45
626.365	21439.2
626.72	21484.17
627.075	21475.35
627.43	21495.47
627.785	21482.13
628.14	21528.23
628.495	21527.1
628.85	21523.71
629.205	21438.97
629.559	21600.55
629.914	21530.49
630.269	21512.64
630.623	21526.43
630.978	21395.36
631.332	21495.01
631.687	21491.17
632.041	21526.65
632.396	21539.76
632.75	21358.07
633.104	21458.18
633.459	21420.21
633.813	21386.77
634.167	21380.67
634.521	21440.1
634.875	21539.08
635.229	21543.6
635.583	21338.41
635.937	21337.28
636.291	21386.54
636.645	21442.13
636.999	21391.74
637.352	21441.91
637.706	21329.59
638.06	21427.22
638.413	21351.29
638.767	21281.23
639.121	21367.11
639.474	21273.1
639.828	21228.58
640.181	21238.3
640.534	21233.55
640.888	21318.07
641.241	21077.62
641.594	21215.02
641.947	21281.01
642.301	21132.99
642.654	21298.41
643.007	21244.4
643.36	21071.07
643.713	21136.83
644.066	21262.03
644.419	21083.95
644.771	20973.22
645.124	20748.59
645.477	20709.95
645.83	20646
646.182	20539.78
646.535	20462.72
646.888	20528.26
647.24	20502.5
647.593	20617.97
647.945	20567.13
648.298	20491.42
648.65	20342.5
649.002	20383.86
649.355	20579.78
649.707	20429.28
650.059	20655.49
650.411	20884.18
650.763	20844.64
651.115	21109.04
651.467	21103.39
651.819	21017.74
652.171	21077.62
652.523	20905.65
652.875	20942.71
653.227	20949.72
653.578	21063.84
653.93	21045.31
654.282	20894.35
654.633	20946.1
654.985	21033.33
655.337	21037.4
655.688	21017.29
656.039	21147.23
656.391	20967.34
656.742	20980.45
657.094	20993.56
657.445	21060.68
657.796	21029.04
658.147	20920.34
658.498	20959.43
658.849	20967.34
659.2	20884.86
659.551	20929.15
659.902	21029.26
660.253	20958.76
660.604	20909.27
660.955	20950.85
661.306	21068.36
661.656	20997.4
662.007	20937.97
662.358	20988.13
662.708	21041.47
663.059	21082.14
663.409	20901.81
663.76	21077.4
664.11	21101.35
664.461	21053.22
664.811	21093.67
665.161	21110.17
665.511	20948.81
665.862	20858.65
666.212	21119.88
666.562	21077.62
666.912	21030.17
667.262	21006.89
667.612	21020.9
667.962	21125.98
668.312	21034.01
668.662	21052.77
669.011	20984.52
669.361	20933.22
669.711	21055.93
670.06	20933.9
670.41	20974.58
670.76	20899.32
671.109	21116.72
671.459	20997.17
671.808	20975.93
672.157	20914.69
672.507	20892.54
672.856	20820.46
673.205	20858.65
673.554	20882.15
673.904	20831.75
674.253	20959.43
674.602	20846.22
674.951	20537.3
675.3	20449.84
675.649	20761.93
675.998	20747.01
676.346	20764.41
676.695	20897.97
677.044	20690.52
677.393	20765.54
677.741	20779.1
678.09	20816.84
678.438	20668.14
678.787	20641.48
679.135	20701.36
679.484	20471.09
679.832	20644.41
680.181	20514.02
680.529	20491.2
680.877	20543.17
681.225	20349.73
681.573	20572.1
681.922	20377.76
682.27	20293.92
682.618	20361.26
682.966	20243.3
683.314	20326.91
683.661	20197.87
684.009	20205.1
684.357	20082.62
684.705	20092.56
685.053	20065.67
685.4	20080.81
685.748	20034.49
686.095	19969.86
686.443	19940.93
686.79	19900.71
687.138	20003.98
687.485	19816.64
687.832	19770.09
688.18	19900.71
688.527	19819.13
688.874	19665.23
689.221	19604.44
689.568	19563.77
689.915	19549.98
690.262	19418.46
690.609	19451
690.956	19372.13
691.303	19266.15
691.65	19253.49
691.997	19234.96
692.344	19029.54
692.69	19108.41
693.037	19077.45
693.383	18910.45
693.73	18993.84
694.077	18866.61
694.423	18823.45
694.769	18760.85
695.116	18619.16
695.462	18672.94
695.808	18562.44
696.155	18607.63
696.501	18463.68
696.847	18503.68
697.193	18315.89
697.539	18342.55
697.885	18203.58
698.231	18141.66
698.577	18164.71
698.923	18087.65
699.269	18013.52
699.614	17865.05
699.96	17733.08
700.306	17862.57
700.651	17746.64
700.997	17719.07
701.342	17682.01
701.688	17534.67
702.033	17634.55
702.379	17529.24
702.724	17380.09
703.069	17486.08
703.415	17357.27
703.76	17278.85
704.105	17359.53
704.45	17187.78
704.795	17178.52
705.14	17104.62
705.485	17060.33
705.83	16891.52
706.175	17002.25
706.52	16880.67
706.865	16796.15
707.209	16790.96
707.554	16697.17
707.899	16769.71
708.243	16696.04
708.588	16578.08
708.932	16527.69
709.277	16450.63
709.621	16478.2
709.966	16405.88
710.31	16424.86
710.654	16302.16
710.998	16300.35
711.342	16266.68
711.687	16283.85
712.031	16178.09
712.375	16108.94
712.719	16215.15
713.063	16079.11
713.407	16132.44
713.75	15964.99
714.094	15942.39
714.438	15892.45
714.782	15969.51
715.125	15884.31
715.469	15922.51
715.812	15884.31
716.156	15740.81
716.499	15743.98
716.843	15718.44
717.186	15650.65
717.53	15811.77
717.873	15793.47
718.216	15633.25
718.559	15639.57
718.902	15469.41
719.246	15556.41
719.589	15531.55
719.932	15416.98
720.275	15445.91
720.617	15429.64
720.96	15420.15
721.303	15480.48
721.646	15374.27
721.989	15427.83
722.331	15437.77
722.674	15376.08
723.016	15340.83
723.359	15315.06
723.701	15327.27
724.044	15336.53
724.386	15155.29
724.729	15332.69
725.071	15206.37
725.413	15176.08
725.755	15233.26
726.097	15206.37
726.439	15022.87
726.782	15020.61
727.124	15181.96
727.465	15112.36
727.807	15079.59
728.149	15059.7
728.491	14977.67
728.833	14990.1
729.175	15094.05
729.516	15111.9
729.858	14923.66
730.199	14990.33
730.541	14984.68
730.882	14951.68
731.224	15064.9
731.565	14886.6
731.906	14902.87
732.248	14927.95
732.589	14951.46
732.93	14784.68
733.271	14913.04
733.612	14935.64
733.953	14981.74
734.294	14867.17
734.635	14913.04
734.976	14923.44
735.317	14828.75
735.658	14782.65
735.999	14848.86
736.339	14836.66
736.68	14875.53
737.021	14857.9
737.361	14774.74
737.702	14863.1
738.042	14821.07
738.383	14814.96
738.723	14899.48
739.063	14881.85
739.404	14863.32
739.744	14832.59
740.084	14840.95
740.424	14920.05
740.764	14737.23
741.104	14979.03
741.444	14861.06
741.784	14778.58
742.124	14894.96
742.464	14975.41
742.804	14935.19
743.143	14845.02
743.483	14960.5
743.823	14964.34
744.162	14991.91
744.502	14953.27
744.841	15005.69
745.181	15037.56
745.52	15067.84
745.86	15078.46
746.199	15087.27
746.538	15245.01
746.877	15214.95
747.216	15254.73
747.556	15270.32
747.895	15307.83
748.234	15414.27
748.573	15444.33
748.911	15448.85
749.25	15526.13
749.589	15541.72
749.928	15628.95
750.267	15765.67
750.605	15875.05
750.944	15836.86
751.283	15897.19
751.621	16072.78
751.96	16116.17
752.298	16181.03
752.636	16272.55
752.975	16235.27
753.313	16343.96
753.651	16546.44
753.989	16503.05
754.327	16696.04
754.666	16728.81
755.004	16781.01
755.342	16903.72
755.679	17063.94
756.017	17050.84
756.355	17239.76
756.693	17345.74
757.031	17470.03
757.368	17403.14
757.706	17650.14
758.044	17726.3
758.381	17877.48
758.719	17846.75
759.056	18037.25
759.394	18009
759.731	18051.04
760.068	18184.37
760.405	18307.98
760.743	18480.18
761.08	18585.26
761.417	18599.04
761.754	18648.99
762.091	18886.95
762.428	18919.26
762.765	18955.65
763.102	19063.67
763.438	19163.78
763.775	19187.96
764.112	19375.07
764.449	19451.9
764.785	19515.18
765.122	19582.07
765.458	19585.01
765.795	19630.88
766.131	19720.6
766.467	19700.26
766.804	19751.33
767.14	19829.52
767.476	19903.42
767.812	19906.58
768.148	20110.42
768.485	19962.4
768.821	19985.9
769.157	20118.1
769.492	20139.8
769.828	20092.34
770.164	20038.1
770.5	20145.9
770.836	20271.09
771.171	20167.59
771.507	20237.65
771.842	20140.7
772.178	20183.41
772.513	20220.02
772.849	20199
773.184	20237.65
773.519	20234.71
773.855	20196.07
774.19	20116.29
774.525	20211.88
774.86	20112.68
775.195	20166.46
775.53	20225.22
775.865	20027.26
776.2	19934.6
776.535	19850.31
776.87	19959.01
777.205	19969.86
777.539	19856.19
777.874	19971.21
778.209	19915.17
778.543	19882.63
778.878	19766.25
779.212	19777.77
779.547	19752.23
779.881	19773.03
780.215	19780.26
780.55	19807.83
780.884	19541.39
781.218	19658
781.552	19603.76
781.886	19487.61
782.22	19409.42
782.554	19339.59
782.888	19213.27
783.222	19300.27
783.556	19221.18
783.889	19187.96
784.223	19098.24
784.557	19087.39
784.89	19105.47
785.224	19024.12
785.557	18937.79
785.891	18902.31
786.224	18840.39
786.558	18848.3
786.891	18679.95
787.224	18673.85
787.557	18612.15
787.891	18625.94
788.224	18605.37
788.557	18566.96
788.89	18532.61
789.223	18554.98
789.556	18420.29
789.888	18384.81
790.221	18229.56
790.554	18153.41
790.887	18168.1
791.219	18122.9
791.552	18080.87
791.884	17910.02
792.217	17954.54
792.549	17913.64
792.882	17823.7
793.214	17719.52
793.546	17883.13
793.879	17650.6
794.211	17637.49
794.543	17612.86
794.875	17561.33
795.207	17578.05
795.539	17517.49
795.871	17403.82
796.203	17291.96
796.535	17240.44
796.867	17281.57
797.198	17300.77
797.53	17141.23
797.862	17078.18
798.193	17096.71
798.525	16873.67
798.856	16943.5
799.188	16847.45
799.519	16851.75
799.85	16623.28
800.182	16742.14
800.513	16739.43
800.844	16600
801.175	16632.77
801.506	16592.77
801.837	16530.62
802.168	16472.1
802.499	16462.6
802.83	16329.95
803.161	16371.31
803.491	16223.74
803.822	16292.89
804.153	16229.39
804.483	16078.43
804.814	16002.95
805.145	16010.86
805.475	16045.44
805.805	15969.28
806.136	15976.51
806.466	16011.09
806.796	15873.69
807.126	15771.1
807.457	15754.15
807.787	15704.66
808.117	15712.34
808.447	15599.58
808.777	15579.01
809.107	15608.84
809.436	15658.56
809.766	15607.71
810.096	15399.35
810.426	15435.96
810.755	15407.26
811.085	15416.08
811.414	15329.3
811.744	15264.44
812.073	15315.97
812.403	15182.64
812.732	15148.97
813.061	15202.07
813.39	15052.7
813.719	15021.51
814.049	15046.14
814.378	15022.19
814.707	14872.59
815.036	14913.49
815.365	14881.85
815.693	14687.06
816.022	14734.06
816.351	14705.14
816.68	14617.68
817.008	14762.76
817.337	14557.12
817.665	14593.27
817.994	14564.35
818.322	14515.31
818.651	14477.35
818.979	14407.74
819.307	14496.55
819.636	14408.87
819.964	14403.9
820.292	14429.89
820.62	14450.45
820.948	14380.17
821.276	14441.19
821.604	14370.46
821.932	14410.23
822.259	14333.85
822.587	14343.34
822.915	14269.67
823.243	14369.78
823.57	14257.69
823.898	14249.78
824.225	14287.75
824.553	14272.38
824.88	14300.63
825.207	14310.57
825.535	14274.64
825.862	14315.77
826.189	14247.52
826.516	14374.52
826.843	14314.41
827.17	14326.16
827.497	14285.03
827.824	14220.18
828.151	14357.35
828.478	14243.23
828.805	14257.24
829.131	14250.68
829.458	14191.03
829.785	14175.43
830.111	14195.77
830.438	14220.4
830.764	14193.28
831.09	14228.76
831.417	14137.24
831.743	14215.88
832.069	14160.74
832.395	14157.58
832.722	14209.78
833.048	14170.69
833.374	14154.87
833.7	14146.51
834.026	14104.47
834.351	14098.15
834.677	14037.58
835.003	14094.76
835.329	14063.34
835.654	14054.53
835.98	14017.24
836.306	14014.98
836.631	14002.56
836.956	13996.91
837.282	14022.89
837.607	13925.95
837.932	13934.76
838.258	13975.21
838.583	13874.88
838.908	13834.65
839.233	13819.06
839.558	13792.17
839.883	13739.06
840.208	13753.75
840.533	13749.68
840.858	13781.32
841.182	13723.69
841.507	13737.7
841.832	13602.79
842.156	13610.7
842.481	13598.72
842.805	13501.33
843.13	13587.65
843.454	13443.25
843.778	13472.63
844.103	13479.86
844.427	13356.7
844.751	13357.6
845.075	13330.03
845.399	13305.17
845.723	13219.98
846.047	13243.25
846.371	13141.11
846.695	13138.17
847.019	13046.65
847.343	12929.59
847.666	12887.33
847.99	12800.78
848.313	12819.76
848.637	12781.34
848.96	12690.27
849.284	12718.75
849.607	12600.11
849.931	12543.61
850.254	12528.47
850.577	12428.59
850.9	12389.04
851.223	12364.63
851.546	12256.16
851.869	12235.82
852.192	12288.7
852.515	12153.79
852.838	12097.52
853.161	12052.1
853.483	12029.5
853.806	11941.82
854.129	11999.67
854.451	11927.36
854.774	11884.87
855.096	11842.84
855.419	11806.23
855.741	11809.62
856.063	11735.95
856.385	11636.52
856.708	11718.55
857.03	11614.37
857.352	11676.52
857.674	11584.99
857.996	11571.66
858.318	11453.47
858.64	11453.47
858.961	11441.49
859.283	11350.2
859.605	11432.68
859.926	11384.55
860.248	11288.05
860.57	11233.59
860.891	11219.35
861.212	11197.43
861.534	11118.34
861.855	11157.21
862.176	11203.76
862.498	11166.25
862.819	11152.91
863.14	11095.97
863.461	11000.15
863.782	11022.75
864.103	10960.15
864.424	10970.32
864.745	11012.8
865.065	10952.69
865.386	10837.44
865.707	10896.87
866.027	10964.22
866.348	10845.12
866.668	10886.93
866.989	10833.15
867.309	10752.92
867.63	10834.28
867.95	10789.53
868.27	10678.35
868.59	10711.12
868.91	10663.43
869.23	10701.17
869.55	10621.18
869.87	10727.16
870.19	10682.42
870.51	10645.36
870.83	10640.16
871.15	10554.51
871.469	10604
871.789	10602.19
872.109	10545.92
872.428	10531.23
872.748	10520.61
873.067	10561.29
873.386	10503.66
873.706	10460.73
874.025	10417.34
874.344	10419.6
874.663	10432.48
874.982	10361.07
875.301	10392.03
875.62	10355.65
875.939	10294.86
876.258	10339.83
876.577	10296.66
876.896	10303.9
877.214	10210.11
877.533	10268.42
877.852	10242.2
878.17	10223.9
878.489	10209.66
878.807	10196.33
879.125	10147.52
879.444	10155.2
879.762	10156.78
880.08	10127.18
880.398	10070.68
880.716	10062.77
881.034	10117.46
881.352	10062.09
881.67	10065.03
881.988	10017.58
882.306	9981.64
882.624	9955.43
882.941	9948.42
883.259	9893.74
883.577	9831.82
883.894	9862.33
884.212	9857.35
884.529	9815.1
884.846	9846.28
885.164	9705.72
885.481	9682.9
885.798	9711.14
886.115	9643.57
886.432	9704.36
886.75	9601.77
887.067	9599.73
887.383	9600.64
887.7	9600.64
888.017	9531.26
888.334	9554.08
888.651	9546.4
888.967	9465.05
889.284	9387.31
889.6	9394.32
889.917	9351.6
890.233	9285.39
890.55	9344.15
890.866	9287.65
891.182	9332.4
891.498	9252.17
891.815	9227.09
892.131	9231.16
892.447	9234.77
892.763	9138.73
893.079	9220.76
893.395	9047.21
893.71	9070.03
894.026	9045.62
894.342	9013.76
894.657	8957.72
894.973	8979.86
895.289	8981.44
895.604	8904.61
895.92	8865.06
896.235	8821.9
896.55	8857.83
896.865	8822.8
897.181	8769.7
897.496	8763.6
897.811	8682.02
898.126	8701.23
898.441	8657.16
898.756	8647.89
899.071	8586.88
899.386	8579.42
899.7	8441.57
900.015	8458.52
900.33	8428.24
900.644	8463.04
900.959	8395.92
901.273	8344.63
901.588	8376.49
901.902	8312.76
902.216	8296.49
902.531	8258.07
902.845	8243.84
903.159	8155.25
903.473	8147.34
903.787	8104.86
904.101	8108.47
904.415	8074.58
904.729	8026.22
905.042	7998.19
905.356	7925.43
905.67	7924.52
905.984	7925.2
906.297	7900.8
906.611	7810.18
906.924	7878.2
907.237	7829.61
907.551	7776.73
907.864	7707.58
908.177	7692.44
908.491	7727.92
908.804	7694.7
909.117	7621.71
909.43	7584.42
909.743	7568.37
910.056	7533.57
910.368	7481.37
910.681	7423.29
910.994	7457.19
911.307	7352.56
911.619	7382.39
911.932	7392.33
912.244	7287.48
912.557	7316.4
912.869	7271.89
913.181	7192.34
913.494	7176.75
913.806	7144.66
914.118	7147.14
914.43	7022.17
914.742	7090.65
915.054	7027.37
915.366	6994.6
915.678	6983.98
915.99	6978.11
916.302	6892.69
916.613	6833.03
916.925	6827.38
917.236	6863.53
917.548	6812.91
917.859	6783.54
918.171	6762.75
918.482	6674.84
918.794	6701.96
919.105	6695.4
919.416	6595.07
919.727	6610.66
920.038	6594.84
920.349	6538.57
920.66	6551.45
920.971	6536.76
921.282	6478.01
921.593	6426.71
921.903	6418.8
922.214	6365.47
922.525	6374.96
922.835	6298.58
923.146	6306.94
923.456	6292.25
923.767	6247.73
924.077	6298.8
924.387	6200.73
924.697	6207.28
925.008	6168.86
925.318	6079.15
925.628	6158.69
925.938	6097
926.248	6050.67
926.558	6039.15
926.867	6019.49
927.177	5986.72
927.487	5959.15
927.796	5944.01
928.106	5878.25
928.416	5932.94
928.725	5927.51
929.034	5813.62
929.344	5838.7
929.653	5818.59
929.962	5718.48
930.271	5718.71
930.581	5672.38
930.89	5701.53
931.199	5646.17
931.508	5643.91
931.817	5633.96
932.125	5599.84
932.434	5555.32
932.743	5554.64
933.051	5530.69
933.36	5462.22
933.669	5440.07
933.977	5411.59
934.286	5391.03
934.594	5376.12
934.902	5365.27
935.21	5334.99
935.519	5329.79
935.827	5326.4
936.135	5309.9
936.443	5236.46
936.751	5276.01
937.059	5236.68
937.367	5170.25
937.674	5202.79
937.982	5154.43
938.29	5127.99
938.597	5135.9
938.905	5059.06
939.213	5066.97
939.52	5059.51
939.827	5048.89
940.135	4989.23
940.442	4986.3
940.749	4925.73
941.056	4976.35
941.363	4908.11
941.67	4880.99
941.977	4892.51
942.284	4853.87
942.591	4821.55
942.898	4806.41
943.205	4796.92
943.511	4800.54
943.818	4765.06
944.125	4716.02
944.431	4711.73
944.738	4663.37
945.044	4651.84
945.35	4638.06
945.657	4605.51
945.963	4582.01
946.269	4587.44
946.575	4585.4
946.881	4522.35
947.187	4548.57
947.493	4492.75
947.799	4474.22
948.105	4461.34
948.41	4414.33
948.716	4424.95
949.022	4442.81
949.327	4412.75
949.633	4387.44
949.938	4380.44
950.244	4373.43
950.549	4343.15
950.854	4276.48
951.16	4304.28
951.465	4236.71
951.77	4238.97
952.075	4231.29
952.38	4215.92
952.685	4194.9
952.99	4142.7
953.294	4102.7
953.599	4139.54
953.904	4083.95
954.209	4083.49
954.513	4097.73
954.818	4061.8
955.122	4014.57
955.426	4034.23
955.731	3993.1
956.035	3985.64
956.339	3959.66
956.643	3967.34
956.948	3945.19
957.252	3992.65
957.556	3904.97
957.86	3853.9
958.163	3836.95
958.467	3850.73
958.771	3841.47
959.075	3852.54
959.378	3827.91
959.682	3746.78
959.985	3746.55
960.289	3739.77
960.592	3716.5
960.896	3733.45
961.199	3712.2
961.502	3693.9
961.805	3710.4
962.108	3642.15
962.411	3608.93
962.714	3585.43
963.017	3580.91
963.32	3599.44
963.623	3589.72
963.926	3560.57
964.228	3590.4
964.531	3544.3
964.833	3499.78
965.136	3485.09
965.438	3493.45
965.741	3476.28
966.043	3480.8
966.345	3473.57
966.648	3433.79
966.95	3397.86
967.252	3401.03
967.554	3397.86
967.856	3367.58
968.158	3355.38
968.46	3332.78
968.761	3322.38
969.063	3263.63
969.365	3271.99
969.666	3245.32
969.968	3263.18
970.269	3277.41
970.571	3233.8
970.872	3231.99
971.174	3187.92
971.475	3201.94
971.776	3190.86
972.077	3179.34
972.378	3165.55
972.679	3128.27
972.98	3148.38
973.281	3103.18
973.582	3097.08
973.883	3126.46
974.183	3061.83
974.484	3061.15
974.785	3062.96
975.085	3039.45
975.386	3050.75
975.686	2991.09
975.986	2992.22
976.287	2963.75
976.587	2961.72
976.887	2915.62
977.187	2933.92
977.487	2942.73
977.787	2924.2
978.087	2881.04
978.387	2896.63
978.687	2887.14
978.987	2847.14
979.286	2820.48
979.586	2806.01
979.885	2827.03
980.185	2793.58
980.484	2779.35
980.784	2801.49
981.083	2773.47
981.382	2758.11
981.682	2758.56
981.981	2717.65
982.28	2727.6
982.579	2694.38
982.878	2690.76
983.177	2702.74
983.475	2699.35
983.774	2642.18
984.073	2633.14
984.372	2632.23
984.67	2639.92
984.969	2646.24
985.267	2606.47
985.566	2543.65
985.864	2580.93
986.162	2584.1
986.461	2578.68
986.759	2518.11
987.057	2521.05
987.355	2521.28
987.653	2528.96
987.951	2492.58
988.249	2484.89
988.547	2473.37
988.844	2469.3
989.142	2440.15
989.44	2377.55
989.737	2433.82
990.035	2478.11
990.332	2397.44
990.63	2403.99
990.927	2403.31
991.224	2380.94
991.521	2364.22
991.819	2312.69
992.116	2357.44
992.413	2310.21
992.71	2353.6
993.006	2308.4
993.303	2304.56
993.6	2275.86
993.897	2295.97
994.193	2282.41
994.49	2243.99
994.787	2263.2
995.083	2227.27
995.379	2208.52
995.676	2213.26
995.972	2233.6
996.268	2212.58
996.565	2196.09
996.861	2159.48
997.157	2133.72
997.453	2131.68
997.749	2127.16
998.044	2135.52
998.34	2117.22
998.636	2112.92
998.932	2081.51
999.227	2088.29
999.523	2067.05
999.818	2058.91
1000.114	2050.1
1000.409	2054.85
1000.704	2007.16
1001	2016.43
1001.295	1987.05
1001.59	1977.34
1001.885	2038.58
1002.18	1976.21
1002.475	1971.91
1002.77	1973.27
1003.065	1965.13
1003.359	1940.27
1003.654	1972.59
1003.949	1934.62
1004.243	1894.4
1004.538	1868.86
1004.832	1869.32
1005.127	1844.23
1005.421	1883.1
1005.715	1841.75
1006.009	1831.58
1006.304	1850.78
1006.598	1821.63
1006.892	1820.5
1007.186	1799.03
1007.48	1795.87
1007.773	1785.7
1008.067	1748.64
1008.361	1764.46
1008.655	1733.27
1008.948	1717.45
1009.242	1719.94
1009.535	1710.45
1009.829	1709.32
1010.122	1686.95
1010.415	1724.46
1010.708	1689.21
1011.001	1663.9
1011.295	1630.9
1011.588	1642.88
1011.881	1639.49
1012.173	1648.76
1012.466	1614.41
1012.759	1651.24
1013.052	1615.54
1013.344	1607.4
1013.637	1596.55
1013.93	1565.14
1014.222	1582.77
1014.514	1569.44
1014.807	1566.72
1015.099	1507.29
1015.391	1537.12
1015.683	1542.32
1015.976	1499.83
1016.268	1505.48
1016.56	1487.86
1016.851	1503.68
1017.143	1482.21
1017.435	1459.38
1017.727	1441.3
1018.018	1453.28
1018.31	1437.24
1018.602	1437.01
1018.893	1409.21
1019.185	1411.47
1019.476	1414.41
1019.767	1399.95
1020.058	1393.4
1020.35	1400.85
1020.641	1372.83
1020.932	1354.07
1021.223	1344.36
1021.514	1346.39
1021.804	1314.98
1022.095	1314.3
1022.386	1305.49
1022.677	1309.78
1022.967	1303.68
1023.258	1306.84
1023.548	1301.87
1023.839	1274.53
1024.129	1284.47
1024.419	1263.68
1024.709	1258.71
1025	1241.76
1025.29	1231.37
1025.58	1237.92
1025.87	1228.88
1026.16	1207.86
1026.449	1214.42
1026.739	1195.89
1027.029	1223.46
1027.319	1203.12
1027.608	1169.22
1027.898	1170.35
1028.187	1171.71
1028.477	1150.92
1028.766	1135.55
1029.055	1115.21
1029.344	1134.65
1029.634	1110.92
1029.923	1114.31
1030.212	1108.43
1030.501	1082.22
1030.79	1111.14
1031.078	1067.53
1031.367	1075.89
1031.656	1074.99
1031.945	1080.64
1032.233	1051.03
1032.522	1067.53
1032.81	1056.68
1033.099	1025.04
1033.387	1046.06
1033.675	1025.04
1033.963	1016.91
1034.251	1014.42
1034.54	999.51
1034.828	991.82
1035.116	974.88
1035.403	970.36
1035.691	969.45
1035.979	995.89
1036.267	971.71
1036.554	967.19
1036.842	960.64
1037.129	955.89
1037.417	919.51
1037.704	930.58
1037.992	963.12
1038.279	946.85
1038.566	938.27
1038.853	938.27
1039.14	938.27
