Data from hue_24_FLMS001491_00033.txt Node
Date: Tue Feb 07 17:12:10 GMT 2017
User: dcchb
Spectrometer: FLMS00149
Trigger mode: 0
Integration Time (sec): 2.000000E-2
Scans to average: 10
Electric dark correction enabled: true
Nonlinearity correction enabled: false
Boxcar width: 0
XAxis mode: Wavelengths
Number of Pixels in Spectrum: 2048
>>>>>Begin Spectral Data<<<<<
341.393	5.99
341.776	5.99
342.16	5.99
342.543	-60.45
342.927	-59.77
343.31	-71.3
343.693	-77.4
344.077	-75.82
344.46	-53.67
344.843	-28.13
345.226	-38.3
345.61	-52.54
345.993	-26.78
346.376	6.21
346.759	3.5
347.142	46.89
347.525	36.27
347.908	66.78
348.291	62.94
348.674	70.39
349.057	130.96
349.44	149.94
349.823	153.56
350.206	166.66
350.588	205.53
350.971	227
351.354	245.08
351.737	262.25
352.119	250.73
352.502	269.26
352.884	280.78
353.267	278.52
353.65	304.74
354.032	315.36
354.414	329.14
354.797	302.25
355.179	313.33
355.562	325.98
355.944	337.05
356.326	346.77
356.709	339.77
357.091	324.85
357.473	353.1
357.855	325.75
358.238	349.48
358.62	350.39
359.002	370.72
359.384	351.06
359.766	347
360.148	341.57
360.53	338.41
360.912	331.18
361.294	318.75
361.676	350.61
362.057	344.28
362.439	323.49
362.821	329.14
363.203	336.15
363.584	330.27
363.966	323.72
364.348	321.46
364.729	318.3
365.111	323.49
365.493	318.75
365.874	329.14
366.256	326.88
366.637	327.11
367.019	325.98
367.4	332.53
367.781	315.36
368.163	319.43
368.544	306.32
368.925	303.38
369.306	339.99
369.688	329.37
370.069	333.66
370.45	313.78
370.831	311.29
371.212	325.75
371.593	331.86
371.974	321.91
372.355	325.98
372.736	298.64
373.117	318.07
373.498	334.34
373.879	328.24
374.26	320.1
374.641	319.43
375.021	327.11
375.402	323.72
375.783	349.71
376.163	319.65
376.544	342.02
376.925	356.26
377.305	340.67
377.686	335.25
378.066	350.39
378.447	337.28
378.827	316.49
379.208	340.89
379.588	340.22
379.968	338.64
380.349	339.77
380.729	326.21
381.109	341.12
381.489	340.22
381.87	353.78
382.25	353.78
382.63	337.05
383.01	354.45
383.39	353.78
383.77	363.04
384.15	362.59
384.53	360.1
384.91	328.01
385.29	360.56
385.67	355.58
386.049	364.85
386.429	367.11
386.809	353.78
387.189	360.56
387.568	358.52
387.948	362.82
388.328	384.74
388.707	369.59
389.087	386.09
389.466	374.11
389.846	382.02
390.225	376.15
390.605	368.46
390.984	382.93
391.363	392.65
391.743	385.64
392.122	384.06
392.501	386.54
392.881	410.05
393.26	375.92
393.639	412.98
394.018	377.96
394.397	379.09
394.776	403.49
395.155	402.81
395.534	389.48
395.913	415.02
396.292	400.1
396.671	407.11
397.05	403.04
397.429	399.88
397.808	409.37
398.186	402.59
398.565	408.69
398.944	403.04
399.323	402.81
399.701	408.92
400.08	434.45
400.458	415.24
400.837	415.24
401.215	412.76
401.594	423.6
401.972	433.32
402.351	411.85
402.729	423.15
403.107	440.33
403.486	439.88
403.864	432.19
404.242	443.72
404.62	449.37
404.999	434
405.377	452.3
405.755	427.9
406.133	439.42
406.511	451.63
406.889	428.35
407.267	439.88
407.645	456.82
408.023	445.07
408.401	458.63
408.779	466.32
409.156	469.71
409.534	464.73
409.912	444.17
410.29	469.25
410.667	485.98
411.045	486.43
411.422	483.49
411.8	471.96
412.178	492.76
412.555	496.15
412.933	489.59
413.31	491.85
413.687	506.77
414.065	527.78
414.442	517.16
414.819	502.02
415.197	502.25
415.574	522.13
415.951	521.91
416.328	542.92
416.705	524.62
417.082	524.39
417.46	522.36
417.837	541.34
418.214	532.53
418.591	535.24
418.967	534.34
419.344	556.71
419.721	564.84
420.098	535.69
420.475	553.32
420.852	556.48
421.228	561.91
421.605	563.71
421.982	571.62
422.358	563.49
422.735	558.29
423.111	592.87
423.488	601.91
423.864	582.24
424.241	595.35
424.617	597.16
424.994	615.92
425.37	608.68
425.746	617.27
426.123	611.62
426.499	626.54
426.875	592.41
427.251	623.6
427.627	634.9
428.003	640.77
428.379	641
428.756	657.5
429.132	635.8
429.507	660.43
429.883	650.94
430.259	657.95
430.635	682.81
431.011	671.28
431.387	666.76
431.763	670.83
432.138	692.98
432.514	702.69
432.89	707.21
433.265	718.51
433.641	714.9
434.016	737.49
434.392	732.52
434.767	763.71
435.143	739.98
435.518	769.13
435.894	744.73
436.269	762.58
436.644	768.23
437.02	775.23
437.395	749.92
437.77	785.63
438.145	782.24
438.52	804.61
438.895	797.15
439.271	800.09
439.646	809.81
440.021	811.62
440.395	840.77
440.77	823.82
441.145	829.7
441.52	842.35
441.895	843.48
442.27	845.29
442.645	845.29
443.019	850.71
443.394	844.16
443.769	852.52
444.143	872.41
444.518	862.92
444.892	852.07
445.267	887.55
445.641	871.5
446.016	913.31
446.39	897.04
446.764	891.39
447.139	889.36
447.513	909.24
447.887	928.22
448.262	935.68
448.636	918.05
449.01	936.13
449.384	943.82
449.758	961.22
450.132	948.11
450.506	959.41
450.88	974.32
451.254	998.96
451.628	990.6
452.002	997.15
452.376	990.82
452.75	966.19
453.123	1013.42
453.497	1014.1
453.871	1009.8
454.244	1052.51
454.618	1049.58
454.992	1083.93
455.365	1049.12
455.739	1104.72
456.112	1111.72
456.486	1087.32
456.859	1125.73
457.232	1117.15
457.606	1102.91
457.979	1117.15
458.352	1149.69
458.725	1176.35
459.099	1183.81
459.472	1207.09
459.845	1203.25
460.218	1205.73
460.591	1232.62
460.964	1213.64
461.337	1243.92
461.71	1287.99
462.083	1285.73
462.456	1256.35
462.829	1289.8
463.201	1309.01
463.574	1323.69
463.947	1376.8
464.32	1367.08
464.692	1381.55
465.065	1389.68
465.438	1401.66
465.81	1391.04
466.183	1451.37
466.555	1444.14
466.928	1461.09
467.3	1484.59
467.672	1482.56
468.045	1533.86
468.417	1536.12
468.789	1555.1
469.161	1576.12
469.534	1610.24
469.906	1643.69
470.278	1636
470.65	1664.48
471.022	1694.08
471.394	1730.46
471.766	1734.76
472.138	1777.02
472.51	1785.6
472.882	1804.36
473.253	1823.12
473.625	1860.63
473.997	1902.44
474.369	1921.19
474.74	1920.51
475.112	1984.69
475.484	2012.04
475.855	2050.23
476.227	2044.8
476.598	2122.54
476.97	2148.98
477.341	2172.03
477.713	2248.64
478.084	2244.57
478.455	2315.76
478.827	2348.98
479.198	2446.38
479.569	2433.5
479.94	2442.31
480.311	2505.58
480.682	2579.93
481.053	2621.96
481.424	2676.2
481.795	2718.69
482.166	2770.66
482.537	2823.09
482.908	2856.76
483.279	2939.24
483.65	2943.76
484.021	3059.02
484.391	3104.66
484.762	3102.63
485.133	3084.1
485.503	3208.84
485.874	3268.73
486.244	3320.48
486.615	3385.79
486.985	3392.57
487.356	3494.03
487.726	3530.64
488.097	3639.11
488.467	3642.5
488.837	3689.06
489.207	3746.68
489.578	3781.48
489.948	3837.75
490.318	3905.55
490.688	3948.94
491.058	4026
491.428	4113.45
491.798	4114.81
492.168	4217.63
492.538	4269.83
492.908	4281.36
493.278	4320.68
493.648	4399.32
494.017	4430.5
494.387	4495.81
494.757	4538.07
495.126	4614.23
495.496	4612.87
495.866	4656.49
496.235	4717.5
496.605	4765.41
496.974	4739.65
497.344	4801.34
497.713	4854.45
498.082	4868.23
498.452	4948.91
498.821	4980.55
499.19	5021.68
499.559	5065.74
499.928	5093.76
500.298	5080.66
500.667	5162.92
501.036	5202.91
501.405	5251.05
501.774	5266.64
502.143	5235.68
502.512	5340.76
502.88	5333.76
503.249	5382.8
503.618	5417.82
503.987	5434.55
504.356	5474.55
504.724	5512.06
505.093	5523.13
505.462	5516.13
505.83	5539.4
506.199	5673.41
506.567	5702.34
506.936	5680.42
507.304	5778.72
507.672	5797.7
508.041	5780.53
508.409	5831.6
508.777	5923.57
509.145	5926.06
509.514	5919.51
509.882	5897.13
510.25	5916.12
510.618	5956.79
510.986	6060.29
511.354	6091.03
511.722	6126.73
512.09	6150.46
512.458	6168.54
512.826	6187.75
513.193	6283.79
513.561	6248.99
513.929	6295.77
514.297	6392.49
514.664	6374.63
515.032	6378.25
515.4	6388.19
515.767	6422.99
516.135	6452.15
516.502	6418.48
516.869	6525.82
517.237	6554.52
517.604	6580.96
517.972	6618.92
518.339	6659.82
518.706	6660.05
519.073	6685.59
519.44	6705.02
519.808	6763.78
520.175	6731.91
520.542	6857.11
520.909	6869.99
521.276	6879.03
521.643	6923.77
522.009	7006.48
522.376	7030.66
522.743	7060.27
523.11	7105.69
523.477	7137.33
523.843	7156.53
524.21	7235.85
524.577	7242.41
524.943	7293.71
525.31	7347.49
525.676	7356.53
526.043	7407.83
526.409	7458
526.776	7508.16
527.142	7546.81
527.508	7564.66
527.874	7582.96
528.241	7677.43
528.607	7726.69
528.973	7754.49
529.339	7786.8
529.705	7852.34
530.071	7913.58
530.437	7921.49
530.803	7929.4
531.169	8023.18
531.535	7989.51
531.901	8027.02
532.267	8111.54
532.632	8132.55
532.998	8148.37
533.364	8185.66
533.73	8255.94
534.095	8299.33
534.461	8283.96
534.826	8412.32
535.192	8360.8
535.557	8411.19
535.923	8458.42
536.288	8494.8
536.653	8599.43
537.019	8516.73
537.384	8517.4
537.749	8616.38
538.114	8582.94
538.479	8633.11
538.845	8698.42
539.21	8708.81
539.575	8734.57
539.94	8756.49
540.305	8818.19
540.67	8821.8
541.034	8921.23
541.399	8950.84
541.764	8939.99
542.129	9007.79
542.494	9008.92
542.858	9138.86
543.223	9041.68
543.587	9132.3
543.952	9175.01
544.316	9185.18
544.681	9206.42
545.045	9230.15
545.41	9260.89
545.774	9356.93
546.138	9290.94
546.503	9325.52
546.867	9408
547.231	9441.45
547.595	9515.57
547.959	9527.77
548.324	9509.47
548.688	9570.48
549.052	9640.31
549.416	9709.01
549.779	9723.47
550.143	9685.96
550.507	9758.27
550.871	9719.63
551.235	9791.04
551.599	9893.19
551.962	9854.32
552.326	9953.98
552.689	9948.78
553.053	9908.1
553.417	9964.82
553.78	10084.82
554.143	10093.63
554.507	10082.11
554.87	10075.33
555.234	10193.29
555.597	10153.74
555.96	10195.55
556.323	10251.82
556.686	10344.47
557.05	10336.11
557.413	10423.12
557.776	10364.36
558.139	10470.35
558.502	10503.34
558.865	10451.14
559.228	10583.56
559.59	10530.68
559.953	10591.02
560.316	10767.97
560.679	10709.89
561.041	10789.43
561.404	10788.08
561.767	10886.15
562.129	10832.14
562.492	10971.8
562.854	10963.89
563.217	10956.89
563.579	10973.16
563.941	11001.86
564.304	11116.88
564.666	11141.97
565.028	11184.45
565.39	11142.87
565.753	11284.79
566.115	11292.92
566.477	11357.33
566.839	11330.44
567.201	11449.08
567.563	11404.78
567.925	11539.92
568.287	11544.67
568.648	11512.35
569.01	11612.01
569.372	11643.87
569.734	11702.4
570.095	11763.19
570.457	11807.49
570.819	11813.14
571.18	11852.46
571.542	11938.33
571.903	11973.58
572.265	12035.05
572.626	12104.43
572.987	12204.09
573.349	12245.44
573.71	12183.3
574.071	12290.41
574.432	12409.96
574.794	12448.6
575.155	12567.69
575.516	12544.87
575.877	12641.81
576.238	12618.76
576.599	12836.39
576.96	12855.59
577.32	12889.94
577.681	13014.23
578.042	13100.56
578.403	13236.83
578.763	13281.57
579.124	13416.94
579.485	13507.78
579.845	13577.61
580.206	13736.7
580.566	13826.42
580.927	13957.26
581.287	14150.02
581.648	14175.33
582.008	14428.21
582.368	14517.25
582.728	14685.83
583.089	14747.97
583.449	14868.65
583.809	15141.18
584.169	15261.18
584.529	15464.57
584.889	15829.75
585.249	15752.47
585.609	15935.29
585.969	16228.39
586.329	16460.47
586.688	16665.66
587.048	17001.25
587.408	17119.44
587.768	17318.98
588.127	17540.22
588.487	17680.1
588.846	18116.7
589.206	18285.96
589.565	18502.68
589.925	18773.4
590.284	19007.3
590.643	19325.93
591.003	19704.23
591.362	20021.96
591.721	20126.36
592.08	20490.2
592.44	21020.8
592.799	21094.93
593.158	21338.31
593.517	21719.54
593.876	22034.79
594.235	22260.09
594.593	22567.2
594.952	22924.71
595.311	23218.03
595.67	23521.98
596.029	23978.01
596.387	24296.65
596.746	24485.8
597.104	24735.73
597.463	25198.09
597.822	25465.21
598.18	25639.66
598.538	25982.93
598.897	26513.99
599.255	26472.19
599.613	27293.86
599.972	27334.08
600.33	27582.21
600.688	27803.22
601.046	28189.43
601.404	28639.36
601.762	28846.13
602.12	29240.25
602.478	29518.66
602.836	29735.38
603.194	29897.86
603.552	30344.85
603.91	30436.15
604.268	30895.35
604.625	30969.47
604.983	31491.49
605.341	31524.93
605.698	31950.01
606.056	32287.63
606.413	32447.4
606.771	32712.7
607.128	32933.03
607.485	33177.32
607.843	33424.09
608.2	33864.08
608.557	34165.09
608.914	34234.92
609.272	34603.95
609.629	34914.22
609.986	35081.22
610.343	35271.73
610.7	35580.87
611.057	35834.2
611.414	35973.86
611.771	36123.68
612.127	36540.62
612.484	36628.75
612.841	36900.84
613.198	37021.96
613.554	37244.56
613.911	37564.55
614.267	37784.43
614.624	37848.38
614.98	38109.85
615.337	38372.44
615.693	38516.16
616.05	38673.9
616.406	38946.21
616.762	38870.5
617.118	39053.1
617.475	39268.46
617.831	39543.71
618.187	39786.41
618.543	39800.2
618.899	40018.04
619.255	40105.05
619.611	40128.78
619.967	40500.74
620.323	40661.64
620.678	40631.14
621.034	40648.99
621.39	40932.14
621.746	40864.8
622.101	41420.04
622.457	41285.36
622.812	41442.87
623.168	41558.79
623.523	41755.63
623.879	41797.88
624.234	41733.48
624.589	41929.86
624.945	41945.22
625.3	42088.5
625.655	42127.14
626.01	42046.69
626.365	42258.21
626.72	42264.99
627.075	42246.69
627.43	42410.3
627.785	42361.94
628.14	42602.16
628.495	42672.21
628.85	42601.03
629.205	42540.24
629.559	42792.66
629.914	42598.77
630.269	42918.08
630.623	42780.91
630.978	42876.73
631.332	43028.81
631.687	43259.77
632.041	42993.11
632.396	43128.24
632.75	42944.52
633.104	43089.38
633.459	43027
633.813	42985.42
634.167	43162.14
634.521	43086.44
634.875	43159.43
635.229	43163.05
635.583	43049.6
635.937	43182.03
636.291	42993.56
636.645	43225.64
636.999	43112.2
637.352	43240.33
637.706	43019.09
638.06	43187.68
638.413	43071.97
638.767	43112.65
639.121	43189.49
639.474	43006.21
639.828	43027.46
640.181	43056.61
640.534	43043.73
640.888	43051.18
641.241	42874.47
641.594	43056.83
641.947	43086.44
642.301	43032.43
642.654	43091.41
643.007	43026.33
643.36	43047.79
643.713	43014.58
644.066	43132.09
644.419	42845.31
644.771	42694.36
645.124	42276.52
645.477	42380.02
645.83	42137.31
646.182	41926.02
646.535	41793.36
646.888	41863.87
647.24	41713.59
647.593	41881.27
647.945	41804.21
648.298	41584.56
648.65	41426.59
649.002	41543.88
649.355	41629.75
649.707	41740.48
650.059	41839.69
650.411	42339.56
650.763	42384.99
651.115	42692.78
651.467	42531.42
651.819	42702.72
652.171	42516.51
652.523	42471.54
652.875	42446
653.227	42305.67
653.578	42514.48
653.93	42463.86
654.282	42374.14
654.633	42282.39
654.985	42391.77
655.337	42481.03
655.688	42415.27
656.039	42530.29
656.391	42182.96
656.742	42322.62
657.094	42322.62
657.445	42467.47
657.796	42357.64
658.147	42222.96
658.498	42267.48
658.849	42367.13
659.2	42287.59
659.551	42127.82
659.902	42337.08
660.253	42292.11
660.604	42315.38
660.955	42157.87
661.306	42338.89
661.656	42210.75
662.007	42150.19
662.358	42286.68
662.708	42287.14
663.059	42260.47
663.409	42024.32
663.76	42293.46
664.11	42215.27
664.461	42237.65
664.811	42365.33
665.161	42194.94
665.511	42286.68
665.862	42181.83
666.212	42426.79
666.562	42348.38
666.912	42296.85
667.262	42199.68
667.612	42060.25
667.962	42264.31
668.312	42200.59
668.662	42224.77
669.011	42054.37
669.361	42075.16
669.711	42025.67
670.06	41947.26
670.41	41886.02
670.76	41833.59
671.109	42043.53
671.459	41935.73
671.808	41914.49
672.157	41994.49
672.507	41594.05
672.856	41846.7
673.205	41996.07
673.554	42081.72
673.904	41747.26
674.253	42041.27
674.602	41967.15
674.951	41382.75
675.3	41203.78
675.649	41862.52
675.998	41826.36
676.346	41626.59
676.695	41848.73
677.044	41519.7
677.393	41559.47
677.741	41756.76
678.09	41615.97
678.438	41518.12
678.787	41499.59
679.135	41666.81
679.484	41451.23
679.832	41515.63
680.181	41336.43
680.529	41325.58
680.877	41158.13
681.225	41125.81
681.573	41437.22
681.922	41208.97
682.27	41099.82
682.618	41158.13
682.966	40989.77
683.314	41015.76
683.661	40946.16
684.009	40659.61
684.357	40725.14
684.705	40792.49
685.053	40696.67
685.4	40675.88
685.748	40592.04
686.095	40596.79
686.443	40466.39
686.79	40296.23
687.138	40357.92
687.485	40543.91
687.832	40333.97
688.18	40265.27
688.527	40178.04
688.874	40071.38
689.221	39901.89
689.568	40001.1
689.915	39811.27
690.262	39832.06
690.609	39711.61
690.956	39570.6
691.303	39500.09
691.65	39358.4
691.997	39335.12
692.344	39146.2
692.69	39079.76
693.037	39046.32
693.383	38825.98
693.73	38864.18
694.077	38742.82
694.423	38720.68
694.769	38518.65
695.116	38481.59
695.462	38378.54
695.808	38329.5
696.155	38348.26
696.501	37991.88
696.847	38118.88
697.193	37774.71
697.539	37899.91
697.885	37774.71
698.231	37759.35
698.577	37602.06
698.923	37599.35
699.269	37460.6
699.614	37374.95
699.96	37236.2
700.306	37284.78
700.651	36987.16
700.997	37047.05
701.342	36972.25
701.688	36890.67
702.033	36725.48
702.379	36667.85
702.724	36589.43
703.069	36754.85
703.415	36247.07
703.76	36326.84
704.105	36267.86
704.45	36161.87
704.795	35984.25
705.14	35913.52
705.485	35918.04
705.83	35752.39
706.175	35725.28
706.52	35667.88
706.865	35661.55
707.209	35595.79
707.554	35380.65
707.899	35455
708.243	35233.99
708.588	35214.78
708.932	34967.56
709.277	34869.03
709.621	34977.95
709.966	34872.64
710.31	34869.03
710.654	34542.93
710.998	34600.79
711.342	34603.04
711.687	34499.32
712.031	34266.56
712.375	34198.08
712.719	34350.85
713.063	34223.62
713.407	34316.5
713.75	34149.5
714.094	34151.31
714.438	33902.05
714.782	33963.74
715.125	33755.84
715.469	33855.04
715.812	33687.14
716.156	33498.44
716.499	33519.91
716.843	33564.2
717.186	33382.74
717.53	33587.93
717.873	33447.37
718.216	33412.34
718.559	33222.97
718.902	33066.59
719.246	33147.04
719.589	32933.26
719.932	32951.11
720.275	32879.93
720.617	32988.62
720.96	32869.76
721.303	32895.29
721.646	32836.31
721.989	32600.84
722.331	32676.77
722.674	32582.31
723.016	32629.31
723.359	32578.69
723.701	32593.83
724.044	32399.04
724.386	32249.66
724.729	32419.15
725.071	32168.98
725.413	32207.85
725.755	32135.99
726.097	32070.91
726.439	31883.79
726.782	31851.03
727.124	32030.91
727.465	31783.46
727.807	31851.03
728.149	31697.58
728.491	31687.87
728.833	31755.21
729.175	31594.76
729.516	31559.51
729.858	31434.99
730.199	31569.9
730.541	31389.12
730.882	31394.54
731.224	31463.01
731.565	31190.93
731.906	31259.4
732.248	31283.58
732.589	31106.64
732.93	31035.46
733.271	31028.22
733.612	31081.33
733.953	31263.92
734.294	30873.2
734.635	30906.64
734.976	30972.41
735.317	30768.12
735.658	30620.55
735.999	30723.15
736.339	30743.26
736.68	30802.24
737.021	30637.5
737.361	30505.3
737.702	30710.72
738.042	30483.38
738.383	30572.64
738.723	30563.15
739.063	30381.01
739.404	30516.82
739.744	30457.62
740.084	30304.63
740.424	30298.75
740.764	30233.44
741.104	30353.21
741.444	30103.95
741.784	29902.6
742.124	30066.44
742.464	30075.25
742.804	29958.87
743.143	30012.88
743.483	29941.7
743.823	29834.81
744.162	29839.33
744.502	29920.91
744.841	29686.34
745.181	29836.84
745.52	29675.72
745.86	29864.19
746.199	29677.3
746.538	29510.52
746.877	29664.19
747.216	29602.27
747.556	29517.08
747.895	29562.05
748.234	29346.23
748.573	29390.3
748.911	29329.06
749.25	29355.27
749.589	29223.98
749.928	29316.18
750.267	29277.76
750.605	29129.52
750.944	29105.11
751.283	28993.47
751.621	29122.51
751.96	28906.02
752.298	28948.73
752.636	28871.44
752.975	28825.8
753.313	28756.19
753.651	28842.74
753.989	28649.08
754.327	28494.96
754.666	28400.27
755.004	28467.39
755.342	28534.5
755.679	28424.45
756.017	28308.75
756.355	28386.03
756.693	28244.34
757.031	28136.32
757.368	28064.69
757.706	28020.85
758.044	27896.78
758.381	28060.39
758.719	27804.58
759.056	27850
759.394	27786.73
759.731	27698.37
760.068	27664.7
760.405	27575.21
760.743	27425.83
761.08	27398.04
761.417	27230.13
761.754	27261.77
762.091	27363.46
762.428	27187.19
762.765	27012.06
763.102	27104.71
763.438	26869.46
763.775	26905.85
764.112	26933.87
764.449	26809.58
764.785	26796.24
765.122	26595.35
765.458	26449.14
765.795	26422.24
766.131	26346.31
766.467	26283.49
766.804	26135.25
767.14	25894.57
767.476	25998.53
767.812	25913.56
768.148	25941.58
768.485	25745.42
768.821	25670.17
769.157	25569.16
769.492	25542.27
769.828	25518.54
770.164	25300.46
770.5	25319
770.836	25252.78
771.171	25036.29
771.507	25038.55
771.842	24837.65
772.178	24871.1
772.513	24775.05
772.849	24699.8
773.184	24549.75
773.519	24488.96
773.855	24461.62
774.19	24213.71
774.525	24272.24
774.86	24208.52
775.195	24128.52
775.53	24099.37
775.865	23887.85
776.2	23688.76
776.535	23647.85
776.87	23580.28
777.205	23500.29
777.539	23443.34
777.874	23571.47
778.209	23213.06
778.543	23270.24
778.878	23050.13
779.212	23101.2
779.547	22992.28
779.881	23052.61
780.215	22856.46
780.55	22929.23
780.884	22771.04
781.218	22619.18
781.552	22573.76
781.886	22585.51
782.22	22399.52
782.554	22367.66
782.888	22171.06
783.222	22103.71
783.556	21962.93
783.889	22020.78
784.223	21818.97
784.557	21801.57
784.89	21817.17
785.224	21629.6
785.557	21540.56
785.891	21467.57
786.224	21465.09
786.558	21460.11
786.891	21127.24
787.224	21141.03
787.557	21074.14
787.891	21000.46
788.224	20921.14
788.557	20967.7
788.89	20890.19
789.223	20838.66
789.556	20711.88
789.888	20643.64
790.221	20502.62
790.554	20343.76
790.887	20416.98
791.219	20293.59
791.552	20243.2
791.884	20235.97
792.217	20135.4
792.549	20068.74
792.882	19950.55
793.214	19867.39
793.546	19845.47
793.879	19711.23
794.211	19659.71
794.543	19654.29
794.875	19606.38
795.207	19746.26
795.539	19543.33
795.871	19484.12
796.203	19379.94
796.535	19339.94
796.867	19227.18
797.198	19236.9
797.53	19131.14
797.862	18945.38
798.193	19084.13
798.525	18875.32
798.856	18979.73
799.188	18744.25
799.519	18691.15
799.85	18664.48
800.182	18577.93
800.513	18608.89
800.844	18344.94
801.175	18503.36
801.506	18400.76
801.837	18333.19
802.168	18224.27
802.499	18256.58
802.83	18177.49
803.161	18115.57
803.491	18108.79
803.822	18025.85
804.153	17971.84
804.483	17807.33
804.814	17837.38
805.145	17744.05
805.475	17804.84
805.805	17681.46
806.136	17720.33
806.466	17604.62
806.796	17556.94
807.126	17360.33
807.457	17459.54
807.787	17402.59
808.117	17316.72
808.447	17232.2
808.777	17323.73
809.107	17168.93
809.436	17144.29
809.766	17130.96
810.096	17010.97
810.426	16975.26
810.755	16994.92
811.085	16937.75
811.414	16898.2
811.744	16654.59
812.073	16750.86
812.403	16724.64
812.732	16569.39
813.061	16623.86
813.39	16591.54
813.719	16570.52
814.049	16570.75
814.378	16497.08
814.707	16405.11
815.036	16317.2
815.365	16337.99
815.693	16287.14
816.022	16182.51
816.351	16208.05
816.68	16115.17
817.008	16146.36
817.337	15964.21
817.665	15957.21
817.994	16018.67
818.322	15936.87
818.651	15853.93
818.979	15889.86
819.307	15896.87
819.636	15794.95
819.964	15754.95
820.292	15891.67
820.62	15789.75
820.948	15667.27
821.276	15759.92
821.604	15662.53
821.932	15700.04
822.259	15647.61
822.587	15572.58
822.915	15625.92
823.243	15654.39
823.57	15642.41
823.898	15627.95
824.225	15568.97
824.553	15602.19
824.88	15538.01
825.207	15637.89
825.535	15579.14
825.862	15622.98
826.189	15611.45
826.516	15594.96
826.843	15718.8
827.17	15683.09
827.497	15623.88
827.824	15668.63
828.151	15667.5
828.478	15646.93
828.805	15677.21
829.131	15638.8
829.458	15524.45
829.785	15477.22
830.111	15488.97
830.438	15618.23
830.764	15552.47
831.09	15566.48
831.417	15494.39
831.743	15544.56
832.069	15538.69
832.395	15575.07
832.722	15518.35
833.048	15413.94
833.374	15500.5
833.7	15415.75
834.026	15422.08
834.351	15403.32
834.677	15368.75
835.003	15303.21
835.329	15327.85
835.654	15290.56
835.98	15305.02
836.306	15232.03
836.631	15238.58
836.956	15321.07
837.282	15322.87
837.607	15147.06
837.932	15096.44
838.258	15191.35
838.583	15038.81
838.908	15063.45
839.233	14996.55
839.558	15003.79
839.883	14907.74
840.208	14946.61
840.533	14924.47
840.858	14938.93
841.182	14936.67
841.507	14887.41
841.832	14765.37
842.156	14766.73
842.481	14727.41
842.805	14734.64
843.13	14692.16
843.454	14720.18
843.778	14632.04
844.103	14581.65
844.427	14608.09
844.751	14526.51
845.075	14510.92
845.399	14451.26
845.723	14382.79
846.047	14377.59
846.371	14293.97
846.695	14365.16
847.019	14228.21
847.343	14143.24
847.666	13966.98
847.99	14043.13
848.313	13973.98
848.637	13854.66
848.96	13838.39
849.284	13868.22
849.607	13738.51
849.931	13705.97
850.254	13601.56
850.577	13489.48
850.9	13402.7
851.223	13518.63
851.546	13338.07
851.869	13319.31
852.192	13367.22
852.515	13193.44
852.838	13259.43
853.161	13140.56
853.483	13120.67
853.806	13084.06
854.129	13107.34
854.451	13033.22
854.774	12952.09
855.096	12899.43
855.419	12878.19
855.741	12731.3
856.063	12717.52
856.385	12699.89
856.708	12738.31
857.03	12681.36
857.352	12655.15
857.674	12567.47
857.996	12531.31
858.318	12548.26
858.64	12488.37
858.961	12430.75
859.283	12297.64
859.605	12330.18
859.926	12229.62
860.248	12343.07
860.57	12258.32
860.891	12316.17
861.212	12287.93
861.534	12167.7
861.855	12087.93
862.176	12178.78
862.498	12059.91
862.819	12080.93
863.14	11989.18
863.461	12010.42
863.782	11961.61
864.103	12020.59
864.424	12019.68
864.745	11958.67
865.065	11819.01
865.386	11761.84
865.707	11843.42
866.027	11791.22
866.348	11785.79
866.668	11779.69
866.989	11778.79
867.309	11693.59
867.63	11685.23
867.95	11725.23
868.27	11640.94
868.59	11644.33
868.91	11607.04
869.23	11619.02
869.55	11584.67
869.87	11609.53
870.19	11543.99
870.51	11605.46
870.83	11569.07
871.15	11543.09
871.469	11473.48
871.789	11502.86
872.109	11438
872.428	11351.45
872.748	11512.13
873.067	11365.92
873.386	11412.69
873.706	11315.52
874.025	11331.57
874.344	11299.25
874.663	11292.02
874.982	11322.53
875.301	11277.78
875.62	11215.41
875.939	11130.89
876.258	11237.11
876.577	11187.16
876.896	11133.15
877.214	11082.31
877.533	11105.36
877.852	11126.83
878.17	11100.39
878.489	11073.27
878.807	11082.99
879.125	11009.77
879.444	11058.81
879.762	10992.59
880.08	10895.87
880.398	10925.25
880.716	10911.92
881.034	10936.32
881.352	10917.34
881.67	10857.68
881.988	10927.74
882.306	10814.52
882.624	10752.6
882.941	10742.43
883.259	10695.42
883.577	10692.04
883.894	10722.99
884.212	10709.21
884.529	10556.67
884.846	10634.86
885.164	10683.22
885.481	10576.56
885.798	10654.3
886.115	10457.01
886.432	10482.1
886.75	10455.88
887.067	10487.07
887.383	10394.19
887.7	10433.96
888.017	10353.97
888.334	10381.08
888.651	10315.77
888.967	10332.5
889.284	10278.94
889.6	10245.04
889.917	10158.04
890.233	10144.25
890.55	10153.52
890.866	10163.01
891.182	10111.71
891.498	10087.76
891.815	9933.86
892.131	9988.32
892.447	9917.14
892.763	9857.03
893.079	9801.66
893.395	9906.75
893.71	9889.57
894.026	9812.96
894.342	9834.66
894.657	9740.65
894.973	9632.18
895.289	9778.39
895.604	9663.36
895.92	9610.93
896.235	9546.53
896.55	9583.36
896.865	9516.7
897.181	9557.83
897.496	9516.02
897.811	9443.48
898.126	9382.92
898.441	9315.8
898.756	9370.26
899.071	9311.05
899.386	9313.99
899.7	9231.96
900.015	9187.67
900.33	9133.88
900.644	9100.89
900.959	9188.57
901.273	9117.39
901.588	9071.74
901.902	9019.08
902.216	9051.85
902.531	9008.69
902.845	8997.39
903.159	8941.35
903.473	8891.63
903.787	8835.36
904.101	8786.32
904.415	8802.14
904.729	8746.1
905.042	8682.37
905.356	8697.29
905.67	8680.56
905.984	8655.25
906.297	8615.48
906.611	8548.14
906.924	8526.89
907.237	8530.28
907.551	8478.08
907.864	8477.18
908.177	8413.68
908.491	8341.81
908.804	8273.34
909.117	8229.05
909.43	8239.67
909.743	8215.04
910.056	8145.66
910.368	8136.4
910.681	8089.62
910.994	8064.53
911.307	8094.82
911.619	8021.37
911.932	8011.65
912.244	7901.83
912.557	7888.72
912.869	7893.69
913.181	7823.64
913.494	7773.47
913.806	7792.45
914.118	7786.35
914.43	7658.67
914.742	7728.27
915.054	7634.26
915.366	7675.17
915.678	7585.45
915.99	7544.55
916.302	7542.06
916.613	7497.77
916.925	7483.08
917.236	7490.76
917.548	7363.31
917.859	7429.3
918.171	7353.14
918.482	7279.02
918.794	7237.44
919.105	7344.55
919.416	7205.12
919.727	7193.6
920.038	7128.51
920.349	7115.86
920.66	7111.79
920.971	7102.07
921.282	7030.89
921.593	6997.9
921.903	6956.09
922.214	6950.21
922.525	6947.27
922.835	6848.97
923.146	6829.54
923.456	6864.11
923.767	6803.1
924.077	6755.87
924.387	6784.79
924.697	6747.51
925.008	6683.55
925.318	6640.16
925.628	6650.56
925.938	6583.44
926.248	6555.65
926.558	6512.94
926.867	6596.1
927.177	6459.83
927.487	6440.62
927.796	6383.9
928.106	6394.52
928.416	6402.2
928.725	6371.02
929.034	6352.26
929.344	6322.66
929.653	6291.92
929.962	6250.34
930.271	6209.22
930.581	6163.34
930.89	6144.13
931.199	6178.26
931.508	6097.58
931.817	6064.59
932.125	6083.12
932.434	6062.1
932.743	5952.72
933.051	5949.79
933.36	5917.02
933.669	5919.51
933.977	5896
934.286	5858.49
934.594	5876.79
934.902	5832.95
935.21	5775.78
935.519	5818.04
935.827	5761.54
936.135	5680.87
936.443	5708.44
936.751	5717.25
937.059	5674.09
937.367	5623.69
937.674	5611.26
937.982	5650.81
938.29	5569.46
938.597	5584.6
938.905	5493.53
939.213	5470.03
939.52	5457.82
939.827	5456.24
940.135	5406.52
940.442	5402.23
940.749	5383.93
941.056	5362.91
941.363	5303.7
941.67	5319.07
941.977	5287.66
942.284	5307.54
942.591	5237.94
942.898	5232.07
943.205	5206.53
943.511	5190.94
943.818	5132.63
944.125	5107.55
944.431	5097.61
944.738	5115.68
945.044	5030.49
945.35	5012.86
945.657	5006.54
945.963	4973.99
946.269	4950.27
946.575	4928.12
946.881	4928.12
947.187	4891.28
947.493	4865.52
947.799	4859.87
948.105	4797.27
948.41	4856.71
948.716	4791.63
949.022	4788.91
949.327	4756.37
949.633	4747.56
949.938	4728.8
950.244	4728.12
950.549	4647.67
950.854	4649.03
951.16	4613.55
951.465	4616.71
951.77	4612.65
952.075	4587.34
952.38	4549.82
952.685	4555.02
952.99	4506.44
953.294	4518.64
953.599	4460.79
953.904	4430.5
954.209	4454.46
954.513	4403.16
954.818	4390.05
955.122	4385.31
955.426	4388.25
955.731	4361.81
956.035	4359.32
956.339	4322.49
956.643	4282.03
956.948	4248.81
957.252	4240.45
957.556	4196.84
957.86	4156.16
958.163	4200.91
958.467	4171.53
958.771	4208.82
959.075	4108.03
959.378	4122.26
959.682	4122.49
959.985	4088.59
960.289	4025.09
960.592	4067.35
960.896	4037.52
961.199	4035.04
961.502	3987.13
961.805	3962.95
962.108	3940.8
962.411	3913.91
962.714	3887.69
963.017	3922.5
963.32	3889.5
963.623	3845.21
963.926	3827.58
964.228	3854.25
964.531	3843.18
964.833	3801.37
965.136	3760.92
965.438	3800.47
965.741	3794.14
966.043	3717.08
966.345	3752.78
966.648	3695.38
966.95	3685.89
967.252	3677.76
967.554	3711.2
967.856	3638.44
968.158	3614.71
968.46	3606.35
968.761	3573.13
969.063	3616.29
969.365	3601.6
969.666	3575.39
969.968	3473.92
970.269	3496.97
970.571	3539
970.872	3498.78
971.174	3477.76
971.475	3447.25
971.776	3461.49
972.077	3401.83
972.378	3443.19
972.679	3406.58
972.98	3380.59
973.281	3343.98
973.582	3313.02
973.883	3333.81
974.183	3329.29
974.484	3327.03
974.785	3286.58
975.085	3297.65
975.386	3282.06
975.686	3281.16
975.986	3272.12
976.287	3204.1
976.587	3205.9
976.887	3216.53
977.187	3215.17
977.487	3147.6
977.787	3160.03
978.087	3165.68
978.387	3122.52
978.687	3136.75
978.987	3080.71
979.286	3066.93
979.586	3062.63
979.885	3083.65
980.185	3076.64
980.484	3114.38
980.784	3038.45
981.083	2988.06
981.382	2987.38
981.682	2996.64
981.981	2954.84
982.28	2957.32
982.579	2941.73
982.878	2936.76
983.177	2938.11
983.475	2895.4
983.774	2890.21
984.073	2836.2
984.372	2867.83
984.67	2866.25
984.969	2838.23
985.267	2803.88
985.566	2811.79
985.864	2792.81
986.162	2785.12
986.461	2758.23
986.759	2736.54
987.057	2748.74
987.355	2720.95
987.653	2754.84
987.951	2690.66
988.249	2672.81
988.547	2670.1
988.844	2681.85
989.142	2639.82
989.44	2628.74
989.737	2627.61
990.035	2621.29
990.332	2598.01
990.63	2607.28
990.927	2565.92
991.224	2555.07
991.521	2585.13
991.819	2570.21
992.116	2538.58
992.413	2559.82
992.71	2497.9
993.006	2489.31
993.303	2501.06
993.6	2496.09
993.897	2473.95
994.193	2471.69
994.49	2425.13
994.787	2437.79
995.083	2440.05
995.379	2408.86
995.676	2405.93
995.972	2401.18
996.268	2374.29
996.565	2346.72
996.861	2339.03
997.157	2352.14
997.453	2314.4
997.749	2299.26
998.044	2318.24
998.34	2278.25
998.636	2280.05
998.932	2282.54
999.227	2245.48
999.523	2226.04
999.818	2253.16
1000.114	2231.47
1000.409	2236.44
1000.704	2212.48
1001	2186.72
1001.295	2171.36
1001.59	2185.82
1001.885	2141.53
1002.18	2151.24
1002.475	2124.8
1002.77	2122.77
1003.065	2133.39
1003.359	2111.47
1003.654	2084.13
1003.949	2078.02
1004.243	2079.61
1004.538	2021.3
1004.832	2034.41
1005.127	2040.96
1005.421	2028.99
1005.715	1995.31
1006.009	1984.02
1006.304	2008.65
1006.598	2001.87
1006.892	1943.11
1007.186	1942.66
1007.48	1910.57
1007.773	1928.65
1008.067	1945.37
1008.361	1906.96
1008.655	1877.35
1008.948	1883.45
1009.242	1873.74
1009.535	1879.61
1009.829	1876.9
1010.122	1859.27
1010.415	1816.34
1010.708	1811.82
1011.001	1818.37
1011.295	1817.69
1011.588	1786.05
1011.881	1793.96
1012.173	1742.21
1012.466	1773.63
1012.759	1778.6
1013.052	1748.54
1013.344	1731.82
1013.637	1729.33
1013.93	1709.9
1014.222	1716.23
1014.514	1680.07
1014.807	1721.2
1015.099	1667.19
1015.391	1650.69
1015.683	1673.97
1015.976	1661.54
1016.268	1640.07
1016.56	1636.23
1016.851	1593.29
1017.143	1616.79
1017.435	1598.94
1017.727	1596.91
1018.018	1580.18
1018.31	1554.87
1018.602	1548.55
1018.893	1525.72
1019.185	1537.7
1019.476	1519.62
1019.767	1533.41
1020.058	1515.1
1020.35	1493.18
1020.641	1476.46
1020.932	1492.96
1021.223	1468.1
1021.514	1480.07
1021.804	1458.61
1022.095	1447.08
1022.386	1435.33
1022.677	1398.72
1022.967	1425.84
1023.258	1407.53
1023.548	1392.84
1023.839	1389.23
1024.129	1370.47
1024.419	1381.77
1024.709	1350.81
1025	1342.9
1025.29	1349.91
1025.58	1338.38
1025.87	1326.18
1026.16	1320.3
1026.449	1311.26
1026.739	1309.23
1027.029	1281.44
1027.319	1256.13
1027.608	1259.97
1027.898	1282.34
1028.187	1260.19
1028.477	1251.38
1028.766	1258.38
1029.055	1226.97
1029.344	1234.43
1029.634	1226.52
1029.923	1208.67
1030.212	1210.93
1030.501	1165.28
1030.79	1196.24
1031.078	1190.59
1031.367	1174.32
1031.656	1172.74
1031.945	1156.47
1032.233	1140.42
1032.522	1131.16
1032.81	1154.88
1033.099	1117.6
1033.387	1095.23
1033.675	1120.99
1033.963	1092.97
1034.251	1105.17
1034.54	1073.53
1034.828	1076.69
1035.116	1078.5
1035.403	1048.9
1035.691	1050.25
1035.979	1051.16
1036.267	1042.12
1036.554	1018.84
1036.842	993.31
1037.129	1035.34
1037.417	1017.94
1037.704	996.7
1037.992	1020.2
1038.279	990.14
1038.566	984.49
1038.853	984.49
1039.14	984.49
