Data from hue_270_FLMS001491_00003.txt Node
Date: Tue Feb 07 15:56:41 GMT 2017
User: dcchb
Spectrometer: FLMS00149
Trigger mode: 0
Integration Time (sec): 2.000000E-2
Scans to average: 10
Electric dark correction enabled: true
Nonlinearity correction enabled: false
Boxcar width: 0
XAxis mode: Wavelengths
Number of Pixels in Spectrum: 2048
>>>>>Begin Spectral Data<<<<<
341.393	-8.18
341.776	-8.18
342.16	-8.18
342.543	-62.41
342.927	-73.94
343.31	-57.67
343.693	-60.83
344.077	-72.13
344.46	-48.18
344.843	-50.21
345.226	-36.43
345.61	-3.66
345.993	-47.05
346.376	-23.54
346.759	18.49
347.142	-1.17
347.525	33.86
347.908	54.65
348.291	81.99
348.674	102.33
349.057	109.56
349.44	105.27
349.823	138.49
350.206	164.93
350.588	194.75
350.971	201.99
351.354	225.94
351.737	223.23
352.119	231.14
352.502	253.06
352.884	254.41
353.267	287.18
353.65	271.59
354.032	296.22
354.414	300.97
354.797	292.61
355.179	330.34
355.562	287.63
355.944	319.95
356.326	338.03
356.709	320.85
357.091	331.02
357.473	309.78
357.855	344.13
358.238	346.16
358.62	326.5
359.002	337.12
359.384	348.2
359.766	338.48
360.148	322.66
360.53	331.02
360.912	331.7
361.294	348.88
361.676	345.26
362.057	306.84
362.439	329.67
362.821	320.18
363.203	326.05
363.584	317.01
363.966	320.18
364.348	310.23
364.729	336.67
365.111	304.81
365.493	320.18
365.874	317.92
366.256	301.19
366.637	298.03
367.019	314.07
367.4	302.1
367.781	317.46
368.163	295.77
368.544	304.58
368.925	311.81
369.306	297.35
369.688	315.43
370.069	288.99
370.45	316.33
370.831	313.85
371.212	323.34
371.593	312.94
371.974	313.62
372.355	281.98
372.736	301.42
373.117	329.67
373.498	333.96
373.879	299.61
374.26	303.45
374.641	305.49
375.021	305.49
375.402	329.67
375.783	314.98
376.163	315.88
376.544	337.35
376.925	324.24
377.305	309.78
377.686	328.31
378.066	300.06
378.447	319.27
378.827	302.77
379.208	329.67
379.588	321.31
379.968	326.05
380.349	312.49
380.729	319.72
381.109	348.2
381.489	331.47
381.87	328.99
382.25	337.58
382.63	328.54
383.01	341.19
383.39	342.1
383.77	343.9
384.15	325.37
384.53	339.84
384.91	350.23
385.29	344.58
385.67	347.29
386.049	349.78
386.429	344.13
386.809	367.41
387.189	358.59
387.568	357.24
387.948	374.86
388.328	358.14
388.707	345.26
389.087	359.04
389.466	347.97
389.846	352.49
390.225	363.11
390.605	360.4
390.984	370.34
391.363	378.7
391.743	368.76
392.122	381.42
392.501	361.98
392.881	366.05
393.26	387.74
393.639	382.09
394.018	390.23
394.397	389.55
394.776	382.77
395.155	390.68
395.534	386.16
395.913	378.7
396.292	392.04
396.671	408.08
397.05	395.2
397.429	401.3
397.808	379.38
398.186	411.25
398.565	410.34
398.944	395.65
399.323	402.43
399.701	378.93
400.08	414.18
400.458	392.49
400.837	409.89
401.215	434.3
401.594	411.25
401.972	441.75
402.351	427.29
402.729	418.03
403.107	418.25
403.486	441.08
403.864	434.07
404.242	431.13
404.62	452.38
404.999	434.07
405.377	455.76
405.755	443.11
406.133	468.42
406.511	467.06
406.889	484.01
407.267	481.3
407.645	461.64
408.023	493.28
408.401	486.72
408.779	496.22
409.156	496.89
409.534	506.84
409.912	500.06
410.29	533.5
410.667	505.93
411.045	520.62
411.422	530.11
411.8	531.7
412.178	549.77
412.555	550.23
412.933	567.17
413.31	564.01
413.687	560.17
414.065	580.96
414.442	582.99
414.819	570.34
415.197	598.13
415.574	585.03
415.951	608.3
416.328	622.09
416.705	606.95
417.082	600.85
417.46	627.29
417.837	635.65
418.214	651.92
418.591	642.2
418.967	631.35
419.344	669.54
419.721	659.15
420.098	677.91
420.475	679.04
420.852	698.92
421.228	714.29
421.605	712.93
421.982	735.76
422.358	747.73
422.735	754.29
423.111	746.83
423.488	749.32
423.864	790.22
424.241	765.59
424.617	817.11
424.994	814.17
425.37	800.16
425.746	802.87
426.123	812.82
426.499	834.29
426.875	836.09
427.251	834.51
427.627	867.28
428.003	874.28
428.379	887.62
428.756	901.63
429.132	892.59
429.507	906.83
429.883	906.6
430.259	941.63
430.635	932.81
431.011	935.75
431.387	965.13
431.763	997.67
432.138	1006.71
432.514	985.92
432.89	1016.88
433.265	1060.72
433.641	1057.33
434.016	1078.57
434.392	1065.24
434.767	1117.44
435.143	1091.68
435.518	1111.79
435.894	1147.95
436.269	1140.49
436.644	1183.43
437.02	1210.77
437.395	1196.08
437.77	1216.42
438.145	1232.02
438.52	1253.94
438.895	1276.08
439.271	1266.59
439.646	1303.43
440.021	1319.92
440.395	1291.68
440.77	1340.04
441.145	1329.41
441.52	1375.51
441.895	1397.89
442.27	1400.82
442.645	1394.27
443.019	1413.71
443.394	1423.65
443.769	1462.52
444.143	1444.21
444.518	1465.23
444.892	1458.68
445.267	1458.9
445.641	1469.3
446.016	1457.55
446.39	1469.3
446.764	1511.33
447.139	1500.03
447.513	1529.63
447.887	1538.22
448.262	1524.44
448.636	1509.75
449.01	1557.88
449.384	1581.84
449.758	1592.01
450.132	1644.66
450.506	1608.5
450.88	1623.64
451.254	1626.13
451.628	1625
452.002	1653.7
452.376	1650.31
452.75	1672.23
453.123	1676.52
453.497	1697.77
453.871	1744.54
454.244	1743.87
454.618	1762.17
454.992	1788.39
455.365	1796.97
455.739	1798.55
456.112	1833.81
456.486	1867.48
456.859	1884.65
457.232	1900.7
457.606	1875.16
457.979	1924.43
458.352	1931.21
458.725	1952.45
459.099	1998.55
459.472	2023.41
459.845	2031.32
460.218	2001.49
460.591	2057.98
460.964	2082.84
461.337	2096.85
461.71	2114.7
462.083	2133.23
462.456	2138.21
462.829	2161.03
463.201	2186.57
463.574	2204.42
463.947	2238.77
464.32	2241.03
464.692	2274.25
465.065	2305.21
465.438	2334.36
465.81	2336.62
466.183	2361.48
466.555	2391.08
466.928	2427.01
467.3	2411.19
467.672	2442.83
468.045	2504.52
468.417	2522.15
468.789	2529.83
469.161	2528.7
469.534	2587.91
469.906	2611.19
470.278	2628.36
470.65	2632.43
471.022	2697.06
471.394	2760.11
471.766	2771.18
472.138	2846.89
472.51	2840.33
472.882	2855.25
473.253	2913.78
473.625	2908.13
473.997	2984.74
474.369	2987.22
474.74	3011.18
475.112	3096.83
475.484	3095.92
475.855	3128.24
476.227	3188.8
476.598	3237.61
476.97	3239.87
477.341	3320.32
477.713	3352.86
478.084	3358.97
478.455	3458.62
478.827	3436.48
479.198	3508.57
479.569	3522.8
479.94	3627.88
480.311	3671.5
480.682	3707.66
481.053	3766.64
481.424	3837.6
481.795	3841.21
482.166	3930.93
482.537	3937.71
482.908	3992.17
483.279	4038.27
483.65	4094.54
484.021	4184.71
484.391	4202.11
484.762	4215.21
485.133	4270.13
485.503	4273.74
485.874	4379.5
486.244	4428.54
486.615	4503.34
486.985	4488.88
487.356	4581.98
487.726	4567.97
488.097	4657.24
488.467	4656.33
488.837	4791.7
489.207	4784.01
489.578	4844.8
489.948	4927.06
490.318	4922.54
490.688	5002.99
491.058	5039.83
491.428	5056.32
491.798	5117.56
492.168	5223.32
492.538	5225.36
492.908	5270.78
493.278	5344
493.648	5336.09
494.017	5375.86
494.387	5378.12
494.757	5444.33
495.126	5470.55
495.496	5505.58
495.866	5534.28
496.235	5563.43
496.605	5677.32
496.974	5605.23
497.344	5656.53
497.713	5678.45
498.082	5769.98
498.452	5758.68
498.821	5774.27
499.19	5761.84
499.559	5825.79
499.928	5878.9
500.298	5890.88
500.667	5929.75
501.036	5919.35
501.405	5972.23
501.774	5983.08
502.143	5978.33
502.512	5998.67
502.88	6021.27
503.249	6080.48
503.618	6039.12
503.987	6093.81
504.356	6146.01
504.724	6134.94
505.093	6165.67
505.462	6176.52
505.83	6251.77
506.199	6231.43
506.567	6295.39
506.936	6298.1
507.304	6357.76
507.672	6281.6
508.041	6349.85
508.409	6393.69
508.777	6419.68
509.145	6433.91
509.514	6455.38
509.882	6456.29
510.25	6491.31
510.618	6557.75
510.986	6573.57
511.354	6620.35
511.722	6600.69
512.09	6618.31
512.458	6604.08
512.826	6609.5
513.193	6669.61
513.561	6635.94
513.929	6696.96
514.297	6755.71
514.664	6777.18
515.032	6734.02
515.4	6776.05
515.767	6840.23
516.135	6829.38
516.502	6777.41
516.869	6856.05
517.237	6860.34
517.604	6865.09
517.972	6877.97
518.339	6963.84
518.706	6932.88
519.073	6927.91
519.44	6896.73
519.808	7003.62
520.175	7039.32
520.542	7054.24
520.909	7018.76
521.276	7056.72
521.643	7066.66
522.009	7065.76
522.376	7086.55
522.743	7144.4
523.11	7211.07
523.477	7235.47
523.843	7232.08
524.21	7272.53
524.577	7323.61
524.943	7364.28
525.31	7355.47
525.676	7345.75
526.043	7417.84
526.409	7448.8
526.776	7476.82
527.142	7460.33
527.508	7548.91
527.874	7558.85
528.241	7543.49
528.607	7552.98
528.973	7641.56
529.339	7638.4
529.705	7630.27
530.071	7652.19
530.437	7660.77
530.803	7777.38
531.169	7711.17
531.535	7731.51
531.901	7763.37
532.267	7797.27
532.632	7817.15
532.998	7820.99
533.364	7812.41
533.73	7847.89
534.095	7904.61
534.461	7905.96
534.826	7885.4
535.192	7872.29
535.557	7952.97
535.923	7927.21
536.288	7979.41
536.653	8006.53
537.019	7980.31
537.384	7979.41
537.749	7968.11
538.114	8003.59
538.479	7991.84
538.845	8027.54
539.21	7941.67
539.575	8043.36
539.94	8073.42
540.305	8074.55
540.67	8039.75
541.034	8063.7
541.399	8158.16
541.764	8130.82
542.129	8104.6
542.494	8144.83
542.858	8137.14
543.223	8122.46
543.587	8163.81
543.952	8129.24
544.316	8157.94
544.681	8145.51
545.045	8145.05
545.41	8209.01
545.774	8142.57
546.138	8179.86
546.503	8219.63
546.867	8273.86
547.231	8274.99
547.595	8232.96
547.959	8268.44
548.324	8224.37
548.688	8290.36
549.052	8239.51
549.416	8294.88
549.779	8268.89
550.143	8317.25
550.507	8305.5
550.871	8274.09
551.235	8296.01
551.599	8363.13
551.962	8337.14
552.326	8451.94
552.689	8426.18
553.053	8392.51
553.417	8395.67
553.78	8492.62
554.143	8461.2
554.507	8410.81
554.87	8518.83
555.234	8552.28
555.597	8492.16
555.96	8507.76
556.323	8589.11
556.686	8524.48
557.05	8591.37
557.413	8581.43
557.776	8639.96
558.139	8678.15
558.502	8656.68
558.865	8665.27
559.228	8766.73
559.59	8728.99
559.953	8729.9
560.316	8773.96
560.679	8798.6
561.041	8909.78
561.404	8839.73
561.767	8916.79
562.129	8883.79
562.492	9001.98
562.854	9004.47
563.217	8983.45
563.579	8970.57
563.941	9034.97
564.304	9104.58
564.666	9114.07
565.028	9121.98
565.39	9169.89
565.753	9266.38
566.115	9182.54
566.477	9185.93
566.839	9286.95
567.201	9330.33
567.563	9328.53
567.925	9372.82
568.287	9357.9
568.648	9391.35
569.01	9395.42
569.372	9461.18
569.734	9508.18
570.095	9521.74
570.457	9562.19
570.819	9597.45
571.18	9604.45
571.542	9636.09
571.903	9700.72
572.265	9735.29
572.626	9651.46
572.987	9707.5
573.349	9793.37
573.71	9907.95
574.071	9892.58
574.432	9909.08
574.794	9952.92
575.155	9974.38
575.516	9886.48
575.877	10015.06
576.238	10032.69
576.599	10048.06
576.96	10021.39
577.32	10141.84
577.681	10163.98
578.042	10220.48
578.403	10246.24
578.763	10162.18
579.124	10301.16
579.485	10353.81
579.845	10328.5
580.206	10265.22
580.566	10354.04
580.927	10394.26
581.287	10475.84
581.648	10465.9
582.008	10528.72
582.368	10530.3
582.728	10466.8
583.089	10518.55
583.449	10528.95
583.809	10549.06
584.169	10622.5
584.529	10594.26
584.889	10717.42
585.249	10684.65
585.609	10612.79
585.969	10783.18
586.329	10723.74
586.688	10795.15
587.048	10791.31
587.408	10838.54
587.768	10789.73
588.127	10827.02
588.487	10847.36
588.846	10981.59
589.206	10910.41
589.565	10902.95
589.925	11036.28
590.284	10937.3
590.643	11050.51
591.003	11034.02
591.362	11104.3
591.721	11088.03
592.08	11116.5
592.44	11127.57
592.799	11175.48
593.158	11181.81
593.517	11218.19
593.876	11264.52
594.235	11230.17
594.593	11204.86
594.952	11294.12
595.311	11239.44
595.67	11240.79
596.029	11420.22
596.387	11405.08
596.746	11435.36
597.104	11387.45
597.463	11356.5
597.822	11448.7
598.18	11421.35
598.538	11348.59
598.897	11463.16
599.255	11377.51
599.613	11540.45
599.972	11600.78
600.33	11565.08
600.688	11484.18
601.046	11528.47
601.404	11608.92
601.762	11507
602.12	11596.94
602.478	11588.13
602.836	11635.58
603.194	11604.85
603.552	11591.74
603.91	11640.78
604.268	11694.34
604.625	11596.71
604.983	11621.57
605.341	11639.2
605.698	11639.2
606.056	11684.62
606.413	11682.59
606.771	11774.56
607.128	11787.67
607.485	11728.24
607.843	11740.89
608.2	11815.24
608.557	11852.53
608.914	11757.84
609.272	11845.52
609.629	11802.81
609.986	11921.68
610.343	11877.16
610.7	11879.65
611.057	11961.9
611.414	11819.76
611.771	11933.88
612.127	11976.14
612.484	12038.96
612.841	12015.69
613.198	11933.66
613.554	11925.07
613.911	12036.03
614.267	11984.28
614.624	12001.68
614.98	11955.35
615.337	12085.52
615.693	12014.78
616.05	11997.38
616.406	12147.89
616.762	12016.59
617.118	12118.96
617.475	12117.61
617.831	12046.87
618.187	12128
618.543	12170.49
618.899	12142.92
619.255	12134.78
619.611	12178.62
619.967	12220.88
620.323	12206.19
620.678	12160.99
621.034	12166.87
621.39	12206.64
621.746	12191.28
622.101	12264.49
622.457	12172.97
622.812	12229.01
623.168	12232.86
623.523	12274.44
623.879	12296.58
624.234	12190.37
624.589	12175.46
624.945	12206.19
625.3	12221.56
625.655	12260.43
626.01	12222.91
626.365	12221.11
626.72	12213.2
627.075	12231.5
627.43	12209.35
627.785	12089.36
628.14	12203.03
628.495	12223.37
628.85	12166.19
629.205	12107.66
629.559	12220.65
629.914	12068.34
630.269	12070.37
630.623	12092.97
630.978	12043.93
631.332	12171.61
631.687	12138.62
632.041	12111.28
632.396	12085.52
632.75	12042.58
633.104	12093.65
633.459	12011.85
633.813	12044.39
634.167	11995.57
634.521	11956.48
634.875	11988.79
635.229	11921
635.583	11901.11
635.937	11915.12
636.291	11911.51
636.645	11935.01
636.999	11870.38
637.352	11907.44
637.706	11806.88
638.06	11869.25
638.413	11817.27
638.767	11767.78
639.121	11775.92
639.474	11778.63
639.828	11793.09
640.181	11612.53
640.534	11806.43
640.888	11715.36
641.241	11639.43
641.594	11637.17
641.947	11761.91
642.301	11670.84
642.654	11673.32
643.007	11721.68
643.36	11718.29
643.713	11597.84
644.066	11648.92
644.419	11563.95
644.771	11492.08
645.124	11505.19
645.477	11406.44
645.83	11324.18
646.182	11349.04
646.535	11299.32
646.888	11288.47
647.24	11191.3
647.593	11242.6
647.945	11275.37
648.298	11201.7
648.65	11196.5
649.002	11156.95
649.355	11263.62
649.707	11244.86
650.059	11273.56
650.411	11441.01
650.763	11495.25
651.115	11530.5
651.467	11573.44
651.819	11412.54
652.171	11469.26
652.523	11401.24
652.875	11463.16
653.227	11420
653.578	11497.28
653.93	11458.87
654.282	11455.48
654.633	11450.5
654.985	11451.86
655.337	11405.99
655.688	11425.19
656.039	11489.37
656.391	11300.45
656.742	11360.11
657.094	11422.93
657.445	11392.2
657.796	11384.07
658.147	11375.25
658.498	11414.8
658.849	11380.68
659.2	11393.1
659.551	11283.28
659.902	11464.29
660.253	11374.57
660.604	11413.44
660.955	11360.56
661.306	11465.64
661.656	11449.37
662.007	11453.89
662.358	11402.37
662.708	11431.75
663.059	11420.45
663.409	11379.09
663.76	11444.18
664.11	11429.04
664.461	11430.62
664.811	11466.77
665.161	11429.71
665.511	11425.65
665.862	11421.35
666.212	11470.39
666.562	11474.23
666.912	11418.64
667.262	11430.17
667.612	11443.27
667.962	11393.1
668.312	11401.69
668.662	11407.34
669.011	11462.03
669.361	11415.48
669.711	11344.52
670.06	11394.01
670.41	11366.89
670.76	11356.04
671.109	11342.71
671.459	11368.47
671.808	11318.98
672.157	11328.02
672.507	11276.5
672.856	11309.72
673.205	11290.06
673.554	11305.2
673.904	11238.53
674.253	11312.88
674.602	11306.33
674.951	11105.65
675.3	11057.07
675.649	11219.78
675.998	11192.43
676.346	11284.41
676.695	11218.42
677.044	11168.25
677.393	11224.52
677.741	11237.4
678.09	11152.88
678.438	11087.8
678.787	11137.07
679.135	11048.03
679.484	11116.05
679.832	11075.6
680.181	11041.7
680.529	11055.26
680.877	11023.4
681.225	10991.98
681.573	11042.61
681.922	10997.41
682.27	10915.15
682.618	10891.42
682.966	10909.5
683.314	10964.87
683.661	10907.24
684.009	10839.45
684.357	10858.43
684.705	10803.52
685.053	10788.15
685.4	10770.3
685.748	10754.03
686.095	10778.66
686.443	10693.91
686.79	10676.74
687.138	10708.15
687.485	10627.47
687.832	10662.73
688.18	10594.71
688.527	10541.83
688.874	10550.64
689.221	10547.48
689.568	10533.24
689.915	10400.59
690.262	10453.24
690.609	10407.14
690.956	10376.18
691.303	10321.49
691.65	10331.89
691.997	10263.87
692.344	10192.91
692.69	10215.96
693.037	10200.37
693.383	10116.98
693.73	10209.41
694.077	10100.93
694.423	10041.28
694.769	10020.49
695.116	9968.96
695.462	10005.57
695.808	9956.31
696.155	9966.93
696.501	9935.52
696.847	9910.88
697.193	9747.05
697.539	9862.75
697.885	9761.73
698.231	9734.84
698.577	9712.7
698.923	9706.14
699.269	9582.76
699.614	9603.09
699.96	9548.86
700.306	9524.45
700.651	9490.1
700.997	9481.29
701.342	9458.01
701.688	9415.3
702.033	9412.82
702.379	9375.53
702.724	9324.01
703.069	9263.89
703.415	9264.35
703.76	9234.74
704.105	9214.63
704.45	9133.95
704.795	9145.25
705.14	9185.7
705.485	9099.38
705.83	9043.34
706.175	9034.3
706.52	8986.84
706.865	9029.55
707.209	8962.21
707.554	8956.56
707.899	9000.85
708.243	8887.86
708.588	8898.48
708.932	8751.82
709.277	8807.18
709.621	8790.01
709.966	8783.68
710.31	8764.92
710.654	8661.2
710.998	8746.85
711.342	8709.56
711.687	8720.18
712.031	8677.02
712.375	8578.72
712.719	8669.56
713.063	8583.46
713.407	8634.98
713.75	8526.29
714.094	8583.23
714.438	8507.08
714.782	8517.47
715.125	8483.35
715.469	8457.81
715.812	8426.18
716.156	8381.43
716.499	8429.11
716.843	8404.93
717.186	8383.92
717.53	8457.81
717.873	8421.21
718.216	8405.61
718.559	8382.79
718.902	8349.34
719.246	8333.07
719.589	8321.32
719.932	8284.26
720.275	8294.88
720.617	8285.39
720.96	8249.46
721.303	8289.91
721.646	8262.11
721.989	8199.52
722.331	8233.64
722.674	8226.18
723.016	8193.19
723.359	8199.06
723.701	8252.62
724.044	8103.02
724.386	8124.04
724.729	8154.55
725.071	8151.83
725.413	8151.16
725.755	8193.64
726.097	8067.54
726.439	8080.65
726.782	8100.31
727.124	8094.66
727.465	8143.47
727.807	8078.16
728.149	8034.77
728.491	8058.95
728.833	8014.21
729.175	8026.64
729.516	8056.47
729.858	8028.45
730.199	8077.71
730.541	7991.61
730.882	8015.79
731.224	8010.37
731.565	8006.75
731.906	7948.68
732.248	8057.15
732.589	7966.3
732.93	7989.35
733.271	7985.06
733.612	7986.41
733.953	8025.06
734.294	7992.74
734.635	7953.65
734.976	8006.53
735.317	7940.99
735.658	7953.42
735.999	8002.01
736.339	7945.74
736.68	7950.94
737.021	7883.37
737.361	7934.89
737.702	7967.21
738.042	8018.5
738.383	7961.78
738.723	7965.85
739.063	7938.51
739.404	7962.91
739.744	8002.69
740.084	8028.45
740.424	7941.44
740.764	7988.22
741.104	7966.53
741.444	8021.44
741.784	7975.34
742.124	8012.18
742.464	8045.85
742.804	8051.05
743.143	8022.57
743.483	8033.19
743.823	8083.59
744.162	8081.78
744.502	8065.51
744.841	8145.73
745.181	8183.7
745.52	8102.8
745.86	8192.96
746.199	8207.65
746.538	8262.34
746.877	8300.98
747.216	8344.37
747.556	8338.27
747.895	8399.06
748.234	8422.34
748.573	8412.84
748.911	8471.15
749.25	8490.36
749.589	8537.13
749.928	8704.36
750.267	8672.5
750.605	8651.93
750.944	8765.38
751.283	8892.83
751.621	8971.47
751.96	8936.9
752.298	9086.05
752.636	9135.76
752.975	9196.78
753.313	9317
753.651	9369.65
753.989	9430.22
754.327	9541.4
754.666	9592.25
755.004	9709.53
755.342	9738.01
755.679	9935.74
756.017	10007.38
756.355	10157.66
756.693	10248.5
757.031	10442.17
757.368	10460.25
757.706	10613.92
758.044	10689.85
758.381	10861.59
758.719	10945.88
759.056	11152.21
759.394	11235.59
759.731	11324.63
760.068	11498.19
760.405	11600.1
760.743	11751.97
761.08	11904.96
761.417	11975.01
761.754	12203.25
762.091	12281.89
762.428	12493.19
762.765	12607.54
763.102	12800.53
763.438	12959.16
763.775	13075.09
764.112	13181.53
764.449	13441.86
764.785	13419.04
765.122	13612.03
765.458	13716.21
765.795	13883.89
766.131	14028.74
766.467	14191.67
766.804	14259.24
767.14	14409.07
767.476	14535.39
767.812	14648.84
768.148	14863.97
768.485	14948.27
768.821	14962.5
769.157	15224.19
769.492	15303.51
769.828	15419.89
770.164	15470.06
770.5	15560.9
770.836	15716.15
771.171	15735.36
771.507	15817.85
771.842	15893.78
772.178	16032.53
772.513	16085.64
772.849	16220.1
773.184	16211.73
773.519	16347.1
773.855	16389.58
774.19	16426.42
774.525	16593.19
774.86	16645.62
775.195	16684.72
775.53	16730.14
775.865	16786.18
776.2	16831.15
776.535	16837.03
776.87	16782.79
777.205	16874.54
777.539	16970.81
777.874	17002.22
778.209	17074.08
778.543	17037.25
778.878	17123.35
779.212	17141.2
779.547	17149.56
779.881	17230.47
780.215	17188.21
780.55	17329.9
780.884	17300.52
781.218	17263.23
781.552	17350.91
781.886	17298.71
782.22	17291.48
782.554	17246.28
782.888	17299.84
783.222	17152.5
783.556	17171.48
783.889	17334.87
784.223	17139.17
784.557	17120.41
784.89	17282.67
785.224	17175.78
785.557	17155.89
785.891	17115.44
786.224	17181.88
786.558	17176.68
786.891	16976.91
787.224	17027.31
787.557	17056.23
787.891	17066.18
788.224	16991.6
788.557	17110.02
788.89	17038.38
789.223	17121.32
789.556	16877.93
789.888	16982.79
790.221	16962.45
790.554	16819.18
790.887	16946.18
791.219	16828.67
791.552	16791.61
791.884	16741.66
792.217	16846.75
792.549	16767.88
792.882	16698.05
793.214	16598.39
793.546	16684.04
793.879	16555
794.211	16554.32
794.543	16663.47
794.875	16618.96
795.207	16623.48
795.539	16481.33
795.871	16516.13
796.203	16317.49
796.535	16371.05
796.867	16313.43
797.198	16285.18
797.53	16289.02
797.862	16192.98
798.193	16192.07
798.525	16175.8
798.856	16202.47
799.188	15982.14
799.519	15956.6
799.85	15917.51
800.182	15887.68
800.513	15941.91
800.844	15780.56
801.175	15887.22
801.506	15838.86
801.837	15771.97
802.168	15689.26
802.499	15737.85
802.83	15725.65
803.161	15613.78
803.491	15666.89
803.822	15664.63
804.153	15512.09
804.483	15517.97
804.814	15443.85
805.145	15432.09
805.475	15484.3
805.805	15413.11
806.136	15405.65
806.466	15357.52
806.796	15331.08
807.126	15187.58
807.457	15195.94
807.787	15257.64
808.117	15112.33
808.447	15083.4
808.777	15049.51
809.107	15038.21
809.436	14974.93
809.766	14999.11
810.096	14995.04
810.426	15012.9
810.755	14944.65
811.085	14820.81
811.414	14842.05
811.744	14845.44
812.073	14837.31
812.403	14786.01
812.732	14640.7
813.061	14706.46
813.39	14646.13
813.719	14633.02
814.049	14680.93
814.378	14617.65
814.707	14593.7
815.036	14496.98
815.365	14506.47
815.693	14357.09
816.022	14372.24
816.351	14378.79
816.68	14303.31
817.008	14319.81
817.337	14232.13
817.665	14212.92
817.994	14235.74
818.322	14258.34
818.651	14159.59
818.979	14108.29
819.307	14205.91
819.636	14125.24
819.964	14046.59
820.292	14111.9
820.62	14137.66
820.948	14095.86
821.276	14068.51
821.604	14108.06
821.932	14026.26
822.259	14104.9
822.587	14018.57
822.915	14068.06
823.243	14104.9
823.57	13988.52
823.898	14041.62
824.225	14061.06
824.553	14052.7
824.88	14071
825.207	14066.93
825.535	14034.84
825.862	14058.35
826.189	14023.54
826.516	14101.73
826.843	14108.51
827.17	14169.3
827.497	14118.46
827.824	14197.78
828.151	14106.25
828.478	14159.59
828.805	14174.73
829.131	14074.16
829.458	14031.91
829.785	14021.74
830.111	14114.61
830.438	14170.43
830.764	14154.39
831.09	14078.01
831.417	14075.07
831.743	14086.82
832.069	14132.02
832.395	14044.79
832.722	14085.69
833.048	14052.02
833.374	14044.33
833.7	13932.25
834.026	13949.42
834.351	13928.4
834.677	13891.12
835.003	13996.65
835.329	14001.17
835.654	13994.62
835.98	13826.03
836.306	13876.2
836.631	13796.43
836.956	13901.29
837.282	13840.27
837.607	13719.14
837.932	13840.72
838.258	13774.96
838.583	13822.87
838.908	13667.17
839.233	13741.29
839.558	13649.77
839.883	13652.71
840.208	13586.49
840.533	13635.31
840.858	13617.45
841.182	13541.3
841.507	13599.37
841.832	13485.25
842.156	13450.68
842.481	13459.04
842.805	13398.48
843.13	13372.94
843.454	13391.92
843.778	13303.34
844.103	13243.23
844.427	13255.43
844.751	13306.27
845.075	13257.91
845.399	13220.63
845.723	13165.04
846.047	13135.88
846.371	13099.95
846.695	12965.94
847.019	12983.57
847.343	12817.02
847.666	12809.56
847.99	12824.93
848.313	12763.01
848.637	12674.65
848.96	12677.82
849.284	12641.21
849.607	12505.62
849.931	12474.21
850.254	12484.15
850.577	12322.12
850.9	12294.1
851.223	12264.49
851.546	12181.33
851.869	12152.18
852.192	12173.87
852.515	12070.15
852.838	12052.75
853.161	12129.81
853.483	11934.11
853.806	11904.5
854.129	11928.23
854.451	11802.59
854.774	11845.52
855.096	11717.16
855.419	11758.52
855.741	11726.88
856.063	11687.56
856.385	11630.61
856.708	11595.13
857.03	11548.35
857.352	11570.05
857.674	11486.21
857.996	11464.29
858.318	11429.26
858.64	11403.27
858.961	11347
859.283	11311.52
859.605	11248.02
859.926	11314.91
860.248	11214.8
860.57	11230.85
860.891	11241.7
861.212	11207.35
861.534	11205.09
861.855	11014.13
862.176	11075.37
862.498	11082.38
862.819	11118.08
863.14	11036.73
863.461	11000.8
863.782	10957.18
864.103	11008.48
864.424	10942.95
864.745	10903.17
865.065	10935.72
865.386	10852.78
865.707	10878.54
866.027	10880.35
866.348	10866.79
866.668	10789.05
866.989	10833.57
867.309	10768.94
867.63	10706.12
867.95	10769.39
868.27	10633.58
868.59	10665.89
868.91	10694.14
869.23	10681.71
869.55	10661.6
869.87	10660.47
870.19	10571.21
870.51	10614.59
870.83	10633.35
871.15	10570.3
871.469	10526.69
871.789	10512.45
872.109	10536.18
872.428	10458.67
872.748	10520.13
873.067	10538.66
873.386	10472
873.706	10435.84
874.025	10413.47
874.344	10302.74
874.663	10391.77
874.982	10282.17
875.301	10374.6
875.62	10372.11
875.939	10342.96
876.258	10281.95
876.577	10183.87
876.896	10250.31
877.214	10287.37
877.533	10290.76
877.852	10172.8
878.17	10231.55
878.489	10138.67
878.807	10203.76
879.125	10172.12
879.444	10128.73
879.762	10141.61
880.08	10068.17
880.398	10048.28
880.716	10040.15
881.034	10006.93
881.352	9941.62
881.67	9975.51
881.988	9940.26
882.306	9947.27
882.624	9924.44
882.941	9906.36
883.259	9836.54
883.577	9834.95
883.894	9797.21
884.212	9782.3
884.529	9711.57
884.846	9728.74
885.164	9728.74
885.481	9759.48
885.798	9622.08
886.115	9551.57
886.432	9595.19
886.75	9651.46
887.067	9631.34
887.383	9586.15
887.7	9619.37
888.017	9444.91
888.334	9580.72
888.651	9473.15
888.967	9438.58
889.284	9385.7
889.6	9370.56
889.917	9415.3
890.233	9344.34
890.55	9392.25
890.866	9298.02
891.182	9275.19
891.498	9174.41
891.815	9244.69
892.131	9209.43
892.447	9167.17
892.763	9158.13
893.079	9042.43
893.395	9133.5
893.71	9079.94
894.026	9032.26
894.342	8981.42
894.657	8899.16
894.973	8944.58
895.289	8893.74
895.604	8917.46
895.92	8797.92
896.235	8779.16
896.55	8766.73
896.865	8750.24
897.181	8728.09
897.496	8722.89
897.811	8639.5
898.126	8649.67
898.441	8585.04
898.756	8635.66
899.071	8540.98
899.386	8489.23
899.7	8480.41
900.015	8487.64
900.33	8365.61
900.644	8339.17
900.959	8357.48
901.273	8347.08
901.588	8293.98
901.902	8220.76
902.216	8195.9
902.531	8199.29
902.845	8173.98
903.159	8073.19
903.473	8103.93
903.787	8144.15
904.101	8026.41
904.415	8033.64
904.729	7973.53
905.042	7952.06
905.356	7878.62
905.67	7899.18
905.984	7902.35
906.297	7873.2
906.611	7779.41
906.924	7807.66
907.237	7792.07
907.551	7711.17
907.864	7710.04
908.177	7701.45
908.491	7610.15
908.804	7561.57
909.117	7556.6
909.43	7555.24
909.743	7481.12
910.056	7433.21
910.368	7442.47
910.681	7397.28
910.994	7301.23
911.307	7298.07
911.619	7324.28
911.932	7292.2
912.244	7271.18
912.557	7186.89
912.869	7101.69
913.181	7114.8
913.494	7097.62
913.806	7065.76
914.118	7109.6
914.43	7055.14
914.742	7023.05
915.054	6992.54
915.366	6972.66
915.678	6893.11
915.99	6870.06
916.302	6858.76
916.613	6804.75
916.925	6796.62
917.236	6767.46
917.548	6688.37
917.859	6751.42
918.171	6699.67
918.482	6643.62
918.794	6599.56
919.105	6667.58
919.416	6591.87
919.727	6519.79
920.038	6501.93
920.349	6532.44
920.66	6453.8
920.971	6446.12
921.282	6406.57
921.593	6338.1
921.903	6408.38
922.214	6339.45
922.525	6334.48
922.835	6290.41
923.146	6228.04
923.456	6227.36
923.767	6202.51
924.077	6214.94
924.387	6141.49
924.697	6132.23
925.008	6147.59
925.318	6114.15
925.628	6090.19
925.938	6055.39
926.248	5975.62
926.558	5985.56
926.867	5991.44
927.177	5922.74
927.487	5958.22
927.796	5862.63
928.106	5875.28
928.416	5849.75
928.725	5875.28
929.034	5756.42
929.344	5795.51
929.653	5758.9
929.962	5694.95
930.271	5707.83
930.581	5647.94
930.89	5679.36
931.199	5639.13
931.508	5595.52
931.817	5602.52
932.125	5606.36
932.434	5578.57
932.743	5524.78
933.051	5506.48
933.36	5448.18
933.669	5439.59
933.977	5429.87
934.286	5402.53
934.594	5432.58
934.902	5365.69
935.21	5372.02
935.519	5352.13
935.827	5321.4
936.135	5273.04
936.443	5227.16
936.751	5269.88
937.059	5223.78
937.367	5205.92
937.674	5204.57
937.982	5186.26
938.29	5134.29
938.597	5149.2
938.905	5097.45
939.213	5065.81
939.52	5051.58
939.827	5040.28
940.135	4998.92
940.442	4985.82
940.749	4957.34
941.056	4964.35
941.363	4910.79
941.67	4895.2
941.977	4896.78
942.284	4858.13
942.591	4849.55
942.898	4818.36
943.205	4766.16
943.511	4782.66
943.818	4771.81
944.125	4718.48
944.431	4709.66
944.738	4708.08
945.044	4645.94
945.35	4652.72
945.657	4604.81
945.963	4576.79
946.269	4582.89
946.575	4584.02
946.881	4546.73
947.187	4529.33
947.493	4518.48
947.799	4492.27
948.105	4489.78
948.41	4447.52
948.716	4461.08
949.022	4414.98
949.327	4425.15
949.633	4382.44
949.938	4343.57
950.244	4351.93
950.549	4364.59
950.854	4275.78
951.16	4286.62
951.465	4249.34
951.77	4231.94
952.075	4199.17
952.38	4186.29
952.685	4190.13
952.99	4145.61
953.294	4170.24
953.599	4154.2
953.904	4114.43
954.209	4060.42
954.513	4090.02
954.818	4038.04
955.122	4031.49
955.426	4051.83
955.731	4015.45
956.035	3961.21
956.339	3942
956.643	3923.02
956.948	3948.33
957.252	3941.77
957.556	3892.28
957.86	3897.93
958.163	3877.82
958.467	3859.74
958.771	3858.16
959.075	3863.58
959.378	3839.18
959.682	3821.55
959.985	3802.12
960.289	3770.03
960.592	3698.39
960.896	3770.71
961.199	3704.72
961.502	3712.85
961.805	3711.05
962.108	3717.15
962.411	3648.22
962.714	3626.3
963.017	3644.16
963.32	3641.67
963.623	3589.24
963.926	3584.72
964.228	3546.98
964.531	3562.58
964.833	3534.1
965.136	3483.26
965.438	3515.8
965.741	3460.43
966.043	3501.56
966.345	3446.19
966.648	3441.68
966.95	3472.41
967.252	3407.1
967.554	3384.05
967.856	3408.91
968.158	3343.6
968.46	3387.44
968.761	3365.97
969.063	3305.63
969.365	3288.68
969.666	3316.25
969.968	3267.44
970.269	3287.1
970.571	3224.96
970.872	3283.26
971.174	3195.35
971.475	3229.25
971.776	3223.83
972.077	3164.39
972.378	3188.12
972.679	3185.18
972.98	3155.58
973.281	3121.46
973.582	3112.87
973.883	3092.98
974.183	3093.44
974.484	3100.67
974.785	3084.85
975.085	3088.01
975.386	3045.75
975.686	3034.91
975.986	2994.91
976.287	2988.81
976.587	2959.2
976.887	2984.96
977.187	2962.59
977.487	2945.87
977.787	2954
978.087	2896.83
978.387	2899.09
978.687	2915.36
978.987	2881.24
979.286	2797.85
979.586	2841.69
979.885	2843.05
980.185	2783.61
980.484	2845.31
980.784	2812.99
981.083	2788.13
981.382	2803.05
981.682	2755.59
981.981	2730.96
982.28	2719.66
982.579	2723.5
982.878	2710.39
983.177	2721.92
983.475	2712.65
983.774	2657.06
984.073	2655.03
984.372	2629.27
984.67	2641.47
984.969	2634.69
985.267	2622.94
985.566	2625.65
985.864	2570.29
986.162	2592.88
986.461	2547.91
986.759	2542.94
987.057	2555.37
987.355	2544.3
987.653	2527.35
987.951	2485.54
988.249	2491.19
988.547	2495.49
988.844	2465.66
989.142	2455.49
989.44	2441.7
989.737	2462.72
990.035	2426.11
990.332	2375.94
990.63	2385.88
990.927	2410.52
991.224	2401.02
991.521	2402.15
991.819	2345.66
992.116	2347.92
992.413	2339.56
992.71	2327.81
993.006	2311.76
993.303	2271.76
993.6	2328.03
993.897	2288.71
994.193	2301.14
994.49	2279.9
994.787	2274.47
995.083	2235.15
995.379	2236.73
995.676	2224.98
995.972	2184.76
996.268	2179.11
996.565	2199.22
996.861	2164.65
997.157	2182.05
997.453	2163.29
997.749	2142.5
998.044	2140.01
998.34	2142.95
998.636	2142.95
998.932	2062.05
999.227	2068.83
999.523	2084.42
999.818	2078.55
1000.114	2066.57
1000.409	2024.76
1000.704	2034.71
1001	2034.03
1001.295	1993.35
1001.59	1984.99
1001.885	1997.87
1002.18	1987.02
1002.475	2002.39
1002.77	1929.17
1003.065	1943.86
1003.359	1952.67
1003.654	1888.04
1003.949	1910.64
1004.243	1891.89
1004.538	1872
1004.832	1872.45
1005.127	1906.35
1005.421	1878.1
1005.715	1847.59
1006.009	1845.56
1006.304	1864.54
1006.598	1818.67
1006.892	1811.44
1007.186	1789.29
1007.48	1829.51
1007.773	1794.49
1008.067	1806.01
1008.361	1753.13
1008.655	1759.46
1008.948	1737.54
1009.242	1728.27
1009.535	1689.63
1009.829	1735.51
1010.122	1686.24
1010.415	1695.96
1010.708	1672.91
1011.001	1684.66
1011.295	1682.85
1011.588	1622.97
1011.881	1651.67
1012.173	1632.01
1012.466	1642.17
1012.759	1618.9
1013.052	1607.6
1013.344	1607.82
1013.637	1564.89
1013.93	1601.72
1014.222	1552.23
1014.514	1559.69
1014.807	1575.96
1015.099	1544.1
1015.391	1528.28
1015.683	1508.62
1015.976	1510.2
1016.268	1512.01
1016.56	1486.47
1016.851	1477.88
1017.143	1493.48
1017.435	1474.5
1017.727	1465.68
1018.018	1458.68
1018.31	1467.94
1018.602	1418.45
1018.893	1424.78
1019.185	1382.75
1019.476	1404.21
1019.767	1401.95
1020.058	1400.37
1020.35	1381.16
1020.641	1367.61
1020.932	1358.79
1021.223	1340.04
1021.514	1321.5
1021.804	1347.04
1022.095	1338.68
1022.386	1331.9
1022.677	1312.92
1022.967	1313.37
1023.258	1270.66
1023.548	1310.66
1023.839	1259.81
1024.129	1269.08
1024.419	1277.66
1024.709	1251.22
1025	1237.67
1025.29	1231.56
1025.58	1214.16
1025.87	1216.42
1026.16	1210.1
1026.449	1204.45
1026.739	1172.81
1027.029	1222.07
1027.319	1191.34
1027.608	1203.54
1027.898	1166.48
1028.187	1163.77
1028.477	1152.47
1028.766	1134.39
1029.055	1131.45
1029.344	1135.3
1029.634	1126.03
1029.923	1108.18
1030.212	1105.24
1030.501	1100.72
1030.79	1074.73
1031.078	1084.22
1031.367	1075.41
1031.656	1083.77
1031.945	1057.56
1032.233	1089.65
1032.522	1067.73
1032.81	1056.43
1033.099	1041.51
1033.387	1022.98
1033.675	1008.74
1033.963	1007.84
1034.251	1024.11
1034.54	1016.43
1034.828	1007.39
1035.116	1006.94
1035.403	979.14
1035.691	997.9
1035.979	972.36
1036.267	985.92
1036.554	965.13
1036.842	963.55
1037.129	955.41
1037.417	938.46
1037.704	949.09
1037.992	951.35
1038.279	926.03
1038.566	926.26
1038.853	926.26
1039.14	926.26
