Data from hue_160_FLMS001491_00091.txt Node
Date: Tue Feb 07 16:51:56 GMT 2017
User: dcchb
Spectrometer: FLMS00149
Trigger mode: 0
Integration Time (sec): 2.000000E-2
Scans to average: 10
Electric dark correction enabled: true
Nonlinearity correction enabled: false
Boxcar width: 0
XAxis mode: Wavelengths
Number of Pixels in Spectrum: 2048
>>>>>Begin Spectral Data<<<<<
341.393	-6.13
341.776	-6.13
342.16	-6.13
342.543	-68.28
342.927	-93.59
343.31	-65.11
343.693	-75.96
344.077	-69.86
344.46	-43.42
344.843	-72.79
345.226	-56.07
345.61	-23.53
345.993	-9.75
346.376	-27.15
346.759	14.66
347.142	22.8
347.525	62.12
347.908	56.92
348.291	81.1
348.674	99.18
349.057	106.86
349.44	129.46
349.823	164.49
350.206	159.74
350.588	189.35
350.971	204.71
351.354	215.11
351.737	238.16
352.119	247.42
352.502	274.77
352.884	251.04
353.267	279.96
353.65	286.52
354.032	282.68
354.414	293.3
354.797	302.56
355.179	326.74
355.562	314.31
355.944	315.44
356.326	337.59
356.709	318.83
357.091	336.91
357.473	328.55
357.855	323.81
358.238	345.73
358.62	335.1
359.002	332.17
359.384	354.99
359.766	334.88
360.148	335.56
360.53	333.97
360.912	344.14
361.294	331.71
361.676	312.96
362.057	323.35
362.439	331.49
362.821	338.49
363.203	326.29
363.584	329
363.966	318.61
364.348	307.76
364.729	334.2
365.111	321.55
365.493	305.5
365.874	312.51
366.256	336.91
366.637	302.79
367.019	322.22
367.4	309.57
367.781	314.54
368.163	309.57
368.544	321.32
368.925	317.7
369.306	312.28
369.688	302.34
370.069	310.02
370.45	309.34
370.831	311.38
371.212	309.12
371.593	308.66
371.974	313.64
372.355	297.59
372.736	313.41
373.117	322.68
373.498	303.69
373.879	312.96
374.26	309.34
374.641	316.57
375.021	312.96
375.402	318.61
375.783	312.73
376.163	333.3
376.544	312.05
376.925	323.81
377.305	318.83
377.686	310.25
378.066	285.39
378.447	322.9
378.827	324.48
379.208	323.35
379.588	317.48
379.968	347.53
380.349	348.21
380.729	341.66
381.109	332.62
381.489	313.41
381.87	330.36
382.25	336.91
382.63	308.66
383.01	344.82
383.39	332.39
383.77	338.49
384.15	339.85
384.53	342.34
384.91	345.73
385.29	354.76
385.67	348.21
386.049	359.06
386.429	335.1
386.809	362.67
387.189	333.97
387.568	340.08
387.948	345.95
388.328	358.61
388.707	358.15
389.087	339.4
389.466	364.93
389.846	369.45
390.225	373.52
390.605	358.38
390.984	339.4
391.363	343.69
391.743	383.46
392.122	369.91
392.501	377.59
392.881	369.91
393.26	350.02
393.639	373.97
394.018	362.67
394.397	388.21
394.776	372.84
395.155	380.3
395.534	389.57
395.913	378.04
396.292	383.46
396.671	383.69
397.05	387.08
397.429	384.59
397.808	373.52
398.186	400.64
398.565	372.39
398.944	401.32
399.323	388.66
399.701	388.89
400.08	403.58
400.458	425.72
400.837	396.57
401.215	370.81
401.594	405.61
401.972	415.1
402.351	415.55
402.729	416.23
403.107	408.55
403.486	406.51
403.864	417.81
404.242	424.37
404.62	400.64
404.999	427.76
405.377	423.24
405.755	407.19
406.133	408.1
406.511	436.8
406.889	439.51
407.267	423.01
407.645	423.46
408.023	424.37
408.401	442.67
408.779	444.03
409.156	463.91
409.534	448.32
409.912	451.49
410.29	443.12
410.667	469.79
411.045	441.09
411.422	466.4
411.8	458.49
412.178	472.73
412.555	458.94
412.933	495.1
413.31	500.07
413.687	491.26
414.065	472.73
414.442	488.55
414.819	505.95
415.197	511.6
415.574	478.38
415.951	502.56
416.328	499.85
416.705	488.55
417.082	510.69
417.46	512.05
417.837	529.68
418.214	484.03
418.591	519.51
418.967	517.02
419.344	526.29
419.721	524.7
420.098	529.9
420.475	513.63
420.852	541.88
421.228	567.41
421.605	531.48
421.982	547.75
422.358	538.71
422.735	567.64
423.111	565.38
423.488	571.93
423.864	579.39
424.241	559.05
424.617	576
424.994	592.5
425.37	587.75
425.746	568.32
426.123	610.8
426.499	616.23
426.875	614.19
427.251	589.11
427.627	598.37
428.003	628.66
428.379	635.89
428.756	627.98
429.132	640.63
429.507	657.36
429.883	644.47
430.259	654.19
430.635	675.21
431.011	638.37
431.387	640.63
431.763	678.82
432.138	682.67
432.514	652.84
432.89	683.57
433.265	704.81
433.641	695.55
434.016	703.46
434.392	747.07
434.767	721.53
435.143	752.95
435.518	763.57
435.894	741.65
436.269	750.01
436.644	755.66
437.02	766.05
437.395	758.37
437.77	790.46
438.145	783.68
438.52	772.15
438.895	816.22
439.271	784.13
439.646	816
440.021	829.1
440.395	792.95
440.77	814.64
441.145	826.62
441.52	829.55
441.895	825.71
442.27	833.62
442.645	845.6
443.019	865.03
443.394	860.06
443.769	869.55
444.143	855.09
444.518	902.09
444.892	907.97
445.267	897.8
445.641	903.45
446.016	919.5
446.39	922.21
446.764	938.7
447.139	914.52
447.513	932.6
447.887	919.95
448.262	934.18
448.636	946.39
449.01	956.56
449.384	944.58
449.758	968.76
450.132	962.66
450.506	1000.62
450.88	986.61
451.254	977.8
451.628	1004.24
452.002	989.1
452.376	1020.28
452.75	1027.97
453.123	1036.1
453.497	1027.74
453.871	1030.68
454.244	1075.65
454.618	1092.15
454.992	1080.85
455.365	1080.85
455.739	1107.97
456.112	1091.92
456.486	1160.17
456.859	1128.98
457.232	1159.94
457.606	1165.36
457.979	1161.52
458.352	1222.99
458.725	1224.57
459.099	1237
459.472	1266.38
459.845	1267.51
460.218	1272.71
460.591	1293.72
460.964	1316.55
461.337	1326.26
461.71	1347.73
462.083	1402.65
462.456	1391.12
462.829	1371.24
463.201	1432.02
463.574	1420.5
463.947	1446.04
464.32	1467.5
464.692	1474.28
465.065	1500.05
465.438	1519.03
465.81	1531.23
466.183	1582.98
466.555	1597.22
466.928	1633.15
467.3	1665.24
467.672	1686.48
468.045	1700.94
468.417	1694.16
468.789	1723.32
469.161	1726.03
469.534	1795.63
469.906	1834.05
470.278	1858
470.65	1896.87
471.022	1902.97
471.394	1962.63
471.766	2018.22
472.138	2026.59
472.51	2082.63
472.882	2136.19
473.253	2167.6
473.625	2190.42
473.997	2300.25
474.369	2287.37
474.74	2293.47
475.112	2384.99
475.484	2435.39
475.855	2511.09
476.227	2566.91
476.598	2659.56
476.97	2695.95
477.341	2766.45
477.713	2819.33
478.084	2876.51
478.455	2964.64
478.827	2999.44
479.198	3147.01
479.569	3186.33
479.94	3286.21
480.311	3340
480.682	3480.56
481.053	3571.63
481.424	3636.71
481.795	3697.5
482.166	3803.04
482.537	3882.13
482.908	3996.93
483.279	4095.68
483.65	4183.82
484.021	4361.89
484.391	4388.1
484.762	4462.45
485.133	4586.74
485.503	4680.07
485.874	4801.65
486.244	4937.24
486.615	5071.93
486.985	5182.21
487.356	5300.17
487.726	5404.12
488.097	5596.66
488.467	5666.94
488.837	5821.97
489.207	5951.45
489.578	6142.18
489.948	6201.16
490.318	6339.01
490.688	6384.21
491.058	6583.75
491.428	6697.65
491.798	6800.7
492.168	7028.49
492.538	7106.9
492.908	7217.41
493.278	7405.43
493.648	7456.72
494.017	7597.96
494.387	7709.15
494.757	7864.4
495.126	7996.37
495.496	8034.34
495.866	8164.5
496.235	8338.96
496.605	8396.59
496.974	8472.07
497.344	8646.3
497.713	8774.88
498.082	8798.16
498.452	8957.93
498.821	9060.07
499.19	9107.08
499.559	9227.3
499.928	9363.34
500.298	9396.11
500.667	9563.56
501.036	9604.01
501.405	9753.61
501.774	9666.38
502.143	9797
502.512	9898.24
502.88	10083.55
503.249	9991.12
503.618	10220.72
503.987	10255.75
504.356	10228.18
504.724	10436.76
505.093	10440.83
505.462	10432.47
505.83	10546.81
506.199	10647.38
506.567	10765.34
506.936	10781.38
507.304	10890.08
507.672	10885.34
508.041	11049.4
508.409	11102.96
508.777	11121.26
509.145	11203.29
509.514	11278.55
509.882	11332.1
510.25	11274.93
510.618	11363.51
510.986	11440.8
511.354	11452.78
511.722	11554.92
512.09	11621.59
512.458	11604.19
512.826	11735.03
513.193	11767.8
513.561	11752.66
513.929	11820.23
514.297	11967.34
514.664	11929.6
515.032	12010.28
515.4	12061.8
515.767	12051.63
516.135	12134.12
516.502	11933.9
516.869	12202.81
517.237	12198.07
517.604	12175.47
517.972	12244.17
518.339	12267.22
518.706	12287.33
519.073	12251.4
519.44	12362.13
519.808	12459.76
520.175	12394.45
520.542	12578.85
520.909	12539.3
521.276	12492.75
521.643	12585.4
522.009	12645.97
522.376	12703.37
522.743	12653.65
523.11	12687.1
523.477	12845.96
523.843	12804.83
524.21	12926.41
524.577	12986.97
524.943	12920.31
525.31	12945.62
525.676	13023.81
526.043	12990.36
526.409	13086.86
526.776	13052.28
527.142	13057.03
527.508	13024.04
527.874	13116.01
528.241	13143.58
528.607	13085.28
528.973	13202.56
529.339	13096.12
529.705	13279.17
530.071	13189
530.437	13211.6
530.803	13305.16
531.169	13239.17
531.535	13124.15
531.901	13128.67
532.267	13134.99
532.632	13096.35
532.998	13107.88
533.364	13129.12
533.73	13154.88
534.095	13165.5
534.461	13095.67
534.826	13174.09
535.192	13186.07
535.557	13069.68
535.923	12978.84
536.288	13086.18
536.653	13114.66
537.019	12988.1
537.384	13020.42
537.749	13094.09
538.114	12981.1
538.479	12904.49
538.845	12946.98
539.21	12883.93
539.575	12843.93
539.94	12812.74
540.305	12852.52
540.67	12807.32
541.034	12753.31
541.399	12753.31
541.764	12678.96
542.129	12729.58
542.494	12623.59
542.858	12538.85
543.223	12595.35
543.587	12617.95
543.952	12528.68
544.316	12546.76
544.681	12479.64
545.045	12475.58
545.41	12432.64
545.774	12333.66
546.138	12408.69
546.503	12358.97
546.867	12291.17
547.231	12351.96
547.595	12264.28
547.959	12286.88
548.324	12161.46
548.688	12190.16
549.052	12190.84
549.416	12194.45
549.779	12158.52
550.143	12004.18
550.507	12107.9
550.871	12090.28
551.235	12072.2
551.599	12051.18
551.962	12015.02
552.326	11971.63
552.689	11949.71
553.053	11832.43
553.417	11795.82
553.78	11961.92
554.143	11887.79
554.507	11819.55
554.87	11846.21
555.234	11864.52
555.597	11782.26
555.96	11752.88
556.323	11752.88
556.686	11739.1
557.05	11803.05
557.413	11762.6
557.776	11674.47
558.139	11688.48
558.502	11747.91
558.865	11719.21
559.228	11673.34
559.59	11669.72
559.953	11723.96
560.316	11763.28
560.679	11716.27
561.041	11719.21
561.404	11745.88
561.767	11819.1
562.129	11733.45
562.492	11770.51
562.854	11701.13
563.217	11680.57
563.579	11697.74
563.941	11803.05
564.304	11757.18
564.666	11758.76
565.028	11877.85
565.39	11749.72
565.753	11803.28
566.115	11763.73
566.477	11859.09
566.839	11773.45
567.201	11847.8
567.563	11848.47
567.925	11940.45
568.287	11861.13
568.648	11903.16
569.01	11978.87
569.372	11983.84
569.734	11907
570.095	12021.35
570.457	11951.3
570.819	11994.46
571.18	11991.75
571.542	11974.12
571.903	11997.4
572.265	12087.34
572.626	11979.54
572.987	12097.28
573.349	12092.31
573.71	12027.68
574.071	12135.7
574.432	12061.8
574.794	12209.59
575.155	12039.2
575.516	12118.98
575.877	12066.55
576.238	12071.97
576.599	12181.12
576.96	12146.77
577.32	12078.75
577.681	12286.2
578.042	12193.32
578.403	12187.45
578.763	12209.37
579.124	12152.87
579.485	12231.97
579.845	12197.62
580.206	12198.52
580.566	12234
580.927	12117.85
581.287	12199.2
581.648	12197.17
582.008	12222.7
582.368	12189.93
582.728	12171.4
583.089	12096.38
583.449	12163.72
583.809	12174.57
584.169	12217.5
584.529	12099.09
584.889	12109.94
585.249	12131.4
585.609	12115.81
585.969	12076.72
586.329	12111.29
586.688	12078.98
587.048	12024.51
587.408	12043.04
587.768	12059.54
588.127	12008.47
588.487	12038.98
588.846	12104.96
589.206	11936.38
589.565	11975.7
589.925	12075.36
590.284	11974.35
590.643	12015.7
591.003	12024.97
591.362	12056.83
591.721	12054.12
592.08	11985.87
592.44	12026.55
592.799	11993.1
593.158	11996.04
593.517	11969.6
593.876	11888.92
594.235	11953.1
594.593	11971.63
594.952	12014.57
595.311	11908.59
595.67	11931.18
596.029	12031.29
596.387	11959.21
596.746	11959.88
597.104	11915.59
597.463	11934.35
597.822	11994.68
598.18	11943.84
598.538	11976.61
598.897	11902.48
599.255	11818.87
599.613	12007.57
599.972	11902.03
600.33	11934.8
600.688	11837.17
601.046	11923.27
601.404	11965.08
601.762	11939.09
602.12	11889.15
602.478	11889.83
602.836	11872.88
603.194	11800.79
603.552	11824.29
603.91	11849.83
604.268	11859.77
604.625	11843.73
604.983	11928.02
605.341	11793.33
605.698	11938.41
606.056	11945.87
606.413	11939.09
606.771	11961.92
607.128	11935.93
607.485	11881.69
607.843	11988.58
608.2	11972.54
608.557	11998.98
608.914	11979.09
609.272	12073.1
609.629	12018.64
609.986	12091.41
610.343	12022.25
610.7	12074.68
611.057	12021.8
611.414	12032.42
611.771	12010.28
612.127	12131.18
612.484	12055.47
612.841	12120.56
613.198	12062.25
613.554	12076.94
613.911	12108.13
614.267	12114.91
614.624	12121.46
614.98	12056.38
615.337	12205.53
615.693	12094.79
616.05	12185.19
616.406	12143.38
616.762	12147.67
617.118	12142.03
617.475	12129.37
617.831	12191.74
618.187	12165.53
618.543	12243.49
618.899	12289.14
619.255	12215.7
619.611	12211.63
619.967	12281.91
620.323	12269.25
620.678	12265.64
621.034	12241.01
621.39	12193.55
621.746	12204.4
622.101	12362.13
622.457	12230.16
622.812	12159.65
623.168	12254.11
623.523	12260.21
623.879	12312.64
624.234	12307.9
624.589	12232.19
624.945	12269.93
625.3	12273.32
625.655	12290.72
626.01	12321.23
626.365	12307.44
626.72	12294.34
627.075	12276.03
627.43	12245.07
627.785	12225.86
628.14	12251.85
628.495	12207.56
628.85	12198.97
629.205	12114
629.559	12223.83
629.914	12177.96
630.269	12168.92
630.623	12184.28
630.978	12149.93
631.332	12176.37
631.687	12212.53
632.041	12119.65
632.396	12104.29
632.75	12090.95
633.104	12070.16
633.459	12030.39
633.813	12023.61
634.167	12052.08
634.521	12113.78
634.875	12084.4
635.229	11991.29
635.583	11905.65
635.937	11954.91
636.291	11958.75
636.645	12005.08
636.999	11929.38
637.352	11944.74
637.706	11871.3
638.06	11983.39
638.413	11905.2
638.767	11912.65
639.121	11911.97
639.474	11869.49
639.828	11873.33
640.181	11831.53
640.534	11803.28
640.888	11852.77
641.241	11780.45
641.594	11718.76
641.947	11750.4
642.301	11718.53
642.654	11754.69
643.007	11761.92
643.36	11730.74
643.713	11617.75
644.066	11758.98
644.419	11624.3
644.771	11599.21
645.124	11433.57
645.477	11424.53
645.83	11406.23
646.182	11347.47
646.535	11390.86
646.888	11378.43
647.24	11291.65
647.593	11343.63
647.945	11311.09
648.298	11327.58
648.65	11274.7
649.002	11264.99
649.355	11307.47
649.707	11357.87
650.059	11338.66
650.411	11530.06
650.763	11515.15
651.115	11604.86
651.467	11605.32
651.819	11587.92
652.171	11535.49
652.523	11534.36
652.875	11552.44
653.227	11491.42
653.578	11648.71
653.93	11556.73
654.282	11502.49
654.633	11493.91
654.985	11447.35
655.337	11499.33
655.688	11483.74
656.039	11622.27
656.391	11517.41
656.742	11469.73
657.094	11529.16
657.445	11542.49
657.796	11558.31
658.147	11517.86
658.498	11528.93
658.849	11530.29
659.2	11482.61
659.551	11550.63
659.902	11595.6
660.253	11588.14
660.604	11595.15
660.955	11508.82
661.306	11582.72
661.656	11588.82
662.007	11598.76
662.358	11564.41
662.708	11631.53
663.059	11561.93
663.409	11450.97
663.76	11604.41
664.11	11624.3
664.461	11587.24
664.811	11541.59
665.161	11580.23
665.511	11570.06
665.862	11509.5
666.212	11549.27
666.562	11650.51
666.912	11584.07
667.262	11574.58
667.612	11601.93
667.962	11570.74
668.312	11541.36
668.662	11571.87
669.011	11584.07
669.361	11600.34
669.711	11531.65
670.06	11517.86
670.41	11501.14
670.76	11559.89
671.109	11558.76
671.459	11489.16
671.808	11561.48
672.157	11533.68
672.507	11513.12
672.856	11464.08
673.205	11509.95
673.554	11598.54
673.904	11490.29
674.253	11532.1
674.602	11453
674.951	11374.81
675.3	11269.73
675.649	11455.49
675.998	11487.58
676.346	11437.86
676.695	11501.59
677.044	11408.94
677.393	11380.24
677.741	11425.21
678.09	11358.77
678.438	11302.27
678.787	11351.99
679.135	11353.8
679.484	11319.9
679.832	11315.38
680.181	11281.26
680.529	11262.05
680.877	11209.62
681.225	11244.65
681.573	11312.44
681.922	11098.66
682.27	11154.25
682.618	11153.58
682.966	11159.45
683.314	11185.21
683.661	11063.18
684.009	11050.75
684.357	10947.25
684.705	10965.79
685.053	11013.02
685.4	11009.17
685.748	10955.39
686.095	10889.18
686.443	10842.4
686.79	10884.88
687.138	10870.87
687.485	10910.19
687.832	10822.29
688.18	10794.04
688.527	10787.26
688.874	10774.6
689.221	10734.15
689.568	10678.11
689.915	10668.39
690.262	10683.98
690.609	10611.67
690.956	10571.45
691.303	10568.96
691.65	10448.96
691.997	10523.54
692.344	10426.36
692.69	10334.16
693.037	10407.16
693.383	10290.1
693.73	10332.58
694.077	10254.39
694.423	10270.66
694.769	10235.18
695.116	10138.69
695.462	10185.47
695.808	10071.35
696.155	10084
696.501	10060.72
696.847	10017.34
697.193	9898.47
697.539	9933.95
697.885	9884.68
698.231	9846.72
698.577	9830.22
698.923	9826.61
699.269	9786.61
699.614	9666.84
699.96	9684.69
700.306	9683.11
700.651	9630.45
700.997	9632.26
701.342	9578.48
701.688	9587.74
702.033	9512.72
702.379	9462.32
702.724	9427.29
703.069	9454.64
703.415	9380.97
703.76	9368.09
704.105	9311.14
704.45	9269.33
704.795	9238.15
705.14	9216
705.485	9265.26
705.83	9169.45
706.175	9248.54
706.52	9226.85
706.865	9124.03
707.209	9074.08
707.554	9063.46
707.899	9090.13
708.243	8966.06
708.588	8996.57
708.932	8975.1
709.277	8899.62
709.621	8920.87
709.966	8927.42
710.31	8910.25
710.654	8775.79
710.998	8764.71
711.342	8799.51
711.687	8724.71
712.031	8824.37
712.375	8694.88
712.719	8717.48
713.063	8726.3
713.407	8742.57
713.75	8620.08
714.094	8634.1
714.438	8595.9
714.782	8714.54
715.125	8565.17
715.469	8616.02
715.812	8553.65
716.156	8464.61
716.499	8555.68
716.843	8531.05
717.186	8493.31
717.53	8523.14
717.873	8448.11
718.216	8464.61
718.559	8484.04
718.902	8393.65
719.246	8365.18
719.589	8395.01
719.932	8326.98
720.275	8358.85
720.617	8388.23
720.96	8339.64
721.303	8364.05
721.646	8317.27
721.989	8306.19
722.331	8333.99
722.674	8312.97
723.016	8344.61
723.359	8253.09
723.701	8281.34
724.044	8257.38
724.386	8254.9
724.729	8241.56
725.071	8228.68
725.413	8231.62
725.755	8228
726.097	8209.47
726.439	8166.99
726.782	8190.72
727.124	8296.93
727.465	8240.21
727.807	8150.49
728.149	8139.64
728.491	8153.66
728.833	8181
729.175	8173.09
729.516	8119.31
729.858	8168.34
730.199	8152.07
730.541	8182.58
730.882	8105.3
731.224	8147.78
731.565	8151.85
731.906	8108.46
732.248	8117.05
732.589	8103.26
732.93	8129.02
733.271	8167.67
733.612	8179.64
733.953	8136.03
734.294	8123.6
734.635	8075.69
734.976	8170.83
735.317	8117.5
735.658	8110.27
735.999	8094.22
736.339	8124.5
736.68	8122.47
737.021	8149.59
737.361	8103.94
737.702	8214.45
738.042	8138.74
738.383	8132.64
738.723	8156.14
739.063	8171.73
739.404	8187.55
739.744	8177.16
740.084	8194.11
740.424	8240.66
740.764	8147.33
741.104	8261.68
741.444	8206.31
741.784	8244.27
742.124	8235.01
742.464	8266.2
742.804	8200.89
743.143	8267.78
743.483	8334.67
743.823	8286.76
744.162	8338.51
744.502	8398.85
744.841	8404.27
745.181	8467.55
745.52	8412.18
745.86	8469.35
746.199	8443.82
746.538	8525.17
746.877	8644.26
747.216	8610.82
747.556	8677.26
747.895	8763.58
748.234	8683.81
748.573	8790.7
748.911	8851.49
749.25	8897.82
749.589	8936.46
749.928	9018.49
750.267	9142.1
750.605	9090.35
750.944	9194.31
751.283	9242.44
751.621	9348.43
751.96	9402.44
752.298	9447.18
752.636	9641.3
752.975	9655.76
753.313	9700.73
753.651	9905.25
753.989	9945.25
754.327	10098.46
754.666	10089.65
755.004	10251
755.342	10383.2
755.679	10528.51
756.017	10566.7
756.355	10784.32
756.693	10860.25
757.031	11010.3
757.368	11073.13
757.706	11271.09
758.044	11355.15
758.381	11525.77
758.719	11617.07
759.056	11852.54
759.394	12012.31
759.731	12112.87
760.068	12299.54
760.405	12390.61
760.743	12516.93
761.08	12763.25
761.417	12815.45
761.754	13030.36
762.091	13110.81
762.428	13286.4
762.765	13335.89
763.102	13640.52
763.438	13734.3
763.775	13835.09
764.112	14116.44
764.449	14265.36
764.785	14307.62
765.122	14368.63
765.458	14591.9
765.795	14742.18
766.131	14900.82
766.467	15029.18
766.804	15157.09
767.14	15279.8
767.476	15424.88
767.812	15437.53
768.148	15671.65
768.485	15716.85
768.821	15838.88
769.157	15914.81
769.492	16097.85
769.828	16209.49
770.164	16250.17
770.5	16402.93
770.836	16618.97
771.171	16592.08
771.507	16733.32
771.842	16756.82
772.178	16876.82
772.513	16891.96
772.849	17020.99
773.184	17069.81
773.519	17232.96
773.855	17169.69
774.19	17339.4
774.525	17452.17
774.86	17410.14
775.195	17537.59
775.53	17597.93
775.865	17573.07
776.2	17581.66
776.535	17564.48
776.87	17599.73
777.205	17761.99
777.539	17666.17
777.874	17816.23
778.209	17834.76
778.543	17865.72
778.878	17768.77
779.212	17855.55
779.547	17869.56
779.881	17983.45
780.215	17860.29
780.55	17987.97
780.884	17925.83
781.218	17956.34
781.552	17927.18
781.886	17945.94
782.22	17966.28
782.554	17961.99
782.888	17775.78
783.222	17847.64
783.556	17771.71
783.889	17816.68
784.223	17757.47
784.557	17778.71
784.89	17799.96
785.224	17777.81
785.557	17790.01
785.891	17755.44
786.224	17774.65
786.558	17858.71
786.891	17666.85
787.224	17639.96
787.557	17583.24
787.891	17610.13
788.224	17616.23
788.557	17662.33
788.89	17646.06
789.223	17722.9
789.556	17584.37
789.888	17590.24
790.221	17558.38
790.554	17492.39
790.887	17367.88
791.219	17419.63
791.552	17319.74
791.884	17326.52
792.217	17296.47
792.549	17321.78
792.882	17179.86
793.214	17183.7
793.546	17229.58
793.879	17138.73
794.211	17051.95
794.543	17104.83
794.875	17088.79
795.207	17114.55
795.539	17037.72
795.871	16984.16
796.203	16926.08
796.535	16812.41
796.867	16738.51
797.198	16804.95
797.53	16796.59
797.862	16627.78
798.193	16725.18
798.525	16562.47
798.856	16609.93
799.188	16455.13
799.519	16432.08
799.85	16394.57
800.182	16397.28
800.513	16381.46
800.844	16288.58
801.175	16364.51
801.506	16345.3
801.837	16259.66
802.168	16211.07
802.499	16246.78
802.83	16085.88
803.161	16155.03
803.491	16167
803.822	16036.61
804.153	15958.42
804.483	15922.94
804.814	15814.92
805.145	15925.2
805.475	15865.32
805.805	15837.52
806.136	15796.62
806.466	15696.73
806.796	15758.2
807.126	15725.66
807.457	15636.85
807.787	15552.78
808.117	15550.3
808.447	15535.38
808.777	15574.93
809.107	15461.03
809.436	15450.41
809.766	15407.7
810.096	15353.24
810.426	15247.71
810.755	15348.72
811.085	15206.13
811.414	15282.51
811.744	15160.48
812.073	15150.76
812.403	15124.55
812.732	15088.39
813.061	15022.63
813.39	14996.19
813.719	14927.71
814.049	15048.16
814.378	14996.87
814.707	14921.61
815.036	14911.67
815.365	14839.58
815.693	14675.74
816.022	14789.41
816.351	14747.61
816.68	14614.95
817.008	14775.85
817.337	14530.66
817.665	14611.56
817.994	14654.5
818.322	14620.15
818.651	14542.19
818.979	14524.79
819.307	14474.17
819.636	14539.25
819.964	14533.37
820.292	14506.26
820.62	14464.9
820.948	14410.89
821.276	14405.47
821.604	14413.6
821.932	14455.64
822.259	14466.71
822.587	14400.72
822.915	14376.32
823.243	14463.32
823.57	14408.18
823.898	14349.42
824.225	14263.78
824.553	14417.45
824.88	14390.1
825.207	14416.32
825.535	14369.99
825.862	14418.58
826.189	14414.28
826.516	14455.86
826.843	14406.37
827.17	14374.51
827.497	14403.89
827.824	14400.05
828.151	14475.3
828.478	14431
828.805	14494.51
829.131	14382.64
829.458	14361.18
829.785	14328.63
830.111	14408.18
830.438	14421.74
830.764	14408.63
831.09	14408.63
831.417	14364.34
831.743	14377.45
832.069	14421.06
832.395	14317.34
832.722	14464.9
833.048	14294.06
833.374	14297
833.7	14295.87
834.026	14316.66
834.351	14248.86
834.677	14312.59
835.003	14345.58
835.329	14278.24
835.654	14227.62
835.98	14177
836.306	14276.43
836.631	14148.75
836.956	14261.07
837.282	14243.21
837.607	14132.71
837.932	14080.73
838.258	14139.94
838.583	14132.26
838.908	14067.62
839.233	14059.72
839.558	14089.32
839.883	14007.74
840.208	13902.21
840.533	13862.43
840.858	13932.03
841.182	13911.7
841.507	13914.18
841.832	13832.6
842.156	13763
842.481	13794.19
842.805	13710.12
843.13	13767.07
843.454	13777.01
843.778	13624.47
844.103	13623.34
844.427	13633.06
844.751	13624.47
845.075	13599.84
845.399	13478.04
845.723	13405.49
846.047	13383.35
846.371	13280.07
846.695	13352.16
847.019	13224.93
847.343	13220.87
847.666	13159.17
847.99	13020.19
848.313	13092.28
848.637	12975.45
848.96	12949.91
849.284	12958.05
849.607	12855.68
849.931	12835.57
850.254	12659.3
850.577	12699.98
850.9	12583.6
851.223	12553.54
851.546	12551.96
851.869	12443.26
852.192	12543.14
852.515	12307.22
852.838	12339.53
853.161	12337.95
853.483	12337.95
853.806	12219.54
854.129	12168.24
854.451	12141.35
854.774	12125.08
855.096	12137.28
855.419	11978.87
855.741	11933.22
856.063	11936.83
856.385	11902.71
856.708	11830.85
857.03	11768.48
857.352	11789.27
857.674	11662.04
857.996	11682.38
858.318	11682.15
858.64	11693.68
858.961	11619.1
859.283	11589.05
859.605	11512.44
859.926	11543.17
860.248	11547.46
860.57	11428.6
860.891	11460.91
861.212	11453.68
861.534	11363.51
861.855	11345.44
862.176	11382.27
862.498	11360.58
862.819	11366.9
863.14	11279.68
863.461	11256.17
863.782	11192.9
864.103	11315.83
864.424	11237.42
864.745	11277.87
865.065	11096.18
865.386	11158.77
865.707	11124.88
866.027	11096.4
866.348	11054.82
866.668	10973.92
866.989	11043.52
867.309	10996.97
867.63	11087.14
867.95	11018.21
868.27	10935.28
868.59	10930.53
868.91	10890.08
869.23	10885.34
869.55	10848.95
869.87	10933.02
870.19	10903.41
870.51	10831.1
870.83	10869.06
871.15	10818.9
871.469	10794.26
871.789	10815.28
872.109	10782.74
872.428	10653.02
872.748	10735.06
873.067	10662.74
873.386	10662.97
873.706	10687.83
874.025	10574.38
874.344	10550.43
874.663	10533.93
874.982	10539.58
875.301	10565.12
875.62	10481.05
875.939	10521.73
876.258	10563.76
876.577	10513.14
876.896	10479.02
877.214	10425.23
877.533	10430.88
877.852	10437.21
878.17	10423.88
878.489	10419.13
878.807	10356.99
879.125	10368.74
879.444	10392.01
879.762	10348.63
880.08	10369.42
880.398	10286.48
880.716	10296.65
881.034	10246.48
881.352	10281.96
881.67	10212.58
881.988	10168.07
882.306	10196.31
882.624	10194.73
882.941	10112.7
883.259	10102.98
883.577	10067.28
883.894	10094.62
884.212	10023.66
884.529	10006.26
884.846	10018.24
885.164	9953.38
885.481	9927.17
885.798	9941.86
886.115	9850.33
886.432	9935.76
886.75	9884.91
887.067	9848.75
887.383	9810.79
887.7	9817.34
888.017	9675.88
888.334	9783.9
888.651	9622.54
888.967	9672.94
889.284	9790
889.6	9625.93
889.917	9587.52
890.233	9574.86
890.55	9499.16
890.866	9540.74
891.182	9451.02
891.498	9518.14
891.815	9457.58
892.131	9407.18
892.447	9318.82
892.763	9336.9
893.079	9278.6
893.395	9298.03
893.71	9318.82
894.026	9246.73
894.342	9242.21
894.657	9186.62
894.973	9147.3
895.289	9063.69
895.604	9123.12
895.92	9031.15
896.235	8939.4
896.55	8973.3
896.865	9008.32
897.181	8970.81
897.496	8972.84
897.811	8926.74
898.126	8854.65
898.441	8797.25
898.756	8799.51
899.071	8728.56
899.386	8729.46
899.7	8659.41
900.015	8585.96
900.33	8574.44
900.644	8586.64
900.959	8613.53
901.273	8452.18
901.588	8538.96
901.902	8439.3
902.216	8400.88
902.531	8437.26
902.845	8343.03
903.159	8333.54
903.473	8256.48
903.787	8256.48
904.101	8256.03
904.415	8244.5
904.729	8166.08
905.042	8171.73
905.356	8088.8
905.67	8078.86
905.984	8048.35
906.297	8073.21
906.611	8004.06
906.924	7988.01
907.237	7941.23
907.551	7907.33
907.864	7843.16
908.177	7886.77
908.491	7800.44
908.804	7827.56
909.117	7767
909.43	7755.47
909.743	7648.81
910.056	7631.18
910.368	7631.18
910.681	7616.04
910.994	7521.58
911.307	7556.84
911.619	7473.45
911.932	7481.81
912.244	7394.58
912.557	7423.28
912.869	7346.45
913.181	7317.29
913.494	7274.36
913.806	7320.91
914.118	7239.78
914.43	7211.31
914.742	7259.44
915.054	7155.94
915.366	7133.34
915.678	7065.55
915.99	7097.41
916.302	6989.17
916.613	6948.49
916.925	6966.12
917.236	6941.94
917.548	6871.66
917.859	6877.98
918.171	6840.02
918.482	6829.62
918.794	6767.93
919.105	6771.09
919.416	6755.73
919.727	6703.98
920.038	6705.11
920.349	6701.26
920.66	6604.09
920.971	6655.16
921.282	6597.31
921.593	6567.26
921.903	6559.8
922.214	6569.29
922.525	6447.94
922.835	6473.93
923.146	6428.05
923.456	6382.4
923.767	6377.66
924.077	6367.71
924.387	6318.68
924.697	6250.88
925.008	6271.9
925.318	6281.61
925.628	6219.02
925.938	6234.38
926.248	6190.09
926.558	6155.74
926.867	6125.69
927.177	6081.17
927.487	6068.29
927.796	6049.98
928.106	6081.39
928.416	5996.65
928.725	5984.67
929.034	5925.47
929.344	5971.11
929.653	5869.42
929.962	5842.53
930.271	5856.77
930.581	5820.61
930.89	5806.37
931.199	5807.5
931.508	5798.69
931.817	5760.95
932.125	5731.12
932.434	5720.05
932.743	5637.11
933.051	5653.16
933.36	5571.58
933.669	5565.02
933.977	5605.47
934.286	5580.39
934.594	5581.29
934.902	5502.65
935.21	5462.88
935.519	5482.77
935.827	5430.56
936.135	5435.76
936.443	5381.75
936.751	5376.55
937.059	5382.2
937.367	5340.62
937.674	5328.42
937.982	5278.25
938.29	5272.6
938.597	5233.28
938.905	5200.96
939.213	5165.71
939.52	5172.94
939.827	5162.32
940.135	5197.12
940.442	5079.16
940.749	5069.67
941.056	5087.3
941.363	5029.22
941.67	5050.23
941.977	4973.17
942.284	4964.59
942.591	4954.87
942.898	4979.5
943.205	4908.77
943.511	4874.42
943.818	4841.88
944.125	4797.36
944.431	4817.47
944.738	4778.38
945.044	4804.37
945.35	4744.25
945.657	4705.61
945.963	4691.83
946.269	4713.07
946.575	4713.52
946.881	4637.14
947.187	4596.91
947.493	4647.31
947.799	4631.94
948.105	4554.88
948.41	4560.53
948.716	4542.68
949.022	4501.77
949.327	4527.54
949.633	4500.87
949.938	4472.62
950.244	4443.47
950.549	4435.11
950.854	4399.4
951.16	4402.34
951.465	4356.02
951.77	4322.57
952.075	4356.24
952.38	4309.24
952.685	4305.17
952.99	4274.89
953.294	4262.46
953.599	4240.99
953.904	4243.25
954.209	4205.06
954.513	4222.69
954.818	4141.56
955.122	4173.2
955.426	4109.24
955.731	4114.21
956.035	4121.22
956.339	4069.47
956.643	4088.45
956.948	4039.41
957.252	4012.52
957.556	4007.78
957.86	3987.44
958.163	3977.95
958.467	3934.11
958.771	3939.98
959.075	3947.89
959.378	3910.83
959.682	3924.16
959.985	3865.18
960.289	3877.16
960.592	3845.52
960.896	3857.72
961.199	3836.26
961.502	3817.05
961.805	3749.93
962.108	3755.58
962.411	3760.32
962.714	3756.03
963.017	3710.38
963.32	3705.41
963.623	3671.97
963.926	3662.93
964.228	3688.01
964.531	3623.61
964.833	3641.01
965.136	3609.14
965.438	3568.47
965.741	3549.71
966.043	3561.46
966.345	3519.65
966.648	3553.55
966.95	3514.46
967.252	3482.59
967.554	3457.06
967.856	3489.6
968.158	3408.92
968.46	3414.12
968.761	3408.7
969.063	3421.35
969.365	3398.3
969.666	3366.44
969.968	3364.4
970.269	3353.78
970.571	3346.1
970.872	3302.03
971.174	3335.7
971.475	3304.74
971.776	3240.56
972.077	3265.2
972.378	3226.78
972.679	3229.72
972.98	3221.36
973.281	3193.56
973.582	3201.02
973.883	3151.3
974.183	3189.49
974.484	3188.36
974.785	3144.97
975.085	3152.21
975.386	3121.92
975.686	3113.56
975.986	3080.34
976.287	3064.3
976.587	3026.56
976.887	3057.07
977.187	3070.4
977.487	3055.94
977.787	2963.74
978.087	2977.07
978.387	2954.24
978.687	2971.87
978.987	2951.76
979.286	2917.64
979.586	2919.89
979.885	2921.48
980.185	2911.08
980.484	2915.38
980.784	2857.52
981.083	2857.07
981.382	2853
981.682	2835.6
981.981	2797.41
982.28	2801.25
982.579	2810.07
982.878	2798.09
983.177	2769.16
983.475	2795.83
983.774	2767.36
984.073	2747.7
984.372	2703.63
984.67	2707.25
984.969	2725.55
985.267	2677.19
985.566	2686.23
985.864	2683.52
986.162	2637.42
986.461	2618.89
986.759	2624.99
987.057	2597.19
987.355	2607.36
987.653	2597.87
987.951	2576.4
988.249	2554.48
988.547	2570.07
988.844	2534.14
989.142	2527.36
989.44	2502.96
989.737	2485.56
990.035	2477.65
990.332	2486.46
990.63	2484.88
990.927	2476.52
991.224	2463.41
991.521	2432.22
991.819	2458.66
992.116	2405.33
992.413	2395.16
992.71	2408.72
993.006	2366.69
993.303	2372.34
993.6	2368.5
993.897	2345.22
994.193	2354.03
994.49	2310.19
994.787	2328.27
995.083	2336.18
995.379	2279.69
995.676	2290.31
995.972	2271.1
996.268	2257.99
996.565	2253.7
996.861	2251.66
997.157	2262.06
997.453	2251.66
997.749	2205.79
998.044	2194.26
998.34	2192.91
998.636	2162.63
998.932	2181.38
999.227	2135.51
999.523	2133.7
999.818	2099.35
1000.114	2116.75
1000.409	2098
1000.704	2074.04
1001	2058.45
1001.295	2063.19
1001.59	2071.33
1001.885	2058.67
1002.18	2053.03
1002.475	2019.13
1002.77	2029.07
1003.065	2009.64
1003.359	1983.87
1003.654	1954.04
1003.949	1964.21
1004.243	1959.24
1004.538	1927.83
1004.832	1942.29
1005.127	1926.25
1005.421	1908.17
1005.715	1888.96
1006.009	1912.92
1006.304	1906.36
1006.598	1861.62
1006.892	1883.09
1007.186	1862.75
1007.48	1874.95
1007.773	1826.59
1008.067	1823.43
1008.361	1806.03
1008.655	1816.42
1008.948	1791.11
1009.242	1773.94
1009.535	1756.08
1009.829	1761.96
1010.122	1724.45
1010.415	1750.43
1010.708	1745.46
1011.001	1727.61
1011.295	1707.5
1011.588	1712.24
1011.881	1711.11
1012.173	1700.04
1012.466	1653.71
1012.759	1653.49
1013.052	1645.58
1013.344	1638.57
1013.637	1619.82
1013.93	1643.32
1014.222	1604.22
1014.514	1609.65
1014.807	1598.12
1015.099	1571.46
1015.391	1591.79
1015.683	1599.25
1015.976	1562.42
1016.268	1554.73
1016.56	1562.42
1016.851	1515.86
1017.143	1489.65
1017.435	1507.5
1017.727	1522.87
1018.018	1501.85
1018.31	1481.51
1018.602	1490.55
1018.893	1489.65
1019.185	1485.58
1019.476	1439.03
1019.767	1451.68
1020.058	1450.33
1020.35	1417.11
1020.641	1395.42
1020.932	1410.56
1021.223	1397.68
1021.514	1371.69
1021.804	1367.17
1022.095	1365.36
1022.386	1368.75
1022.677	1356.09
1022.967	1350.9
1023.258	1338.47
1023.548	1309.99
1023.839	1314.29
1024.129	1307.96
1024.419	1283.78
1024.709	1279.49
1025	1260.96
1025.29	1277.45
1025.58	1262.09
1025.87	1220.96
1026.16	1244.46
1026.449	1248.53
1026.739	1235.19
1027.029	1200.39
1027.319	1211.92
1027.608	1194.74
1027.898	1193.16
1028.187	1207.85
1028.477	1198.13
1028.766	1160.62
1029.055	1174.18
1029.344	1157.23
1029.634	1173.05
1029.923	1134.63
1030.212	1137.34
1030.501	1130.34
1030.79	1123.78
1031.078	1128.76
1031.367	1128.3
1031.656	1122.88
1031.945	1087.85
1032.233	1072.03
1032.522	1070.45
1032.81	1065.03
1033.099	1061.64
1033.387	1062.09
1033.675	1049.21
1033.963	1030
1034.251	1060.96
1034.54	1029.78
1034.828	1039.49
1035.116	1017.12
1035.403	1039.94
1035.691	1013.73
1035.979	1007.4
1036.267	988.87
1036.554	983.22
1036.842	981.19
1037.129	982.32
1037.417	975.54
1037.704	943.68
1037.992	961.53
1038.279	944.13
1038.566	963.56
1038.853	963.56
1039.14	963.56
