Data from hue_40_FLMS001491_30.txt Node
Date: Mon Feb 06 15:07:41 GMT 2017
User: dcchb
Spectrometer: FLMS00149
Trigger mode: 0
Integration Time (sec): 2.000000E-2
Scans to average: 10
Electric dark correction enabled: true
Nonlinearity correction enabled: false
Boxcar width: 0
XAxis mode: Wavelengths
Number of Pixels in Spectrum: 2048
>>>>>Begin Spectral Data<<<<<
341.393	1.98
341.776	1.98
342.16	1.98
342.543	-80.05
342.927	-57.23
343.31	-64.01
343.693	-64.46
344.077	-66.95
344.46	-64.01
344.843	-61.52
345.226	-36.44
345.61	-26.5
345.993	-8.19
346.376	-12.03
346.759	7.85
347.142	31.81
347.525	18.93
347.908	42.65
348.291	78.36
348.674	93.27
349.057	131.24
349.44	152.48
349.823	146.83
350.206	163.33
350.588	196.55
350.971	201.29
351.354	230.9
351.737	228.64
352.119	247.39
352.502	276.32
352.884	266.6
353.267	279.94
353.65	311.12
354.032	305.47
354.414	300.95
354.797	293.27
355.179	329.88
355.562	329.65
355.944	328.75
356.326	336.66
356.709	333.49
357.091	329.2
357.473	347.05
357.855	359.26
358.238	324.23
358.62	336.21
359.002	332.82
359.384	344.57
359.766	349.99
360.148	338.47
360.53	357.45
360.912	331.46
361.294	358.35
361.676	332.14
362.057	340.73
362.439	331.23
362.821	309.77
363.203	344.57
363.584	333.49
363.966	319.26
364.348	322.42
364.729	338.47
365.111	340.05
365.493	331.69
365.874	335.3
366.256	332.14
366.637	306.83
367.019	321.74
367.4	334.62
367.781	344.34
368.163	308.86
368.544	312.48
368.925	310.67
369.306	321.74
369.688	341.18
370.069	314.06
370.45	332.82
370.831	324
371.212	304.79
371.593	310.22
371.974	307.28
372.355	314.51
372.736	333.49
373.117	321.74
373.498	322.65
373.879	328.75
374.26	305.92
374.641	317
375.021	321.29
375.402	344.34
375.783	324.68
376.163	332.59
376.544	339.6
376.925	307.28
377.305	345.02
377.686	347.28
378.066	338.69
378.447	349.54
378.827	352.7
379.208	340.27
379.588	345.92
379.968	314.51
380.349	352.48
380.729	353.15
381.109	342.31
381.489	351.12
381.87	359.71
382.25	337.79
382.63	353.38
383.01	341.4
383.39	341.86
383.77	332.59
384.15	318.13
384.53	359.71
384.91	341.4
385.29	332.82
385.67	357.67
386.049	362.87
386.429	345.47
386.809	367.39
387.189	353.83
387.568	361.74
387.948	353.83
388.328	364.91
388.707	368.75
389.087	352.93
389.466	366.71
389.846	395.41
390.225	366.71
390.605	357
390.984	375.07
391.363	381.18
391.743	377.33
392.122	374.17
392.501	378.01
392.881	369.88
393.26	389.76
393.639	382.98
394.018	359.03
394.397	380.27
394.776	397.22
395.155	376.2
395.534	390.89
395.913	394.96
396.292	389.09
396.671	383.44
397.05	398.35
397.429	414.4
397.808	397.22
398.186	409.88
398.565	405.13
398.944	388.41
399.323	408.97
399.701	395.87
400.08	399.93
400.458	400.38
400.837	418.01
401.215	409.65
401.594	408.29
401.972	390.44
402.351	418.01
402.729	398.58
403.107	427.73
403.486	406.71
403.864	415.98
404.242	417.56
404.62	426.37
404.999	433.15
405.377	414.17
405.755	436.99
406.133	453.04
406.511	450.33
406.889	443.55
407.267	439.93
407.645	456.43
408.023	435.86
408.401	471.57
408.779	446.03
409.156	478.57
409.534	459.37
409.912	439.93
410.29	467.28
410.667	455.3
411.045	462.08
411.422	475.19
411.8	452.36
412.178	469.31
412.555	475.19
412.933	468.41
413.31	480.83
413.687	500.5
414.065	495.98
414.442	508.4
414.819	507.05
415.197	499.59
415.574	508.4
415.951	510.44
416.328	511.12
416.705	511.12
417.082	513.83
417.46	514.05
417.837	533.71
418.214	512.25
418.591	531
418.967	517.44
419.344	513.38
419.721	548.86
420.098	529.42
420.475	541.4
420.852	543.21
421.228	555.18
421.605	555.64
421.982	564.9
422.358	594.28
422.735	585.24
423.111	554.28
423.488	569.87
423.864	575.75
424.241	581.85
424.617	595.41
424.994	563.09
425.37	573.71
425.746	579.14
426.123	595.18
426.499	583.21
426.875	625.24
427.251	592.02
427.627	625.69
428.003	614.39
428.379	630.66
428.756	630.44
429.132	635.18
429.507	641.73
429.883	659.14
430.259	644.9
430.635	630.21
431.011	640.6
431.387	659.59
431.763	663.43
432.138	676.99
432.514	671.11
432.89	679.02
433.265	682.41
433.641	694.61
434.016	685.58
434.392	723.09
434.767	718.12
435.143	740.26
435.518	728.51
435.894	722.64
436.269	711.34
436.644	754.95
437.02	750.88
437.395	745.69
437.77	757.66
438.145	745.91
438.52	788.85
438.895	759.92
439.271	802.63
439.646	778.91
440.021	777.55
440.395	807.83
440.77	779.81
441.145	793.37
441.52	834.27
441.895	830.66
442.27	821.84
442.645	812.58
443.019	838.34
443.394	822.97
443.769	822.97
444.143	818.45
444.518	855.51
444.892	830.43
445.267	869.3
445.641	859.58
446.016	855.97
446.39	842.86
446.764	854.84
447.139	851.9
447.513	881.95
447.887	871.33
448.262	888.06
448.636	865.68
449.01	907.94
449.384	898.9
449.758	922.63
450.132	919.02
450.506	923.76
450.88	911.11
451.254	933.25
451.628	939.35
452.002	949.98
452.376	953.14
452.75	948.17
453.123	987.71
453.497	966.02
453.871	975.74
454.244	1005.79
454.618	1018.45
454.992	999.47
455.365	1029.07
455.739	1013.93
456.112	1056.86
456.486	1065.23
456.859	1077.88
457.232	1070.2
457.606	1075.62
457.979	1087.37
458.352	1105.68
458.725	1113.59
459.099	1125.56
459.472	1138.22
459.845	1175.28
460.218	1154.72
460.591	1199.91
460.964	1191.55
461.337	1225.45
461.71	1214.6
462.083	1264.09
462.456	1245.56
462.829	1257.76
463.201	1279.23
463.574	1317.2
463.947	1300.25
464.32	1305.67
464.692	1324.65
465.065	1328.5
465.438	1338.89
465.81	1363.52
466.183	1392.45
466.555	1430.19
466.928	1442.62
467.3	1427.93
467.672	1483.75
468.045	1509.28
468.417	1522.39
468.789	1525.55
469.161	1564.2
469.534	1601.48
469.906	1610.07
470.278	1634.93
470.65	1656.62
471.022	1677.87
471.394	1717.19
471.766	1745.21
472.138	1732.33
472.51	1796.73
472.882	1837.41
473.253	1861.82
473.625	1911.53
473.997	1965.99
474.369	1968.03
474.74	1987.24
475.112	2058.19
475.484	2081.92
475.855	2138.42
476.227	2180.9
476.598	2255.7
476.97	2315.14
477.341	2353.1
477.713	2412.99
478.084	2431.52
478.455	2470.61
478.827	2527.79
479.198	2637.16
479.569	2653.89
479.94	2753.32
480.311	2843.03
480.682	2888.91
481.053	2974.78
481.424	3014.78
481.795	3115.34
482.166	3208.22
482.537	3269.91
482.908	3367.31
483.279	3404.15
483.65	3516.24
484.021	3593.75
484.391	3704.03
484.762	3789.45
485.133	3836.23
485.503	3941.99
485.874	4039.61
486.244	4118.48
486.615	4239.83
486.985	4309.43
487.356	4452.71
487.726	4509.88
488.097	4676.43
488.467	4715.07
488.837	4877.1
489.207	4996.87
489.578	5075.06
489.948	5184.89
490.318	5278.22
490.688	5389.41
491.058	5489.74
491.428	5624.88
491.798	5692.45
492.168	5880.01
492.538	5961.14
492.908	6048.37
493.278	6189.84
493.648	6262.15
494.017	6370.17
494.387	6500.34
494.757	6576.95
495.126	6738.75
495.496	6751.63
495.866	6884.06
496.235	6997.27
496.605	7086.99
496.974	7202.69
497.344	7343.03
497.713	7468.9
498.082	7467.32
498.452	7637.48
498.821	7699.4
499.19	7823.69
499.559	7939.62
499.928	8046.96
500.298	8159.05
500.667	8210.8
501.036	8290.57
501.405	8404.92
501.774	8420.06
502.143	8522.66
502.512	8654.63
502.88	8720.84
503.249	8812.14
503.618	8842.65
503.987	8992.48
504.356	9022.53
504.724	9119.7
505.093	9214.62
505.462	9278.34
505.83	9417.1
506.199	9557.43
506.567	9607.6
506.936	9643.53
507.304	9778.44
507.672	9896.41
508.041	9906.12
508.409	9937.76
508.777	10140.69
509.145	10167.36
509.514	10210.75
509.882	10270.41
510.25	10386.34
510.618	10427.47
510.986	10435.15
511.354	10610.51
511.722	10718.31
512.09	10829.94
512.458	10842.37
512.826	10945.19
513.193	11047.11
513.561	11029.26
513.929	11070.84
514.297	11321.45
514.664	11265.86
515.032	11469.47
515.4	11493.43
515.767	11521.9
516.135	11666.53
516.502	11528.91
516.869	11772.06
517.237	11857.26
517.604	11903.36
517.972	11946.3
518.339	12160.75
518.706	12117.37
519.073	12267.42
519.44	12194.88
519.808	12356.91
520.175	12424.25
520.542	12513.06
520.909	12636.9
521.276	12656.11
521.643	12678.71
522.009	12838.02
522.376	12946.5
522.743	13008.19
523.11	13037.34
523.477	13266.26
523.843	13241.4
524.21	13301.74
524.577	13469.65
524.943	13486.82
525.31	13610.43
525.676	13705.57
526.043	13813.59
526.409	13841.61
526.776	14086.58
527.142	13994.38
527.508	14131.78
527.874	14219.68
528.241	14327.7
528.607	14403.63
528.973	14580.58
529.339	14548.26
529.705	14680.01
530.071	14800.01
530.437	14748.26
530.803	14994.35
531.169	15023.73
531.535	14984.18
531.901	15123.61
532.267	15129.04
532.632	15185.53
532.998	15326.55
533.364	15416.04
533.73	15408.8
534.095	15543.04
534.461	15581.23
534.826	15753.65
535.192	15739.64
535.557	15868.9
535.923	15866.42
536.288	15896.7
536.653	16045.85
537.019	16034.55
537.384	16183.47
537.749	16189.12
538.114	16134.43
538.479	16319.74
538.845	16285.39
539.21	16360.64
539.575	16428.44
539.94	16541.88
540.305	16644.93
540.67	16547.08
541.034	16715.44
541.399	16703.23
541.764	16829.33
542.129	16921.98
542.494	16894.19
542.858	17016.9
543.223	17038.59
543.587	17242.2
543.952	17183.9
544.316	17258.02
544.681	17291.92
545.045	17354.97
545.41	17415.3
545.774	17447.17
546.138	17551.12
546.503	17566.26
546.867	17701.62
547.231	17883.09
547.595	17887.61
547.959	17830.21
548.324	17900.49
548.688	18036.31
549.052	18090.77
549.416	18026.59
549.779	18129.86
550.143	18221.84
550.507	18300.71
550.871	18365.11
551.235	18330.76
551.599	18469.97
551.962	18489.63
552.326	18559.23
552.689	18674.25
553.053	18702.5
553.417	18703.18
553.78	18869.28
554.143	18907.47
554.507	18918.77
554.87	19074.24
555.234	19188.37
555.597	19092.32
555.96	19300
556.323	19318.98
556.686	19310.62
557.05	19577.06
557.413	19529.83
557.776	19533.89
558.139	19704.28
558.502	19726.2
558.865	19691.4
559.228	19927.56
559.59	19916.93
559.953	20062.01
560.316	20135.69
560.679	20173.42
561.041	20304.95
561.404	20236.47
561.767	20435.79
562.129	20434.43
562.492	20647.08
562.854	20548.33
563.217	20665.39
563.579	20732.51
563.941	20876.91
564.304	20938.6
564.666	21016.34
565.028	21147.41
565.39	21127.3
565.753	21253.62
566.115	21289.1
566.477	21387.18
566.839	21492.03
567.201	21574.07
567.563	21625.59
567.925	21806.83
568.287	21831.46
568.648	21926.82
569.01	22021.29
569.372	21983.55
569.734	21993.72
570.095	22260.83
570.457	22259.47
570.819	22336.08
571.18	22456.3
571.542	22561.16
571.903	22616.75
572.265	22697.43
572.626	22887.03
572.987	22885.44
573.349	22989.85
573.71	23150.07
574.071	23145.32
574.432	23254.93
574.794	23454.02
575.155	23523.17
575.516	23556.61
575.877	23632.99
576.238	23774.01
576.599	23942.14
576.96	24096.71
577.32	24077.73
577.681	24270.49
578.042	24415.57
578.403	24453.76
578.763	24609.69
579.124	24760.2
579.485	24905.28
579.845	25093.97
580.206	25021.43
580.566	25216
580.927	25332.38
581.287	25546.39
581.648	25600.63
582.008	25873.61
582.368	25925.82
582.728	26200.16
583.089	26251.91
583.449	26320.38
583.809	26623.42
584.169	26766.7
584.529	26934.38
584.889	27239
585.249	27230.41
585.609	27457.98
585.969	27660.91
586.329	27828.82
586.688	28048.25
587.048	28221.35
587.408	28294.34
587.768	28460.44
588.127	28681.22
588.487	28804.38
588.846	29178.16
589.206	29118.95
589.565	29277.82
589.925	29762.55
590.284	29779.27
590.643	29977.23
591.003	30368.86
591.362	30510.33
591.721	30708.97
592.08	30859.25
592.44	31050.65
592.799	31313.47
593.158	31334.71
593.517	31575.84
593.876	31718.66
594.235	31881.14
594.593	32000.91
594.952	32273.9
595.311	32433.44
595.67	32613.78
596.029	33023.48
596.387	33107.55
596.746	33288.11
597.104	33302.8
597.463	33523.36
597.822	33791.6
598.18	33851.26
598.538	34006.06
598.897	34400.62
599.255	34223
599.613	34762.87
599.972	34717.67
600.33	34962.41
600.688	34985.01
601.046	35258.23
601.404	35451.67
601.762	35563.53
602.12	35934.37
602.478	35951.77
602.836	36090.97
603.194	36027.02
603.552	36271.98
603.91	36170.52
604.268	36592.2
604.625	36654.8
604.983	36850.95
605.341	36597.4
605.698	37046.2
606.056	37270.6
606.413	37277.16
606.771	37674.21
607.128	37693.64
607.485	37640.31
607.843	37764.15
608.2	37998.04
608.557	38222.44
608.914	38190.13
609.272	38419.05
609.629	38588.76
609.986	38795.76
610.343	38661.75
610.7	39125.69
611.057	39016.32
611.414	39124.56
611.771	39125.69
612.127	39420.6
612.484	39401.39
612.841	39453.14
613.198	39650.65
613.554	39654.95
613.911	40049.74
614.267	39985.33
614.624	40213.35
614.98	40200.02
615.337	40381.03
615.693	40422.84
616.05	40453.8
616.406	40740.57
616.762	40527.47
617.118	40607.46
617.475	40818.98
617.831	41014.46
618.187	41126.09
618.543	41134.68
618.899	41422.58
619.255	41285.64
619.611	41390.95
619.967	41651.5
620.323	41675.46
620.678	41486.99
621.034	41560.43
621.39	41581.68
621.746	41560.88
622.101	41989.57
622.457	41723.37
622.812	41904.6
623.168	42101.66
623.523	41828.67
623.879	42138.27
624.234	41803.36
624.589	41904.15
624.945	42150.25
625.3	42263.47
625.655	42134.65
626.01	42383.69
626.365	42294.65
626.72	42367.64
627.075	42294.88
627.43	42342.33
627.785	42479.05
628.14	42449.22
628.495	42472.27
628.85	42518.83
629.205	42446.51
629.559	42685.15
629.914	42490.8
630.269	42405.83
630.623	42447.87
630.978	42437.7
631.332	42521.76
631.687	42673.62
632.041	42449.9
632.396	42526.73
632.75	42471.82
633.104	42494.19
633.459	42265.95
633.813	42484.02
634.167	42318.83
634.521	42428.43
634.875	42510.69
635.229	42379.17
635.583	42230.47
635.937	42289.68
636.291	42367.42
636.645	42132.17
636.999	42119.06
637.352	42293.07
637.706	42087.88
638.06	42378.49
638.413	42097.37
638.767	42218.72
639.121	42214.2
639.474	41862.57
639.828	42033.19
640.181	42204.03
640.534	41904.15
640.888	42058.95
641.241	41848.33
641.594	41997.03
641.947	42050.82
642.301	41979.18
642.654	41963.59
643.007	42025.28
643.36	41909.35
643.713	41799.97
644.066	41969.46
644.419	41736.02
644.771	41487.89
645.124	41119.54
645.477	41109.82
645.83	40693.56
646.182	40722.04
646.535	40434.81
646.888	40664.41
647.24	40360.24
647.593	40687.91
647.945	40604.75
648.298	40391.2
648.65	40427.36
649.002	40315.72
649.355	40442.5
649.707	40336.96
650.059	40633.23
650.411	40930.39
650.763	41023.72
651.115	41468.91
651.467	41235.02
651.819	41392.08
652.171	41173.32
652.523	41137.62
652.875	41227.11
653.227	41089.71
653.578	41316.6
653.93	41202.7
654.282	40970.39
654.633	40801.81
654.985	41059.88
655.337	41130.61
655.688	40945.31
656.039	41087.9
656.391	40813.11
656.742	40842.49
657.094	40829.83
657.445	41023.95
657.796	40798.64
658.147	40737.63
658.498	40884.07
658.849	40826.89
659.2	40868.47
659.551	40771.3
659.902	40898.76
660.253	40826.67
660.604	40860.79
660.955	40584.64
661.306	40837.29
661.656	40915.93
662.007	40725.65
662.358	40797.06
662.708	40713
663.059	40742.6
663.409	40397.75
663.76	40807.46
664.11	40668.93
664.461	40682.04
664.811	40608.59
665.161	40678.87
665.511	40469.84
665.862	40669.16
666.212	40784.63
666.562	40619.67
666.912	40722.26
667.262	40571.31
667.612	40593.68
667.962	40650.4
668.312	40567.46
668.662	40717.97
669.011	40501.25
669.361	40466.68
669.711	40521.36
670.06	40517.3
670.41	40482.04
670.76	40302.84
671.109	40580.8
671.459	40426.9
671.808	40357.75
672.157	40360.46
672.507	40158.44
672.856	40207.25
673.205	40318.66
673.554	40249.73
673.904	40344.19
674.253	40356.62
674.602	40239.11
674.951	39675.74
675.3	39412.92
675.649	40027.82
675.998	40212.45
676.346	40053.58
676.695	40251.54
677.044	39875.96
677.393	40088.83
677.741	39984.65
678.09	40029.63
678.438	39962.96
678.787	39996.41
679.135	39971.32
679.484	39581.95
679.832	39866.69
680.181	39725.45
680.529	39749.86
680.877	39673.7
681.225	39565.46
681.573	39875.96
681.922	39500.37
682.27	39437.32
682.618	39486.81
682.966	39447.04
683.314	39447.72
683.661	39466.7
684.009	39166.15
684.357	39090.89
684.705	39071.68
685.053	39057
685.4	39163.43
685.748	38843.67
686.095	38791.01
686.443	38672.37
686.79	38636.22
687.138	38765.48
687.485	38644.35
687.832	38410.68
688.18	38621.07
688.527	38299.05
688.874	38355.55
689.221	38218.6
689.568	38167.3
689.915	37907.42
690.262	38048.66
690.609	38016.57
690.956	37910.81
691.303	37802.57
691.65	37676.92
691.997	37825.62
692.344	37415.46
692.69	37482.12
693.037	37306.76
693.383	37221.34
693.73	37378.62
694.077	37065.41
694.423	37043.49
694.769	36933.89
695.116	36755.14
695.462	36906.09
695.808	36641.47
696.155	36680.56
696.501	36413
696.847	36407.35
697.193	36247.35
697.539	36365.77
697.885	36099.79
698.231	36041.71
698.577	36021.37
698.923	35943.63
699.269	35770.98
699.614	35580.7
699.96	35508.84
700.306	35677.2
700.651	35395.62
700.997	35267.94
701.342	35295.29
701.688	35255.97
702.033	35021.62
702.379	35014.16
702.724	34925.35
703.069	35026.37
703.415	34709.99
703.76	34631.35
704.105	34814.4
704.45	34606.49
704.795	34353.62
705.14	34389.77
705.485	34232.94
705.83	34159.05
706.175	34244.92
706.52	34077.01
706.865	33873.4
707.209	33899.17
707.554	33875.66
707.899	33908.88
708.243	33702.33
708.588	33751.82
708.932	33379.4
709.277	33288.56
709.621	33455.79
709.966	33166.53
710.31	33347.99
710.654	32990.94
710.998	33056.25
711.342	33089.92
711.687	33020.09
712.031	33000.21
712.375	32706.65
712.719	32658.75
713.063	32620.78
713.407	32867.1
713.75	32581.91
714.094	32637.28
714.438	32463.72
714.782	32498.07
715.125	32294.46
715.469	32430.96
715.812	32089.72
716.156	32008.14
716.499	32033.23
716.843	31961.81
717.186	31769.96
717.53	32001.81
717.873	32150.74
718.216	31959.56
718.559	31950.74
718.902	31534.03
719.246	31644.99
719.589	31520.02
719.932	31383.07
720.275	31429.85
720.617	31402.28
720.96	31414.26
721.303	31380.81
721.646	31376.07
721.989	31081.39
722.331	31227.37
722.674	31107.15
723.016	31116.64
723.359	31052.46
723.701	30996.87
724.044	30803.65
724.386	30751.68
724.729	30901.28
725.071	30638.46
725.413	30744.9
725.755	30649.76
726.097	30655.86
726.439	30400.73
726.782	30442.08
727.124	30511.68
727.465	30395.98
727.807	30289.32
728.149	30332.03
728.491	30179.49
728.833	30180.62
729.175	30116.21
729.516	29995.76
729.858	29918.03
730.199	29997.35
730.541	29972.04
730.882	29897.46
731.224	29954.41
731.565	29698.82
731.906	29771.14
732.248	29761.19
732.589	29542.44
732.93	29599.17
733.271	29554.19
733.612	29504.03
733.953	29607.53
734.294	29453.86
734.635	29448.21
734.976	29448.89
735.317	29196.46
735.658	29239.17
735.999	29381.77
736.339	29203.02
736.68	29243.24
737.021	29108.1
737.361	29031.95
737.702	29234.43
738.042	29013.64
738.383	28891.61
738.723	29130.93
739.063	28864.04
739.404	28831.05
739.744	28768.68
740.084	28667.21
740.424	28787.66
740.764	28627.89
741.104	28793.31
741.444	28538.18
741.784	28452.98
742.124	28530.04
742.464	28489.14
742.804	28456.37
743.143	28366.43
743.483	28379.08
743.823	28088.92
744.162	28282.14
744.502	28285.08
744.841	28183.38
745.181	28202.82
745.52	28048.92
745.86	28107.91
746.199	27930.51
746.538	28027.23
746.877	28054.8
747.216	28030.17
747.556	27785.65
747.895	27990.17
748.234	27888.25
748.573	27771.42
748.911	27743.85
749.25	27775.03
749.589	27514.47
749.928	27516.73
750.267	27584.08
750.605	27441.93
750.944	27567.35
751.283	27412.56
751.621	27465.21
751.96	27219.11
752.298	27376.4
752.636	27228.83
752.975	27163.75
753.313	26967.37
753.651	27157.42
753.989	27022.96
754.327	26925.56
754.666	26767.83
755.004	26849.63
755.342	26844.89
755.679	26787.94
756.017	26663.88
756.355	26633.82
756.693	26566.25
757.031	26588.85
757.368	26407.16
757.706	26337.56
758.044	26279.25
758.381	26431.34
758.719	26166.71
759.056	26234.06
759.394	26109.77
759.731	25984.35
760.068	25847.85
760.405	25890.56
760.743	25797.23
761.08	25832.94
761.417	25530.35
761.754	25522.66
762.091	25533.74
762.428	25493.74
762.765	25271.82
763.102	25354.98
763.438	25099.4
763.775	25067.76
764.112	25022.79
764.449	25103.46
764.785	25026.86
765.122	24877.48
765.458	24636.13
765.795	24673.42
766.131	24719.75
766.467	24542.58
766.804	24402.24
767.14	24418.96
767.476	24396.36
767.812	24265.52
768.148	24255.58
768.485	24122.7
768.821	24002.93
769.157	23915.92
769.492	23902.59
769.828	23732.65
770.164	23659.89
770.5	23673.67
770.836	23518.2
771.171	23424.19
771.507	23409.05
771.842	23257.64
772.178	23140.35
772.513	23139.45
772.849	23114.36
773.184	22957.53
773.519	22996.85
773.855	22891.09
774.19	22701.27
774.525	22657.65
774.86	22577.65
775.195	22643.19
775.53	22555.06
775.865	22357.1
776.2	22212.24
776.535	22102.64
776.87	22100.61
777.205	22031
777.539	21954.39
777.874	22032.13
778.209	21746.94
778.543	21740.61
778.878	21607.74
779.212	21661.97
779.547	21450.23
779.881	21564.8
780.215	21343.11
780.55	21408.42
780.884	21288.65
781.218	21198.03
781.552	21250.46
781.886	21064.47
782.22	20935.66
782.554	20852.05
782.888	20638.04
783.222	20547.2
783.556	20429.46
783.889	20376.81
784.223	20419.07
784.557	20293.65
784.89	20257.94
785.224	20055.24
785.557	20044.84
785.891	19981.34
786.224	19915.8
786.558	20029.25
786.891	19754.23
787.224	19696.6
787.557	19662.93
787.891	19646.66
788.224	19641.46
788.557	19593.1
788.89	19539.99
789.223	19438.53
789.556	19205.99
789.888	19229.95
790.221	19198.31
790.554	19015.26
790.887	19100.46
791.219	19042.61
791.552	18956.06
791.884	18819.56
792.217	18796.74
792.549	18732.56
792.882	18587.7
793.214	18464.09
793.546	18554.71
793.879	18391.1
794.211	18366.69
794.543	18304.09
794.875	18343.64
795.207	18340.7
795.539	18216.41
795.871	18166.92
796.203	17931.22
796.535	17912.69
796.867	17929.19
797.198	17820.94
797.53	17804.45
797.862	17663.21
798.193	17792.7
798.525	17554.06
798.856	17602.64
799.188	17477.22
799.519	17438.58
799.85	17297.34
800.182	17315.65
800.513	17382.99
800.844	17114.75
801.175	17251.47
801.506	17207.4
801.837	17103
802.168	17042.21
802.499	16961.53
802.83	16839.73
803.161	16845.6
803.491	16872.27
803.822	16853.74
804.153	16723.57
804.483	16641.31
804.814	16567.42
805.145	16575.1
805.475	16617.59
805.805	16442
806.136	16476.8
806.466	16489.91
806.796	16402
807.126	16239.74
807.457	16173.3
807.787	16231.38
808.117	16087.66
808.447	15983.25
808.777	16200.87
809.107	16095.34
809.436	15957.04
809.766	15936.7
810.096	15886.31
810.426	15798.85
810.755	15763.37
811.085	15766.31
811.414	15734.22
811.744	15610.83
812.073	15594.79
812.403	15575.35
812.732	15474.11
813.061	15498.07
813.39	15399.09
813.719	15308.24
814.049	15528.8
814.378	15371.06
814.707	15304.63
815.036	15276.15
815.365	15248.13
815.693	15045.2
816.022	15209.71
816.351	15067.12
816.68	15030.51
817.008	15025.31
817.337	14819.67
817.665	14837.52
817.994	14798.42
818.322	14792.1
818.651	14710.97
818.979	14755.94
819.307	14833.23
819.636	14673.68
819.964	14714.81
820.292	14681.59
820.62	14698.77
820.948	14573.12
821.276	14704.64
821.604	14649.5
821.932	14536.51
822.259	14628.71
822.587	14563.63
822.915	14496.74
823.243	14598.88
823.57	14500.13
823.898	14515.04
824.225	14520.69
824.553	14567.02
824.88	14517.53
825.207	14507.13
825.535	14522.95
825.862	14526.12
826.189	14491.31
826.516	14513.91
826.843	14525.44
827.17	14524.31
827.497	14518.66
827.824	14496.51
828.151	14458.55
828.478	14485.44
828.805	14533.35
829.131	14429.85
829.458	14492.67
829.785	14360.7
830.111	14426.23
830.438	14481.37
830.764	14428.72
831.09	14577.41
831.417	14403.18
831.743	14485.89
832.069	14448.15
832.395	14358.44
832.722	14410.19
833.048	14372.9
833.374	14354.37
833.7	14261.72
834.026	14280.92
834.351	14353.46
834.677	14302.62
835.003	14347.14
835.329	14317.08
835.654	14283.64
835.98	14267.82
836.306	14298.55
836.631	14201.15
836.956	14258.55
837.282	14193.92
837.607	14156.41
837.932	14049.07
838.258	14145.79
838.583	14035.28
838.908	14000.71
839.233	14029.41
839.558	13927.71
839.883	13903.98
840.208	13915.28
840.533	13912.8
840.858	13835.29
841.182	13920.71
841.507	13910.99
841.832	13806.81
842.156	13850.65
842.481	13744.44
842.805	13778.56
843.13	13657.66
843.454	13694.5
843.778	13623.77
844.103	13563.65
844.427	13458.8
844.751	13615.4
845.075	13451.12
845.399	13428.52
845.723	13304.45
846.047	13461.74
846.371	13262.65
846.695	13296.77
847.019	13195.98
847.343	13136.1
847.666	13089.77
847.99	13010.67
848.313	12985.36
848.637	12897.23
848.96	12884.58
849.284	12892.26
849.607	12778.59
849.931	12767.29
850.254	12658.14
850.577	12558.94
850.9	12535.43
851.223	12491.37
851.546	12452.72
851.869	12291.37
852.192	12540.63
852.515	12323.69
852.838	12266.74
853.161	12277.81
853.483	12207.53
853.806	12117.59
854.129	12105.84
854.451	12053.86
854.774	11942.23
855.096	11959.86
855.419	11965.5
855.741	11946.3
856.063	11850.03
856.385	11816.58
856.708	11773.87
857.03	11749.47
857.352	11717.6
857.674	11641.67
857.996	11736.58
858.318	11591.96
858.64	11605.97
858.961	11572.52
859.283	11496.59
859.605	11491.84
859.926	11559.19
860.248	11473.31
860.57	11389.47
860.891	11332.98
861.212	11233.77
861.534	11351.96
861.855	11172.53
862.176	11296.82
862.498	11270.83
862.819	11300.44
863.14	11095.7
863.461	11109.48
863.782	11089.6
864.103	11132.53
864.424	11117.39
864.745	11120.33
865.065	11046.66
865.386	11010.28
865.707	11012.99
866.027	10994.91
866.348	10938.41
866.668	10982.03
866.989	10884.4
867.309	10819.77
867.63	10884.4
867.95	10840.56
868.27	10845.76
868.59	10866.1
868.91	10815.03
869.23	10748.36
869.55	10742.03
869.87	10812.31
870.19	10759.89
870.51	10725.54
870.83	10794.46
871.15	10669.72
871.469	10688.25
871.789	10687.57
872.109	10683.96
872.428	10617.07
872.748	10611.87
873.067	10638.99
873.386	10636.05
873.706	10611.87
874.025	10507.01
874.344	10446.9
874.663	10521.25
874.982	10481.93
875.301	10516.5
875.62	10462.27
875.939	10363.74
876.258	10420.69
876.577	10363.74
876.896	10477.86
877.214	10325.32
877.533	10337.98
877.852	10323.97
878.17	10244.87
878.489	10296.4
878.807	10264.76
879.125	10290.52
879.444	10282.39
879.762	10199.68
880.08	10230.41
880.398	10148.38
880.716	10163.74
881.034	10147.47
881.352	10154.03
881.67	10074.03
881.988	10155.38
882.306	10007.36
882.624	10017.99
882.941	10056.85
883.259	9984.77
883.577	9995.61
883.894	9928.04
884.212	9912
884.529	9922.39
884.846	9899.57
885.164	9822.51
885.481	9829.74
885.798	9795.84
886.115	9791.78
886.432	9800.82
886.75	9707.71
887.067	9760.59
887.383	9739.12
887.7	9713.81
888.017	9707.94
888.334	9602.18
888.651	9564.66
888.967	9588.17
889.284	9523.53
889.6	9514.27
889.917	9467.27
890.233	9501.61
890.55	9344.1
890.866	9428.4
891.182	9469.53
891.498	9352.47
891.815	9324.44
892.131	9239.02
892.447	9307.72
892.763	9213.94
893.079	9159.48
893.395	9118.8
893.71	9128.29
894.026	9111.57
894.342	9093.26
894.657	9156.09
894.973	9119.93
895.289	9017.11
895.604	9065.47
895.92	8899.14
896.235	8925.36
896.55	8945.02
896.865	8919.71
897.181	8865.93
897.496	8846.94
897.811	8802.42
898.126	8735.53
898.441	8747.51
898.756	8712.48
899.071	8684.01
899.386	8691.69
899.7	8608.76
900.015	8578.25
900.33	8516.33
900.644	8483.11
900.959	8524.47
901.273	8504.35
901.588	8401.3
901.902	8366.96
902.216	8384.58
902.531	8314.98
902.845	8273.4
903.159	8269.56
903.473	8206.06
903.787	8290.57
904.101	8168.99
904.415	8180.52
904.729	8109.79
905.042	8074.99
905.356	8046.74
905.67	8058.49
905.984	8085.15
906.297	7960.19
906.611	7957.93
906.924	7912.05
907.237	7946.85
907.551	7851.04
907.864	7858.72
908.177	7908.21
908.491	7811.26
908.804	7729.68
909.117	7706.41
909.43	7665.73
909.743	7635.9
910.056	7632.06
910.368	7593.87
910.681	7537.37
910.994	7498.28
911.307	7536.69
911.619	7380.09
911.932	7468.22
912.244	7402.69
912.557	7430.93
912.869	7322.91
913.181	7313.88
913.494	7334.21
913.806	7241.79
914.118	7215.8
914.43	7188.68
914.742	7181.68
915.054	7184.16
915.366	7118.85
915.678	7109.59
915.99	7019.65
916.302	6951.17
916.613	7009.7
916.925	6937.84
917.236	6948.01
917.548	6850.38
917.859	6799.76
918.171	6830.27
918.482	6822.81
918.794	6768.81
919.105	6814.45
919.416	6665.76
919.727	6656.27
920.038	6641.8
920.349	6571.52
920.66	6587.11
920.971	6590.5
921.282	6515.03
921.593	6488.81
921.903	6475.25
922.214	6471.86
922.525	6432.99
922.835	6407.01
923.146	6329.27
923.456	6346.44
923.767	6364.52
924.077	6341.92
924.387	6325.43
924.697	6228.71
925.008	6235.03
925.318	6244.3
925.628	6194.36
925.938	6099.22
926.248	6085.43
926.558	6080.24
926.867	6102.38
927.177	6044.3
927.487	6008.37
927.796	5959.79
928.106	5965.89
928.416	5943.97
928.725	5945.1
929.034	5882.5
929.344	5947.13
929.653	5883.18
929.962	5785.33
930.271	5816.97
930.581	5793.69
930.89	5760.7
931.199	5657.87
931.508	5713.47
931.817	5702.62
932.125	5703.97
932.434	5653.58
932.743	5553.47
933.051	5575.62
933.36	5523.19
933.669	5509.86
933.977	5455.17
934.286	5480.93
934.594	5470.76
934.902	5408.39
935.21	5392.57
935.519	5398.9
935.827	5366.36
936.135	5322.74
936.443	5312.35
936.751	5271.67
937.059	5295.17
937.367	5249.07
937.674	5270.54
937.982	5217.89
938.29	5153.48
938.597	5173.82
938.905	5095.4
939.213	5111.45
939.52	5095.85
939.827	5112.13
940.135	5041.39
940.442	5054.5
940.749	5052.24
941.056	5035.52
941.363	4928.4
941.67	4956.42
941.977	4880.04
942.284	4873.49
942.591	4895.63
942.898	4821.29
943.205	4844.34
943.511	4805.47
943.818	4810.21
944.125	4751.46
944.431	4809.08
944.738	4761.85
945.044	4707.39
945.35	4691.8
945.657	4706.26
945.963	4674.17
946.269	4614.74
946.575	4598.24
946.881	4605.47
947.187	4564.57
947.493	4572.7
947.799	4524.12
948.105	4493.38
948.41	4480.28
948.716	4484.35
949.022	4481.86
949.327	4465.14
949.633	4436.44
949.938	4436.21
950.244	4388.3
950.549	4363.44
950.854	4368.87
951.16	4358.25
951.465	4261.07
951.77	4299.72
952.075	4288.87
952.38	4263.79
952.685	4217.01
952.99	4221.08
953.294	4234.41
953.599	4183.79
953.904	4187.4
954.209	4127.52
954.513	4102.89
954.818	4112.6
955.122	4117.12
955.426	4068.09
955.731	4045.71
956.035	4069.22
956.339	4030.57
956.643	3997.13
956.948	3941.99
957.252	3932.72
957.556	3918.03
957.86	3924.59
958.163	3891.59
958.467	3931.14
958.771	3901.54
959.075	3876.9
959.378	3872.84
959.682	3787.87
959.985	3794.65
960.289	3816.57
960.592	3761.88
960.896	3719.39
961.199	3738.15
961.502	3768.21
961.805	3711.48
962.108	3651.82
962.411	3679.39
962.714	3657.25
963.017	3641.43
963.32	3625.38
963.623	3600.53
963.926	3612.28
964.228	3516.24
964.531	3568.44
964.833	3566.4
965.136	3515.33
965.438	3488.67
965.741	3509.23
966.043	3510.36
966.345	3457.71
966.648	3492.28
966.95	3471.26
967.252	3427.42
967.554	3440.08
967.856	3404.37
968.158	3379.29
968.46	3383.13
968.761	3354.43
969.063	3346.52
969.365	3343.13
969.666	3322.79
969.968	3286.86
970.269	3291.83
970.571	3290.93
970.872	3264.26
971.174	3224.72
971.475	3195.57
971.776	3230.59
972.077	3201.44
972.378	3180.65
972.679	3206.64
972.98	3166.64
973.281	3141.33
973.582	3153.53
973.883	3092.74
974.183	3090.71
974.484	3110.82
974.785	3075.34
975.085	3083.25
975.386	3059.52
975.686	3049.13
975.986	3002.12
976.287	3026.3
976.587	3018.17
976.887	2978.17
977.187	2990.83
977.487	2954.89
977.787	2975.01
978.087	2947.66
978.387	2892.3
978.687	2923.93
978.987	2904.27
979.286	2883.03
979.586	2873.54
979.885	2855.46
980.185	2815.91
980.484	2866.99
980.784	2810.72
981.083	2841.22
981.382	2791.06
981.682	2812.75
981.981	2761.68
982.28	2780.89
982.579	2730.95
982.878	2743.15
983.177	2716.48
983.475	2723.49
983.774	2676.26
984.073	2681.45
984.372	2662.92
984.67	2663.6
984.969	2664.51
985.267	2660.66
985.566	2646.65
985.864	2632.87
986.162	2609.37
986.461	2596.03
986.759	2586.32
987.057	2543.38
987.355	2518.75
987.653	2535.47
987.951	2525.07
988.249	2519.88
988.547	2488.92
988.844	2496.38
989.142	2513.32
989.44	2459.09
989.737	2440.78
990.035	2445.75
990.332	2440.56
990.63	2424.96
990.927	2436.94
991.224	2406.66
991.521	2378.86
991.819	2389.49
992.116	2363.05
992.413	2363.27
992.71	2370.28
993.006	2345.19
993.303	2323.05
993.6	2353.33
993.897	2342.93
994.193	2316.49
994.49	2258.64
994.787	2297.51
995.083	2263.39
995.379	2259.09
995.676	2249.15
995.972	2268.36
996.268	2245.31
996.565	2199.43
996.861	2189.26
997.157	2192.88
997.453	2197.17
997.749	2206.89
998.044	2174.35
998.34	2182.03
998.636	2171.41
998.932	2133.9
999.227	2137.97
999.523	2115.82
999.818	2096.16
1000.114	2108.59
1000.409	2074.01
1000.704	2076.05
1001	2044.41
1001.295	2000.12
1001.59	2014.13
1001.885	2032.43
1002.18	1991.76
1002.475	1975.94
1002.77	1975.71
1003.065	1982.26
1003.359	1991.3
1003.654	1934.36
1003.949	1926.22
1004.243	1931.19
1004.538	1932.55
1004.832	1919.67
1005.127	1910.18
1005.421	1900.68
1005.715	1917.86
1006.009	1891.42
1006.304	1829.73
1006.598	1846.67
1006.892	1836.96
1007.186	1858.65
1007.48	1836.73
1007.773	1833.34
1008.067	1774.81
1008.361	1808.03
1008.655	1781.37
1008.948	1748.37
1009.242	1747.92
1009.535	1758.54
1009.829	1730.07
1010.122	1728.94
1010.415	1749.95
1010.708	1730.52
1011.001	1684.87
1011.295	1699.56
1011.588	1688.71
1011.881	1678.32
1012.173	1670.86
1012.466	1664.76
1012.759	1645.55
1013.052	1610.52
1013.344	1651.65
1013.637	1622.95
1013.93	1622.05
1014.222	1603.52
1014.514	1595.61
1014.807	1573.01
1015.099	1617.98
1015.391	1548.15
1015.683	1542.05
1015.976	1570.3
1016.268	1527.81
1016.56	1551.99
1016.851	1543.86
1017.143	1518.1
1017.435	1503.41
1017.727	1483.52
1018.018	1473.13
1018.31	1478.1
1018.602	1470.87
1018.893	1460.7
1019.185	1436.06
1019.476	1427.48
1019.767	1398.32
1020.058	1420.47
1020.35	1419.34
1020.641	1403.07
1020.932	1401.26
1021.223	1379.57
1021.514	1364.88
1021.804	1359.46
1022.095	1370.08
1022.386	1352.45
1022.677	1303.86
1022.967	1334.6
1023.258	1325.33
1023.548	1304.09
1023.839	1303.64
1024.129	1323.98
1024.419	1309.06
1024.709	1295.73
1025	1251.89
1025.29	1268.38
1025.58	1232.45
1025.87	1246.01
1026.16	1252.79
1026.449	1233.58
1026.739	1223.87
1027.029	1205.56
1027.319	1210.53
1027.608	1212.57
1027.898	1196.97
1028.187	1180.7
1028.477	1180.03
1028.766	1166.24
1029.055	1171.89
1029.344	1143.19
1029.634	1138.44
1029.923	1150.87
1030.212	1163.53
1030.501	1147.48
1030.79	1133.47
1031.078	1112
1031.367	1115.17
1031.656	1121.27
1031.945	1115.85
1032.233	1081.95
1032.522	1110.2
1032.81	1071.33
1033.099	1064.77
1033.387	1038.33
1033.675	1047.6
1033.963	1037.66
1034.251	1027.71
1034.54	1030.88
1034.828	1018.22
1035.116	1031.33
1035.403	1009.86
1035.691	988.17
1035.979	1006.24
1036.267	995.85
1036.554	987.04
1036.842	975.29
1037.129	969.18
1037.417	964.89
1037.704	965.57
1037.992	968.51
1038.279	948.39
1038.566	945.23
1038.853	945.23
1039.14	945.23
