Data from hue_190_FLMS001491_00070.txt Node
Date: Tue Feb 07 16:45:38 GMT 2017
User: dcchb
Spectrometer: FLMS00149
Trigger mode: 0
Integration Time (sec): 2.000000E-2
Scans to average: 10
Electric dark correction enabled: true
Nonlinearity correction enabled: false
Boxcar width: 0
XAxis mode: Wavelengths
Number of Pixels in Spectrum: 2048
>>>>>Begin Spectral Data<<<<<
341.393	-19.62
341.776	-19.62
342.16	-19.62
342.543	-60.97
342.927	-64.81
343.31	-60.52
343.693	-70.46
344.077	-48.77
344.46	-62.1
344.843	-67.07
345.226	-22.56
345.61	-27.08
345.993	-2.67
346.376	-10.8
346.759	1.17
347.142	23.09
347.525	42.98
347.908	35.52
348.291	75.75
348.674	89.08
349.057	104.45
349.44	141.73
349.823	162.07
350.206	161.17
350.588	190.32
350.971	215.4
351.354	206.36
351.737	217.21
352.119	250.88
352.502	282.75
352.884	264.22
353.267	296.76
353.65	289.3
354.032	288.62
354.414	306.25
354.797	317.32
355.179	298.57
355.562	325.01
355.944	320.94
356.326	323.65
356.709	318.9
357.091	338.56
357.473	346.02
357.855	335.4
358.238	327.04
358.62	323.42
359.002	327.49
359.384	345.8
359.766	352.58
360.148	333.82
360.53	339.24
360.912	323.65
361.294	330.43
361.676	350.09
362.057	314.84
362.439	328.17
362.821	306.47
363.203	316.87
363.584	332.69
363.966	313.03
364.348	296.53
364.729	327.94
365.111	297.21
365.493	302.86
365.874	287.72
366.256	292.69
366.637	327.94
367.019	307.38
367.4	302.63
367.781	313.48
368.163	311.67
368.544	306.93
368.925	297.21
369.306	303.31
369.688	323.42
370.069	294.72
370.45	312.12
370.831	309.19
371.212	300.83
371.593	318.9
371.974	303.76
372.355	310.32
372.736	300.15
373.117	293.14
373.498	307.38
373.879	310.54
374.26	297.89
374.641	291.11
375.021	303.99
375.402	311.67
375.783	338.11
376.163	316.87
376.544	313.93
376.925	305.35
377.305	301.96
377.686	330.66
378.066	310.77
378.447	316.19
378.827	320.26
379.208	317.55
379.588	319.81
379.968	324.1
380.349	324.55
380.729	310.09
381.109	338.79
381.489	322.07
381.87	340.6
382.25	325.01
382.63	342.86
383.01	314.16
383.39	326.14
383.77	323.88
384.15	333.59
384.53	359.13
384.91	336.76
385.29	321.62
385.67	349.41
386.049	358.9
386.429	334.5
386.809	341.05
387.189	329.53
387.568	356.64
387.948	348.51
388.328	336.98
388.707	336.98
389.087	341.95
389.466	360.03
389.846	334.27
390.225	372.69
390.605	350.99
390.984	368.39
391.363	355.51
391.743	350.09
392.122	362.52
392.501	354.38
392.881	394.61
393.26	374.95
393.639	354.16
394.018	369.52
394.397	361.16
394.776	346.93
395.155	369.07
395.534	383.31
395.913	367.49
396.292	382.63
396.671	364.1
397.05	392.12
397.429	389.86
397.808	394.61
398.186	395.06
398.565	386.92
398.944	398.22
399.323	372.69
399.701	402.74
400.08	387.83
400.458	381.5
400.837	403.87
401.215	407.94
401.594	407.49
401.972	410.2
402.351	408.85
402.729	407.49
403.107	395.96
403.486	411.33
403.864	415.4
404.242	410.2
404.62	419.92
404.999	417.43
405.377	423.31
405.755	438
406.133	438.67
406.511	433.7
406.889	426.92
407.267	456.08
407.645	466.24
408.023	484.1
408.401	455.62
408.779	500.14
409.156	484.78
409.534	502.4
409.912	496.98
410.29	492.68
410.667	503.98
411.045	501.72
411.422	524.1
411.8	517.32
412.178	522.74
412.555	557.09
412.933	540.59
413.31	553.47
413.687	561.38
414.065	582.63
414.442	586.24
414.819	593.47
415.197	586.92
415.574	609.07
415.951	593.93
416.328	641.61
416.705	639.57
417.082	632.34
417.46	656.52
417.837	649.29
418.214	661.27
418.591	691.78
418.967	673.7
419.344	686.8
419.721	711.66
420.098	695.39
420.475	696.75
420.852	721.83
421.228	742.4
421.605	771.1
421.982	760.93
422.358	772
422.735	783.52
423.111	806.8
423.488	793.92
423.864	809.29
424.241	832.11
424.617	851.09
424.994	854.03
425.37	903.07
425.746	865.56
426.123	886.57
426.499	903.07
426.875	947.36
427.251	927.48
427.627	976.06
428.003	954.14
428.379	956.4
428.756	975.38
429.132	1004.08
429.507	966.34
429.883	1009.96
430.259	1032.11
430.635	1052.9
431.011	1051.09
431.387	1088.6
431.763	1118.43
432.138	1115.95
432.514	1117.75
432.89	1120.24
433.265	1163.4
433.641	1170.63
434.016	1214.47
434.392	1190.07
434.767	1226.22
435.143	1261.93
435.518	1287.47
435.894	1291.99
436.269	1310.74
436.644	1350.97
437.02	1331.31
437.395	1373.79
437.77	1416.5
438.145	1437.97
438.52	1452.21
438.895	1489.04
439.271	1493.34
439.646	1509.16
440.021	1541.24
440.395	1523.39
440.77	1551.87
441.145	1559.78
441.52	1631.64
441.895	1622.15
442.27	1638.19
442.645	1664.63
443.019	1689.04
443.394	1698.98
443.769	1732.65
444.143	1734.01
444.518	1791.18
444.892	1743.5
445.267	1800.22
445.641	1762.93
446.016	1801.58
446.39	1791.18
446.764	1851.97
447.139	1851.52
447.513	1877.73
447.887	1892.87
448.262	1889.48
448.636	1915.7
449.01	1937.84
449.384	1975.58
449.758	1965.41
450.132	1993.44
450.506	2023.27
450.88	2013.1
451.254	2043.38
451.628	2075.24
452.002	2091.06
452.376	2119.08
452.75	2120.66
453.123	2173.09
453.497	2187.78
453.871	2209.02
454.244	2235.69
454.618	2235.92
454.992	2303.71
455.365	2251.96
455.739	2360.43
456.112	2359.08
456.486	2382.35
456.859	2404.95
457.232	2463.03
457.606	2448.11
457.979	2480.43
458.352	2539.64
458.725	2579.64
459.099	2587.77
459.472	2646.98
459.845	2651.72
460.218	2638.84
460.591	2706.19
460.964	2729.24
461.337	2773.08
461.71	2804.94
462.083	2851.27
462.456	2862.11
462.829	2894.2
463.201	2907.31
463.574	2946.86
463.947	3003.13
464.32	3077.25
464.692	3085.38
465.065	3103.46
465.438	3154.76
465.81	3200.18
466.183	3233.4
466.555	3290.13
466.928	3332.84
467.3	3328.54
467.672	3365.6
468.045	3457.8
468.417	3500.52
468.789	3557.91
469.161	3588.87
469.534	3626.61
469.906	3683.79
470.278	3762.66
470.65	3778.02
471.022	3811.24
471.394	3905.93
471.766	3957.68
472.138	4020.28
472.51	4101.63
472.882	4126.71
473.253	4183.89
473.625	4246.48
473.997	4269.76
474.369	4344.11
474.74	4411
475.112	4425.91
475.484	4599.92
475.855	4660.71
476.227	4719.69
476.598	4865.68
476.97	4850.76
477.341	4980.7
477.713	5039.01
478.084	5051.43
478.455	5260.24
478.827	5249.17
479.198	5373.91
479.569	5409.62
479.94	5571.65
480.311	5585.66
480.682	5748.14
481.053	5844.41
481.424	5978.19
481.795	6007.34
482.166	6099.09
482.537	6199.43
482.908	6299.09
483.279	6382.02
483.65	6492.98
484.021	6657.27
484.391	6669.25
484.762	6726.65
485.133	6843.48
485.503	6905.85
485.874	7021.1
486.244	7119.4
486.615	7233.52
486.985	7375.67
487.356	7471.71
487.726	7495.66
488.097	7670.12
488.467	7671.03
488.837	7804.58
489.207	7930
489.578	8106.27
489.948	8107.63
490.318	8221.52
490.688	8282.08
491.058	8388.3
491.428	8408.86
491.798	8577.22
492.168	8732.24
492.538	8794.16
492.908	8797.55
493.278	8929.53
493.648	8990.77
494.017	9028.73
494.387	9169.29
494.757	9176.75
495.126	9279.12
495.496	9219.91
495.866	9320.93
496.235	9435.05
496.605	9530.64
496.974	9501.49
497.344	9621.03
497.713	9667.13
498.082	9762.72
498.452	9773.34
498.821	9840.24
499.19	9816.28
499.559	9873.46
499.928	9945.09
500.298	10025.99
500.667	10087.69
501.036	10018.99
501.405	10097.18
501.774	10142.15
502.143	10196.16
502.512	10224.18
502.88	10286.1
503.249	10247.46
503.618	10333.33
503.987	10301.69
504.356	10343.73
504.724	10464.17
505.093	10452.42
505.462	10477.73
505.83	10487
506.199	10538.52
506.567	10576.94
506.936	10592.76
507.304	10659.88
507.672	10691.06
508.041	10716.6
508.409	10752.75
508.777	10833.2
509.145	10846.99
509.514	10795.01
509.882	10844.28
510.25	10886.99
510.618	10929.02
510.986	10867.78
511.354	10955.46
511.722	10901.68
512.09	11092.86
512.458	10999.53
512.826	11021.9
513.193	11071.16
513.561	11000.21
513.929	11148
514.297	11144.83
514.664	11154.78
515.032	11207.43
515.4	11152.97
515.767	11201.33
516.135	11180.77
516.502	11112.29
516.869	11218.5
517.237	11183.7
517.604	11179.18
517.972	11265.96
518.339	11220.76
518.706	11205.4
519.073	11209.69
519.44	11304.83
519.808	11364.94
520.175	11288.79
520.542	11357.26
520.909	11328.11
521.276	11192.97
521.643	11409.69
522.009	11298.28
522.376	11404.49
522.743	11343.47
523.11	11385.73
523.477	11364.72
523.843	11465.5
524.21	11433.87
524.577	11471.83
524.943	11449.23
525.31	11461.21
525.676	11482.68
526.043	11469.57
526.409	11479.06
526.776	11507.99
527.142	11424.6
527.508	11503.92
527.874	11523.36
528.241	11451.94
528.607	11457.37
528.973	11458.05
529.339	11363.36
529.705	11490.36
530.071	11470.48
530.437	11395.9
530.803	11357.71
531.169	11403.81
531.535	11348.44
531.901	11319.07
532.267	11334.21
532.632	11244.04
532.998	11157.26
533.364	11196.36
533.73	11235.45
534.095	11165.85
534.461	11107.77
534.826	11098.06
535.192	11061.22
535.557	11064.16
535.923	10984.61
536.288	10945.97
536.653	10973.31
537.019	10874.11
537.384	10849.47
537.749	10838.18
538.114	10815.8
538.479	10684.96
538.845	10681.57
539.21	10579.43
539.575	10598.63
539.94	10441.58
540.305	10597.73
540.67	10449.03
541.034	10373.1
541.399	10362.71
541.764	10358.64
542.129	10294.91
542.494	10270.05
542.858	10192.32
543.223	10130.62
543.587	10120.68
543.952	10048.59
544.316	10042.26
544.681	9926.56
545.045	9905.54
545.41	9918.2
545.774	9769.73
546.138	9800.91
546.503	9790.07
546.867	9691.31
547.231	9769.28
547.595	9635.04
547.959	9577.19
548.324	9524.54
548.688	9503.52
549.052	9373.58
549.416	9389.17
549.779	9329.06
550.143	9310.98
550.507	9260.82
550.871	9168.16
551.235	9210.87
551.599	9163.87
551.962	9095.4
552.326	9090.2
552.689	9066.24
553.053	8934.27
553.417	8880.94
553.78	9008.62
554.143	8886.81
554.507	8884.55
554.87	8858.34
555.234	8779.47
555.597	8704.9
555.96	8809.08
556.323	8697.44
556.686	8636.65
557.05	8597.56
557.413	8586.71
557.776	8537.67
558.139	8522.98
558.502	8486.15
558.865	8484.34
559.228	8519.37
559.59	8409.99
559.953	8381.29
560.316	8531.34
560.679	8393.04
561.041	8385.58
561.404	8410.67
561.767	8428.97
562.129	8286.38
562.492	8382.65
562.854	8295.19
563.217	8280.73
563.579	8296.55
563.941	8280.5
564.304	8303.78
564.666	8312.14
565.028	8277.34
565.39	8311.69
565.753	8295.87
566.115	8294.06
566.477	8242.31
566.839	8266.94
567.201	8274.63
567.563	8224.23
567.925	8324.34
568.287	8225.59
568.648	8187.17
569.01	8288.86
569.372	8242.09
569.734	8227.4
570.095	8235.08
570.457	8249.32
570.819	8260.62
571.18	8247.28
571.542	8199.37
571.903	8234.18
572.265	8253.38
572.626	8202.54
572.987	8222.65
573.349	8197.11
573.71	8183.78
574.071	8221.3
574.432	8196.21
574.794	8307.62
575.155	8230.33
575.516	8181.97
575.877	8229.43
576.238	8183.56
576.599	8203.67
576.96	8183.1
577.32	8174.06
577.681	8225.81
578.042	8188.3
578.403	8155.76
578.763	8173.61
579.124	8150.79
579.485	8165.48
579.845	8253.16
580.206	8183.56
580.566	8175.65
580.927	8146.04
581.287	8170
581.648	8130.22
582.008	8187.4
582.368	8130.9
582.728	8195.99
583.089	8124.57
583.449	8088.64
583.809	8091.13
584.169	8093.16
584.529	8056.33
584.889	8148.75
585.249	8118.7
585.609	8037.35
585.969	8059.72
586.329	8028.08
586.688	8049.32
587.048	8045.03
587.408	8033.5
587.768	7985.82
588.127	8030.79
588.487	7983.34
588.846	8036.44
589.206	7956.44
589.565	7998.25
589.925	7948.08
590.284	7954.41
590.643	7944.92
591.003	7983.11
591.362	7960.29
591.721	7907.63
592.08	7913.73
592.44	7887.07
592.799	7867.63
593.158	7863.11
593.517	7918.93
593.876	7885.48
594.235	7837.8
594.593	7886.61
594.952	7892.04
595.311	7783.79
595.67	7874.86
596.029	7887.97
596.387	7869.67
596.746	7829.44
597.104	7778.14
597.463	7758.93
597.822	7800.29
598.18	7737.01
598.538	7777.46
598.897	7799.84
599.255	7728.65
599.613	7855.88
599.972	7770.46
600.33	7813.62
600.688	7729.78
601.046	7758.93
601.404	7765.49
601.762	7688.2
602.12	7802.78
602.478	7791.7
602.836	7770.46
603.194	7690.46
603.552	7769.33
603.91	7778.37
604.268	7710.12
604.625	7749.67
604.983	7755.77
605.341	7716.45
605.698	7714.87
606.056	7730.46
606.413	7698.82
606.771	7743.57
607.128	7803
607.485	7626.28
607.843	7718.71
608.2	7737.69
608.557	7734.53
608.914	7674.64
609.272	7722.1
609.629	7734.53
609.986	7788.76
610.343	7788.31
610.7	7808.65
611.057	7763.23
611.414	7751.93
611.771	7779.95
612.127	7789.44
612.484	7803
612.841	7806.84
613.198	7777.46
613.554	7784.7
613.911	7798.26
614.267	7783.79
614.624	7798.03
614.98	7767.75
615.337	7800.74
615.693	7744.47
616.05	7827.41
616.406	7842.32
616.762	7780.4
617.118	7776.34
617.475	7855.66
617.831	7806.62
618.187	7812.94
618.543	7832.6
618.899	7833.73
619.255	7854.07
619.611	7804.36
619.967	7870.12
620.323	7931.13
620.678	7844.13
621.034	7830.12
621.39	7846.84
621.746	7771.14
622.101	7931.13
622.457	7860.85
622.812	7871.7
623.168	7897.91
623.523	7854.53
623.879	7931.59
624.234	7897.69
624.589	7822.89
624.945	7836.22
625.3	7868.54
625.655	7839.84
626.01	7887.74
626.365	7887.74
626.72	7842.1
627.075	7786.96
627.43	7885.26
627.785	7836.9
628.14	7838.71
628.495	7827.18
628.85	7803.45
629.205	7820.18
629.559	7852.72
629.914	7777.24
630.269	7800.06
630.623	7752.38
630.978	7750.57
631.332	7747.64
631.687	7783.11
632.041	7749.67
632.396	7726.39
632.75	7673.51
633.104	7727.07
633.459	7682.78
633.813	7633.74
634.167	7662.44
634.521	7683.46
634.875	7692.04
635.229	7639.39
635.583	7628.09
635.937	7633.06
636.291	7579.73
636.645	7616.11
636.999	7607.07
637.352	7621.31
637.706	7531.6
638.06	7586.06
638.413	7607.53
638.767	7543.8
639.121	7533.86
639.474	7493.18
639.828	7507.64
640.181	7506.29
640.534	7496.12
640.888	7518.04
641.241	7440.98
641.594	7447.08
641.947	7518.94
642.301	7475.78
642.654	7523.91
643.007	7449.79
643.36	7493.4
643.713	7458.15
644.066	7457.93
644.419	7421.09
644.771	7365.05
645.124	7279.85
645.477	7313.3
645.83	7304.03
646.182	7254.31
646.535	7202.56
646.888	7242.11
647.24	7183.13
647.593	7245.5
647.945	7287.53
648.298	7195.11
648.65	7198.95
649.002	7190.59
649.355	7173.87
649.707	7166.86
650.059	7271.72
650.411	7328.66
650.763	7282.56
651.115	7354.88
651.467	7376.35
651.819	7383.35
652.171	7325.5
652.523	7356.23
652.875	7367.08
653.227	7413.41
653.578	7325.95
653.93	7378.15
654.282	7323.69
654.633	7325.5
654.985	7406.63
655.337	7321.43
655.688	7349.23
656.039	7427.87
656.391	7313.75
656.742	7370.47
657.094	7375.22
657.445	7392.39
657.796	7389.45
658.147	7410.24
658.498	7397.81
658.849	7422.22
659.2	7415.21
659.551	7396.91
659.902	7409.11
660.253	7390.36
660.604	7451.15
660.955	7417.93
661.306	7431.26
661.656	7424.71
662.007	7431.94
662.358	7457.47
662.708	7389.68
663.059	7421.77
663.409	7413.41
663.76	7465.16
664.11	7444.82
664.461	7446.17
664.811	7447.76
665.161	7486.85
665.511	7438.94
665.862	7471.71
666.212	7504.93
666.562	7539.51
666.912	7444.37
667.262	7454.31
667.612	7452.05
667.962	7486.4
668.312	7523.01
668.662	7494.31
669.011	7438.72
669.361	7449.56
669.711	7470.58
670.06	7483.24
670.41	7423.8
670.76	7401.2
671.109	7526.4
671.459	7441.2
671.808	7447.53
672.157	7439.17
672.507	7385.38
672.856	7430.81
673.205	7432.16
673.554	7431.71
673.904	7390.58
674.253	7433.29
674.602	7424.71
674.951	7301.55
675.3	7309
675.649	7423.58
675.998	7342.22
676.346	7380.87
676.695	7429.23
677.044	7303.58
677.393	7303.13
677.741	7319.85
678.09	7323.69
678.438	7332.5
678.787	7295.44
679.135	7325.73
679.484	7254.77
679.832	7328.66
680.181	7209.12
680.529	7244.15
680.877	7235.78
681.225	7151.27
681.573	7210.7
681.922	7231.72
682.27	7210.02
682.618	7169.57
682.966	7165.5
683.314	7156.24
683.661	7130.7
684.009	7097.26
684.357	7127.31
684.705	7021.1
685.053	7026.75
685.4	7029.01
685.748	7026.52
686.095	6985.62
686.443	6932.74
686.79	7004.38
687.138	6997.82
687.485	7026.52
687.832	6991.04
688.18	6911.27
688.527	6899.97
688.874	6903.36
689.221	6838.73
689.568	6870.37
689.915	6825.17
690.262	6799.86
690.609	6772.97
690.956	6752.41
691.303	6737.94
691.65	6726.65
691.997	6701.79
692.344	6612.98
692.69	6679.19
693.037	6612.07
693.383	6583.82
693.73	6605.07
694.077	6595.58
694.423	6517.84
694.769	6498.4
695.116	6499.53
695.462	6470.15
695.808	6491.4
696.155	6490.72
696.501	6388.12
696.847	6413.21
697.193	6368.01
697.539	6372.3
697.885	6321.68
698.231	6282.59
698.577	6285.98
698.923	6296.83
699.269	6266.77
699.614	6209.6
699.96	6184.06
700.306	6143.16
700.651	6161.01
700.997	6113.55
701.342	6103.38
701.688	6081.01
702.033	6045.53
702.379	6017.06
702.724	6046.66
703.069	6024.06
703.415	5918.76
703.76	5965.76
704.105	5932.32
704.45	5953.33
704.795	5868.14
705.14	5907.68
705.485	5878.08
705.83	5872.43
706.175	5792.88
706.52	5751.3
706.865	5818.19
707.209	5797.86
707.554	5722.15
707.899	5736.61
708.243	5790.4
708.588	5739.1
708.932	5658.65
709.277	5660.01
709.621	5643.51
709.966	5622.49
710.31	5648.26
710.654	5585.21
710.998	5621.36
711.342	5539.33
711.687	5555.15
712.031	5493.91
712.375	5539.33
712.719	5553.57
713.063	5486.23
713.407	5499.78
713.75	5443.06
714.094	5530.07
714.438	5440.35
714.782	5459.79
715.125	5428.83
715.469	5444.19
715.812	5426.11
716.156	5404.87
716.499	5369.17
716.843	5384.53
717.186	5418.88
717.53	5417.3
717.873	5406
718.216	5381.6
718.559	5396.74
718.902	5340.01
719.246	5336.17
719.589	5343.18
719.932	5316.96
720.275	5297.3
720.617	5264.08
720.96	5299.11
721.303	5261.15
721.646	5307.47
721.989	5290.98
722.331	5284.88
722.674	5238.77
723.016	5307.25
723.359	5323.07
723.701	5279.9
724.044	5284.88
724.386	5245.1
724.729	5226.57
725.071	5266.57
725.413	5260.24
725.755	5226.8
726.097	5200.58
726.439	5214.37
726.782	5208.72
727.124	5205.1
727.465	5220.24
727.807	5234.71
728.149	5222.05
728.491	5222.73
728.833	5237.87
729.175	5195.84
729.516	5215.72
729.858	5225.89
730.199	5196.29
730.541	5195.84
730.882	5226.35
731.224	5225.22
731.565	5202.39
731.906	5226.8
732.248	5203.07
732.589	5179.79
732.93	5253.46
733.271	5210.07
733.612	5225.67
733.953	5194.71
734.294	5213.01
734.635	5233.8
734.976	5268.6
735.317	5199.23
735.658	5267.93
735.999	5257.53
736.339	5256.4
736.68	5262.73
737.021	5243.07
737.361	5234.93
737.702	5284.42
738.042	5288.49
738.383	5283.52
738.723	5269.96
739.063	5322.61
739.404	5336.85
739.744	5313.8
740.084	5355.83
740.424	5346.79
740.764	5363.74
741.104	5357.87
741.444	5366.68
741.784	5376.4
742.124	5389.28
742.464	5420.69
742.804	5429.73
743.143	5482.16
743.483	5456.4
743.823	5474.47
744.162	5446
744.502	5529.39
744.841	5544.08
745.181	5586.79
745.52	5633.57
745.86	5657.07
746.199	5665.88
746.538	5690.51
746.877	5816.39
747.216	5807.8
747.556	5872.2
747.895	5890.96
748.234	5927.34
748.573	5974.8
748.911	6026.55
749.25	6096.61
749.589	6156.49
749.928	6229.71
750.267	6294.11
750.605	6368.01
750.944	6370.04
751.283	6459.99
751.621	6587.44
751.96	6605.29
752.298	6732.52
752.636	6863.82
752.975	6833.08
753.313	6936.81
753.651	7074.66
753.989	7174.09
754.327	7261.09
754.666	7386.06
755.004	7495.44
755.342	7593.52
755.679	7745.15
756.017	7908.53
756.355	8021.98
756.693	8090
757.031	8279.15
757.368	8392.36
757.706	8584.22
758.044	8673.26
758.381	8885.91
758.719	9023.99
759.056	9252.91
759.394	9308.5
759.731	9447.93
760.068	9641.6
760.405	9717.75
760.743	9918.88
761.08	10155.48
761.417	10213.79
761.754	10418.53
762.091	10663.72
762.428	10766.76
762.765	10937.38
763.102	11154.33
763.438	11223.25
763.775	11413.53
764.112	11647.65
764.449	11847.41
764.785	12012.16
765.122	12175.32
765.458	12287.63
765.795	12481.07
766.131	12645.13
766.467	12802.19
766.804	12857.56
767.14	13033.82
767.476	13270.65
767.812	13344.1
768.148	13537.77
768.485	13646.24
768.821	13769.4
769.157	13830.87
769.492	14078.99
769.828	14194.25
770.164	14282.15
770.5	14432.43
770.836	14530.28
771.171	14568.47
771.507	14739.77
771.842	14843.49
772.178	14972.53
772.513	14984.28
772.849	15163.03
773.184	15232.41
773.519	15286.19
773.855	15368.9
774.19	15414.78
774.525	15623.59
774.86	15663.59
775.195	15751.72
775.53	15812.06
775.865	15742.45
776.2	15847.31
776.535	15852.05
776.87	16002.56
777.205	16092.73
777.539	16087.53
777.874	16187.64
778.209	16142.22
778.543	16193.74
778.878	16207.98
779.212	16311.48
779.547	16213.4
779.881	16446.16
780.215	16359.84
780.55	16446.16
780.884	16451.59
781.218	16374.98
781.552	16514.18
781.886	16391.7
782.22	16509.44
782.554	16548.99
782.888	16421.76
783.222	16483
783.556	16435.54
783.889	16474.86
784.223	16348.77
784.557	16404.13
784.89	16458.37
785.224	16413.4
785.557	16411.59
785.891	16381.08
786.224	16432.6
786.558	16473.51
786.891	16323.45
787.224	16474.19
787.557	16377.46
787.891	16408.65
788.224	16357.58
788.557	16447.29
788.89	16431.47
789.223	16488.87
789.556	16355.09
789.888	16322.78
790.221	16302.21
790.554	16230.35
790.887	16202.1
791.219	16214.53
791.552	16234.64
791.884	16119.62
792.217	16159.84
792.549	16163.69
792.882	16060.86
793.214	16053.86
793.546	16126.85
793.879	16004.14
794.211	15851.6
794.543	15986.51
794.875	15956.46
795.207	16056.8
795.539	15928.21
795.871	15959.17
796.203	15861.55
796.535	15777.03
796.867	15732.51
797.198	15809.57
797.53	15753.3
797.862	15644.83
798.193	15637.15
798.525	15573.87
798.856	15642.79
799.188	15452.97
799.519	15557.15
799.85	15397.6
800.182	15405.74
800.513	15442.57
800.844	15314.22
801.175	15426.3
801.506	15364.38
801.837	15289.36
802.168	15349.02
802.499	15305.85
802.83	15276.93
803.161	15224.95
803.491	15192.41
803.822	15249.58
804.153	15117.16
804.483	14958.29
804.814	14958.97
805.145	14920.78
805.475	14877.62
805.805	14931.63
806.136	14962.59
806.466	14939.99
806.796	14863.38
807.126	14760.56
807.457	14731.63
807.787	14841.91
808.117	14744.29
808.447	14629.49
808.777	14706.1
809.107	14622.03
809.436	14574.57
809.766	14502.49
810.096	14431.08
810.426	14497.51
810.755	14565.08
811.085	14537.74
811.414	14402.6
811.744	14326.45
812.073	14344.52
812.403	14415.71
812.732	14302.27
813.061	14261.59
813.39	14172.55
813.719	14124.42
814.049	14304.75
814.378	14207.58
814.707	14180.01
815.036	14188.82
815.365	14160.12
815.693	13961.71
816.022	13963.29
816.351	14035.15
816.68	13902.28
817.008	14018.88
817.337	13864.76
817.665	13860.69
817.994	13857.53
818.322	13828.83
818.651	13684.65
818.979	13678.33
819.307	13858.89
819.636	13792.22
819.964	13704.77
820.292	13776.18
820.62	13712.68
820.948	13645.56
821.276	13732.79
821.604	13694.37
821.932	13714.03
822.259	13770.3
822.587	13737.53
822.915	13734.82
823.243	13701.83
823.57	13650.53
823.898	13660.93
824.225	13615.05
824.553	13621.38
824.88	13663.41
825.207	13761.94
825.535	13703.86
825.862	13680.81
826.189	13662.73
826.516	13699.8
826.843	13723.52
827.17	13725.56
827.497	13815.72
827.824	13770.53
828.151	13789.51
828.478	13793.13
828.805	13809.62
829.131	13780.7
829.458	13695.95
829.785	13612.57
830.111	13732.11
830.438	13814.59
830.764	13815.05
831.09	13757.19
831.417	13687.37
831.743	13697.54
832.069	13730.53
832.395	13678.78
832.722	13721.49
833.048	13581.83
833.374	13709.74
833.7	13579.8
834.026	13650.53
834.351	13648.5
834.677	13656.41
835.003	13654.37
835.329	13604.88
835.654	13658.89
835.98	13614.37
836.306	13633.81
836.631	13543.19
836.956	13506.58
837.282	13579.57
837.607	13459.35
837.932	13454.6
838.258	13483.76
838.583	13371.22
838.908	13335.74
839.233	13402.18
839.558	13390.88
839.883	13301.84
840.208	13314.04
840.533	13332.8
840.858	13241.5
841.182	13304.1
841.507	13327.38
841.832	13203.09
842.156	13216.19
842.481	13159.24
842.805	13156.98
843.13	13135.29
843.454	13081.28
843.778	13033.37
844.103	13043.99
844.427	12961.06
844.751	13053.03
845.075	12877.9
845.399	12888.74
845.723	12874.28
846.047	12872.02
846.371	12676.55
846.695	12765.13
847.019	12613.04
847.343	12643.78
847.666	12519.71
847.99	12519.71
848.313	12463.9
848.637	12384.8
848.96	12481.52
849.284	12365.59
849.607	12342.32
849.931	12242.43
850.254	12175.99
850.577	12070.91
850.9	12031.14
851.223	12074.3
851.546	11942.78
851.869	11858.04
852.192	11928.54
852.515	11818.04
852.838	11766.74
853.161	11792.73
853.483	11739.17
853.806	11576.46
854.129	11634.99
854.451	11686.29
854.774	11601.09
855.096	11499.18
855.419	11445.62
855.741	11484.26
856.063	11416.01
856.385	11379.86
856.708	11287.88
857.03	11326.3
857.352	11277.71
857.674	11251.05
857.996	11270.93
858.318	11168.56
858.64	11203.59
858.961	11101.67
859.283	11068.45
859.605	11013.54
859.926	11058.73
860.248	11016.02
860.57	11025.97
860.891	11010.83
861.212	10916.82
861.534	10874.78
861.855	10823.03
862.176	10893.09
862.498	10900.32
862.819	10844.28
863.14	10825.07
863.461	10730.38
863.782	10794.56
864.103	10772.41
864.424	10665.98
864.745	10710.95
865.065	10636.37
865.386	10564.06
865.707	10564.28
866.027	10603.83
866.348	10585.75
866.668	10541.01
866.989	10495.13
867.309	10465.76
867.63	10562.7
867.95	10529.48
868.27	10459.65
868.59	10487.22
868.91	10405.87
869.23	10444.74
869.55	10392.31
869.87	10495.59
870.19	10331.3
870.51	10413.78
870.83	10382.14
871.15	10330.84
871.469	10306.44
871.789	10303.05
872.109	10289.04
872.428	10232.77
872.748	10316.38
873.067	10265.54
873.386	10233.9
873.706	10268.02
874.025	10207.01
874.344	10193.45
874.663	10115.48
874.982	10174.24
875.301	10191.64
875.62	10092.88
875.939	10108.03
876.258	10121.36
876.577	10018.76
876.896	10061.47
877.214	10137.63
877.533	10049.72
877.852	10034.58
878.17	9973.11
878.489	9978.31
878.807	9965.43
879.125	9941.25
879.444	9964.07
879.762	9924.53
880.08	9903.96
880.398	9904.19
880.716	9852.44
881.034	9793.91
881.352	9826.45
881.67	9847.69
881.988	9740.13
882.306	9802.72
882.624	9715.04
882.941	9672.78
883.259	9658.32
883.577	9646.79
883.894	9619.68
884.212	9627.81
884.529	9647.92
884.846	9522.28
885.164	9537.42
885.481	9536.51
885.798	9572.22
886.115	9430.08
886.432	9487.02
886.75	9352.34
887.067	9433.69
887.383	9334.71
887.7	9387.59
888.017	9312.11
888.334	9373.36
888.651	9350.08
888.967	9347.59
889.284	9261.04
889.6	9187.37
889.917	9178.56
890.233	9177.88
890.55	9098.56
890.866	9169.74
891.182	9142.63
891.498	9021.95
891.815	8964.55
892.131	8983.76
892.447	9038.22
892.763	8931.11
893.079	8987.6
893.395	8926.59
893.71	8880.49
894.026	8791.68
894.342	8843.65
894.657	8764.11
894.973	8699.02
895.289	8792.35
895.604	8739.7
895.92	8700.15
896.235	8619.25
896.55	8600.95
896.865	8577.9
897.181	8567.05
897.496	8591.68
897.811	8465.13
898.126	8434.62
898.441	8359.82
898.756	8379.94
899.071	8289.77
899.386	8326.15
899.7	8288.64
900.015	8247.74
900.33	8243.89
900.644	8230.79
900.959	8174.06
901.273	8177.68
901.588	8099.49
901.902	8120.05
902.216	8134.74
902.531	8057.23
902.845	8020.85
903.159	7937.01
903.473	7932.94
903.787	7884.35
904.101	7858.14
904.415	7848.65
904.729	7857.69
905.042	7806.39
905.356	7768.88
905.67	7727.07
905.984	7714.42
906.297	7743.79
906.611	7754.41
906.924	7672.61
907.237	7625.6
907.551	7583.57
907.864	7491.37
908.177	7519.62
908.491	7456.34
908.804	7458.6
909.117	7387.87
909.43	7329.34
909.743	7359.62
910.056	7309.91
910.368	7246.41
910.681	7297.93
910.994	7286.86
911.307	7242.11
911.619	7170.93
911.932	7155.33
912.244	7115.11
912.557	7116.69
912.869	7103.81
913.181	7072.17
913.494	7021.1
913.806	7007.09
914.118	6967.32
914.43	6878.96
914.742	6954.44
915.054	6890.93
915.366	6868.79
915.678	6815.91
915.99	6811.84
916.302	6775.91
916.613	6684.61
916.925	6692.97
917.236	6681.22
917.548	6655.91
917.859	6637.16
918.171	6626.99
918.482	6606.87
918.794	6535.46
919.105	6483.94
919.416	6425.64
919.727	6480.78
920.038	6474.9
920.349	6392.87
920.66	6373.21
920.971	6377.73
921.282	6361.68
921.593	6296.15
921.903	6239.88
922.214	6257.73
922.525	6234.68
922.835	6231.74
923.146	6137.51
923.456	6148.81
923.767	6176.6
924.077	6113.55
924.387	6069.71
924.697	6070.17
925.008	6003.05
925.318	6018.64
925.628	5980
925.938	5937.29
926.248	5864.75
926.558	5968.25
926.867	5928.47
927.177	5859.1
927.487	5875.14
927.796	5782.04
928.106	5749.04
928.416	5704.53
928.725	5764.86
929.034	5690.74
929.344	5716.05
929.653	5707.91
929.962	5617.52
930.271	5584.98
930.581	5596.28
930.89	5596.73
931.199	5506.79
931.508	5544.53
931.817	5534.59
932.125	5459.33
932.434	5503.4
932.743	5405.78
933.051	5430.18
933.36	5381.14
933.669	5378.66
933.977	5321.26
934.286	5376.62
934.594	5344.53
934.902	5301.37
935.21	5257.08
935.519	5288.04
935.827	5267.7
936.135	5179.79
936.443	5122.17
936.751	5176.86
937.059	5125.78
937.367	5184.09
937.674	5082.85
937.982	5076.52
938.29	5022.51
938.597	5020.7
938.905	4998.78
939.213	4935.51
939.52	4916.07
939.827	4971.44
940.135	4886.02
940.442	4852.34
940.749	4872.68
941.056	4881.27
941.363	4837.2
941.67	4823.87
941.977	4844.43
942.284	4769.18
942.591	4728.28
942.898	4759.24
943.205	4685.57
943.511	4683.31
943.818	4692.12
944.125	4615.51
944.431	4661.61
944.738	4630.88
945.044	4669.98
945.35	4622.97
945.657	4557.21
945.963	4532.13
946.269	4474.73
946.575	4527.15
946.881	4501.39
947.187	4515.18
947.493	4409.19
947.799	4401.06
948.105	4398.34
948.41	4408.51
948.716	4380.72
949.022	4345.01
949.327	4371.23
949.633	4323.77
949.938	4308.18
950.244	4307.05
950.549	4235.64
950.854	4253.49
951.16	4234.51
951.465	4222.08
951.77	4171.91
952.075	4159.26
952.38	4200.16
952.685	4125.58
952.99	4103.89
953.294	4114.96
953.599	4080.39
953.904	4069.77
954.209	4041.07
954.513	4051.46
954.818	4051.24
955.122	4009.65
955.426	3966.49
955.731	3953.38
956.035	3929.66
956.339	3953.84
956.643	3931.92
956.948	3888.75
957.252	3882.43
957.556	3872.48
957.86	3825.25
958.163	3812.37
958.467	3845.59
958.771	3782.32
959.075	3813.05
959.378	3723.11
959.682	3762.88
959.985	3728.98
960.289	3683.56
960.592	3701.41
960.896	3663.45
961.199	3665.93
961.502	3644.69
961.805	3639.95
962.108	3613.96
962.411	3658.93
962.714	3601.76
963.017	3578.25
963.32	3565.82
963.623	3548.2
963.926	3541.64
964.228	3525.6
964.531	3486.73
964.833	3502.78
965.136	3445.15
965.438	3485.15
965.741	3462.32
966.043	3433.62
966.345	3410.57
966.648	3418.71
966.95	3366.06
967.252	3416.45
967.554	3369.45
967.856	3327.86
968.158	3342.55
968.46	3285.83
968.761	3256.91
969.063	3287.87
969.365	3247.19
969.666	3249.67
969.968	3209.9
970.269	3212.84
970.571	3202.22
970.872	3223.91
971.174	3176.91
971.475	3178.26
971.776	3167.87
972.077	3148.21
972.378	3118.83
972.679	3113.86
972.98	3076.12
973.281	3079.51
973.582	3084.03
973.883	3082.9
974.183	3042.67
974.484	3038.38
974.785	3034.76
975.085	3023.24
975.386	3025.05
975.686	2976.69
975.986	2975.56
976.287	2983.92
976.587	2967.87
976.887	2925.16
977.187	2952.73
977.487	2909.34
977.787	2904.6
978.087	2871.38
978.387	2848.33
978.687	2857.14
978.987	2860.31
979.286	2812.85
979.586	2849.46
979.885	2782.79
980.185	2776.01
980.484	2766.52
980.784	2799.29
981.083	2766.52
981.382	2797.48
981.682	2768.33
981.981	2734.66
982.28	2748.22
982.579	2680.88
982.878	2679.29
983.177	2682.23
983.475	2698.05
983.774	2619.18
984.073	2648.33
984.372	2617.6
984.67	2619.18
984.969	2591.16
985.267	2606.08
985.566	2548
985.864	2555.23
986.162	2543.7
986.461	2567.88
986.759	2513.2
987.057	2486.98
987.355	2474.78
987.653	2495.8
987.951	2504.16
988.249	2459.86
988.547	2443.59
988.844	2469.13
989.142	2475.23
989.44	2444.5
989.737	2435.68
990.035	2368.34
990.332	2411.28
990.63	2390.04
990.927	2361.56
991.224	2346.65
991.521	2349.13
991.819	2332.41
992.116	2359.53
992.413	2311.17
992.71	2287.44
993.006	2309.13
993.303	2286.99
993.6	2305.74
993.897	2272.52
994.193	2242.47
994.49	2230.49
994.787	2243.15
995.083	2223.03
995.379	2211.74
995.676	2208.8
995.972	2231.4
996.268	2175.35
996.565	2149.82
996.861	2159.31
997.157	2134.68
997.453	2154.11
997.749	2145.52
998.044	2104.17
998.34	2102.81
998.636	2109.14
998.932	2093.09
999.227	2084.73
999.523	2047.22
999.818	2038.18
1000.114	2013.32
1000.409	2013.55
1000.704	2005.64
1001	2013.32
1001.295	1988.69
1001.59	2011.74
1001.885	2025.53
1002.18	1985.98
1002.475	1944.62
1002.77	1928.35
1003.065	1923.83
1003.359	1933.78
1003.654	1938.97
1003.949	1916.15
1004.243	1886.32
1004.538	1855.13
1004.832	1881.8
1005.127	1884.51
1005.421	1862.82
1005.715	1829.6
1006.009	1835.02
1006.304	1815.81
1006.598	1811.07
1006.892	1807.23
1007.186	1787.57
1007.48	1797.06
1007.773	1783.5
1008.067	1781.92
1008.361	1745.99
1008.655	1742.82
1008.948	1747.12
1009.242	1722.93
1009.535	1717.29
1009.829	1700.79
1010.122	1689.26
1010.415	1696.27
1010.708	1665.54
1011.001	1642.71
1011.295	1668.25
1011.588	1669.15
1011.881	1655.14
1012.173	1635.93
1012.466	1614.69
1012.759	1600
1013.052	1607.68
1013.344	1567.68
1013.637	1606.1
1013.93	1559.78
1014.222	1586.22
1014.514	1556.84
1014.807	1553.9
1015.099	1535.37
1015.391	1520
1015.683	1506.9
1015.976	1522.49
1016.268	1489.95
1016.56	1497.63
1016.851	1520.23
1017.143	1480.68
1017.435	1445.43
1017.727	1441.36
1018.018	1436.84
1018.31	1431.64
1018.602	1429.84
1018.893	1389.16
1019.185	1407.46
1019.476	1395.03
1019.767	1391.19
1020.058	1406.33
1020.35	1367.69
1020.641	1364.53
1020.932	1363.62
1021.223	1320.23
1021.514	1336.73
1021.804	1343.51
1022.095	1300.35
1022.386	1310.52
1022.677	1316.84
1022.967	1266.68
1023.258	1265.09
1023.548	1278.43
1023.839	1260.35
1024.129	1263.51
1024.419	1262.38
1024.709	1246.79
1025	1221.93
1025.29	1219.22
1025.58	1215.15
1025.87	1197.3
1026.16	1198.43
1026.449	1209.73
1026.739	1210.18
1027.029	1191.88
1027.319	1176.73
1027.608	1177.41
1027.898	1138.77
1028.187	1169.96
1028.477	1130.41
1028.766	1142.61
1029.055	1142.16
1029.344	1145.55
1029.634	1135.15
1029.923	1108.26
1030.212	1087.02
1030.501	1103.97
1030.79	1082.27
1031.078	1066.68
1031.367	1084.31
1031.656	1068.26
1031.945	1040.47
1032.233	1072.78
1032.522	1054.48
1032.81	1030.98
1033.099	1028.04
1033.387	1035.72
1033.675	1019.68
1033.963	1021.26
1034.251	1019.45
1034.54	998.89
1034.828	1007.47
1035.116	1009.51
1035.403	971.99
1035.691	972.45
1035.979	981.94
1036.267	951.88
1036.554	965.21
1036.842	958.66
1037.129	929.51
1037.417	921.6
1037.704	947.59
1037.992	918.44
1038.279	899.45
1038.566	914.59
1038.853	914.59
1039.14	914.59
