Data from hue_290_FLMS001491_00025.txt Node
Date: Tue Feb 07 15:52:31 GMT 2017
User: dcchb
Spectrometer: FLMS00149
Trigger mode: 0
Integration Time (sec): 2.000000E-2
Scans to average: 10
Electric dark correction enabled: true
Nonlinearity correction enabled: false
Boxcar width: 0
XAxis mode: Wavelengths
Number of Pixels in Spectrum: 2048
>>>>>Begin Spectral Data<<<<<
341.393	-3.8
341.776	-3.8
342.16	-3.8
342.543	-63.46
342.927	-58.04
343.31	-44.93
343.693	-69.11
344.077	-54.87
344.46	-59.39
344.843	-50.58
345.226	-44.25
345.61	-26.17
345.993	-26.85
346.376	-22.33
346.759	4.11
347.142	54.5
347.525	21.06
347.908	48.85
348.291	75.75
348.674	92.7
349.057	101.51
349.44	113.26
349.823	146.48
350.206	158.68
350.588	176.31
350.971	181.05
351.354	203.65
351.737	223.99
352.119	246.36
352.502	250.21
352.884	263.76
353.267	270.09
353.65	290.66
354.032	288.85
354.414	305.57
354.797	306.02
355.179	299.02
355.562	332.91
355.944	316.19
356.326	329.75
356.709	310.77
357.091	340.82
357.473	338.56
357.855	342.86
358.238	326.14
358.62	322.29
359.002	330.88
359.384	331.79
359.766	347.6
360.148	349.86
360.53	337.21
360.912	318
361.294	309.41
361.676	336.3
362.057	347.6
362.439	327.72
362.821	314.61
363.203	314.84
363.584	330.43
363.966	335.4
364.348	305.12
364.729	314.84
365.111	324.33
365.493	309.64
365.874	327.27
366.256	310.32
366.637	322.29
367.019	309.86
367.4	308.28
367.781	308.28
368.163	294.95
368.544	303.09
368.925	309.86
369.306	322.75
369.688	327.27
370.069	323.88
370.45	299.7
370.831	313.71
371.212	303.54
371.593	312.8
371.974	322.97
372.355	296.76
372.736	309.64
373.117	305.57
373.498	300.15
373.879	304.89
374.26	299.24
374.641	312.58
375.021	303.99
375.402	306.93
375.783	307.83
376.163	325.23
376.544	310.32
376.925	327.27
377.305	314.16
377.686	303.31
378.066	324.1
378.447	325.23
378.827	336.53
379.208	348.28
379.588	317.55
379.968	329.75
380.349	346.7
380.729	343.31
381.109	336.08
381.489	321.84
381.87	315.51
382.25	322.75
382.63	344.21
383.01	334.04
383.39	352.35
383.77	339.24
384.15	343.54
384.53	334.27
384.91	349.86
385.29	359.13
385.67	346.7
386.049	331.33
386.429	351.9
386.809	327.72
387.189	346.25
387.568	345.8
387.948	357.77
388.328	369.52
388.707	347.15
389.087	376.3
389.466	362.29
389.846	365.91
390.225	359.81
390.605	363.87
390.984	370.2
391.363	367.26
391.743	376.53
392.122	371.33
392.501	365
392.881	396.19
393.26	380.6
393.639	380.6
394.018	371.11
394.397	390.31
394.776	380.37
395.155	389.86
395.534	387.15
395.913	365.23
396.292	396.42
396.671	393.25
397.05	380.37
397.429	396.19
397.808	404.33
398.186	401.84
398.565	418.11
398.944	396.42
399.323	412.23
399.701	418.11
400.08	401.16
400.458	423.53
400.837	400.71
401.215	409.52
401.594	419.47
401.972	422.18
402.351	432.57
402.729	447.49
403.107	434.38
403.486	450.2
403.864	435.06
404.242	411.78
404.62	422.63
404.999	451.56
405.377	442.52
405.755	447.94
406.133	473.7
406.511	450.2
406.889	467.83
407.267	479.58
407.645	490.65
408.023	478
408.401	496.3
408.779	493.36
409.156	512.12
409.534	495.85
409.912	492.01
410.29	521.61
410.667	547.6
411.045	541.72
411.422	534.04
411.8	559.8
412.178	541.5
412.555	552.57
412.933	571.1
413.31	573.13
413.687	585.56
414.065	586.02
414.442	581.95
414.819	606.35
415.197	616.3
415.574	626.24
415.951	610.65
416.328	637.77
416.705	631.66
417.082	620.82
417.46	652.68
417.837	675.05
418.214	661.04
418.591	647.93
418.967	669.86
419.344	681.83
419.721	686.58
420.098	678.67
420.475	701.49
420.852	722.06
421.228	719.35
421.605	728.38
421.982	732.9
422.358	741.49
422.735	781.94
423.111	753.69
423.488	771.77
423.864	807.93
424.241	786.91
424.617	804.99
424.994	815.16
425.37	809.06
425.746	852.68
426.123	831.88
426.499	869.85
426.875	859.68
427.251	872.79
427.627	890.64
428.003	864.65
428.379	917.98
428.756	920.7
429.132	907.59
429.507	939.9
429.883	935.61
430.259	955.72
430.635	967.47
431.011	945.55
431.387	978.32
431.763	996.85
432.138	1005.21
432.514	1025.1
432.89	1016.06
433.265	1061.94
433.641	1050.18
434.016	1049.51
434.392	1082.27
434.767	1108.71
435.143	1105.1
435.518	1134.93
435.894	1159.56
436.269	1143.74
436.644	1155.94
437.02	1181.03
437.395	1192.55
437.77	1182.84
438.145	1195.27
438.52	1227.13
438.895	1231.42
439.271	1237.75
439.646	1251.76
440.021	1250.86
440.395	1249.05
440.77	1267.35
441.145	1284.08
441.52	1315.71
441.895	1298.09
442.27	1302.83
442.645	1291.08
443.019	1324.75
443.394	1349.84
443.769	1342.38
444.143	1346.9
444.518	1367.24
444.892	1370.85
445.267	1357.75
445.641	1393.23
446.016	1396.62
446.39	1418.31
446.764	1406.11
447.139	1405.2
447.513	1415.82
447.887	1434.58
448.262	1435.26
448.636	1437.52
449.01	1431.87
449.384	1473
449.758	1433.68
450.132	1478.65
450.506	1480.23
450.88	1501.02
451.254	1485.88
451.628	1484.07
452.002	1524.07
452.376	1520.23
452.75	1534.01
453.123	1527.01
453.497	1542.83
453.871	1545.76
454.244	1611.07
454.618	1567.68
454.992	1608.59
455.365	1628.25
455.739	1642.94
456.112	1634.58
456.486	1652.88
456.859	1677.06
457.232	1681.58
457.606	1679.55
457.979	1682.26
458.352	1731.07
458.725	1731.75
459.099	1734.01
459.472	1750.28
459.845	1765.87
460.218	1756.61
460.591	1783.27
460.964	1806.55
461.337	1844.06
461.71	1848.36
462.083	1881.8
462.456	1884.96
462.829	1888.13
463.201	1926.09
463.574	1943.72
463.947	1921.35
464.32	1944.85
464.692	1940.33
465.065	1971.06
465.438	2001.12
465.81	2031.4
466.183	2037.5
466.555	2056.94
466.928	2092.64
467.3	2076.82
467.672	2080.89
468.045	2138.29
468.417	2148.01
468.789	2147.1
469.161	2164.28
469.534	2205.63
469.906	2235.24
470.278	2233.66
470.65	2247.67
471.022	2293.54
471.394	2302.13
471.766	2341
472.138	2359.3
472.51	2419.41
472.882	2404.95
473.253	2416.02
473.625	2488.11
473.997	2469.58
474.369	2516.36
474.74	2500.32
475.112	2560.88
475.484	2561.1
475.855	2626.19
476.227	2603.59
476.598	2686.07
476.97	2683.81
477.341	2728.11
477.713	2767.43
478.084	2792.06
478.455	2837.03
478.827	2849.91
479.198	2895.11
479.569	2921.1
479.94	3005.61
480.311	3014.65
480.682	3022.79
481.053	3099.17
481.424	3130.36
481.795	3107.08
482.166	3200.64
482.537	3206.06
482.908	3250.35
483.279	3296
483.65	3304.14
484.021	3357.69
484.391	3342.78
484.762	3368.09
485.133	3463.45
485.503	3438.14
485.874	3589.33
486.244	3550.23
486.615	3618.25
486.985	3630.68
487.356	3663.9
487.726	3687.86
488.097	3756.78
488.467	3768.08
488.837	3783.22
489.207	3820.28
489.578	3915.65
489.948	3924.91
490.318	3949.77
490.688	3969.2
491.058	4020.95
491.428	4045.81
491.798	4086.04
492.168	4130.56
492.538	4140.95
492.908	4187.5
493.278	4266.37
493.648	4227.5
494.017	4285.58
494.387	4322.87
494.757	4291
495.126	4360.61
495.496	4382.3
495.866	4370.32
496.235	4383.88
496.605	4436.99
496.974	4473.82
497.344	4471.34
497.713	4513.82
498.082	4531.45
498.452	4569.41
498.821	4601.96
499.19	4583.88
499.559	4650.32
499.928	4677.89
500.298	4667.04
500.667	4742.06
501.036	4719.01
501.405	4752.91
501.774	4735.74
502.143	4773.48
502.512	4781.16
502.88	4818.45
503.249	4786.58
503.618	4846.47
503.987	4829.75
504.356	4841.05
504.724	4907.71
505.093	4895.51
505.462	4926.92
505.83	4900.93
506.199	4922.85
506.567	5025.67
506.936	5031.55
507.304	5028.38
507.672	5047.82
508.041	5081.26
508.409	5103.86
508.777	5128.27
509.145	5147.7
509.514	5140.02
509.882	5156.29
510.25	5164.65
510.618	5188.15
510.986	5208.27
511.354	5230.41
511.722	5234.26
512.09	5310.86
512.458	5276.29
512.826	5311.54
513.193	5318.32
513.561	5348.83
513.929	5372.78
514.297	5399.67
514.664	5439.45
515.032	5412.56
515.4	5412.33
515.767	5441.48
516.135	5464.53
516.502	5493.01
516.869	5489.39
517.237	5529.61
517.604	5479.45
517.972	5590.63
518.339	5578.2
518.706	5506.79
519.073	5519.22
519.44	5598.09
519.808	5680.12
520.175	5611.42
520.542	5646
520.909	5648.48
521.276	5662.27
521.643	5734.13
522.009	5802.38
522.376	5752.89
522.743	5828.59
523.11	5803.96
523.477	5891.19
523.843	5934.8
524.21	5917.4
524.577	5958.76
524.943	5966.21
525.31	6003.27
525.676	6051.18
526.043	6068.36
526.409	6058.64
526.776	6141.35
527.142	6143.38
527.508	6136.6
527.874	6215.02
528.241	6179.99
528.607	6234.68
528.973	6227.9
529.339	6231.29
529.705	6292.53
530.071	6317.16
530.437	6409.37
530.803	6361.23
531.169	6384.06
531.535	6373.89
531.901	6439.42
532.267	6441.68
532.632	6511.06
532.998	6520.55
533.364	6516.71
533.73	6562.58
534.095	6568.68
534.461	6664.27
534.826	6642.58
535.192	6631.96
535.557	6660.21
535.923	6669.02
536.288	6677.61
536.653	6756.25
537.019	6723.93
537.384	6752.86
537.749	6793.76
538.114	6709.92
538.479	6809.58
538.845	6829.47
539.21	6813.65
539.575	6881.22
539.94	6854.33
540.305	6878.05
540.67	6872.18
541.034	6927.77
541.399	6907.66
541.764	7007.09
542.129	6976.58
542.494	7053.42
542.858	7026.52
543.223	7028.78
543.587	7069.46
543.952	7010.03
544.316	7121.44
544.681	7139.29
545.045	7207.99
545.41	7179.51
545.774	7211.83
546.138	7215.45
546.503	7244.6
546.867	7198.72
547.231	7286.63
547.595	7342.67
547.959	7306.74
548.324	7278.04
548.688	7269.23
549.052	7325.95
549.416	7342.67
549.779	7375.67
550.143	7401.66
550.507	7484.59
550.871	7365.95
551.235	7463.8
551.599	7453.86
551.962	7457.93
552.326	7444.14
552.689	7524.36
553.053	7527.3
553.417	7510.81
553.78	7552.84
554.143	7586.74
554.507	7631.71
554.87	7574.76
555.234	7743.12
555.597	7659.28
555.96	7668.32
556.323	7676.9
556.686	7708.77
557.05	7803.68
557.413	7744.25
557.776	7780.18
558.139	7770.23
558.502	7814.3
558.865	7821.31
559.228	7805.49
559.59	7890.68
559.953	7921.19
560.316	7957.35
560.679	7981.08
561.041	7977.69
561.404	8014.29
561.767	8071.02
562.129	8033.28
562.492	8078.02
562.854	8065.82
563.217	8128.42
563.579	8155.53
563.941	8156.44
564.304	8195.53
564.666	8210
565.028	8279.15
565.39	8263.55
565.753	8283.44
566.115	8322.76
566.477	8384.68
566.839	8273.05
567.201	8407.28
567.563	8405.47
567.925	8400.95
568.287	8539.7
568.648	8515.3
569.01	8575.86
569.372	8587.16
569.734	8497.22
570.095	8616.54
570.457	8639.14
570.819	8664.67
571.18	8724.33
571.542	8710.32
571.903	8843.2
572.265	8813.37
572.626	8866.7
572.987	8874.84
573.349	8919.58
573.71	8958.45
574.071	8966.13
574.432	9049.52
574.794	9162.51
575.155	9102.4
575.516	9150.76
575.877	9137.2
576.238	9320.7
576.599	9312.57
576.96	9385.78
577.32	9407.93
577.681	9466.69
578.042	9514.14
578.403	9543.07
578.763	9569.96
579.124	9599.34
579.485	9771.54
579.845	9783.97
580.206	9815.15
580.566	9952.1
580.927	9958.88
581.287	10094.47
581.648	10130.62
582.008	10210.17
582.368	10308.92
582.728	10416.04
583.089	10420.56
583.449	10549.6
583.809	10673.89
584.169	10749.82
584.529	10755.69
584.889	10948.23
585.249	11035.91
585.609	11104.61
585.969	11228.9
586.329	11315.68
586.688	11444.71
587.048	11611.04
587.408	11716.8
587.768	11778.72
588.127	11903.91
588.487	12048.99
588.846	12188.42
589.206	12270.68
589.565	12495.31
589.925	12570.33
590.284	12713.83
590.643	12972.81
591.003	13009.87
591.362	13072.69
591.721	13254.84
592.08	13399.92
592.44	13486.02
592.799	13668.16
593.158	13798.32
593.517	13855.72
593.876	14069.5
594.235	14163.96
594.593	14346.33
594.952	14557.4
595.311	14547.46
595.67	14686.44
596.029	14904.74
596.387	15110.38
596.746	15178.4
597.104	15276.02
597.463	15409.35
597.822	15546.98
598.18	15605.96
598.538	15799.85
598.897	16084.59
599.255	16042.33
599.613	16260.63
599.972	16376.33
600.33	16440.74
600.688	16519.83
601.046	16701.07
601.404	16850.45
601.762	16922.76
602.12	17090.89
602.478	17300.83
602.836	17276.88
603.194	17258.35
603.552	17416.53
603.91	17499.7
604.268	17731.55
604.625	17611.33
604.983	17792.12
605.341	17882.51
605.698	18044.31
606.056	18275.04
606.413	18190.98
606.771	18342.16
607.128	18500.35
607.485	18437.98
607.843	18587.12
608.2	18641.81
608.557	18882.71
608.914	18810.85
609.272	18977.62
609.629	19132.65
609.986	19200.89
610.343	19178.75
610.7	19388.46
611.057	19395.24
611.414	19430.72
611.771	19547.78
612.127	19559.53
612.484	19688.34
612.841	19782.35
613.198	19778.28
613.554	19802.69
613.911	20032.51
614.267	20042
614.624	20059.4
614.98	20179.4
615.337	20365.61
615.693	20337.36
616.05	20307.98
616.406	20483.35
616.762	20495.55
617.118	20503.68
617.475	20638.37
617.831	20694.87
618.187	20706.62
618.543	20771.25
618.899	20942.99
619.255	20948.64
619.611	20783.68
619.967	21014.63
620.323	21019.83
620.678	20944.8
621.034	21080.39
621.39	21106.15
621.746	21093.73
622.101	21152.48
622.457	21230.44
622.812	21210.11
623.168	21392.7
623.523	21371.46
623.879	21392.93
624.234	21221.18
624.589	21414.85
624.945	21461.85
625.3	21476.77
625.655	21385.92
626.01	21511.12
626.365	21574.39
626.72	21503.88
627.075	21511.79
627.43	21567.38
627.785	21378.46
628.14	21679.02
628.495	21614.84
628.85	21562.41
629.205	21496.65
629.559	21688.51
629.914	21648.29
630.269	21580.72
630.623	21575.07
630.978	21458.91
631.332	21518.8
631.687	21593.15
632.041	21504.56
632.396	21617.33
632.75	21532.58
633.104	21489.65
633.459	21468.18
633.813	21440.61
634.167	21541.4
634.521	21490.32
634.875	21594.5
635.229	21519.93
635.583	21450.33
635.937	21441.06
636.291	21485.81
636.645	21304.57
636.999	21492.36
637.352	21545.92
637.706	21294.17
638.06	21411.68
638.413	21361.51
638.767	21331.68
639.121	21337.11
639.474	21288.75
639.828	21371.91
640.181	21295.53
640.534	21295.53
640.888	21272.48
641.241	21258.92
641.594	21179.15
641.947	21293.49
642.301	21281.97
642.654	21284.91
643.007	21276.77
643.36	21219.82
643.713	21191.35
644.066	21313.83
644.419	21172.37
644.771	21000.62
645.124	20842.66
645.477	20827.29
645.83	20665.71
646.182	20685.83
646.535	20535.32
646.888	20594.98
647.24	20486.96
647.593	20637.92
647.945	20623.45
648.298	20497.36
648.65	20566.51
649.002	20514.53
649.355	20575.32
649.707	20566.73
650.059	20621.2
650.411	20905.48
650.763	20962.43
651.115	21113.16
651.467	21010.79
651.819	21190.67
652.171	21078.13
652.523	20997.68
652.875	21111.8
653.227	21043.1
653.578	21080.84
653.93	21117
654.282	21022.54
654.633	20875.43
654.985	21042.43
655.337	21049.21
655.688	21120.62
656.039	21147.28
656.391	21003.11
656.742	21071.8
657.094	21013.73
657.445	21128.53
657.796	21044.69
658.147	20984.35
658.498	21021.86
658.849	20987.51
659.2	21021.18
659.551	20910.45
659.902	20997
660.253	20937.12
660.604	20997.46
660.955	20918.36
661.306	20985.03
661.656	21007.4
662.007	21100.96
662.358	21084.69
662.708	21034.29
663.059	21028.87
663.409	20984.35
663.76	21144.57
664.11	21144.57
664.461	21042.88
664.811	21114.97
665.161	21145.25
665.511	21093.95
665.862	21117
666.212	21132.37
666.562	21160.62
666.912	21091.47
667.262	21126.72
667.612	21159.03
667.962	21109.32
668.312	21158.81
668.662	21166.27
669.011	21068.19
669.361	21099.83
669.711	20990.45
670.06	20986.16
670.41	20998.81
670.76	21019.6
671.109	21067.29
671.459	20966.5
671.808	20987.74
672.157	20962.66
672.507	20911.13
672.856	20862.77
673.205	20946.61
673.554	20904.8
673.904	20876.78
674.253	20984.35
674.602	20876.33
674.951	20550.46
675.3	20554.53
675.649	20848.76
675.998	20834.97
676.346	20879.72
676.695	20919.94
677.044	20670.69
677.393	20787.07
677.741	20884.01
678.09	20799.95
678.438	20792.26
678.787	20800.4
679.135	20848.76
679.484	20628.65
679.832	20617.81
680.181	20534.19
680.529	20544.59
680.877	20591.59
681.225	20538.49
681.573	20576.9
681.922	20439.28
682.27	20425.04
682.618	20333.75
682.966	20339.62
683.314	20382.56
683.661	20291.03
684.009	20293.29
684.357	20230.02
684.705	20154.09
685.053	20230.24
685.4	20070.93
685.748	20070.25
686.095	19966.97
686.443	19899.86
686.79	19859.63
687.138	19963.59
687.485	19922.46
687.832	19841.55
688.18	19819.41
688.527	19759.75
688.874	19648.34
689.221	19637.94
689.568	19633.2
689.915	19566.76
690.262	19509.81
690.609	19429.59
690.956	19448.8
691.303	19457.16
691.65	19232.53
691.997	19310.27
692.344	19132.87
692.69	19151.63
693.037	19105.3
693.383	18928.36
693.73	19012.42
694.077	18883.16
694.423	18849.49
694.769	18890.39
695.116	18765.42
695.462	18738.31
695.808	18622.6
696.155	18660.57
696.501	18563.62
696.847	18506.67
697.193	18246.12
697.539	18367.92
697.885	18190.3
698.231	18179
698.577	18165.21
698.923	18163.18
699.269	17937.88
699.614	17917.76
699.96	17867.14
700.306	17916.18
700.651	17810.2
700.997	17752.34
701.342	17653.59
701.688	17651.56
702.033	17662.4
702.379	17561.84
702.724	17567.94
703.069	17512.58
703.415	17323.88
703.76	17320.94
704.105	17304.9
704.45	17294.05
704.795	17038.46
705.14	17125.24
705.485	17018.13
705.83	17012.02
706.175	17008.86
706.52	16939.48
706.865	16909.43
707.209	16826.72
707.554	16809.32
707.899	16834.18
708.243	16743.33
708.588	16725.7
708.932	16545.37
709.277	16536.78
709.621	16572.04
709.966	16493.39
710.31	16510.12
710.654	16323.68
710.998	16367.97
711.342	16279.84
711.687	16326.39
712.031	16243.01
712.375	16125.04
712.719	16189.45
713.063	16146.51
713.407	16190.8
713.75	16045.27
714.094	16100.18
714.438	15989
714.782	16069
715.125	15970.47
715.469	15943.58
715.812	15887.99
716.156	15801.89
716.499	15784.26
716.843	15786.97
717.186	15740.42
717.53	15765.28
717.873	15758.5
718.216	15759.63
718.559	15575.68
718.902	15541.33
719.246	15623.36
719.589	15594.66
719.932	15563.93
720.275	15510.37
720.617	15455.91
720.96	15464.04
721.303	15551.95
721.646	15530.03
721.989	15312.63
722.331	15467.66
722.674	15417.72
723.016	15438.73
723.359	15389.47
723.701	15384.27
724.044	15325.74
724.386	15291.39
724.729	15266.76
725.071	15196.25
725.413	15311.5
725.755	15322.13
726.097	15115.58
726.439	15129.59
726.782	15109.7
727.124	15193.54
727.465	15092.3
727.807	15113.54
728.149	15128.46
728.491	15070.61
728.833	15092.75
729.175	15043.94
729.516	15118.06
729.858	15012.08
730.199	15103.83
730.541	15088.69
730.882	14991.96
731.224	15041.68
731.565	14974.34
731.906	14963.49
732.248	14986.09
732.589	14871.52
732.93	14872.42
733.271	14995.81
733.612	14958.75
733.953	14935.69
734.294	14861.35
734.635	14879.65
734.976	14963.72
735.317	14829.48
735.658	14799.88
735.999	14862.25
736.339	14887.56
736.68	14889.37
737.021	14875.36
737.361	14783.38
737.702	14915.81
738.042	14848.69
738.383	14848.92
738.723	14996.26
739.063	14756.04
739.404	14893.89
739.744	14909.25
740.084	14918.07
740.424	14883.27
740.764	14839.43
741.104	14958.97
741.444	14859.54
741.784	14903.15
742.124	14891.63
742.464	15016.37
742.804	14867
743.143	14914
743.483	14985.86
743.823	14926.66
744.162	14970.27
744.502	15024.05
744.841	14918.07
745.181	15158.51
745.52	15048.91
745.86	15165.97
746.199	15276.25
746.538	15295.23
746.877	15349.24
747.216	15285.06
747.556	15300.43
747.895	15387.66
748.234	15395.34
748.573	15477.15
748.911	15472.18
749.25	15546.53
749.589	15550.59
749.928	15680.31
750.267	15770.25
750.605	15873.52
750.944	15944.03
751.283	15966.4
751.621	16080.07
751.96	16082.78
752.298	16175.66
752.636	16290.24
752.975	16301.31
753.313	16433.06
753.651	16507.63
753.989	16581.53
754.327	16699.26
754.666	16568.19
755.004	16956.88
755.342	17027.17
755.679	17099.93
756.017	17175.86
756.355	17329.53
756.693	17275.97
757.031	17437.78
757.368	17451.33
757.706	17595.74
758.044	17732.91
758.381	17936.29
758.719	17842.96
759.056	18068.04
759.394	18046.35
759.731	18160.24
760.068	18335.15
760.405	18320.01
760.743	18435.26
761.08	18615.37
761.417	18688.14
761.754	18735.14
762.091	18924.52
762.428	18895.82
762.765	19029.15
763.102	19113.21
763.438	19195.02
763.775	19269.82
764.112	19317.05
764.449	19530.38
764.785	19486.08
765.122	19595.91
765.458	19632.75
765.795	19684.27
766.131	19872.74
766.467	19765.85
766.804	19809.24
767.14	19758.84
767.476	19923.81
767.812	20081.77
768.148	20156.8
768.485	20044.94
768.821	20054.2
769.157	20091.72
769.492	20138.04
769.828	20229.57
770.164	20145.05
770.5	20165.39
770.836	20282.22
771.171	20146.41
771.507	20293.52
771.842	20083.36
772.178	20217.82
772.513	20246.52
772.849	20221.43
773.184	20216.91
773.519	20225.5
773.855	20181.66
774.19	20152.28
774.525	20128.1
774.86	20160.87
775.195	20272.73
775.53	20239.06
775.865	20128.55
776.2	19968.1
776.535	20026.86
776.87	20077.93
777.205	20010.59
777.539	19897.6
777.874	20033.41
778.209	19845.85
778.543	19973.98
778.878	19802.01
779.212	19820.76
779.547	19758.39
779.881	19827.54
780.215	19771.27
780.55	19720.88
780.884	19676.36
781.218	19701.45
781.552	19567.21
781.886	19652.86
782.22	19540.09
782.554	19407.44
782.888	19303.04
783.222	19265.07
783.556	19292.87
783.889	19243.83
784.223	19135.58
784.557	19117.51
784.89	19138.75
785.224	19054
785.557	18947.79
785.891	19035.25
786.224	18918.19
786.558	18975.81
786.891	18641.13
787.224	18693.34
787.557	18560.01
787.891	18689.04
788.224	18600.23
788.557	18606.11
788.89	18599.1
789.223	18521.36
789.556	18340.58
789.888	18365.21
790.221	18261.94
790.554	18294.25
790.887	18066.91
791.219	18157.08
791.552	18120.24
791.884	18049.06
792.217	18076.4
792.549	18000.92
792.882	17864.88
793.214	17878.67
793.546	17779.91
793.879	17676.19
794.211	17545.12
794.543	17714.83
794.875	17581.73
795.207	17572.69
795.539	17474.16
795.871	17469.64
796.203	17390.55
796.535	17357.33
796.867	17253.37
797.198	17215.41
797.53	17235.52
797.862	17010.67
798.193	17108.52
798.525	16946.26
798.856	17038.92
799.188	16820.84
799.519	16795.53
799.85	16812.03
800.182	16683.9
800.513	16746.72
800.844	16603.22
801.175	16709.21
801.506	16682.77
801.837	16591.02
802.168	16544.92
802.499	16519.61
802.83	16363.91
803.161	16395.77
803.491	16351.02
803.822	16334.08
804.153	16191.71
804.483	16191.71
804.814	16150.58
805.145	16100.64
805.475	16115.32
805.805	16022.45
806.136	16035.78
806.466	15917.82
806.796	15902.9
807.126	15783.81
807.457	15747.2
807.787	15845.28
808.117	15733.64
808.447	15715.11
808.777	15661.55
809.107	15565.51
809.436	15515.57
809.766	15537.94
810.096	15538.62
810.426	15448.45
810.755	15413.65
811.085	15460.65
811.414	15403.48
811.744	15314.44
812.073	15210.72
812.403	15333.88
812.732	15146.54
813.061	15153.99
813.39	15057.27
813.719	15053.88
814.049	15130.49
814.378	15065.41
814.707	14900.44
815.036	14951.97
815.365	14879.43
815.693	14709.94
816.022	14786.09
816.351	14795.36
816.68	14578.19
817.008	14772.54
817.337	14622.03
817.665	14602.14
817.994	14587
818.322	14602.14
818.651	14579.09
818.979	14456.16
819.307	14539.55
819.636	14499.32
819.964	14448.48
820.292	14504.97
820.62	14423.84
820.948	14378.65
821.276	14492.99
821.604	14404.41
821.932	14382.94
822.259	14444.18
822.587	14368.93
822.915	14317.86
823.243	14343.39
823.57	14288.25
823.898	14290.29
824.225	14258.42
824.553	14310.17
824.88	14294.58
825.207	14352.66
825.535	14295.94
825.862	14286.9
826.189	14307.01
826.516	14319.21
826.843	14312.89
827.17	14265.2
827.497	14323.28
827.824	14273.79
828.151	14373
828.478	14242.83
828.805	14356.95
829.131	14213.91
829.458	14245.77
829.785	14233.79
830.111	14308.59
830.438	14321.25
830.764	14311.53
831.09	14203.74
831.417	14212.32
831.743	14223.85
832.069	14306.56
832.395	14111.31
832.722	14221.14
833.048	14225.43
833.374	14173.46
833.7	14092.78
834.026	14150.18
834.351	14213.45
834.677	14128.71
835.003	14129.84
835.329	14131.65
835.654	14063.63
835.98	14076.73
836.306	14076.28
836.631	14009.62
836.956	14051.2
837.282	14090.52
837.607	13974.59
837.932	13900.47
838.258	13957.87
838.583	13901.82
838.908	13775.73
839.233	13859.11
839.558	13794.48
839.883	13798.32
840.208	13709.51
840.533	13724.43
840.858	13766.23
841.182	13808.04
841.507	13721.72
841.832	13690.53
842.156	13699.34
842.481	13568.73
842.805	13638.78
843.13	13515.17
843.454	13595.17
843.778	13451.89
844.103	13414.83
844.427	13340.71
844.751	13358.34
845.075	13375.96
845.399	13324.89
845.723	13241.05
846.047	13269.98
846.371	13176.65
846.695	13208.28
847.019	12972.58
847.343	13026.82
847.666	12945.46
847.99	12841.51
848.313	12839.7
848.637	12784.11
848.96	12702.99
849.284	12737.33
849.607	12643.33
849.931	12545.7
850.254	12523.1
850.577	12476.55
850.9	12425.48
851.223	12361.98
851.546	12260.74
851.869	12284.69
852.192	12347.97
852.515	12241.3
852.838	12089.22
853.161	12185.94
853.483	12085.37
853.806	12068.43
854.129	12012.61
854.451	12010.57
854.774	11854.19
855.096	11912.27
855.419	11867.07
855.741	11786.63
856.063	11747.53
856.385	11712.73
856.708	11656.69
857.03	11646.52
857.352	11581.43
857.674	11527.65
857.996	11586.4
858.318	11545.05
858.64	11436.58
858.961	11393.19
859.283	11385.73
859.605	11350.93
859.926	11458.27
860.248	11317.71
860.57	11247.88
860.891	11329.24
861.212	11214.21
861.534	11236.81
861.855	11148.9
862.176	11234.78
862.498	11180.77
862.819	11138.73
863.14	11039.75
863.461	11112.07
863.782	11001.34
864.103	11009.02
864.424	10932.18
864.745	11012.63
865.065	10959.08
865.386	10905.52
865.707	10918.63
866.027	10991.84
866.348	10880.21
866.668	10954.33
866.989	10844.73
867.309	10796.59
867.63	10777.39
867.95	10769.02
868.27	10717.27
868.59	10790.72
868.91	10724.51
869.23	10750.49
869.55	10592.98
869.87	10714.79
870.19	10588.69
870.51	10717.27
870.83	10632.31
871.15	10607.45
871.469	10548.69
871.789	10633.66
872.109	10603.61
872.428	10523.38
872.748	10510.73
873.067	10519.54
873.386	10494.91
873.706	10500.78
874.025	10428.24
874.344	10458.3
874.663	10383.05
874.982	10427.79
875.301	10389.83
875.62	10344.18
875.939	10345.08
876.258	10351.86
876.577	10307.12
876.896	10284.52
877.214	10289.26
877.533	10303.27
877.852	10245.2
878.17	10317.06
878.489	10305.08
878.807	10170.85
879.125	10175.59
879.444	10244.07
879.762	10116.61
880.08	10152.77
880.398	10124.3
880.716	10113.9
881.034	10061.02
881.352	10036.61
881.67	9989.38
881.988	9988.25
882.306	9984.86
882.624	9965.66
882.941	9953.45
883.259	9914.58
883.577	9883.4
883.894	9881.59
884.212	9847.47
884.529	9848.37
884.846	9666.45
885.164	9726.34
885.481	9816.06
885.798	9762.95
886.115	9709.84
886.432	9642.05
886.75	9653.35
887.067	9617.42
887.383	9574.25
887.7	9634.37
888.017	9516.4
888.334	9589.62
888.651	9508.04
888.967	9512.33
889.284	9461.04
889.6	9388.27
889.917	9405.67
890.233	9392.79
890.55	9327.48
890.866	9407.48
891.182	9329.06
891.498	9246.8
891.815	9208.61
892.131	9281.38
892.447	9244.09
892.763	9238.67
893.079	9137.88
893.395	9079.8
893.71	9108.5
894.026	9085.91
894.342	9081.16
894.657	9019.69
894.973	8958.9
895.289	8972.24
895.604	8947.15
895.92	8819.92
896.235	8854.95
896.55	8854.27
896.865	8809.98
897.181	8799.59
897.496	8794.84
897.811	8703.77
898.126	8665.8
898.441	8659.25
898.756	8617.44
899.071	8585.13
899.386	8635.52
899.7	8525.02
900.015	8511.01
900.33	8437.33
900.644	8400.95
900.959	8382.42
901.273	8358.47
901.588	8335.64
901.902	8317.79
902.216	8249.99
902.531	8311.24
902.845	8241.63
903.159	8149.88
903.473	8129.09
903.787	8136.55
904.101	8066.72
904.415	8073.05
904.729	8055.2
905.042	8036.67
905.356	7954.41
905.67	8004.13
905.984	7885.48
906.297	7871.02
906.611	7853.4
906.924	7821.08
907.237	7819.95
907.551	7720.97
907.864	7781.98
908.177	7720.97
908.491	7734.53
908.804	7685.04
909.117	7599.16
909.43	7551.26
909.743	7539.28
910.056	7558.26
910.368	7512.39
910.681	7428.55
910.994	7451.37
911.307	7422.9
911.619	7277.37
911.932	7372.05
912.244	7322.79
912.557	7299.06
912.869	7240.53
913.181	7200.31
913.494	7195.33
913.806	7142.91
914.118	7152.17
914.43	7087.99
914.742	7082.79
915.054	7032.85
915.366	7007.09
915.678	7040.76
915.99	6960.76
916.302	6935.45
916.613	6863.59
916.925	6925.06
917.236	6791.95
917.548	6781.56
917.859	6840.54
918.171	6749.47
918.482	6726.65
918.794	6703.59
919.105	6676.03
919.416	6620.21
919.727	6636.03
920.038	6601.22
920.349	6533.2
920.66	6514.45
920.971	6551.28
921.282	6508.35
921.593	6490.95
921.903	6412.3
922.214	6429.03
922.525	6333.66
922.835	6324.85
923.146	6274.23
923.456	6315.58
923.767	6303.38
924.077	6263.38
924.387	6225.87
924.697	6203.95
925.008	6158.75
925.318	6143.16
925.628	6119.88
925.938	6039.66
926.248	5980.45
926.558	6037.85
926.867	5994.91
927.177	5984.97
927.487	5941.81
927.796	5868.81
928.106	5930.51
928.416	5857.29
928.725	5859.78
929.034	5864.29
929.344	5832.43
929.653	5820
929.962	5713.79
930.271	5817.06
930.581	5702.49
930.89	5732.55
931.199	5641.02
931.508	5643.96
931.817	5606.22
932.125	5647.13
932.434	5574.36
932.743	5542.5
933.051	5513.8
933.36	5467.92
933.669	5478.99
933.977	5454.14
934.286	5467.92
934.594	5427.92
934.902	5387.02
935.21	5343.4
935.519	5377.3
935.827	5312.45
936.135	5306.34
936.443	5234.48
936.751	5303.18
937.059	5289.62
937.367	5192.9
937.674	5207.59
937.982	5185.44
938.29	5145.67
938.597	5090.98
938.905	5068.84
939.213	5077.65
939.52	5021.61
939.827	5041.94
940.135	5039.46
940.442	4989.74
940.749	4982.28
941.056	4970.08
941.363	4929.4
941.67	4922.4
941.977	4879.91
942.284	4858.45
942.591	4840.82
942.898	4820.03
943.205	4808.73
943.511	4751.56
943.818	4760.82
944.125	4721.5
944.431	4725.79
944.738	4733.93
945.044	4689.64
945.35	4651.9
945.657	4615.29
945.963	4617.77
946.269	4581.62
946.575	4551.34
946.881	4548.17
947.187	4559.47
947.493	4490.55
947.799	4507.95
948.105	4450.55
948.41	4462.3
948.716	4483.54
949.022	4406.93
949.327	4399.47
949.633	4412.13
949.938	4396.99
950.244	4341.17
950.549	4317.89
950.854	4312.02
951.16	4290.78
951.465	4276.54
951.77	4241.29
952.075	4215.52
952.38	4241.29
952.685	4259.59
952.99	4189.76
953.294	4173.94
953.599	4132.59
953.904	4100.95
954.209	4057.34
954.513	4062.99
954.818	4058.01
955.122	4018.47
955.426	3994.29
955.731	4036.09
956.035	3967.62
956.339	3950.45
956.643	3951.8
956.948	3923.33
957.252	3899.15
957.556	3913.84
957.86	3929.88
958.163	3853.05
958.467	3832.26
958.771	3871.13
959.075	3836.1
959.378	3764.01
959.682	3794.97
959.985	3745.25
960.289	3750.23
960.592	3741.86
960.896	3739.38
961.199	3694.63
961.502	3681.98
961.805	3650.34
962.108	3641.75
962.411	3608.99
962.714	3625.71
963.017	3581.64
963.32	3652.83
963.623	3588.42
963.926	3567.41
964.228	3612.83
964.531	3572.38
964.833	3526.05
965.136	3520.85
965.438	3496.67
965.741	3457.13
966.043	3478.59
966.345	3444.02
966.648	3423.91
966.95	3390.69
967.252	3402.44
967.554	3376
967.856	3404.92
968.158	3293.06
968.46	3323.57
968.761	3349.33
969.063	3364.93
969.365	3317.92
969.666	3282.89
969.968	3247.64
970.269	3246.96
970.571	3232.5
970.872	3252.84
971.174	3178.26
971.475	3193.18
971.776	3217.58
972.077	3166.51
972.378	3176
972.679	3138.04
972.98	3131.26
973.281	3114.08
973.582	3091.03
973.883	3071.83
974.183	3065.95
974.484	3068.89
974.785	3049.68
975.085	3008.55
975.386	3054.2
975.686	3030.7
975.986	2974.88
976.287	2978.72
976.587	2964.48
976.887	2954.77
977.187	2938.72
977.487	2895.79
977.787	2900.08
978.087	2907.76
978.387	2874.32
978.687	2884.26
978.987	2868.44
979.286	2803.36
979.586	2881.55
979.885	2865.73
980.185	2810.14
980.484	2785.51
980.784	2781.44
981.083	2796.58
981.382	2758.61
981.682	2746.86
981.981	2770.14
982.28	2703.02
982.579	2701.89
982.878	2710.25
983.177	2702.34
983.475	2659.41
983.774	2656.7
984.073	2644.27
984.372	2594.55
984.67	2601.56
984.969	2638.62
985.267	2608.56
985.566	2603.59
985.864	2570.14
986.162	2543.48
986.461	2571.5
986.759	2527.21
987.057	2512.97
987.355	2502.58
987.653	2524.04
987.951	2503.48
988.249	2484.5
988.547	2464.61
988.844	2468.45
989.142	2442.01
989.44	2470.94
989.737	2397.27
990.035	2412.41
990.332	2425.74
990.63	2404.5
990.927	2381.9
991.224	2374.44
991.521	2360.21
991.819	2363.14
992.116	2362.01
992.413	2332.18
992.71	2301.68
993.006	2337.38
993.303	2254.67
993.6	2275.69
993.897	2282.02
994.193	2298.96
994.49	2233.43
994.787	2235.24
995.083	2240.44
995.379	2214.22
995.676	2221.23
995.972	2201.34
996.268	2183.94
996.565	2177.61
996.861	2176.93
997.157	2174.67
997.453	2180.78
997.749	2111.63
998.044	2123.6
998.34	2120.66
998.636	2112.53
998.932	2078.86
999.227	2094.22
999.523	2062.81
999.818	2022.59
1000.114	2046.54
1000.409	2050.61
1000.704	2029.59
1001	2036.15
1001.295	1993.66
1001.59	1985.07
1001.885	2010.38
1002.18	1992.08
1002.475	1979.65
1002.77	1957.73
1003.065	1942.59
1003.359	1953.66
1003.654	1917.28
1003.949	1911.63
1004.243	1901.46
1004.538	1882.7
1004.832	1876.83
1005.127	1888.13
1005.421	1856.49
1005.715	1825.08
1006.009	1825.31
1006.304	1843.61
1006.598	1846.77
1006.892	1810.39
1007.186	1785.76
1007.48	1781.01
1007.773	1779.66
1008.067	1751.41
1008.361	1735.82
1008.655	1742.82
1008.948	1697.85
1009.242	1708.92
1009.535	1703.05
1009.829	1691.3
1010.122	1700.34
1010.415	1666.89
1010.708	1643.84
1011.001	1674.57
1011.295	1636.84
1011.588	1668.7
1011.881	1654.01
1012.173	1642.49
1012.466	1611.98
1012.759	1611.75
1013.052	1611.98
1013.344	1601.58
1013.637	1595.71
1013.93	1586.44
1014.222	1570.4
1014.514	1550.96
1014.807	1523.39
1015.099	1518.65
1015.391	1530.85
1015.683	1518.65
1015.976	1505.77
1016.268	1485.65
1016.56	1450.17
1016.851	1473.68
1017.143	1459.21
1017.435	1482.72
1017.727	1437.74
1018.018	1437.07
1018.31	1424.19
1018.602	1449.04
1018.893	1406.56
1019.185	1421.02
1019.476	1405.66
1019.767	1415.37
1020.058	1380.8
1020.35	1374.02
1020.641	1382.83
1020.932	1348.93
1021.223	1350.97
1021.514	1345.54
1021.804	1332.44
1022.095	1322.04
1022.386	1334.7
1022.677	1273
1022.967	1300.8
1023.258	1307.8
1023.548	1279.56
1023.839	1250.86
1024.129	1272.78
1024.419	1261.7
1024.709	1265.55
1025	1249.05
1025.29	1218.09
1025.58	1222.84
1025.87	1199.78
1026.16	1216.73
1026.449	1194.36
1026.739	1183.51
1027.029	1202.5
1027.319	1174.25
1027.608	1172.67
1027.898	1143.52
1028.187	1162.05
1028.477	1130.63
1028.766	1160.46
1029.055	1121.82
1029.344	1119.33
1029.634	1111.88
1029.923	1125.89
1030.212	1099.67
1030.501	1103.29
1030.79	1105.55
1031.078	1068.04
1031.367	1081.14
1031.656	1075.72
1031.945	1081.6
1032.233	1065.55
1032.522	1079.56
1032.81	1058.32
1033.099	1037.98
1033.387	1024.2
1033.675	1027.81
1033.963	1027.59
1034.251	1000.24
1034.54	995.5
1034.828	1004.08
1035.116	1000.24
1035.403	976.06
1035.691	984.2
1035.979	985.78
1036.267	957.53
1036.554	970.86
1036.842	968.83
1037.129	942.62
1037.417	970.19
1037.704	935.39
1037.992	951.2
1038.279	922.73
1038.566	909.4
1038.853	909.4
1039.14	909.4
