Data from hue_310_FLMS001491_14.txt Node
Date: Mon Feb 06 15:48:54 GMT 2017
User: dcchb
Spectrometer: FLMS00149
Trigger mode: 0
Integration Time (sec): 2.000000E-2
Scans to average: 10
Electric dark correction enabled: true
Nonlinearity correction enabled: false
Boxcar width: 0
XAxis mode: Wavelengths
Number of Pixels in Spectrum: 2048
>>>>>Begin Spectral Data<<<<<
341.393	-23.71
341.776	-23.71
342.16	-23.71
342.543	-81.79
342.927	-73.43
343.31	-70.04
343.693	-61.45
344.077	-89.02
344.46	-63.94
344.843	-49.7
345.226	-53.09
345.61	-29.14
345.993	-19.19
346.376	-6.77
346.759	22.16
347.142	28.49
347.525	33.01
347.908	59.22
348.291	77.53
348.674	96.06
349.057	125.89
349.44	133.34
349.823	145.32
350.206	150.52
350.588	178.09
350.971	193.46
351.354	219.9
351.737	245.43
352.119	247.47
352.502	260.35
352.884	284.3
353.267	265.09
353.65	286.11
354.032	294.92
354.414	301.02
354.797	320.01
355.179	316.84
355.562	333.11
355.944	321.59
356.326	337.41
356.709	323.62
357.091	339.89
357.473	348.03
357.855	341.7
358.238	329.72
358.62	332.21
359.002	331.08
359.384	351.64
359.766	325.43
360.148	334.69
360.53	333.56
360.912	334.47
361.294	325.2
361.676	317.52
362.057	319.78
362.439	325.88
362.821	319.1
363.203	305.32
363.584	307.35
363.966	310.29
364.348	314.13
364.729	329.05
365.111	315.26
365.493	325.88
365.874	320.91
366.256	297.63
366.637	305.09
367.019	319.78
367.4	310.97
367.781	315.03
368.163	317.97
368.544	316.16
368.925	310.74
369.306	327.46
369.688	308.03
370.069	317.75
370.45	311.42
370.831	299.22
371.212	292.89
371.593	307.12
371.974	309.84
372.355	289.72
372.736	297.86
373.117	325.66
373.498	330.63
373.879	332.89
374.26	311.19
374.641	315.71
375.021	304.41
375.402	298.31
375.783	316.84
376.163	333.34
376.544	331.98
376.925	336.73
377.305	324.98
377.686	330.63
378.066	297.18
378.447	302.38
378.827	322.27
379.208	335.37
379.588	322.49
379.968	336.28
380.349	340.34
380.729	322.94
381.109	352.55
381.489	345.99
381.87	326.79
382.25	327.24
382.63	346.45
383.01	345.99
383.39	332.43
383.77	329.95
384.15	362.04
384.53	337.86
384.91	339.44
385.29	332.43
385.67	329.95
386.049	364.52
386.429	355.26
386.809	349.61
387.189	365.2
387.568	381.02
387.948	346.22
388.328	332.89
388.707	363.62
389.087	356.84
389.466	364.07
389.846	352.55
390.225	353.9
390.605	360.46
390.984	353.23
391.363	348.93
391.743	368.37
392.122	347.12
392.501	409.49
392.881	381.7
393.26	354.58
393.639	370.17
394.018	370.17
394.397	380.12
394.776	368.37
395.155	361.13
395.534	385.99
395.913	375.82
396.292	357.97
396.671	381.92
397.05	405.43
397.429	395.03
397.808	392.55
398.186	371.08
398.565	396.84
398.944	382.6
399.323	395.48
399.701	385.31
400.08	391.87
400.458	406.78
400.837	385.77
401.215	404.07
401.594	396.39
401.972	394.81
402.351	405.43
402.729	418.53
403.107	403.85
403.486	416.95
403.864	408.36
404.242	411.75
404.62	444.97
404.999	451.3
405.377	423.05
405.755	429.61
406.133	442.04
406.511	435.93
406.889	435.48
407.267	443.62
407.645	449.04
408.023	454.69
408.401	473.67
408.779	467.12
409.156	460.79
409.534	461.24
409.912	480.68
410.29	490.62
410.667	491.98
411.045	487.46
411.422	482.94
411.8	490.85
412.178	517.51
412.555	514.8
412.933	529.49
413.31	546.67
413.687	531.3
414.065	545.76
414.442	570.39
414.819	562.26
415.197	564.75
415.574	581.24
415.951	592.31
416.328	587.57
416.705	583.05
417.082	602.71
417.46	580.79
417.837	618.3
418.214	640.68
418.591	640.68
418.967	644.74
419.344	632.99
419.721	658.75
420.098	666.66
420.475	682.03
420.852	682.93
421.228	685.65
421.605	688.36
421.982	693.78
422.358	704.4
422.735	687
423.111	717.28
423.488	741.01
423.864	732.88
424.241	737.62
424.617	753.89
424.994	755.47
425.37	751.86
425.746	756.83
426.123	758.64
426.499	775.81
426.875	798.64
427.251	811.29
427.627	802.93
428.003	802.03
428.379	834.34
428.756	819.43
429.132	835.25
429.507	871.18
429.883	877.96
430.259	870.27
430.635	901.23
431.011	883.38
431.387	898.75
431.763	923.15
432.138	920.22
432.514	936.26
432.89	919.31
433.265	961.12
433.641	988.91
434.016	998.86
434.392	997.73
434.767	996.37
435.143	999.76
435.518	1028.24
435.894	1015.35
436.269	1009.71
436.644	1050.16
437.02	1035.47
437.395	1052.64
437.77	1065.75
438.145	1086.99
438.52	1114.11
438.895	1124.5
439.271	1107.56
439.646	1141
440.021	1142.13
440.395	1154.79
440.77	1135.13
441.145	1135.35
441.52	1157.05
441.895	1144.39
442.27	1179.42
442.645	1141.91
443.019	1153.88
443.394	1166.76
443.769	1172.86
444.143	1195.24
444.518	1189.36
444.892	1174.67
445.267	1213.99
445.641	1230.94
446.016	1206.31
446.39	1198.85
446.764	1233.2
447.139	1203.82
447.513	1284.95
447.887	1245.18
448.262	1259.42
448.636	1271.39
449.01	1245.41
449.384	1274.33
449.758	1259.87
450.132	1270.49
450.506	1304.39
450.88	1298.96
451.254	1299.64
451.628	1269.36
452.002	1289.47
452.376	1294.44
452.75	1301.9
453.123	1330.83
453.497	1323.37
453.871	1323.14
454.244	1369.7
454.618	1355.01
454.992	1394.1
455.365	1368.57
455.739	1399.75
456.112	1407.43
456.486	1392.29
456.859	1448.79
457.232	1415.57
457.606	1410.37
457.979	1449.02
458.352	1468.9
458.725	1476.59
459.099	1491.95
459.472	1488.79
459.845	1466.64
460.218	1540.09
460.591	1525.85
460.964	1512.52
461.337	1549.35
461.71	1562.23
462.083	1607.88
462.456	1583.48
462.829	1569.46
463.201	1600.65
463.574	1575.11
463.947	1607.43
464.32	1625.73
464.692	1679.97
465.065	1662.34
465.438	1672.51
465.81	1685.17
466.183	1693.98
466.555	1725.39
466.928	1706.64
467.3	1723.13
467.672	1748.89
468.045	1788.22
468.417	1741.89
468.789	1780.53
469.161	1790.25
469.534	1802.45
469.906	1831.83
470.278	1856.46
470.65	1879.29
471.022	1896.24
471.394	1896.24
471.766	1941.66
472.138	1939.17
472.51	1963.8
472.882	1971.71
473.253	2016.23
473.625	2058.72
473.997	2040.19
474.369	2062.11
474.74	2062.56
475.112	2078.15
475.484	2103.01
475.855	2137.13
476.227	2124.25
476.598	2192.95
476.97	2172.39
477.341	2243.12
477.713	2254.64
478.084	2239.05
478.455	2311.37
478.827	2295.77
479.198	2348.43
479.569	2340.07
479.94	2412.38
480.311	2403.79
480.682	2450.12
481.053	2496.22
481.424	2506.16
481.795	2517.24
482.166	2547.29
482.537	2591.58
482.908	2599.27
483.279	2640.62
483.65	2665.71
484.021	2648.76
484.391	2728.3
484.762	2741.41
485.133	2769.88
485.503	2791.13
485.874	2837.91
486.244	2847.85
486.615	2897.34
486.985	2900.05
487.356	2897.79
487.726	2934.17
488.097	2996.77
488.467	2959.94
488.837	3049.88
489.207	3070.67
489.578	3084.23
489.948	3108.18
490.318	3167.61
490.688	3160.83
491.058	3194.05
491.428	3205.35
491.798	3262.98
492.168	3284.45
492.538	3300.94
492.908	3355.41
493.278	3316.76
493.648	3345.24
494.017	3377.55
494.387	3413.71
494.757	3431.56
495.126	3486.48
495.496	3433.6
495.866	3504.55
496.235	3500.71
496.605	3501.39
496.974	3536.42
497.344	3550.66
497.713	3590.65
498.082	3619.58
498.452	3639.69
498.821	3682.63
499.19	3626.81
499.559	3665.91
499.928	3702.74
500.298	3700.48
500.667	3730.54
501.036	3712.01
501.405	3776.19
501.774	3719.92
502.143	3780.93
502.512	3782.51
502.88	3808.5
503.249	3803.08
503.618	3839.69
503.987	3845.34
504.356	3864.32
504.724	3870.87
505.093	3908.61
505.462	3886.47
505.83	3905.9
506.199	3941.38
506.567	3930.53
506.936	3965.56
507.304	3963.98
507.672	3964.88
508.041	4040.59
508.409	4036.74
508.777	4038.55
509.145	4037.87
509.514	4022.51
509.882	4055.05
510.25	4074.03
510.618	4080.58
510.986	4123.97
511.354	4121.26
511.722	4102.51
512.09	4169.4
512.458	4141.37
512.826	4242.39
513.193	4177.76
513.561	4169.62
513.929	4221.37
514.297	4220.47
514.664	4220.47
515.032	4234.25
515.4	4272.67
515.767	4277.19
516.135	4284.42
516.502	4286.23
516.869	4308.38
517.237	4309.28
517.604	4339.34
517.972	4359.22
518.339	4373.01
518.706	4316.28
519.073	4387.24
519.44	4386.34
519.808	4414.36
520.175	4409.84
520.542	4429.28
520.909	4460.46
521.276	4445.09
521.643	4531.42
522.009	4496.17
522.376	4492.55
522.743	4562.15
523.11	4558.54
523.477	4543.17
523.843	4611.42
524.21	4653.68
524.577	4637.86
524.943	4650.97
525.31	4691.64
525.676	4654.81
526.043	4731.19
526.409	4794.69
526.776	4794.69
527.142	4779.78
527.508	4778.65
527.874	4821.36
528.241	4853.9
528.607	4820
528.973	4899.09
529.339	4930.73
529.705	4942.94
530.071	5001.24
530.437	4974.57
530.803	5044.18
531.169	5033.78
531.535	5066.32
531.901	5046.44
532.267	5051.18
532.632	5090.05
532.998	5076.94
533.364	5161.23
533.73	5149.71
534.095	5217.05
534.461	5203.72
534.826	5206.66
535.192	5293.89
535.557	5329.59
535.923	5314.45
536.288	5276.94
536.653	5339.99
537.019	5287.33
537.384	5349.7
537.749	5408.01
538.114	5394.45
538.479	5370.04
538.845	5464.05
539.21	5461.34
539.575	5508.34
539.94	5474.45
540.305	5557.38
540.67	5542.47
541.034	5547.89
541.399	5553.77
541.764	5615.01
542.129	5623.6
542.494	5649.36
542.858	5662.01
543.223	5660.2
543.587	5720.54
543.952	5723.25
544.316	5826.75
544.681	5793.08
545.045	5801.67
545.41	5845.51
545.774	5883.25
546.138	5861.33
546.503	5917.37
546.867	5905.62
547.231	5971.61
547.595	5994.66
547.959	6000.08
548.324	6010.7
548.688	6011.16
549.052	6083.92
549.416	6054.77
549.779	6113.75
550.143	6059.97
550.507	6174.32
550.871	6185.39
551.235	6183.58
551.599	6207.76
551.962	6196.01
552.326	6210.02
552.689	6271.04
553.053	6204.14
553.417	6211.38
553.78	6287.76
554.143	6332.28
554.507	6367.98
554.87	6396.23
555.234	6381.99
555.597	6392.39
555.96	6396
556.323	6379.96
556.686	6430.13
557.05	6490.24
557.413	6506.96
557.776	6582.67
558.139	6541.54
558.502	6506.96
558.865	6582.44
559.228	6573.4
559.59	6609.78
559.953	6661.53
560.316	6628.09
560.679	6677.58
561.041	6730.01
561.404	6702.89
561.767	6726.84
562.129	6775.43
562.492	6823.34
562.854	6823.56
563.217	6767.97
563.579	6821.76
563.941	6818.82
564.304	6870.79
564.666	6894.75
565.028	6922.32
565.39	6942.88
565.753	6963.9
566.115	6991.92
566.477	7003.9
566.839	7010
567.201	7085.48
567.563	7108.53
567.925	7152.14
568.287	7162.99
568.648	7190.56
569.01	7263.1
569.372	7230.11
569.734	7190.56
570.095	7297.45
570.457	7292.93
570.819	7346.04
571.18	7439.82
571.542	7471.46
571.903	7392.36
572.265	7462.42
572.626	7526.14
572.987	7479.37
573.349	7597.55
573.71	7719.81
574.071	7644.78
574.432	7713.03
574.794	7833.25
575.155	7937.21
575.516	7844.33
575.877	7930.65
576.238	8062.18
576.599	8125
576.96	8178.33
577.32	8214.04
577.681	8306.01
578.042	8348.5
578.403	8434.37
578.763	8471.88
579.124	8590.75
579.485	8680.69
579.845	8845.88
580.206	8879.1
580.566	8994.35
580.927	9143.28
581.287	9239.32
581.648	9390.5
582.008	9523.61
582.368	9635.02
582.728	9827.78
583.089	9957.04
583.449	10043.59
583.809	10219.86
584.169	10450.36
584.529	10517.48
584.889	10800.41
585.249	10932.83
585.609	11028.88
585.969	11356.55
586.329	11507.06
586.688	11746.37
587.048	11949.3
587.408	12113.37
587.768	12464.32
588.127	12605.56
588.487	12831.99
588.846	13195.37
589.206	13268.14
589.565	13545.87
589.925	13843.27
590.284	14079.19
590.643	14388.34
591.003	14705.39
591.362	14895.67
591.721	15161.65
592.08	15501.98
592.44	15730.22
592.799	16041.63
593.158	16398.23
593.517	16592.57
593.876	16969.51
594.235	17197.75
594.593	17529.04
594.952	17875.7
595.311	18054.68
595.67	18398.17
596.029	18826.86
596.387	19144.14
596.746	19440.86
597.104	19647.18
597.463	19878.81
597.822	20268.86
598.18	20452.81
598.538	20828.62
598.897	21175.95
599.255	21374.37
599.613	21955.37
599.972	22016.16
600.33	22243.95
600.688	22642.36
601.046	23012.06
601.404	23299.97
601.762	23463.13
602.12	23953.06
602.478	24160.06
602.836	24364.35
603.194	24538.35
603.552	24863.77
603.91	25027.6
604.268	25413.58
604.625	25614.03
604.983	25951.65
605.341	26073
605.698	26589.37
606.056	26672.31
606.413	26983.71
606.771	27289.92
607.128	27559.29
607.485	27603.58
607.843	27932.61
608.2	28311.81
608.557	28503.45
608.914	28527.63
609.272	29043.32
609.629	29230.21
609.986	29503.19
610.343	29608.5
610.7	29894.6
611.057	30055.04
611.414	30306.79
611.771	30436.28
612.127	30719.66
612.484	30802.59
612.841	31232.19
613.198	31164.62
613.554	31390.6
613.911	31675.57
614.267	31822.68
614.624	31977.25
614.98	32146.97
615.337	32409.11
615.693	32507.41
616.05	32560.29
616.406	32876.21
616.762	32984.91
617.118	32937.45
617.475	33240.95
617.831	33387.16
618.187	33634.84
618.543	33659.02
618.899	34070.3
619.255	34040.93
619.611	34235.05
619.967	34465.1
620.323	34583.74
620.678	34574.25
621.034	34612.44
621.39	34668.71
621.746	34789.83
622.101	35274.34
622.457	35095.81
622.812	35227.79
623.168	35426.43
623.523	35470.04
623.879	35636.14
624.234	35554.33
624.589	35736.48
624.945	35715.23
625.3	36002.46
625.655	36082.91
626.01	36124.04
626.365	36246.52
626.72	36282.45
627.075	36178.05
627.43	36262.56
627.785	36277.48
628.14	36379.4
628.495	36541.88
628.85	36639.28
629.205	36469.34
629.559	36701.65
629.914	36553.63
630.269	36602.22
630.623	36643.34
630.978	36662.1
631.332	36836.33
631.687	37058.93
632.041	36801.08
632.396	36953.62
632.75	36814.19
633.104	36915.2
633.459	36732.61
633.813	36931.47
634.167	36820.06
634.521	37062.09
634.875	37124.01
635.229	37038.14
635.583	36905.94
635.937	36998.82
636.291	36947.07
636.645	36982.09
636.999	36886.5
637.352	37041.75
637.706	36982.54
638.06	37060.51
638.413	36933.96
638.767	36994.97
639.121	36956.56
639.474	36860.51
639.828	36920.17
640.181	36957.23
640.534	36986.16
640.888	36977.57
641.241	36909.1
641.594	36870.01
641.947	37084.24
642.301	36892.38
642.654	36771.7
643.007	36889.89
643.36	36736.68
643.713	36677.24
644.066	36983.9
644.419	36806.73
644.771	36590.69
645.124	36313.64
645.477	36146.18
645.83	35968.11
646.182	35889.69
646.535	35744.61
646.888	35903.93
647.24	35604.05
647.593	35842.69
647.945	35759.98
648.298	35570.38
648.65	35671.17
649.002	35461.68
649.355	35703.26
649.707	35719.07
650.059	35797.26
650.411	36175.33
650.763	36184.6
651.115	36592.5
651.467	36446.29
651.819	36545.72
652.171	36464.82
652.523	36430.24
652.875	36443.58
653.227	36318.61
653.578	36585.27
653.93	36359.51
654.282	36385.05
654.633	36180.98
654.985	36308.89
655.337	36384.82
655.688	36239.97
656.039	36386.4
656.391	36089.46
656.742	36190.02
657.094	36175.56
657.445	36237.48
657.796	36221.43
658.147	36202
658.498	35946.41
658.849	36206.97
659.2	36101.66
659.551	36116.8
659.902	36176.24
660.253	36192.06
660.604	36242.9
660.955	35979.63
661.306	36152.51
661.656	36112.28
662.007	36251.04
662.358	36172.62
662.708	36000.65
663.059	36029.35
663.409	35755.46
663.76	36072.74
664.11	35911.84
664.461	36055.56
664.811	36008.11
665.161	36036.58
665.511	35964.27
665.862	36063.25
666.212	36233.86
666.562	36165.62
666.912	35973.53
667.262	35900.77
667.612	36089.23
667.962	36021.44
668.312	36046.3
668.662	35972.63
669.011	35797.94
669.361	35894.89
669.711	35925.4
670.06	35739.64
670.41	35856.02
670.76	35821.9
671.109	36004.72
671.459	36021.67
671.808	35804.04
672.157	35921.56
672.507	35645.4
672.856	35663.94
673.205	35858.73
673.554	35815.8
673.904	35722.92
674.253	35908.22
674.602	35681.34
674.951	35305.07
675.3	35071.41
675.649	35739.41
675.998	35526.09
676.346	35630.49
676.695	35781.22
677.044	35381.91
677.393	35549.36
677.741	35525.18
678.09	35461.45
678.438	35439.76
678.787	35538.51
679.135	35536.71
679.484	35407.9
679.832	35520.66
680.181	35278.63
680.529	35440.66
680.877	35308.69
681.225	35216.04
681.573	35407.44
681.922	35033.67
682.27	35057.17
682.618	35244.74
682.966	35003.84
683.314	34931.53
683.661	34905.09
684.009	34887.46
684.357	34781.47
684.705	34612.21
685.053	34639.56
685.4	34682.04
685.748	34589.16
686.095	34521.59
686.443	34429.84
686.79	34274.37
687.138	34345.33
687.485	34385.55
687.832	34246.57
688.18	34230.07
688.527	34111.43
688.874	34128.38
689.221	33968.39
689.568	33753.25
689.915	33826.92
690.262	33815.85
690.609	33793.7
690.956	33605.68
691.303	33656.98
691.65	33467.61
691.997	33510.32
692.344	33318.69
692.69	33200.5
693.037	33306.48
693.383	33016.77
693.73	33122.08
694.077	33024.46
694.423	32927.06
694.769	32764.12
695.116	32770.9
695.462	32627.4
695.808	32594.64
696.155	32690.68
696.501	32427.18
696.847	32408.43
697.193	32118.94
697.539	32304.02
697.885	32109.45
698.231	32039.85
698.577	31994.65
698.923	32046.18
699.269	31760.53
699.614	31669.46
699.96	31572.52
700.306	31540.65
700.651	31523.48
700.997	31448.45
701.342	31411.17
701.688	31379.75
702.033	31219.08
702.379	31164.62
702.724	31075.13
703.069	31172.75
703.415	30812.09
703.76	30902.7
704.105	30740.67
704.45	30803.5
704.795	30484.86
705.14	30561.47
705.485	30455.71
705.83	30391.31
706.175	30410.97
706.52	30355.6
706.865	30238.99
707.209	30219.78
707.554	29989.96
707.899	30177.3
708.243	29944.76
708.588	29876.74
708.932	29811.21
709.277	29709.74
709.621	29709.97
709.966	29557.2
710.31	29565.11
710.654	29285.12
710.998	29443.08
711.342	29374.16
711.687	29319.24
712.031	29159.7
712.375	29120.6
712.719	29135.52
713.063	29155.41
713.407	29212.13
713.75	28915.64
714.094	28918.12
714.438	28865.92
714.782	28942.76
715.125	28595.19
715.469	28797.9
715.812	28609.43
716.156	28397.91
716.499	28505.71
716.843	28394.07
717.186	28307.74
717.53	28406.27
717.873	28476.33
718.216	28314.07
718.559	28178.26
718.902	27977.58
719.246	28095.09
719.589	27973.29
719.932	27995.44
720.275	27957.25
720.617	27826.63
720.96	27831.15
721.303	27903.91
721.646	27691.72
721.989	27572.85
722.331	27757.25
722.674	27724.03
723.016	27596.58
723.359	27584.37
723.701	27693.3
724.044	27435.22
724.386	27374.66
724.729	27413.98
725.071	27257.83
725.413	27399.75
725.755	27352.29
726.097	27282.91
726.439	27054.22
726.782	27131.96
727.124	27192.52
727.465	26958.4
727.807	26940.55
728.149	26965.18
728.491	27026.65
728.833	26930.61
729.175	26717.96
729.516	26753.66
729.858	26676.37
730.199	26710.72
730.541	26664.17
730.882	26565.19
731.224	26711.4
731.565	26503.5
731.906	26498.07
732.248	26533.78
732.589	26280.45
732.93	26294.46
733.271	26354.58
733.612	26343.73
733.953	26358.64
734.294	26203.17
734.635	26101.25
734.976	26249.95
735.317	26035.94
735.658	26214.24
735.999	26080.91
736.339	26009.95
736.68	26036.62
737.021	25842.27
737.361	25754.82
737.702	26035.26
738.042	25774.03
738.383	25660.13
738.723	25783.29
739.063	25724.99
739.404	25848.37
739.744	25712.56
740.084	25601.15
740.424	25704.65
740.764	25568.61
741.104	25769.05
741.444	25489.74
741.784	25468.05
742.124	25484.99
742.464	25389.18
742.804	25277.32
743.143	25239.8
743.483	25227.6
743.823	25128.39
744.162	25242.51
744.502	25133.59
744.841	25058.34
745.181	25163.87
745.52	24963.2
745.86	25066.02
746.199	24987.38
746.538	24917.33
746.877	24947.61
747.216	24921.39
747.556	24965.01
747.895	24903.54
748.234	24853.15
748.573	24750.1
748.911	24663.77
749.25	24741.96
749.589	24669.65
749.928	24645.24
750.267	24609.76
750.605	24591.01
750.944	24488.41
751.283	24397.11
751.621	24419.94
751.96	24346.27
752.298	24321.41
752.636	24324.12
752.975	24200.28
753.313	24112.15
753.651	24218.59
753.989	24099.72
754.327	24019.04
754.666	23932.72
755.004	23952.83
755.342	23881.87
755.679	23821.08
756.017	23814.53
756.355	23735.44
756.693	23674.65
757.031	23727.98
757.368	23494.76
757.706	23483.24
758.044	23474.88
758.381	23476.23
758.719	23331.83
759.056	23381.09
759.394	23222.91
759.731	23084.15
760.068	23142.23
760.405	23020.65
760.743	22932.97
761.08	22999.64
761.417	22940.43
761.754	22803.26
762.091	22648.46
762.428	22741.79
762.765	22490.27
763.102	22633.32
763.438	22439.42
763.775	22339.99
764.112	22371.63
764.449	22337.51
764.785	22295.93
765.122	22201.92
765.458	22164.63
765.795	22018.64
766.131	21968.93
766.467	21771.65
766.804	21777.07
767.14	21678.31
767.476	21682.61
767.812	21658.65
768.148	21713.34
768.485	21452.11
768.821	21316.06
769.157	21413.01
769.492	21260.25
769.828	21241.49
770.164	20946.81
770.5	20977.09
770.836	21013.92
771.171	20892.12
771.507	20839.01
771.842	20685.57
772.178	20711.79
772.513	20636.76
772.849	20498.91
773.184	20449.65
773.519	20476.76
773.855	20343.89
774.19	20319.48
774.525	20206.71
774.86	20106.38
775.195	20170.56
775.53	20072.25
775.865	19939.15
776.2	19809.44
776.535	19682.21
776.87	19719.72
777.205	19631.81
777.539	19605.37
777.874	19660.51
778.209	19373.97
778.543	19348.43
778.878	19325.16
779.212	19157.93
779.547	19118.83
779.881	19105.05
780.215	19033.41
780.55	19098.5
780.884	18910.03
781.218	18895.11
781.552	18884.72
781.886	18710.03
782.22	18668.45
782.554	18494.44
782.888	18390.94
783.222	18341.45
783.556	18306.2
783.889	18275.92
784.223	18122.48
784.557	18099.65
784.89	18178.29
785.224	18046.77
785.557	17922.25
785.891	17857.62
786.224	17753.45
786.558	17839.77
786.891	17655.37
787.224	17565.43
787.557	17550.74
787.891	17466.9
788.224	17486.11
788.557	17434.36
788.89	17409.05
789.223	17291.31
789.556	17277.3
789.888	17127.7
790.221	17105.33
790.554	17025.1
790.887	16982.62
791.219	16903.98
791.552	16895.84
791.884	16774.94
792.217	16708.95
792.549	16715.05
792.882	16506.7
793.214	16474.61
793.546	16607.26
793.879	16418.57
794.211	16301.05
794.543	16386.25
794.875	16361.62
795.207	16358.68
795.539	16203.88
795.871	16160.49
796.203	16120.04
796.535	15975.87
796.867	15936.32
797.198	15967.96
797.53	15915.98
797.862	15821.29
798.193	15900.84
798.525	15768.64
798.856	15735.87
799.188	15575.2
799.519	15412.94
799.85	15466.5
800.182	15495.2
800.513	15484.8
800.844	15261.99
801.175	15367.52
801.506	15283.91
801.837	15284.36
802.168	15219.73
802.499	15205.04
802.83	15110.58
803.161	15085.95
803.491	15066.06
803.822	15039.62
804.153	14906.06
804.483	14866.52
804.814	14805.05
805.145	14774.77
805.475	14736.8
805.805	14655.22
806.136	14605.05
806.466	14619.74
806.796	14706.75
807.126	14493.87
807.457	14589.24
807.787	14373.2
808.117	14298.85
808.447	14284.38
808.777	14384.72
809.107	14260.88
809.436	14277.38
809.766	14221.11
810.096	14149.25
810.426	14130.94
810.755	14126.65
811.085	14104.73
811.414	14026.09
811.744	13960.33
812.073	13897.73
812.403	13864.06
812.732	13805.53
813.061	13908.35
813.39	13758.75
813.719	13740.44
814.049	13783.38
814.378	13764.85
814.707	13609.15
815.036	13609.37
815.365	13530.96
815.693	13537.29
816.022	13487.12
816.351	13382.04
816.68	13316.27
817.008	13400.57
817.337	13275.37
817.665	13226.11
817.994	13201.25
818.322	13252.55
818.651	13195.83
818.979	13135.26
819.307	13187.69
819.636	13161.25
819.964	13060.46
820.292	13080.8
820.62	13123.06
820.948	13005.1
821.276	13048.71
821.604	12966
821.932	12985.89
822.259	13034.47
822.587	13105.21
822.915	12971.65
823.243	13033.34
823.57	12993.12
823.898	13000.12
824.225	12949.73
824.553	12922.39
824.88	12960.58
825.207	12947.7
825.535	12909.51
825.862	13051.65
826.189	12878.09
826.516	12937.53
826.843	13038.32
827.17	12948.37
827.497	12946.57
827.824	12956.96
828.151	12927.58
828.478	12981.59
828.805	12983.63
829.131	12911.77
829.458	12869.28
829.785	12911.54
830.111	12858.89
830.438	12997.19
830.764	12926
831.09	12877.64
831.417	12801.71
831.743	12928.94
832.069	12899.56
832.395	12808.26
832.722	12854.82
833.048	12807.36
833.374	12836.96
833.7	12866.79
834.026	12812.78
834.351	12815.04
834.677	12827.02
835.003	12802.62
835.329	12796.74
835.654	12766.23
835.98	12704.99
836.306	12761.03
836.631	12640.13
836.956	12677.65
837.282	12746.57
837.607	12569.4
837.932	12554.49
838.258	12632.45
838.583	12581.83
838.908	12474.26
839.233	12584.99
839.558	12503.64
839.883	12474.94
840.208	12415.28
840.533	12420.48
840.858	12358.56
841.182	12389.97
841.507	12440.82
841.832	12293.7
842.156	12296.19
842.481	12349.97
842.805	12238.79
843.13	12259.8
843.454	12165.34
843.778	12222.74
844.103	12205.79
844.427	12071.34
844.751	12031.34
845.075	12049.87
845.399	12022.75
845.723	11946.37
846.047	11893.94
846.371	11877.44
846.695	11912.7
847.019	11672.02
847.343	11684.23
847.666	11662.31
847.99	11634.06
848.313	11603.1
848.637	11533.5
848.96	11536.43
849.284	11516.55
849.607	11424.57
849.931	11407.62
850.254	11277.01
850.577	11190.23
850.9	11143.68
851.223	11222.32
851.546	11087.86
851.869	11085.37
852.192	11181.87
852.515	10970.12
852.838	11058.03
853.161	10921.08
853.483	10871.59
853.806	10844.47
854.129	10884.47
854.451	10745.49
854.774	10760.18
855.096	10751.6
855.419	10656.91
855.741	10672.95
856.063	10583.92
856.385	10539.85
856.708	10608.32
857.03	10558.61
857.352	10527.87
857.674	10480.19
857.996	10444.26
858.318	10353.41
858.64	10381.66
858.961	10360.19
859.283	10335.56
859.605	10237.49
859.926	10295.34
860.248	10230.48
860.57	10171.72
860.891	10165.17
861.212	10114.78
861.534	10118.39
861.855	10136.7
862.176	10074.55
862.498	10054.21
862.819	10002.24
863.14	9986.42
863.461	9996.81
863.782	9976.02
864.103	10008.11
864.424	9945.06
864.745	10004.27
865.065	9898.74
865.386	9834.56
865.707	9801.56
866.027	9880.21
866.348	9796.82
866.668	9865.74
866.989	9751.17
867.309	9769.7
867.63	9825.29
867.95	9769.02
868.27	9706.2
868.59	9747.78
868.91	9737.84
869.23	9725.63
869.55	9644.73
869.87	9669.36
870.19	9633.43
870.51	9651.96
870.83	9689.93
871.15	9602.7
871.469	9494.45
871.789	9594.79
872.109	9581.91
872.428	9449.26
872.748	9550.5
873.067	9573.77
873.386	9540.55
873.706	9487
874.025	9493.55
874.344	9441.8
874.663	9491.29
874.982	9396.83
875.301	9391.41
875.62	9369.71
875.939	9330.62
876.258	9351.86
876.577	9311.18
876.896	9270.28
877.214	9316.61
877.533	9332.88
877.852	9242.26
878.17	9256.95
878.489	9307.34
878.807	9263.95
879.125	9256.04
879.444	9194.57
879.762	9212.2
880.08	9181.47
880.398	9125.42
880.716	9138.76
881.034	9078.65
881.352	9066.44
881.67	9068.7
881.988	9013.34
882.306	9016.73
882.624	9001.13
882.941	9003.17
883.259	8925.88
883.577	8902.83
883.894	8881.14
884.212	8887.69
884.529	8899.44
884.846	8778.77
885.164	8837.52
885.481	8756.85
885.798	8809.05
886.115	8748.94
886.432	8795.72
886.75	8715.27
887.067	8698.32
887.383	8690.18
887.7	8663.29
888.017	8676.4
888.334	8639.79
888.651	8652.67
888.967	8586
889.284	8568.15
889.6	8495.16
889.917	8520.02
890.233	8445.22
890.55	8411.54
890.866	8454.26
891.182	8437.31
891.498	8391.66
891.815	8348.27
892.131	8306.91
892.447	8308.04
892.763	8274.82
893.079	8288.38
893.395	8226.92
893.71	8198.22
894.026	8166.81
894.342	8157.99
894.657	8035.74
894.973	8056.75
895.289	8132.23
895.604	8096.52
895.92	8002.74
896.235	7955.06
896.55	7977.21
896.865	7956.19
897.181	7920.94
897.496	7923.65
897.811	7899.47
898.126	7858.79
898.441	7784.89
898.756	7751.22
899.071	7793.26
899.386	7812.01
899.7	7715.52
900.015	7666.03
900.33	7630.1
900.644	7602.98
900.959	7638.91
901.273	7584.45
901.588	7533.38
901.902	7462.42
902.216	7533.15
902.531	7446.15
902.845	7435.75
903.159	7374.51
903.473	7365.92
903.787	7323.44
904.101	7303.78
904.415	7327.73
904.729	7244.12
905.042	7228.3
905.356	7213.61
905.67	7172.93
905.984	7174.74
906.297	7190.11
906.611	7077.57
906.924	7055.2
907.237	7085.03
907.551	7084.35
907.864	6947.85
908.177	6983.56
908.491	6975.88
908.804	6940.85
909.117	6859.49
909.43	6889.1
909.743	6813.62
910.056	6873.28
910.368	6772.72
910.681	6791.7
910.994	6679.16
911.307	6718.48
911.619	6591.48
911.932	6660.4
912.244	6585.15
912.557	6613.17
912.869	6572.5
913.181	6503.12
913.494	6493.18
913.806	6476.68
914.118	6475.78
914.43	6430.81
914.742	6422.44
915.054	6376.34
915.366	6409.56
915.678	6326.18
915.99	6293.18
916.302	6309.68
916.613	6231.26
916.925	6235.78
917.236	6215.9
917.548	6174.77
917.859	6252.96
918.171	6113.07
918.482	6137.03
918.794	6055.45
919.105	6100.42
919.416	5991.04
919.727	6056.35
920.038	5980.87
920.349	5908.11
920.66	5985.62
920.971	5906.75
921.282	5889.8
921.593	5885.74
921.903	5855
922.214	5820.2
922.525	5806.19
922.835	5795.34
923.146	5739.3
923.456	5734.78
923.767	5690.03
924.077	5642.8
924.387	5660.2
924.697	5621.79
925.008	5668.11
925.318	5579.08
925.628	5597.83
925.938	5573.43
926.248	5545.41
926.558	5509.25
926.867	5457.95
927.177	5428.12
927.487	5463.83
927.796	5387.67
928.106	5354.45
928.416	5331.63
928.725	5392.41
929.034	5309.48
929.344	5289.14
929.653	5304.96
929.962	5248.01
930.271	5196.04
930.581	5154
930.89	5196.71
931.199	5153.55
931.508	5166.66
931.817	5151.74
932.125	5099.99
932.434	5088.47
932.743	5033.55
933.051	5002.37
933.36	4958.3
933.669	4987
933.977	4974.35
934.286	4909.72
934.594	4886.67
934.902	4929.38
935.21	4839.66
935.519	4870.85
935.827	4841.02
936.135	4815.48
936.443	4759.66
936.751	4734.13
937.059	4772.54
937.367	4730.51
937.674	4699.55
937.982	4699.33
938.29	4646.9
938.597	4684.64
938.905	4611.87
939.213	4573.68
939.52	4559.44
939.827	4544.75
940.135	4574.13
940.442	4474.7
940.749	4490.07
941.056	4493
941.363	4451.65
941.67	4437.86
941.977	4409.62
942.284	4393.8
942.591	4435.6
942.898	4382.27
943.205	4323.29
943.511	4374.59
943.818	4288.94
944.125	4301.37
944.431	4251.2
944.738	4247.81
945.044	4245.55
945.35	4206.23
945.657	4204.65
945.963	4211.65
946.269	4176.4
946.575	4136.4
946.881	4133.01
947.187	4122.39
947.493	4102.28
947.799	4119.23
948.105	4061.15
948.41	4034.71
948.716	4053.69
949.022	3992.45
949.327	4023.64
949.633	3985.45
949.938	3895.28
950.244	3994.26
950.549	3931.66
950.854	3925.33
951.16	3902.51
951.465	3871.78
951.77	3880.14
952.075	3839.91
952.38	3843.08
952.685	3832.46
952.99	3788.16
953.294	3805.34
953.599	3769.63
953.904	3758.11
954.209	3741.38
954.513	3690.31
954.818	3682.18
955.122	3705.68
955.426	3701.84
955.731	3647.6
956.035	3634.27
956.339	3634.49
956.643	3621.84
956.948	3585.68
957.252	3584.78
957.556	3584.1
957.86	3535.97
958.163	3526.25
958.467	3489.87
958.771	3467.04
959.075	3489.64
959.378	3476.53
959.682	3462.52
959.985	3455.74
960.289	3434.73
960.592	3398.34
960.896	3418.68
961.199	3351.34
961.502	3366.48
961.805	3358.8
962.108	3356.31
962.411	3340.49
962.714	3305.46
963.017	3300.94
963.32	3292.36
963.623	3275.41
963.926	3267.95
964.228	3227.5
964.531	3224.56
964.833	3208.52
965.136	3186.37
965.438	3153.38
965.741	3197.44
966.043	3171.91
966.345	3159.48
966.648	3110.67
966.95	3101.4
967.252	3135.07
967.554	3075.87
967.856	3105.92
968.158	3057.11
968.46	3040.84
968.761	3041.06
969.063	3051.69
969.365	3015.3
969.666	3028.18
969.968	2983.89
970.269	2956.77
970.571	2948.86
970.872	3001.07
971.174	2912.48
971.475	2930.11
971.776	2898.24
972.077	2906.6
972.378	2861.86
972.679	2919.94
972.98	2858.24
973.281	2858.92
973.582	2844.01
973.883	2815.08
974.183	2804.23
974.484	2810.56
974.785	2810.79
975.085	2763.78
975.386	2765.59
975.686	2777.12
975.986	2720.85
976.287	2693.28
976.587	2731.47
976.887	2713.62
977.187	2737.57
977.487	2668.64
977.787	2670
978.087	2640.4
978.387	2654.41
978.687	2643.79
978.987	2609.89
979.286	2613.5
979.586	2566.95
979.885	2606.5
980.185	2589.55
980.484	2542.77
980.784	2545.26
981.083	2562.88
981.382	2578.03
981.682	2527.86
981.981	2534.64
982.28	2499.38
982.579	2479.72
982.878	2475.2
983.177	2505.48
983.475	2453.51
983.774	2428.65
984.073	2417.35
984.372	2415.32
984.67	2451.7
984.969	2405.37
985.267	2413.28
985.566	2407.18
985.864	2382.32
986.162	2352.27
986.461	2351.59
986.759	2335.09
987.057	2323.57
987.355	2347.97
987.653	2288.54
987.951	2282.67
988.249	2299.16
988.547	2270.69
988.844	2297.13
989.142	2274.3
989.44	2229.11
989.737	2233.18
990.035	2240.63
990.332	2269.11
990.63	2225.27
990.927	2195.66
991.224	2203.57
991.521	2190.69
991.819	2156.79
992.116	2164.03
992.413	2162.9
992.71	2134.42
993.006	2116.79
993.303	2120.64
993.6	2096.23
993.897	2096.91
994.193	2102.33
994.49	2098.04
994.787	2075.67
995.083	2043.35
995.379	2044.93
995.676	1993.41
995.972	2030.47
996.268	2036.57
996.565	2038.38
996.861	2029.79
997.157	1980.08
997.453	1960.64
997.749	1973.52
998.044	1986.85
998.34	1962.67
998.636	1940.75
998.932	1923.58
999.227	1909.12
999.523	1904.6
999.818	1919.96
1000.114	1894.65
1000.409	1832.96
1000.704	1865.73
1001	1866.86
1001.295	1852.39
1001.59	1845.39
1001.885	1843.13
1002.18	1818.5
1002.475	1795.22
1002.77	1818.72
1003.065	1804.26
1003.359	1791.15
1003.654	1791.83
1003.949	1722.23
1004.243	1745.05
1004.538	1761.1
1004.832	1744.6
1005.127	1746.41
1005.421	1758.39
1005.715	1731.49
1006.009	1693.3
1006.304	1710.48
1006.598	1681.55
1006.892	1694.88
1007.186	1683.81
1007.48	1664.6
1007.773	1690.59
1008.067	1628.22
1008.361	1636.58
1008.655	1665.73
1008.948	1632.29
1009.242	1606.07
1009.535	1615.79
1009.829	1582.57
1010.122	1576.92
1010.415	1575.57
1010.708	1538.28
1011.001	1552.74
1011.295	1580.54
1011.588	1538.73
1011.881	1520.2
1012.173	1526.98
1012.466	1549.8
1012.759	1526.98
1013.052	1481.11
1013.344	1499.18
1013.637	1486.75
1013.93	1474.33
1014.222	1468
1014.514	1451.5
1014.807	1468.22
1015.099	1433.42
1015.391	1419.41
1015.683	1423.25
1015.976	1435.91
1016.268	1408.56
1016.56	1389.81
1016.851	1395.91
1017.143	1369.24
1017.435	1358.17
1017.727	1378.28
1018.018	1371.05
1018.31	1362.46
1018.602	1360.88
1018.893	1351.84
1019.185	1341.67
1019.476	1301.67
1019.767	1305.06
1020.058	1300.54
1020.35	1293.31
1020.641	1271.17
1020.932	1283.37
1021.223	1275.46
1021.514	1266.42
1021.804	1251.73
1022.095	1233.88
1022.386	1242.92
1022.677	1232.75
1022.967	1229.59
1023.258	1209.93
1023.548	1171.73
1023.839	1218.29
1024.129	1208.34
1024.419	1204.28
1024.709	1162.92
1025	1139.42
1025.29	1153.88
1025.58	1138.29
1025.87	1142.81
1026.16	1126.31
1026.449	1130.61
1026.739	1105.07
1027.029	1137.39
1027.319	1098.97
1027.608	1116.37
1027.898	1086.09
1028.187	1083.6
1028.477	1077.73
1028.766	1076.82
1029.055	1079.08
1029.344	1070.27
1029.634	1068.23
1029.923	1059.2
1030.212	1050.16
1030.501	1018.74
1030.79	1037.95
1031.078	1029.14
1031.367	1052.64
1031.656	1025.52
1031.945	1005.64
1032.233	998.86
1032.522	1011.29
1032.81	981.01
1033.099	970.84
1033.387	990.72
1033.675	966.09
1033.963	962.47
1034.251	947.79
1034.54	951.63
1034.828	928.35
1035.116	927.9
1035.403	941.68
1035.691	937.39
1035.979	935.81
1036.267	919.54
1036.554	905.3
1036.842	906.2
1037.129	897.39
1037.417	877.28
1037.704	879.31
1037.992	863.27
1038.279	858.07
1038.566	867.11
1038.853	867.11
1039.14	867.11
