Data from hue_34_FLMS001491_00010.txt Node
Date: Tue Feb 07 17:25:08 GMT 2017
User: dcchb
Spectrometer: FLMS00149
Trigger mode: 0
Integration Time (sec): 2.000000E-2
Scans to average: 10
Electric dark correction enabled: true
Nonlinearity correction enabled: false
Boxcar width: 0
XAxis mode: Wavelengths
Number of Pixels in Spectrum: 2048
>>>>>Begin Spectral Data<<<<<
341.393	-4.04
341.776	-4.04
342.16	-4.04
342.543	-53.98
342.927	-73.87
343.31	-63.92
343.693	-80.2
344.077	-52.63
344.46	-58.5
344.843	-55.79
345.226	-49.91
345.61	-21.21
345.993	-31.84
346.376	4.77
346.759	6.13
347.142	19.46
347.525	54.04
347.908	62.17
348.291	64.89
348.674	93.13
349.057	109.4
349.44	135.17
349.823	143.53
350.206	148.95
350.588	201.15
350.971	216.29
351.354	230.3
351.737	256.29
352.119	253.58
352.502	282.51
352.884	287.03
353.267	282.51
353.65	302.85
354.032	294.03
354.414	301.49
354.797	321.83
355.179	331.54
355.562	322.05
355.944	337.19
356.326	322.28
356.709	350.08
357.091	330.19
357.473	368.15
357.855	346.91
358.238	358.66
358.62	342.84
359.002	352.11
359.384	352.11
359.766	366.12
360.148	331.77
360.53	336.06
360.912	324.77
361.294	355.73
361.676	307.36
362.057	335.39
362.439	332.45
362.821	348.04
363.203	328.16
363.584	344.88
363.966	321.6
364.348	306.91
364.729	345.56
365.111	321.83
365.493	323.41
365.874	316.63
366.256	332.22
366.637	332.67
367.019	320.02
367.4	319.79
367.781	327.93
368.163	312.11
368.544	324.54
368.925	306.23
369.306	333.8
369.688	302.39
370.069	330.19
370.45	324.77
370.831	334.71
371.212	334.03
371.593	347.59
371.974	335.61
372.355	333.35
372.736	321.83
373.117	331.09
373.498	325.67
373.879	326.57
374.26	308.72
374.641	326.35
375.021	316.18
375.402	324.31
375.783	346.46
376.163	326.57
376.544	329.74
376.925	344.2
377.305	330.42
377.686	328.61
378.066	321.83
378.447	342.17
378.827	335.84
379.208	349.62
379.588	322.05
379.968	327.03
380.349	332.22
380.729	333.35
381.109	348.49
381.489	353.92
381.87	345.33
382.25	329.29
382.63	350.53
383.01	349.62
383.39	355.73
383.77	363.63
384.15	330.19
384.53	371.09
384.91	374.71
385.29	355.27
385.67	380.81
386.049	358.66
386.429	355.05
386.809	362.05
387.189	354.82
387.568	374.48
387.948	377.19
388.328	365.44
388.707	339.68
389.087	371.54
389.466	369.51
389.846	385.1
390.225	366.35
390.605	349.62
390.984	380.36
391.363	378.1
391.743	398.44
392.122	369.28
392.501	382.39
392.881	385.55
393.26	372.22
393.639	390.3
394.018	358.66
394.397	373.13
394.776	398.44
395.155	381.71
395.534	393.01
395.913	405.44
396.292	391.2
396.671	388.49
397.05	393.24
397.429	391.2
397.808	409.06
398.186	383.52
398.565	395.27
398.944	406.8
399.323	393.46
399.701	393.69
400.08	408.15
400.458	413.8
400.837	393.46
401.215	385.33
401.594	412.45
401.972	397.53
402.351	406.57
402.729	423.52
403.107	425.33
403.486	422.62
403.864	428.94
404.242	442.28
404.62	414.48
404.999	420.36
405.377	437.53
405.755	421.71
406.133	444.99
406.511	438.21
406.889	439.34
407.267	445.67
407.645	442.5
408.023	410.64
408.401	460.58
408.779	442.95
409.156	444.99
409.534	470.3
409.912	472.33
410.29	477.76
410.667	470.52
411.045	461.26
411.422	473.91
411.8	443.63
412.178	470.52
412.555	483.41
412.933	468.72
413.31	466
413.687	479.79
414.065	489.51
414.442	510.07
414.819	498.32
415.197	474.59
415.574	505.55
415.951	524.53
416.328	525.89
416.705	510.3
417.082	527.92
417.46	522.5
417.837	520.47
418.214	527.47
418.591	498.77
418.967	519.11
419.344	531.77
419.721	530.86
420.098	544.87
420.475	547.13
420.852	535.16
421.228	531.31
421.605	558.21
421.982	555.04
422.358	580.8
422.735	554.36
423.111	581.26
423.488	563.63
423.864	566.79
424.241	581.71
424.617	587.36
424.994	584.19
425.37	613.12
425.746	579.67
426.123	580.58
426.499	602.95
426.875	591.43
427.251	586.68
427.627	602.72
428.003	614.25
428.379	604.31
428.756	598.88
429.132	623.51
429.507	619.67
429.883	636.17
430.259	634.59
430.635	623.51
431.011	643.85
431.387	652.21
431.763	662.16
432.138	673.68
432.514	674.81
432.89	679.56
433.265	670.52
433.641	686.34
434.016	688.82
434.392	699.67
434.767	680.46
435.143	691.54
435.518	715.72
435.894	709.39
436.269	723.85
436.644	740.35
437.02	726.56
437.395	690.41
437.77	747.13
438.145	746
438.52	757.3
438.895	766.34
439.271	768.37
439.646	772.44
440.021	765.88
440.395	776.05
440.77	750.29
441.145	760.91
441.52	804.53
441.895	789.39
442.27	816.05
442.645	793
443.019	804.98
443.394	801.82
443.769	832.32
444.143	820.8
444.518	822.38
444.892	844.07
445.267	828.93
445.641	840.23
446.016	841.14
446.39	843.4
446.764	866.45
447.139	835.49
447.513	841.81
447.887	855.82
448.262	858.76
448.636	875.94
449.01	868.25
449.384	860.12
449.758	888.14
450.132	874.36
450.506	937.4
450.88	909.16
451.254	895.15
451.628	922.26
452.002	912.55
452.376	937.86
452.75	926.78
453.123	931.98
453.497	965.43
453.871	967.91
454.244	987.35
454.618	972.21
454.992	976.73
455.365	1030.74
455.739	1000.91
456.112	1036.61
456.486	1011.3
456.859	1039.77
457.232	1045.65
457.606	1064.86
457.979	1087.46
458.352	1065.54
458.725	1096.5
459.099	1115.71
459.472	1131.3
459.845	1125.2
460.218	1132.43
460.591	1141.02
460.964	1157.96
461.337	1185.53
461.71	1204.97
462.083	1185.08
462.456	1191.64
462.829	1201.8
463.201	1228.7
463.574	1242.48
463.947	1277.96
464.32	1289.71
464.692	1302.14
465.065	1298.53
465.438	1314.34
465.81	1350.28
466.183	1344.4
466.555	1355.02
466.928	1407
467.3	1419.43
467.672	1412.19
468.045	1435.7
468.417	1455.81
468.789	1485.41
469.161	1459.2
469.534	1519.31
469.906	1517.95
470.278	1542.59
470.65	1551.85
471.022	1615.35
471.394	1631.4
471.766	1655.35
472.138	1676.14
472.51	1728.8
472.882	1734.22
473.253	1769.7
473.625	1801.34
473.997	1833.88
474.369	1823.03
474.74	1904.61
475.112	1896.7
475.484	1961.11
475.855	2027.32
476.227	2035.91
476.598	2078.84
476.97	2130.59
477.341	2191.16
477.713	2190.03
478.084	2242.68
478.455	2280.42
478.827	2346.63
479.198	2434.99
479.569	2463.92
479.94	2551.37
480.311	2562.45
480.682	2641.09
481.053	2682.22
481.424	2782.78
481.795	2807.86
482.166	2877.01
482.537	2933.74
482.908	3014.41
483.279	3095.99
483.65	3167.18
484.021	3218.25
484.391	3295.31
484.762	3360.17
485.133	3389.54
485.503	3503.89
485.874	3535.75
486.244	3665.02
486.615	3725.35
486.985	3794.5
487.356	3889.42
487.726	3972.35
488.097	4026.59
488.467	4134.16
488.837	4234.49
489.207	4316.07
489.578	4411.89
489.948	4509.29
490.318	4596.07
490.688	4621.38
491.058	4742.5
491.428	4829.51
491.798	4902.72
492.168	5019.56
492.538	5070.63
492.908	5165.99
493.278	5313.33
493.648	5285.54
494.017	5424.29
494.387	5533.22
494.757	5559.2
495.126	5705.87
495.496	5739.76
495.866	5778.63
496.235	5876.26
496.605	5979.31
496.974	6075.8
497.344	6103.6
497.713	6192.18
498.082	6295
498.452	6361.67
498.821	6378.84
499.19	6442.34
499.559	6566.41
499.928	6613.41
500.298	6690.47
500.667	6797.36
501.036	6795.1
501.405	6895.67
501.774	6928.43
502.143	7040.07
502.512	7074.42
502.88	7163.46
503.249	7158.71
503.618	7242.32
503.987	7337.91
504.356	7408.65
504.724	7486.39
505.093	7484.8
505.462	7547.4
505.83	7615.2
506.199	7665.82
506.567	7856.54
506.936	7804.12
507.304	7894.51
507.672	8023.32
508.041	8005.24
508.409	8095.63
508.777	8193.71
509.145	8261.51
509.514	8172.47
509.882	8299.02
510.25	8333.37
510.618	8333.14
510.986	8436.42
511.354	8538.79
511.722	8607.49
512.09	8665.11
512.458	8700.36
512.826	8741.95
513.193	8744.21
513.561	8873.47
513.929	8900.59
514.297	9012.9
514.664	9044.31
515.032	9099.45
515.4	9155.95
515.767	9150.52
516.135	9229.62
516.502	9193.91
516.869	9326.79
517.237	9390.52
517.604	9379.67
517.972	9464.64
518.339	9537.86
518.706	9517.74
519.073	9523.39
519.44	9669.15
519.808	9780.11
520.175	9703.28
520.542	9911.86
520.909	9909.15
521.276	9901.69
521.643	10095.13
522.009	10083.83
522.376	10117.05
522.743	10192.3
523.11	10241.11
523.477	10385.07
523.843	10394.33
524.21	10498.28
524.577	10520.43
524.943	10568.79
525.31	10653.76
525.676	10777.6
526.043	10843.13
526.409	10919.06
526.776	10942.34
527.142	11032.51
527.508	11075.67
527.874	11150.7
528.241	11126.06
528.607	11191.6
528.973	11312.05
529.339	11376
529.705	11404.25
530.071	11522.21
530.437	11560.18
530.803	11620.97
531.169	11659.38
531.535	11653.51
531.901	11771.92
532.267	11788.19
532.632	11815.54
532.998	11968.08
533.364	11977.57
533.73	12018.7
534.095	12173.27
534.461	12026.38
534.826	12321.74
535.192	12295.3
535.557	12300.95
535.923	12364
536.288	12438.57
536.653	12530.09
537.019	12461.17
537.384	12452.13
537.749	12592.47
538.114	12629.75
538.479	12742.07
538.845	12744.78
539.21	12732.57
539.575	12804.89
539.94	12885.11
540.305	12868.84
540.67	12968.05
541.034	13047.37
541.399	13004.43
541.764	13145.22
542.129	13124.65
542.494	13244.88
542.858	13281.26
543.223	13310.86
543.587	13406
543.952	13433.57
544.316	13461.37
544.681	13423.4
545.045	13563.06
545.41	13584.76
545.774	13655.71
546.138	13681.93
546.503	13780.23
546.867	13792.21
547.231	13941.13
547.595	13960.34
547.959	14008.93
548.324	14001.24
548.688	14012.77
549.052	14160.11
549.416	14055.7
549.779	14041.69
550.143	14146.55
550.507	14273.1
550.871	14295.25
551.235	14303.38
551.599	14385.86
551.962	14490.49
552.326	14479.65
552.689	14623.6
553.053	14507.9
553.417	14667.67
553.78	14802.35
554.143	14722.8
554.507	14772.75
554.87	14929.35
555.234	15012.29
555.597	14869.47
555.96	15009.13
556.323	14970.03
556.686	15111.04
557.05	15164.6
557.413	15237.82
557.776	15218.61
558.139	15332.96
558.502	15374.54
558.865	15396.23
559.228	15485.72
559.59	15575.89
559.953	15558.94
560.316	15626.28
560.679	15696.79
561.041	15772.04
561.404	15856.79
561.767	15829.89
562.129	15804.58
562.492	15997.57
562.854	16060.17
563.217	16119.15
563.579	16161.41
563.941	16196.44
564.304	16308.98
564.666	16372.71
565.028	16407.28
565.39	16407.05
565.753	16414.51
566.115	16474.4
566.477	16608.63
566.839	16692.47
567.201	16752.13
567.563	16804.33
567.925	16955.97
568.287	16948.74
568.648	16944.44
569.01	17089.97
569.372	17134.94
569.734	17190.31
570.095	17324.32
570.457	17327.71
570.819	17404.09
571.18	17452.22
571.542	17590.75
571.903	17576.29
572.265	17747.81
572.626	17710.97
572.987	17840.24
573.349	17858.09
573.71	18010.63
574.071	18100.57
574.432	18171.75
574.794	18310.51
575.155	18349.6
575.516	18503.5
575.877	18676.6
576.238	18617.39
576.599	18756.6
576.96	18779.42
577.32	18927.89
577.681	19101.9
578.042	19238.17
578.403	19346.19
578.763	19473.41
579.124	19621.66
579.485	19773.97
579.845	19985.04
580.206	20111.14
580.566	20157.69
580.927	20362.43
581.287	20547.28
581.648	20515.65
582.008	20804.45
582.368	20943.21
582.728	21122.86
583.089	21237.89
583.449	21497.32
583.809	21767.14
584.169	21770.53
584.529	21944.76
584.889	22348.59
585.249	22414.35
585.609	22684.18
585.969	22955.81
586.329	23072.19
586.688	23393.31
587.048	23505.62
587.408	23705.39
587.768	23934.31
588.127	24228.54
588.487	24330.69
588.846	24788.53
589.206	24899.71
589.565	25115.3
589.925	25471.9
590.284	25595.74
590.643	25911.89
591.003	26139
591.362	26345.1
591.721	26561.36
592.08	26887.23
592.44	27215.58
592.799	27516.82
593.158	27645.63
593.517	27981.67
593.876	28176.24
594.235	28326.29
594.593	28627.98
594.952	28909.78
595.311	29108.42
595.67	29507.95
596.029	29665.01
596.387	29876.98
596.746	30235.17
597.104	30420.92
597.463	30586.79
597.822	30848.93
598.18	31135.03
598.538	31383.84
598.897	31620.44
599.255	31633.09
599.613	32357.6
599.972	32350.14
600.33	32564.14
600.688	32762.1
601.046	33077.12
601.404	33457.68
601.762	33337.91
602.12	33879.36
602.478	33936.76
602.836	34173.59
603.194	34188.28
603.552	34473.25
603.91	34477.77
604.268	34909.17
604.625	34861.03
604.983	35158.65
605.341	35279.33
605.698	35626.21
606.056	35791.18
606.413	35964.51
606.771	36414.44
607.128	36389.13
607.485	36511.38
607.843	36699.4
608.2	37000.19
608.557	37197.24
608.914	37220.97
609.272	37592.26
609.629	37646.95
609.986	37969.2
610.343	37902.76
610.7	38248.97
611.057	38416.87
611.414	38267.5
611.771	38593.82
612.127	38902.06
612.484	38963.07
612.841	39043.3
613.198	39211.65
613.554	39216.17
613.911	39633.56
614.267	39664.52
614.624	39772.54
614.98	39919.43
615.337	40171.18
615.693	40117.62
616.05	40196.03
616.406	40526.65
616.762	40436.03
617.118	40690.48
617.475	40734.32
617.831	40894.09
618.187	40948.56
618.543	41105.39
618.899	41448.2
619.255	41274.88
619.611	41243.69
619.967	41459.05
620.323	41654.53
620.678	41632.15
621.034	41506.73
621.39	41578.6
621.746	41583.57
622.101	42161.18
622.457	41993.05
622.812	42122.08
623.168	42162.54
623.523	42240.95
623.879	42411.57
624.234	42259.48
624.589	42439.82
624.945	42456.77
625.3	42632.35
625.655	42584.45
626.01	42619.92
626.365	42862.63
626.72	42663.77
627.075	42731.56
627.43	42717.1
627.785	42656.53
628.14	42879.8
628.495	42944.21
628.85	42903.98
629.205	42927.71
629.559	42979.46
629.914	42828.73
630.269	42948.5
630.623	43006.58
630.978	42927.26
631.332	43128.16
631.687	43182.85
632.041	43030.54
632.396	43180.81
632.75	42983.3
633.104	43093.13
633.459	43005
633.813	42996.41
634.167	42893.14
634.521	42874.61
634.875	43005.45
635.229	43014.49
635.583	42894.72
635.937	42835.06
636.291	42768.85
636.645	42800.48
636.999	42885.23
637.352	43030.76
637.706	42710.09
638.06	42889.75
638.413	42906.92
638.767	42815.17
639.121	42854.27
639.474	42718
639.828	42645.46
640.181	42877.77
640.534	42820.37
640.888	42759.81
641.241	42507.84
641.594	42609.53
641.947	42800.94
642.301	42593.94
642.654	42591.9
643.007	42499.93
643.36	42535.63
643.713	42455.86
644.066	42478.23
644.419	42358.01
644.771	42225.36
645.124	41859.04
645.477	41774.3
645.83	41595.32
646.182	41349
646.535	41342.9
646.888	41350.13
647.24	41153.3
647.593	41403.91
647.945	41434.42
648.298	41101.09
648.65	41002.34
649.002	41011.15
649.355	41233.97
649.707	41181.77
650.059	41366.85
650.411	41792.38
650.763	41866.05
651.115	42138.13
651.467	41977.68
651.819	42130.45
652.171	42020.17
652.523	41983.11
652.875	42079.83
653.227	41685.03
653.578	42048.19
653.93	41912.82
654.282	41872.6
654.633	41679.61
654.985	41696.11
655.337	41753.51
655.688	41864.46
656.039	41974.74
656.391	41663.79
656.742	41753.73
657.094	41842.09
657.445	42012.03
657.796	41831.24
658.147	41698.14
658.498	41664.02
658.849	41676.9
659.2	41662.21
659.551	41554.64
659.902	41703.79
660.253	41593.51
660.604	41611.14
660.955	41495.21
661.306	41694.3
661.656	41704.47
662.007	41608.88
662.358	41621.31
662.708	41705.37
663.059	41608.65
663.409	41339.05
663.76	41678.25
664.11	41578.82
664.461	41649.55
664.811	41535.43
665.161	41606.84
665.511	41449.56
665.862	41465.38
666.212	41446.17
666.562	41675.09
666.912	41424.25
667.262	41398.26
667.612	41469.45
667.962	41565.94
668.312	41438.94
668.662	41600.06
669.011	41323.24
669.361	41366.85
669.711	41503.8
670.06	41404.82
670.41	41306.06
670.76	41336.57
671.109	41457.7
671.459	41314.65
671.808	41210.7
672.157	41443.46
672.507	41015
672.856	41108.55
673.205	41165.73
673.554	41266.29
673.904	41053.64
674.253	41502.21
674.602	41217.93
674.951	40758.73
675.3	40469.92
675.649	41025.16
675.998	41045.73
676.346	41082.34
676.695	41250.47
677.044	40887.77
677.393	40994.2
677.741	40959.18
678.09	41029.23
678.438	40726.64
678.787	40834.66
679.135	40760.99
679.484	40666.3
679.832	40741.33
680.181	40446.42
680.529	40804.38
680.877	40509.92
681.225	40557.15
681.573	40654.1
681.922	40490.04
682.27	40240.78
682.618	40329.14
682.966	40283.71
683.314	40333.66
683.661	40262.92
684.009	40212.76
684.357	40033.1
684.705	39977.96
685.053	40035.13
685.4	40080.56
685.748	39701.13
686.095	39824.97
686.443	39565.32
686.79	39514.24
687.138	39657.97
687.485	39676.5
687.832	39564.64
688.18	39587.91
688.527	39380.69
688.874	39361.25
689.221	39318.09
689.568	39201.71
689.915	38953.58
690.262	39127.59
690.609	39047.82
690.956	38752.23
691.303	38864.32
691.65	38582.97
691.997	38522.86
692.344	38495.97
692.69	38283.32
693.037	38371.9
693.383	38089.65
693.73	38192.92
694.077	38002.19
694.423	37902.53
694.769	37827.96
695.116	37746.38
695.462	37792.71
695.808	37593.16
696.155	37659.83
696.501	37354.98
696.847	37260.07
697.193	36980.3
697.539	37234.76
697.885	36957.93
698.231	36969.68
698.577	37162.21
698.923	36901.88
699.269	36758.61
699.614	36620.76
699.96	36641.32
700.306	36625.96
700.651	36420.31
700.997	36325.4
701.342	36145.97
701.688	36121.11
702.033	36091.28
702.379	36026.88
702.724	35873.89
703.069	36030.72
703.415	35542.37
703.76	35649.94
704.105	35479.55
704.45	35511.86
704.795	35323.62
705.14	35081.14
705.485	35202.49
705.83	35061.93
706.175	35238.65
706.52	35071.65
706.865	34891.31
707.209	34884.08
707.554	34647.03
707.899	34717.53
708.243	34700.36
708.588	34623.3
708.932	34287.49
709.277	34334.49
709.621	34388.28
709.966	34202.74
710.31	34239.58
710.654	33855.41
710.998	34003.65
711.342	33947.38
711.687	33904
712.031	33741.74
712.375	33600.5
712.719	33605.25
713.063	33545.59
713.407	33730.67
713.75	33451.13
714.094	33506.27
714.438	33320.06
714.782	33315.08
715.125	33196.22
715.469	33270.34
715.812	33028.54
716.156	32953.96
716.499	32855.44
716.843	32859.05
717.186	32833.06
717.53	32943.57
717.873	32908.54
718.216	32549.23
718.559	32568.44
718.902	32445.5
719.246	32553.07
719.589	32324.83
719.932	32219.97
720.275	32315.56
720.617	32297.48
720.96	32075.12
721.303	32249.12
721.646	32194.44
721.989	31918.96
722.331	31998.73
722.674	31921.9
723.016	31986.08
723.359	31897.04
723.701	31942.69
724.044	31694.11
724.386	31664.28
724.729	31604.39
725.071	31616.82
725.413	31536.6
725.755	31581.57
726.097	31354.23
726.439	31271.3
726.782	31225.65
727.124	31459.99
727.465	31281.92
727.807	31227.46
728.149	31165.54
728.491	31079.66
728.833	31134.58
729.175	30928.48
729.516	31028.59
729.858	30988.59
730.199	30861.59
730.541	30800.35
730.882	30871.98
731.224	30867.47
731.565	30562.39
731.906	30768.48
732.248	30856.84
732.589	30542.05
732.93	30490.3
733.271	30487.59
733.612	30490.98
733.953	30555.61
734.294	30366.91
734.635	30335.95
734.976	30482.16
735.317	30137.99
735.658	30183.87
735.999	30159.91
736.339	30109.29
736.68	30214.6
737.021	30026.36
737.361	29994.72
737.702	30142.06
738.042	29963.53
738.383	29890.32
738.723	29935.96
739.063	29702.52
739.404	29742.07
739.744	29631.11
740.084	29681.96
740.424	29603.09
740.764	29599.7
741.104	29718.12
741.444	29382.98
741.784	29345.25
742.124	29519.25
742.464	29462.98
742.804	29316.09
743.143	29179.15
743.483	29320.84
743.823	29126.72
744.162	29111.58
744.502	29252.37
744.841	29115.42
745.181	29205.81
745.52	28975.09
745.86	29149.09
746.199	29088.98
746.538	29120.84
746.877	29035.65
747.216	28992.49
747.556	28889.89
747.895	28823
748.234	28720.85
748.573	28619.84
748.911	28648.77
749.25	28616.68
749.589	28580.52
749.928	28643.34
750.267	28459.17
750.605	28473.18
750.944	28378.27
751.283	28357.7
751.621	28361.09
751.96	28164.49
752.298	28209
752.636	28227.31
752.975	28032.51
753.313	27965.17
753.651	28080.42
753.989	27865.28
754.327	27886.75
754.666	27885.62
755.004	27892.63
755.342	27788.9
755.679	27763.82
756.017	27610.83
756.355	27651.96
756.693	27562.02
757.031	27546.42
757.368	27437.95
757.706	27286.32
758.044	27196.83
758.381	27237.5
758.719	27104.63
759.056	27203.83
759.394	27062.82
759.731	26886.55
760.068	26892.43
760.405	26730.62
760.743	26799.1
761.08	26715.71
761.417	26565.21
761.754	26622.83
762.091	26490.63
762.428	26293.8
762.765	26292.44
763.102	26324.53
763.438	26132.45
763.775	26094.71
764.112	26101.71
764.449	26215.16
764.785	25846.81
765.122	25866.47
765.458	25635.74
765.795	25590.54
766.131	25546.93
766.467	25558.9
766.804	25390.77
767.14	25257.44
767.476	25309.65
767.812	25185.35
768.148	25222.64
768.485	25038.92
768.821	24853.61
769.157	24928.19
769.492	24921.86
769.828	24739.04
770.164	24524.58
770.5	24532.94
770.836	24571.13
771.171	24415.43
771.507	24351.93
771.842	24083.46
772.178	24213.4
772.513	24134.31
772.849	23946.97
773.184	23956.01
773.519	23864.26
773.855	23770.25
774.19	23661.33
774.525	23607.77
774.86	23646.64
775.195	23525.06
775.53	23398.28
775.865	23323.26
776.2	23182.7
776.535	22970.05
776.87	22987.45
777.205	22912.65
777.539	22830.16
777.874	22753.55
778.209	22528.48
778.543	22698.41
778.878	22471.53
779.212	22388.59
779.547	22320.8
779.881	22279.89
780.215	22234.02
780.55	22160.58
780.884	22095.04
781.218	21964.65
781.552	22062.72
781.886	21792.68
782.22	21715.84
782.554	21638.56
782.888	21463.64
783.222	21534.6
783.556	21241.28
783.889	21316.76
784.223	21111.79
784.557	21173.03
784.89	21079.47
785.224	21065.46
785.557	20956.77
785.891	20904.11
786.224	20870.89
786.558	20719.71
786.891	20580.96
787.224	20550.45
787.557	20451.47
787.891	20495.08
788.224	20412.6
788.557	20470.9
788.89	20406.05
789.223	20262.55
789.556	20051.25
789.888	20032.72
790.221	19985.49
790.554	19808.32
790.887	19759.96
791.219	19705.27
791.552	19667.08
791.884	19564.71
792.217	19601.32
792.549	19437.03
792.882	19365.62
793.214	19262.35
793.546	19282.46
793.879	19206.53
794.211	19113.2
794.543	19061.22
794.875	18981.45
795.207	19065.29
795.539	18909.81
795.871	18926.99
796.203	18689.71
796.535	18607.45
796.867	18668.24
797.198	18655.81
797.53	18639.54
797.862	18405.65
798.193	18540.78
798.525	18352.54
798.856	18389.83
799.188	18174.01
799.519	18105.31
799.85	18030.74
800.182	18104.64
800.513	18122.94
800.844	17826.9
801.175	18015.37
801.506	18017.63
801.837	17738.54
802.168	17742.84
802.499	17696.74
802.83	17667.81
803.161	17558.21
803.491	17577.87
803.822	17581.49
804.153	17418.1
804.483	17305.34
804.814	17373.13
805.145	17275.96
805.475	17212.46
805.805	17081.61
806.136	17181.05
806.466	17173.14
806.796	17071.22
807.126	16934.5
807.457	16857.66
807.787	16923.88
808.117	16838.46
808.447	16903.76
808.777	16767.95
809.107	16699.02
809.436	16676.2
809.766	16632.81
810.096	16551.68
810.426	16415.64
810.755	16551.46
811.085	16560.95
811.414	16451.57
811.744	16241.86
812.073	16203.9
812.403	16290
812.732	16167.96
813.061	16111.7
813.39	16043.45
813.719	16000.96
814.049	16101.75
814.378	16025.6
814.707	15957.12
815.036	15898.82
815.365	15834.87
815.693	15747.86
816.022	15681.88
816.351	15704.7
816.68	15672.61
817.008	15712.16
817.337	15581.09
817.665	15527.53
817.994	15544.48
818.322	15484.14
818.651	15482.78
818.979	15320.3
819.307	15392.17
819.636	15343.13
819.964	15269.01
820.292	15285.05
820.62	15273.52
820.948	15185.39
821.276	15247.08
821.604	15238.72
821.932	15297.71
822.259	15240.76
822.587	15231.72
822.915	15210.02
823.243	15148.56
823.57	15125.96
823.898	15241.89
824.225	15078.05
824.553	15057.03
824.88	15178.39
825.207	15173.41
825.535	15207.54
825.862	15173.87
826.189	15120.08
826.516	15205.73
826.843	15182.91
827.17	15196.69
827.497	15168.89
827.824	15116.47
828.151	15116.47
828.478	15174.77
828.805	15217.71
829.131	15105.85
829.458	15043.7
829.785	15036.24
830.111	15000.31
830.438	15119.63
830.764	15184.26
831.09	15145.62
831.417	15028.33
831.743	15048.9
832.069	15049.35
832.395	15023.36
832.722	15155.79
833.048	15004.83
833.374	14990.82
833.7	14937.04
834.026	15005.74
834.351	14975.23
834.677	14923.7
835.003	14960.99
835.329	14968.45
835.654	14942.01
835.98	14818.62
836.306	14905.17
836.631	14757.15
836.956	14808.9
837.282	14754.67
837.607	14738.62
837.932	14715.8
838.258	14695.91
838.583	14709.7
838.908	14546.31
839.233	14580.89
839.558	14518.52
839.883	14525.07
840.208	14498.86
840.533	14511.74
840.858	14575.46
841.182	14473.32
841.507	14480.33
841.832	14311.74
842.156	14385.19
842.481	14354
842.805	14347.45
843.13	14271.74
843.454	14331.85
843.778	14156.04
844.103	14127.79
844.427	14124.85
844.751	14160.11
845.075	14091.41
845.399	14029.04
845.723	13936.84
846.047	13987.46
846.371	13840.34
846.695	13892.09
847.019	13766.9
847.343	13707.92
847.666	13664.3
847.99	13608.03
848.313	13572.33
848.637	13512.22
848.96	13479.22
849.284	13398.09
849.607	13426.79
849.931	13337.53
850.254	13153.58
850.577	13130.53
850.9	13055.73
851.223	13054.83
851.546	13027.93
851.869	12903.19
852.192	12923.3
852.515	12816.41
852.838	12739.13
853.161	12829.97
853.483	12739.81
853.806	12646.93
854.129	12629.3
854.451	12585.46
854.774	12596.76
855.096	12533.26
855.419	12490.55
855.741	12436.99
856.063	12325.13
856.385	12358.35
856.708	12329.2
857.03	12303.66
857.352	12232.02
857.674	12211.46
857.996	12140.95
858.318	12080.84
858.64	12087.85
858.961	12014.4
859.283	12034.97
859.605	11965.82
859.926	11957.23
860.248	12007.17
860.57	11909.55
860.891	11916.55
861.212	11907.06
861.534	11806.05
861.855	11736.67
862.176	11734.18
862.498	11722.66
862.819	11699.83
863.14	11717.01
863.461	11660.96
863.782	11603.11
864.103	11671.81
864.424	11641.53
864.745	11624.36
865.065	11578.03
865.386	11477.01
865.707	11505.04
866.027	11523.79
866.348	11517.24
866.668	11438.37
866.989	11447.18
867.309	11378.94
867.63	11368.09
867.95	11391.82
868.27	11268.21
868.59	11301.43
868.91	11209.68
869.23	11222.11
869.55	11231.15
869.87	11313.4
870.19	11244.03
870.51	11317.47
870.83	11264.36
871.15	11262.11
871.469	11154.54
871.789	11231.37
872.109	11096.01
872.428	11032.51
872.748	11081.77
873.067	11075.9
873.386	11056.46
873.706	11094.65
874.025	10971.27
874.344	10915.45
874.663	10958.16
874.982	10990.7
875.301	10990.47
875.62	10864.6
875.939	10900.98
876.258	10924.03
876.577	10797.71
876.896	10845.62
877.214	10761.55
877.533	10740.08
877.852	10802.23
878.17	10726.07
878.489	10814.43
878.807	10782.12
879.125	10720.42
879.444	10730.14
879.762	10679.07
880.08	10753.42
880.398	10651.05
880.716	10674.32
881.034	10591.61
881.352	10619.86
881.67	10510.49
881.988	10568.79
882.306	10547.1
882.624	10516.81
882.941	10446.99
883.259	10426.42
883.577	10350.49
883.894	10386.42
884.212	10437.49
884.529	10422.13
884.846	10325.63
885.164	10254
885.481	10224.62
885.798	10207.9
886.115	10141.91
886.432	10167.22
886.75	10114.11
887.067	10160.67
887.383	10115.92
887.7	10075.47
888.017	10036.83
888.334	10128.12
888.651	10022.14
888.967	9974.23
889.284	9964.51
889.6	9938.3
889.917	9849.94
890.233	9822.14
890.55	9845.19
890.866	9804.06
891.182	9762.26
891.498	9760.9
891.815	9788.92
892.131	9663.5
892.447	9707.34
892.763	9637.06
893.079	9625.54
893.395	9536.05
893.71	9573.34
894.026	9549.38
894.342	9552.09
894.657	9461.7
894.973	9492.66
895.289	9447.46
895.604	9484.98
895.92	9357.75
896.235	9297.41
896.55	9315.72
896.865	9270.29
897.181	9232.33
897.496	9279.78
897.811	9213.57
898.126	9116.4
898.441	9101.03
898.756	9077.98
899.071	9063.97
899.386	9024.2
899.7	9014.03
900.015	9009.96
900.33	8882.05
900.644	8842.73
900.959	8886.8
901.273	8803.19
901.588	8746.46
901.902	8735.39
902.216	8723.19
902.531	8690.65
902.845	8659.46
903.159	8597.32
903.473	8550.54
903.787	8539.24
904.101	8540.82
904.415	8526.13
904.729	8424.44
905.042	8402.29
905.356	8414.95
905.67	8355.06
905.984	8380.82
906.297	8379.92
906.611	8336.76
906.924	8293.82
907.237	8236.87
907.551	8207.72
907.864	8209.3
908.177	8113.49
908.491	8174.28
908.804	8071.23
909.117	8058.12
909.43	7997.33
909.743	7980.38
910.056	8023.09
910.368	7922.08
910.681	7905.36
910.994	7876.43
911.307	7781.07
911.619	7757.11
911.932	7777.68
912.244	7741.29
912.557	7661.52
912.869	7642.99
913.181	7638.92
913.494	7562.09
913.806	7508.76
914.118	7574.74
914.43	7501.98
914.742	7433.05
915.054	7489.1
915.366	7389.21
915.678	7367.29
915.99	7365.48
916.302	7281.42
916.613	7253.62
916.925	7279.61
917.236	7214.98
917.548	7199.39
917.859	7185.15
918.171	7127.52
918.482	7116.23
918.794	7072.61
919.105	7048.88
919.416	7017.47
919.727	6992.84
920.038	6939.28
920.349	6920.52
920.66	6876.23
920.971	6874.42
921.282	6873.52
921.593	6827.65
921.903	6720.53
922.214	6771.15
922.525	6728.21
922.835	6661.77
923.146	6701.55
923.456	6595.79
923.767	6584.71
924.077	6609.12
924.387	6556.24
924.697	6540.87
925.008	6497.26
925.318	6524.15
925.628	6471.27
925.938	6370.03
926.248	6371.61
926.558	6326.42
926.867	6358.51
927.177	6316.92
927.487	6257.49
927.796	6230.15
928.106	6262.91
928.416	6199.41
928.725	6175.91
929.034	6154.67
929.344	6130.94
929.653	6113.77
929.962	6059.08
930.271	6014.33
930.581	6025.86
930.89	5954.45
931.199	5949.02
931.508	5922.58
931.817	5900.21
932.125	5912.64
932.434	5888.24
932.743	5826.54
933.051	5812.08
933.36	5720.78
933.669	5742.48
933.977	5739.09
934.286	5754.23
934.594	5722.82
934.902	5670.61
935.21	5648.92
935.519	5613.89
935.827	5601.46
936.135	5582.03
936.443	5507
936.751	5541.35
937.059	5513.56
937.367	5474.91
937.674	5445.08
937.982	5446.44
938.29	5422.48
938.597	5419.55
938.905	5364.63
939.213	5335.48
939.52	5344.07
939.827	5345.65
940.135	5307.69
940.442	5250.96
940.749	5216.39
941.056	5225.2
941.363	5179.78
941.67	5144.07
941.977	5119.44
942.284	5094.13
942.591	5071.53
942.898	5095.04
943.205	5069.5
943.511	5021.37
943.818	5021.59
944.125	5011.42
944.431	4946.79
944.738	4925.32
945.044	4890.3
945.35	4902.27
945.657	4822.5
945.963	4849.39
946.269	4821.6
946.575	4841.48
946.881	4790.18
947.187	4779.56
947.493	4749.28
947.799	4748.6
948.105	4691.66
948.41	4681.04
948.716	4681.04
949.022	4679.91
949.327	4630.19
949.633	4612.34
949.938	4584.54
950.244	4585.67
950.549	4546.58
950.854	4508.16
951.16	4497.09
951.465	4448.27
951.77	4463.19
952.075	4435.84
952.38	4451.21
952.685	4474.26
952.99	4379.8
953.294	4372.34
953.599	4380.48
953.904	4380.03
954.209	4278.79
954.513	4338.9
954.818	4263.64
955.122	4241.27
955.426	4216.19
955.731	4213.7
956.035	4216.19
956.339	4172.57
956.643	4198.79
956.948	4133.03
957.252	4085.57
957.556	4132.35
957.86	4089.41
958.163	4094.16
958.467	4059.81
958.771	4049.87
959.075	4044.44
959.378	3995.63
959.682	3994.5
959.985	4003.31
960.289	3973.48
960.592	3935.97
960.896	3947.5
961.199	3884.67
961.502	3870.89
961.805	3892.36
962.108	3819.36
962.411	3889.42
962.714	3831.57
963.017	3811.23
963.32	3802.41
963.623	3768.52
963.926	3739.36
964.228	3740.49
964.531	3724
964.833	3728.29
965.136	3699.14
965.438	3689.2
965.741	3676.77
966.043	3614.85
966.345	3627.28
966.648	3619.82
966.95	3618.46
967.252	3561.29
967.554	3593.38
967.856	3568.52
968.158	3521.29
968.46	3538.01
968.761	3492.14
969.063	3479.71
969.365	3479.94
969.666	3453.04
969.968	3470.9
970.269	3427.96
970.571	3385.7
970.872	3429.54
971.174	3360.17
971.475	3362.88
971.776	3340.28
972.077	3350.45
972.378	3307.06
972.679	3298.7
972.98	3269.09
973.281	3300.28
973.582	3277.68
973.883	3266.38
974.183	3237.68
974.484	3239.94
974.785	3174.41
975.085	3245.82
975.386	3204.46
975.686	3161.53
975.986	3188.87
976.287	3143.22
976.587	3149.1
976.887	3120.4
977.187	3104.58
977.487	3090.79
977.787	3080.17
978.087	3081.3
978.387	3017.58
978.687	3022.55
978.987	3010.8
979.286	3004.7
979.586	3003.79
979.885	3000.18
980.185	2958.37
980.484	2929.67
980.784	2944.81
981.083	2908.65
981.382	2930.8
981.682	2874.98
981.981	2890.57
982.28	2850.8
982.579	2849.67
982.878	2851.7
983.177	2859.84
983.475	2827.75
983.774	2782.1
984.073	2796.79
984.372	2784.14
984.67	2778.03
984.969	2803.57
985.267	2753.18
985.566	2734.87
985.864	2677.25
986.162	2699.84
986.461	2711.6
986.759	2651.03
987.057	2658.49
987.355	2645.61
987.653	2632.28
987.951	2624.37
988.249	2651.48
988.547	2583.01
988.844	2604.71
989.142	2609.23
989.44	2566.29
989.737	2564.48
990.035	2543.01
990.332	2548.66
990.63	2548.44
990.927	2534.42
991.224	2489.91
991.521	2506.63
991.819	2473.41
992.116	2496.46
992.413	2445.39
992.71	2439.74
993.006	2456.23
993.303	2430.25
993.6	2410.59
993.897	2403.13
994.193	2414.2
994.49	2382.56
994.787	2370.14
995.083	2377.37
995.379	2348.67
995.676	2339.18
995.972	2341.66
996.268	2313.19
996.565	2288.1
996.861	2297.37
997.157	2245.17
997.453	2263.47
997.749	2262.12
998.044	2242
998.34	2261.21
998.636	2209.46
998.932	2252.4
999.227	2218.5
999.523	2204.26
999.818	2149.35
1000.114	2174.21
1000.409	2169.69
1000.704	2158.39
1001	2161.33
1001.295	2096.24
1001.59	2112.74
1001.885	2094.44
1002.18	2074.32
1002.475	2075.45
1002.77	2104.61
1003.065	2057.38
1003.359	2052.4
1003.654	2029.13
1003.949	2010.14
1004.243	2000.43
1004.538	2009.47
1004.832	1987.77
1005.127	1985.29
1005.421	1974.21
1005.715	1949.58
1006.009	1947.77
1006.304	1916.81
1006.598	1926.76
1006.892	1890.83
1007.186	1883.82
1007.48	1883.14
1007.773	1892.63
1008.067	1893.76
1008.361	1859.41
1008.655	1852.86
1008.948	1866.42
1009.242	1821.22
1009.535	1837.04
1009.829	1816.48
1010.122	1799.75
1010.415	1770.6
1010.708	1805.18
1011.001	1788.23
1011.295	1756.59
1011.588	1727.21
1011.881	1714.33
1012.173	1730.38
1012.466	1714.79
1012.759	1722.47
1013.052	1672.53
1013.344	1696.25
1013.637	1684.05
1013.93	1669.36
1014.222	1673.66
1014.514	1623.94
1014.807	1636.37
1015.099	1623.49
1015.391	1612.87
1015.683	1604.73
1015.976	1606.31
1016.268	1622.81
1016.56	1549.59
1016.851	1574.22
1017.143	1559.31
1017.435	1562.7
1017.727	1562.02
1018.018	1550.95
1018.31	1540.1
1018.602	1523.6
1018.893	1493.55
1019.185	1502.36
1019.476	1516.82
1019.767	1483.83
1020.058	1452.65
1020.35	1474.79
1020.641	1450.39
1020.932	1426.88
1021.223	1461.23
1021.514	1415.58
1021.804	1399.09
1022.095	1421.91
1022.386	1403.38
1022.677	1395.25
1022.967	1372.2
1023.258	1374.91
1023.548	1369.71
1023.839	1351.86
1024.129	1325.64
1024.419	1350.28
1024.709	1339.65
1025	1331.52
1025.29	1308.47
1025.58	1300.11
1025.87	1299.43
1026.16	1282.48
1026.449	1286.77
1026.739	1279.54
1027.029	1253.78
1027.319	1252.42
1027.608	1237.51
1027.898	1263.72
1028.187	1222.37
1028.477	1214.01
1028.766	1229.83
1029.055	1181.69
1029.344	1185.08
1029.634	1191.86
1029.923	1165.42
1030.212	1179.66
1030.501	1168.81
1030.79	1158.42
1031.078	1153.9
1031.367	1157.51
1031.656	1126.1
1031.945	1139.21
1032.233	1124.97
1032.522	1113.45
1032.81	1099.89
1033.099	1096.5
1033.387	1122.03
1033.675	1085.2
1033.963	1099.66
1034.251	1085.2
1034.54	1049.27
1034.828	1056.72
1035.116	1048.59
1035.403	1056.72
1035.691	1037.74
1035.979	1046.33
1036.267	1038.19
1036.554	1037.29
1036.842	1016.95
1037.129	1005.43
1037.417	1003.84
1037.704	1006.56
1037.992	988.25
1038.279	993.22
1038.566	988.93
1038.853	988.93
1039.14	988.93
