Data from hue_28_FLMS001491_00003.txt Node
Date: Tue Feb 07 17:16:47 GMT 2017
User: dcchb
Spectrometer: FLMS00149
Trigger mode: 0
Integration Time (sec): 2.000000E-2
Scans to average: 10
Electric dark correction enabled: true
Nonlinearity correction enabled: false
Boxcar width: 0
XAxis mode: Wavelengths
Number of Pixels in Spectrum: 2048
>>>>>Begin Spectral Data<<<<<
341.393	-27.37
341.776	-27.37
342.16	-27.37
342.543	-56.07
342.927	-68.95
343.31	-74.15
343.693	-58.56
344.077	-48.84
344.46	-72.79
344.843	-42.06
345.226	-66.02
345.61	-34.38
345.993	-18.11
346.376	13.3
346.759	11.27
347.142	33.19
347.525	27.99
347.908	56.69
348.291	67.77
348.674	96.92
349.057	107.77
349.44	119.52
349.823	145.5
350.206	162
350.588	195.22
350.971	203.58
351.354	241.77
351.737	241.1
352.119	286.29
352.502	273.64
352.884	274.31
353.267	288.55
353.65	286.52
354.032	318.61
354.414	303.69
354.797	293.07
355.179	304.6
355.562	338.27
355.944	330.58
356.326	336.46
356.709	331.94
357.091	317.03
357.473	343.01
357.855	340.08
358.238	352.73
358.62	348.89
359.002	331.94
359.384	356.35
359.766	346.86
360.148	347.31
360.53	313.18
360.912	337.82
361.294	330.58
361.676	330.36
362.057	330.13
362.439	355.67
362.821	319.74
363.203	329.68
363.584	338.04
363.966	323.81
364.348	329.45
364.729	318.38
365.111	320.87
365.493	341.21
365.874	326.97
366.256	336.69
366.637	300.53
367.019	332.17
367.4	310.92
367.781	315.44
368.163	336.91
368.544	321.77
368.925	315.67
369.306	319.51
369.688	312.73
370.069	315.9
370.45	291.49
370.831	304.82
371.212	298.95
371.593	326.29
371.974	328.55
372.355	320.87
372.736	316.12
373.117	335.1
373.498	309.79
373.879	323.13
374.26	316.8
374.641	331.26
375.021	333.52
375.402	331.94
375.783	313.18
376.163	328.1
376.544	337.82
376.925	342.56
377.305	340.08
377.686	341.88
378.066	320.42
378.447	339.62
378.827	318.16
379.208	320.19
379.588	333.3
379.968	343.01
380.349	322.9
380.729	344.6
381.109	354.54
381.489	340.08
381.87	344.6
382.25	332.39
382.63	359.51
383.01	355.44
383.39	352.05
383.77	354.54
384.15	343.47
384.53	351.15
384.91	323.13
385.29	366.52
385.67	374.43
386.049	368.32
386.429	366.06
386.809	354.76
387.189	365.84
387.568	363.13
387.948	363.8
388.328	356.57
388.707	366.97
389.087	349.34
389.466	382.11
389.846	384.14
390.225	373.3
390.605	362.45
390.984	392.73
391.363	379.17
391.743	374.43
392.122	376.91
392.501	357.7
392.881	398.15
393.26	384.37
393.639	395.89
394.018	389.34
394.397	369.68
394.776	397.7
395.155	373.52
395.534	381.2
395.913	390.7
396.292	378.72
396.671	410.58
397.05	389.34
397.429	407.19
397.808	401.54
398.186	399.06
398.565	406.74
398.944	400.19
399.323	418.94
399.701	398.61
400.08	399.74
400.458	417.59
400.837	416.46
401.215	426.4
401.594	425.05
401.972	411.49
402.351	430.92
402.729	425.05
403.107	415.78
403.486	426.18
403.864	409.23
404.242	427.31
404.62	425.05
404.999	448.32
405.377	437.02
405.755	434.31
406.133	434.76
406.511	441.77
406.889	443.8
407.267	444.71
407.645	472.73
408.023	476.34
408.401	474.99
408.779	466.4
409.156	481.54
409.534	466.85
409.912	469.34
410.29	474.99
410.667	460.98
411.045	478.6
411.422	479.28
411.8	458.94
412.178	487.64
412.555	499.17
412.933	491.48
413.31	519.05
413.687	492.84
414.065	500.98
414.442	517.47
414.819	526.29
415.197	515.21
415.574	524.25
415.951	527.19
416.328	542.78
416.705	522.9
417.082	540.07
417.46	538.49
417.837	547.3
418.214	558.83
418.591	514.53
418.967	567.19
419.344	561.54
419.721	549.79
420.098	565.61
420.475	557.7
420.852	536.45
421.228	575.78
421.605	565.15
421.982	578.04
422.358	570.8
422.735	579.62
423.111	561.31
423.488	570.13
423.864	587.07
424.241	590.69
424.617	593.4
424.994	604.25
425.37	592.27
425.746	590.46
426.123	590.24
426.499	620.75
426.875	628.66
427.251	615.55
427.627	650.8
428.003	643.12
428.379	656
428.756	659.16
429.132	641.54
429.507	666.85
429.883	669.11
430.259	678.37
430.635	662.1
431.011	677.02
431.387	672.04
431.763	701.2
432.138	717.92
432.514	698.26
432.89	727.86
433.265	709.56
433.641	741.87
434.016	736
434.392	719.95
434.767	742.1
435.143	755.43
435.518	766.05
435.894	778.93
436.269	766.96
436.644	795.66
437.02	784.36
437.395	783.91
437.77	778.26
438.145	808.09
438.52	788.43
438.895	831.81
439.271	823.23
439.646	816.67
440.021	842.21
440.395	835.43
440.77	828.88
441.145	839.72
441.52	847.18
441.895	856.22
442.27	845.6
442.645	844.7
443.019	888.31
443.394	865.49
443.769	863.68
444.143	891.02
444.518	911.81
444.892	873.4
445.267	877.24
445.641	891.02
446.016	909.1
446.39	902.77
446.764	917.46
447.139	908.65
447.513	914.52
447.887	940.74
448.262	904.81
448.636	934.64
449.01	936.9
449.384	985.03
449.758	958.14
450.132	994.97
450.506	1009.21
450.88	997.23
451.254	994.75
451.628	987.52
452.002	992.49
452.376	1012.83
452.75	1004.01
453.123	1032.94
453.497	1037.01
453.871	1048.08
454.244	1083.33
454.618	1053.73
454.992	1067.29
455.365	1074.75
455.739	1091.47
456.112	1083.11
456.486	1115.65
456.859	1118.81
457.232	1164.46
457.606	1147.74
457.979	1170.56
458.352	1187.06
458.725	1202.88
459.099	1197.91
459.472	1228.19
459.845	1256.89
460.218	1253.95
460.591	1252.82
460.964	1229.54
461.337	1282.42
461.71	1310.45
462.083	1322.65
462.456	1311.35
462.829	1328.75
463.201	1325.81
463.574	1332.82
463.947	1362.87
464.32	1392.93
464.692	1413.49
465.065	1405.81
465.438	1440.39
465.81	1440.39
466.183	1460.5
466.555	1496.43
466.928	1517.67
467.3	1526.49
467.672	1569.2
468.045	1551.34
468.417	1563.32
468.789	1578.01
469.161	1625.92
469.534	1636.54
469.906	1634.96
470.278	1667.27
470.65	1694.39
471.022	1713.6
471.394	1774.39
471.766	1769.19
472.138	1824.78
472.51	1822.07
472.882	1862.3
473.253	1897.77
473.625	1926.7
473.997	1973.03
474.369	1974.16
474.74	1959.24
475.112	2051.9
475.484	2054.61
475.855	2092.57
476.227	2126.7
476.598	2203.98
476.97	2207.15
477.341	2252.57
477.713	2312.23
478.084	2332.11
478.455	2362.62
478.827	2408.04
479.198	2475.39
479.569	2474.93
479.94	2550.64
480.311	2600.58
480.682	2673.57
481.053	2751.99
481.424	2787.47
481.795	2839.45
482.166	2855.04
482.537	2899.33
482.908	2968.93
483.279	3006.22
483.65	3070.17
484.021	3161.02
484.391	3201.47
484.762	3219.1
485.133	3283.73
485.503	3339.32
485.874	3455.02
486.244	3461.8
486.615	3536.38
486.985	3579.09
487.356	3617.96
487.726	3718.07
488.097	3757.39
488.467	3794.22
488.837	3886.2
489.207	3921.45
489.578	3987.44
489.948	4054.1
490.318	4119.64
490.688	4136.59
491.058	4224.27
491.428	4314.66
491.798	4370.93
492.168	4432.85
492.538	4472.62
492.908	4532.51
493.278	4581.77
493.648	4577.03
494.017	4689.57
494.387	4690.47
494.757	4789.45
495.126	4814.08
495.496	4878.71
495.866	4926.85
496.235	4974.98
496.605	5032.16
496.974	5024.02
497.344	5107.63
497.713	5138.59
498.082	5207.74
498.452	5282.32
498.821	5328.65
499.19	5322.09
499.559	5397.57
499.928	5370
500.298	5466.27
500.667	5527.28
501.036	5579.26
501.405	5557.57
501.774	5606.6
502.143	5604.57
502.512	5734.74
502.88	5705.13
503.249	5714.85
503.618	5775.41
503.987	5866.03
504.356	5890.44
504.724	5883.43
505.093	5945.58
505.462	5952.58
505.83	6022.64
506.199	6086.82
506.567	6135.18
506.936	6129.3
507.304	6229.86
507.672	6244.78
508.041	6232.8
508.409	6290.43
508.777	6318.45
509.145	6334.27
509.514	6342.86
509.882	6400.93
510.25	6383.08
510.618	6467.6
510.986	6476.19
511.354	6558.9
511.722	6616.29
512.09	6623.07
512.458	6610.65
512.826	6677.31
513.193	6773.13
513.561	6730.87
513.929	6796.18
514.297	6828.94
514.664	6888.38
515.032	6928.15
515.4	6950.98
515.767	7003.86
516.135	7055.15
516.502	6980.58
516.869	7060.13
517.237	7114.13
517.604	7080.92
517.972	7175.15
518.339	7253.57
518.706	7235.04
519.073	7273.23
519.44	7267.13
519.808	7334.47
520.175	7398.2
520.542	7435.48
520.909	7494.01
521.276	7427.57
521.643	7457.4
522.009	7541.02
522.376	7595.48
522.743	7650.17
523.11	7689.26
523.477	7782.37
523.843	7828.69
524.21	7881.35
524.577	7917.28
524.943	7912.31
525.31	7976.03
525.676	8056.26
526.043	8080.89
526.409	8135.13
526.776	8229.36
527.142	8223.03
527.508	8220.77
527.874	8342.8
528.241	8364.27
528.607	8398.17
528.973	8468.45
529.339	8469.35
529.705	8515.68
530.071	8613.53
530.437	8630.03
530.803	8618.28
531.169	8685.85
531.535	8676.13
531.901	8730.14
532.267	8790.7
532.632	8853.3
532.998	8904.14
533.364	8914.77
533.73	8935.56
534.095	8973.75
534.461	9093.97
534.826	9088.09
535.192	9120.86
535.557	9180.52
535.923	9225.49
536.288	9264.13
536.653	9323.34
537.019	9325.83
537.384	9317.47
537.749	9425.71
538.114	9441.53
538.479	9434.07
538.845	9477.69
539.21	9437.92
539.575	9602.43
539.94	9493.28
540.305	9622.32
540.67	9695.54
541.034	9690.11
541.399	9701.19
541.764	9736.21
542.129	9786.83
542.494	9830
542.858	9856.21
543.223	9856.21
543.587	9877.45
543.952	9955.42
544.316	10092.81
544.681	9981.63
545.045	10089.65
545.41	10164.22
545.774	10171.23
546.138	10227.95
546.503	10288.51
546.867	10271.34
547.231	10364.9
547.595	10386.37
547.959	10486.7
548.324	10421.39
548.688	10488.28
549.052	10507.04
549.416	10551.78
549.779	10563.76
550.143	10635.17
550.507	10644.66
550.871	10672.01
551.235	10705
551.599	10769.41
551.962	10794.49
552.326	10851.89
552.689	10864.54
553.053	10815.51
553.417	10897.76
553.78	11052.11
554.143	10960.59
554.507	10995.84
554.87	11078.32
555.234	11102.05
555.597	11191.77
555.96	11162.84
556.323	11218.66
556.686	11236.51
557.05	11262.5
557.413	11368.03
557.776	11342.05
558.139	11442.16
558.502	11452.55
558.865	11498.2
559.228	11573.68
559.59	11517.41
559.953	11528.71
560.316	11622.27
560.679	11687.57
561.041	11718.31
561.404	11715.6
561.767	11901.58
562.129	11837.85
562.492	11893.44
562.854	11965.76
563.217	11940.45
563.579	12033.33
563.941	12064.74
564.304	12116.26
564.666	12193.55
565.028	12264.73
565.39	12203.72
565.753	12351.06
566.115	12305.86
566.477	12372.08
566.839	12455.92
567.201	12545.18
567.563	12544.05
567.925	12560.77
568.287	12598.74
568.648	12604.16
569.01	12782.23
569.372	12779.52
569.734	12781.33
570.095	12760.09
570.457	12986.07
570.819	12955.56
571.18	12990.82
571.542	13076.92
571.903	13121.89
572.265	13138.16
572.626	13207.99
572.987	13229.23
573.349	13285.72
573.71	13398.72
574.071	13420.64
574.432	13527.98
574.794	13669.67
575.155	13641.87
575.516	13648.2
575.877	13780.85
576.238	13948.31
576.599	13911.47
576.96	14129.77
577.32	14130.67
577.681	14287.05
578.042	14369.76
578.403	14462.42
578.763	14452.7
579.124	14606.37
579.485	14775.63
579.845	14954.15
580.206	14962.74
580.566	15146.69
580.927	15250.42
581.287	15466.46
581.648	15536.74
582.008	15789.16
582.368	15913.68
582.728	16120.9
583.089	16241.13
583.449	16354.34
583.809	16568.58
584.169	16753.88
584.529	16934.44
584.889	17207.65
585.249	17323.13
585.609	17467.08
585.969	17777.13
586.329	17950.23
586.688	18176.89
587.048	18425.02
587.408	18561.74
587.768	18779.82
588.127	19061.84
588.487	19234.27
588.846	19695.95
589.206	19744.76
589.565	20078.54
589.925	20408.02
590.284	20655.02
590.643	21001.23
591.003	21166.87
591.362	21556.47
591.721	21764.6
592.08	22049.34
592.44	22349.44
592.799	22707.17
593.158	22954.62
593.517	23233.49
593.876	23475.51
594.235	23741.04
594.593	24115.27
594.952	24424.41
595.311	24550.29
595.67	24978.3
596.029	25331.74
596.387	25654.89
596.746	26023.24
597.104	26100.53
597.463	26454.87
597.822	26849.21
598.18	27104.8
598.538	27367.61
598.897	27796.75
599.255	27857.54
599.613	28485.55
599.972	28629.5
600.33	28947.23
600.688	29130.28
601.046	29492.98
601.404	29863.59
601.762	29974.32
602.12	30430.36
602.478	30829.9
602.836	31021.3
603.194	31146.5
603.552	31502.19
603.91	31518.47
604.268	32002.75
604.625	32247.71
604.983	32581.71
605.341	32528.83
605.698	32976.51
606.056	33381.69
606.413	33509.37
606.771	33876.82
607.128	34091.96
607.485	34142.58
607.843	34378.5
608.2	34813.97
608.557	35187.07
608.914	35148.65
609.272	35556.32
609.629	35867.28
609.986	36057.78
610.343	36140.94
610.7	36527.6
611.057	36702.51
611.414	36873.8
611.771	37142.5
612.127	37291.87
612.484	37516.95
612.841	37850.5
613.198	37836.72
613.554	37959.43
613.911	38313.09
614.267	38493.2
614.624	38658.84
614.98	38883.24
615.337	39160.52
615.693	39057.02
616.05	39355.55
616.406	39694.75
616.762	39623.34
617.118	39927.74
617.475	39919.37
617.831	40225.13
618.187	40251.79
618.543	40487.49
618.899	40751.22
619.255	40843.42
619.611	40800.93
619.967	41049.29
620.323	41252.67
620.678	41200.47
621.034	41220.81
621.39	41390.07
621.746	41371.77
622.101	41942.15
622.457	41662.38
622.812	41856.27
623.168	42132.42
623.523	42019.66
623.879	42369.48
624.234	42032.76
624.589	42364.51
624.945	42404.28
625.3	42583.71
625.655	42704.61
626.01	42736.48
626.365	42886.08
626.72	42748.68
627.075	42745.51
627.43	42982.12
627.785	42962.68
628.14	42947.32
628.495	43121.55
628.85	43024.6
629.205	43035.22
629.559	43375.1
629.914	43296.01
630.269	43227.08
630.623	43111.15
630.978	43244.94
631.332	43424.14
631.687	43546.62
632.041	43474.76
632.396	43582.55
632.75	43446.51
633.104	43578.03
633.459	43405.16
633.813	43473.63
634.167	43390.92
634.521	43405.16
634.875	43564.93
635.229	43459.39
635.583	43321.09
635.937	43354.99
636.291	43417.81
636.645	43421.2
636.999	43439.06
637.352	43536.91
637.706	43220.3
638.06	43450.35
638.413	43394.54
638.767	43491.26
639.121	43510.24
639.474	43162
639.828	43425.95
640.181	43428.66
640.534	43380.75
640.888	43212.17
641.241	43142.11
641.594	43310.92
641.947	43473.63
642.301	43239.51
642.654	43368.77
643.007	43256.01
643.36	43362.9
643.713	43176.92
644.066	43431.15
644.419	43139.85
644.771	42844.95
645.124	42589.81
645.477	42501.23
645.83	42424.17
646.182	42282.7
646.535	42136.94
646.888	42202.03
647.24	41935.37
647.593	42103.5
647.945	42139.65
648.298	41908.93
648.65	41881.81
649.002	41853.79
649.355	42035.7
649.707	41925.42
650.059	42095.36
650.411	42552.07
650.763	42644.5
651.115	43161.77
651.467	42912.06
651.819	42814.44
652.171	42962.68
652.523	42731.73
652.875	42758.4
653.227	42722.46
653.578	42932.18
653.93	42696.48
654.282	42549.36
654.633	42414.45
654.985	42533.32
655.337	42753.2
655.688	42615.8
656.039	42765.63
656.391	42431.62
656.742	42489.48
657.094	42576.71
657.445	42776.47
657.796	42409.03
658.147	42603.82
658.498	42504.62
658.849	42623.71
659.2	42519.76
659.551	42400.66
659.902	42619.64
660.253	42508.68
660.604	42548.01
660.955	42352.53
661.306	42477.72
661.656	42486.54
662.007	42439.08
662.358	42440.66
662.708	42493.77
663.059	42527.22
663.409	42261.23
663.76	42532.19
664.11	42473.66
664.461	42534.22
664.811	42574.22
665.161	42427.78
665.511	42426.88
665.862	42544.39
666.212	42536.48
666.562	42458.52
666.912	42429.59
667.262	42363.6
667.612	42363.15
667.962	42408.12
668.312	42324.28
668.662	42400.21
669.011	42368.35
669.361	42399.31
669.711	42353.43
670.06	42221.69
670.41	42262.82
670.76	42312.08
671.109	42412.42
671.459	42401.57
671.808	42124.29
672.157	42382.59
672.507	42113.67
672.856	42044.29
673.205	42122.93
673.554	42307.56
673.904	42072.76
674.253	42392.98
674.602	42166.55
674.951	41432.33
675.3	41404.98
675.649	42097.62
675.998	41968.59
676.346	41960
676.695	42152.54
677.044	41694.24
677.393	41948.02
677.741	42066.44
678.09	42043.16
678.438	41891.98
678.787	41855.14
679.135	41815.82
679.484	41507.35
679.832	41691.53
680.181	41464.19
680.529	41693.79
680.877	41614.47
681.225	41531.54
681.573	41851.98
681.922	41392.56
682.27	41244.54
682.618	41303.29
682.966	41299.68
683.314	41431.88
683.661	41217.65
684.009	41017.65
684.357	40944.21
684.705	40868.95
685.053	40957.76
685.4	40809.52
685.748	40751.44
686.095	40700.37
686.443	40658.56
686.79	40552.13
687.138	40731.1
687.485	40637.1
687.832	40496.08
688.18	40620.6
688.527	40398.68
688.874	40388.97
689.221	40123.21
689.568	40045.02
689.915	39917.11
690.262	40047.73
690.609	39890.67
690.956	39604.58
691.303	39749.66
691.65	39569.1
691.997	39589.44
692.344	39276.45
692.69	39346.06
693.037	39360.29
693.383	39160.52
693.73	39229.9
694.077	38987.87
694.423	38939.96
694.769	38906.52
695.116	38713.76
695.462	38738.84
695.808	38464.72
696.155	38667.66
696.501	38384.5
696.847	38320.09
697.193	38187.67
697.539	38200.1
697.885	37791.07
698.231	37941.35
698.577	37750.62
698.923	37805.31
699.269	37628.59
699.614	37444.64
699.96	37323.28
700.306	37401.25
700.651	37215.72
700.997	37089.39
701.342	37121.26
701.688	36991.54
702.033	36822.51
702.379	36932.11
702.724	36814.6
703.069	36811.66
703.415	36434.04
703.76	36507.03
704.105	36495.74
704.45	36336.64
704.795	36249.41
705.14	36224.1
705.485	36114.95
705.83	35940.72
706.175	35963.55
706.52	35943.21
706.865	35789.77
707.209	35732.82
707.554	35667.51
707.899	35676.77
708.243	35570.34
708.588	35413.5
708.932	35391.36
709.277	35301.64
709.621	35288.76
709.966	34972.84
710.31	35043.34
710.654	34803.12
710.998	34868.66
711.342	34809.68
711.687	34616.91
712.031	34493.3
712.375	34415.79
712.719	34501.21
713.063	34555.67
713.407	34642.22
713.75	34329.24
714.094	34309.13
714.438	34168.11
714.782	34146.19
715.125	34088.11
715.469	34082.69
715.812	33932.41
716.156	33696.71
716.499	33793.21
716.843	33874.11
717.186	33609.94
717.53	33728.8
717.873	33763.83
718.216	33616.94
718.559	33368.81
718.902	33318.87
719.246	33458.08
719.589	33170.85
719.932	33177.63
720.275	33157.07
720.617	33179.21
720.96	33006.11
721.303	32901.93
721.646	33008.14
721.989	32861.03
722.331	32897.19
722.674	32784.19
723.016	32775.16
723.359	32811.76
723.701	32750.75
724.044	32619.45
724.386	32334.49
724.729	32649.51
725.071	32499.68
725.413	32576.29
725.755	32329.29
726.097	32394.37
726.439	32199.13
726.782	32070.77
727.124	32350.31
727.465	32054.95
727.807	32040.71
728.149	31958.68
728.491	31967.72
728.833	31989.87
729.175	31893.6
729.516	31763.66
729.858	31783.77
730.199	31860.15
730.541	31755.97
730.882	31611.8
731.224	31767.72
731.565	31557.79
731.906	31537.22
732.248	31566.15
732.589	31458.13
732.93	31312.14
733.271	31338.13
733.612	31423.78
733.953	31366.15
734.294	31254.29
734.635	31093.17
734.976	31260.17
735.317	30935.88
735.658	30887.97
735.999	30962.77
736.339	30932.27
736.68	30987.18
737.021	30910.57
737.361	30704.25
737.702	30986.73
738.042	30821.31
738.383	30730.69
738.723	30792.16
739.063	30589.22
739.404	30758.49
739.744	30511.71
740.084	30520.53
740.424	30517.14
740.764	30318.95
741.104	30533.86
741.444	30302.23
741.784	30243.02
742.124	30323.92
742.464	30244.37
742.804	30203.7
743.143	30151.04
743.483	30152.85
743.823	30000.54
744.162	29893.2
744.502	30036.92
744.841	29913.99
745.181	29976.13
745.52	29925.74
745.86	29859.3
746.199	29805.97
746.538	29754.44
746.877	29801
747.216	29790.15
747.556	29813.88
747.895	29792.18
748.234	29570.49
748.573	29466.99
748.911	29415.92
749.25	29564.39
749.589	29260.45
749.928	29324.4
750.267	29397.62
750.605	29379.31
750.944	29266.32
751.283	29170.5
751.621	29162.37
751.96	29044.86
752.298	29052.54
752.636	29077.4
752.975	28786.56
753.313	28906.33
753.651	28979.77
753.989	28768.93
754.327	28831.76
754.666	28557.41
755.004	28668.82
755.342	28574.36
755.679	28697.52
756.017	28389.51
756.355	28491.2
756.693	28310.87
757.031	28296.18
757.368	28291.88
757.706	28255.95
758.044	28186.35
758.381	28161.72
758.719	28066.8
759.056	28123.98
759.394	28012.79
759.731	27843.76
760.068	27723.08
760.405	27629.75
760.743	27575.52
761.08	27553.6
761.417	27479.02
761.754	27242.19
762.091	27436.31
762.428	27222.08
762.765	27091.01
763.102	27149.54
763.438	26986.38
763.775	26931.24
764.112	26952.71
764.449	26940.96
764.785	26878.81
765.122	26771.47
765.458	26500.52
765.795	26489.67
766.131	26486.28
766.467	26401.54
766.804	26246.74
767.14	26108.44
767.476	26112.73
767.812	26097.59
768.148	26065.05
768.485	25785.96
768.821	25757.71
769.157	25645.63
769.492	25815.11
769.828	25676.36
770.164	25390.26
770.5	25402.02
770.836	25387.1
771.171	25163.38
771.507	25249.25
771.842	25058.52
772.178	24947.56
772.513	24918.19
772.849	24783.73
773.184	24638.42
773.519	24757.74
773.855	24552.09
774.19	24494.47
774.525	24311.65
774.86	24320.24
775.195	24314.36
775.53	24192.78
775.865	24017.87
776.2	23900.81
776.535	23748.05
776.87	23810.65
777.205	23720.03
777.539	23534.72
777.874	23661.72
778.209	23358
778.543	23313.71
778.878	23249.98
779.212	23204.33
779.547	22996.66
779.881	23163.43
780.215	22955.3
780.55	22957.11
780.884	22828.3
781.218	22663.56
781.552	22835.76
781.886	22585.14
782.22	22525.48
782.554	22394.19
782.888	22194.64
783.222	22227.18
783.556	22150.35
783.889	22066.74
784.223	21824.71
784.557	21797.82
784.89	21909.45
785.224	21699.97
785.557	21671.72
785.891	21518.05
786.224	21589.01
786.558	21586.75
786.891	21343.82
787.224	21242.58
787.557	21235.12
787.891	21150.38
788.224	21086.65
788.557	21092.52
788.89	21086.2
789.223	21023.15
789.556	20853.89
789.888	20688.24
790.221	20549.94
790.554	20437.85
790.887	20519.88
791.219	20385.42
791.552	20404.63
791.884	20296.39
792.217	20237.18
792.549	20204.64
792.882	20016.62
793.214	19967.36
793.546	20025.89
793.879	19819.11
794.211	19615.5
794.543	19883.97
794.875	19701.6
795.207	19660.47
795.539	19588.61
795.871	19530.98
796.203	19399.24
796.535	19384.55
796.867	19274.04
797.198	19272.46
797.53	19207.6
797.862	19053.26
798.193	19181.61
798.525	19010.55
798.856	19029.3
799.188	18807.84
799.519	18720.38
799.85	18669.54
800.182	18657.56
800.513	18629.99
800.844	18536.21
801.175	18684.23
801.506	18513.61
801.837	18474.51
802.168	18460.5
802.499	18331.92
802.83	18156.56
803.161	18184.58
803.491	18187.52
803.822	18221.19
804.153	18015.54
804.483	17884.93
804.814	17935.55
805.145	17827.53
805.475	17839.95
805.805	17735.55
806.136	17780.75
806.466	17761.31
806.796	17697.13
807.126	17497.82
807.457	17537.36
807.787	17510.92
808.117	17411.04
808.447	17383.47
808.777	17347.09
809.107	17227.32
809.436	17122.23
809.766	17222.57
810.096	17173.08
810.426	17103.93
810.755	17077.71
811.085	16985.74
811.414	16960.88
811.744	16811.96
812.073	16898.51
812.403	16779.64
812.732	16666.88
813.061	16787.55
813.39	16585.98
813.719	16632.3
814.049	16715.01
814.378	16518.41
814.707	16444.51
815.036	16405.42
815.365	16428.47
815.693	16318.41
816.022	16268.24
816.351	16239.77
816.68	16099.89
817.008	16256.04
817.337	16022.15
817.665	15987.12
817.994	15995.26
818.322	16045.88
818.651	15928.37
818.979	15905.54
819.307	16026.67
819.636	15929.04
819.964	15785.32
820.292	15875.03
820.62	15856.96
820.948	15789.61
821.276	15776.96
821.604	15691.54
821.932	15817.63
822.259	15832.32
822.587	15774.92
822.915	15712.1
823.243	15741.7
823.57	15636.85
823.898	15683.4
824.225	15583.29
824.553	15675.72
824.88	15691.99
825.207	15756.85
825.535	15537.87
825.862	15698.99
826.189	15542.39
826.516	15693.8
826.843	15720.01
827.17	15581.03
827.497	15690.18
827.824	15657.64
828.151	15645.44
828.478	15736.96
828.805	15728.82
829.131	15672.33
829.458	15697.86
829.785	15536.06
830.111	15640.46
830.438	15674.81
830.764	15582.16
831.09	15650.86
831.417	15618.77
831.743	15698.99
832.069	15646.57
832.395	15509.17
832.722	15565.66
833.048	15482.28
833.374	15575.83
833.7	15336.07
834.026	15472.79
834.351	15503.52
834.677	15488.38
835.003	15468.04
835.329	15498.55
835.654	15459.23
835.98	15369.74
836.306	15364.77
836.631	15365.22
836.956	15345.33
837.282	15353.01
837.607	15317.54
837.932	15152.57
838.258	15206.35
838.583	15186.01
838.908	15099.91
839.233	15171.78
839.558	15063.76
839.883	15022.4
840.208	14974.72
840.533	14983.31
840.858	14978.56
841.182	14996.64
841.507	14952.35
841.832	14870.09
842.156	14827.38
842.481	14825.8
842.805	14741.05
843.13	14709.87
843.454	14762.52
843.778	14680.72
844.103	14745.8
844.427	14649.08
844.751	14603.2
845.075	14648.4
845.399	14528.18
845.723	14464.22
846.047	14444.56
846.371	14307.17
846.695	14315.3
847.019	14189.2
847.343	14267.17
847.666	14125.25
847.99	14060.17
848.313	14029.21
848.637	13921.19
848.96	13894.3
849.284	13877.35
849.607	13811.13
849.931	13733.17
850.254	13654.3
850.577	13542.21
850.9	13411.82
851.223	13443.01
851.546	13379.51
851.869	13332.73
852.192	13469.67
852.515	13275.78
852.838	13234.2
853.161	13196.91
853.483	13196.91
853.806	13066.52
854.129	13100.64
854.451	12951.27
854.774	13033.98
855.096	12949.91
855.419	12853.19
855.741	12796.25
856.063	12767.55
856.385	12813.65
856.708	12704.04
857.03	12657.49
857.352	12710.82
857.674	12574.56
857.996	12604.39
858.318	12446.88
858.64	12494.56
858.961	12447.55
859.283	12486.88
859.605	12417.5
859.926	12418.63
860.248	12361.91
860.57	12329.82
860.891	12357.61
861.212	12295.69
861.534	12325.75
861.855	12190.84
862.176	12137.28
862.498	12240.55
862.819	12178.18
863.14	12123.72
863.461	12121.46
863.782	12035.81
864.103	12088.92
864.424	11967.34
864.745	11985.87
865.065	11934.35
865.386	11933.67
865.707	11847.8
866.027	11872.65
866.348	11936.16
866.668	11856.16
866.989	11832.88
867.309	11723.73
867.63	11780
867.95	11790.85
868.27	11695.71
868.59	11741.58
868.91	11668.37
869.23	11655.94
869.55	11588.59
869.87	11616.39
870.19	11582.49
870.51	11634.24
870.83	11559.89
871.15	11520.12
871.469	11542.27
871.789	11599.44
872.109	11525.09
872.428	11409.16
872.748	11477.41
873.067	11443.96
873.386	11445.77
873.706	11503.17
874.025	11364.64
874.344	11361.48
874.663	11364.42
874.982	11394.93
875.301	11340.24
875.62	11289.62
875.939	11247.13
876.258	11304.08
876.577	11270.41
876.896	11141.83
877.214	11194.93
877.533	11186.12
877.852	11129.62
878.17	11182.95
878.489	11186.8
878.807	11155.16
879.125	11117.87
879.444	11066.12
879.762	11049.17
880.08	11057.53
880.398	10977.31
880.716	10950.19
881.034	10948.61
881.352	10978.89
881.67	10897.31
881.988	10914.49
882.306	10864.32
882.624	10834.26
882.941	10760.82
883.259	10834.04
883.577	10761.95
883.894	10788.39
884.212	10790.87
884.529	10694.15
884.846	10651.9
885.164	10659.35
885.481	10574.38
885.798	10619.58
886.115	10547.94
886.432	10554.72
886.75	10513.37
887.067	10472.69
887.383	10459.13
887.7	10424.56
888.017	10397.44
888.334	10410.77
888.651	10338.68
888.967	10426.59
889.284	10311.34
889.6	10328.51
889.917	10173.72
890.233	10312.92
890.55	10177.78
890.866	10196.31
891.182	10170.78
891.498	10114.06
891.815	10100.05
892.131	9996.09
892.447	9981.63
892.763	9952.03
893.079	10022.08
893.395	9949.31
893.71	9846.04
894.026	9912.25
894.342	9885.14
894.657	9736.89
894.973	9758.13
895.289	9779.6
895.604	9768.75
895.92	9706.61
896.235	9687.4
896.55	9655.54
896.865	9614.86
897.181	9552.94
897.496	9495.54
897.811	9531.47
898.126	9430.46
898.441	9484.47
898.756	9455.99
899.071	9360.4
899.386	9315.88
899.7	9252.84
900.015	9214.42
900.33	9193.63
900.644	9217.13
900.959	9225.04
901.273	9126.96
901.588	9080.18
901.902	9076.34
902.216	9049.45
902.531	8944.6
902.845	8983.69
903.159	8877.03
903.473	8880.42
903.787	8882.45
904.101	8750.7
904.415	8797.93
904.729	8807.65
905.042	8801.1
905.356	8725.39
905.67	8693.53
905.984	8665.96
906.297	8669.57
906.611	8583.02
906.924	8569.24
907.237	8488.56
907.551	8458.96
907.864	8458.73
908.177	8408.11
908.491	8375.8
908.804	8344.16
909.117	8291.05
909.43	8277.72
909.743	8206.76
910.056	8219.64
910.368	8197.72
910.681	8143.03
910.994	8147.78
911.307	8123.83
911.619	8019.87
911.932	8071.85
912.244	7969.71
912.557	7983.26
912.869	7919.76
913.181	7880.22
913.494	7866.66
913.806	7783.72
914.118	7787.56
914.43	7753.21
914.742	7737.85
915.054	7657.17
915.366	7687
915.678	7612.65
915.99	7568.59
916.302	7539.66
916.613	7529.72
916.925	7477.29
917.236	7488.59
917.548	7425.31
917.859	7437.52
918.171	7342.83
918.482	7344.64
918.794	7250.85
919.105	7275.26
919.416	7221.93
919.727	7204.98
920.038	7177.18
920.349	7155.04
920.66	7143.74
920.971	7086.34
921.282	7133.8
921.593	7032.78
921.903	7034.59
922.214	7002.5
922.525	6961.14
922.835	6902.84
923.146	6866.68
923.456	6820.81
923.767	6845.89
924.077	6839.11
924.387	6771.77
924.697	6760.92
925.008	6744.43
925.318	6652.23
925.628	6693.58
925.938	6619.23
926.248	6557.77
926.558	6548.27
926.867	6526.35
927.177	6520.03
927.487	6459.69
927.796	6462.63
928.106	6449.97
928.416	6393.25
928.725	6445.23
929.034	6289.75
929.344	6363.42
929.653	6332.23
929.962	6292.91
930.271	6271.67
930.581	6238.45
930.89	6146.25
931.199	6144.67
931.508	6105.12
931.817	6158.68
932.125	6107.61
932.434	6099.25
932.743	6018.34
933.051	6013.37
933.36	5971.57
933.669	5919.14
933.977	5953.94
934.286	5918.01
934.594	5873.26
934.902	5802.31
935.21	5787.84
935.519	5771.8
935.827	5783.55
936.135	5753.49
936.443	5686.15
936.751	5737.67
937.059	5697.9
937.367	5650.22
937.674	5636.21
937.982	5620.61
938.29	5588.53
938.597	5581.07
938.905	5530.22
939.213	5447.06
939.52	5448.64
939.827	5495.19
940.135	5416.55
940.442	5420.62
940.749	5412.03
941.056	5364.58
941.363	5349.21
941.67	5333.39
941.977	5321.41
942.284	5258.82
942.591	5282.32
942.898	5198.93
943.205	5247.97
943.511	5159.84
943.818	5159.16
944.125	5165.71
944.431	5137.69
944.738	5087.75
945.044	5061.31
945.35	5106.28
945.657	5061.99
945.963	5011.37
946.269	5018.14
946.575	4977.24
946.881	4965.94
947.187	4922.78
947.493	4890.69
947.799	4869.45
948.105	4881.2
948.41	4858.6
948.716	4850.24
949.022	4846.85
949.327	4857.25
949.633	4737.02
949.938	4752.39
950.244	4772.28
950.549	4712.16
950.854	4670.58
951.16	4631.71
951.465	4613.18
951.77	4621.77
952.075	4606.63
952.38	4540.42
952.685	4572.73
952.99	4530.93
953.294	4515.33
953.599	4476.46
953.904	4487.54
954.209	4459.74
954.513	4469.68
954.818	4410.7
955.122	4348.33
955.426	4372.51
955.731	4371.83
956.035	4307.66
956.339	4311.5
956.643	4357.37
956.948	4295
957.252	4276.92
957.556	4271.5
957.86	4222.69
958.163	4195.57
958.467	4172.97
958.771	4153.31
959.075	4147.21
959.378	4086.87
959.682	4120.77
959.985	4084.16
960.289	4070.83
960.592	4053.2
960.896	4040.54
961.199	4026.98
961.502	4040.54
961.805	3970.71
962.108	3960.09
962.411	3936.59
962.714	3936.14
963.017	3932.52
963.32	3909.47
963.623	3913.54
963.926	3882.13
964.228	3873.32
964.531	3817.72
964.833	3799.19
965.136	3802.36
965.438	3806.2
965.741	3785.18
966.043	3765.52
966.345	3735.92
966.648	3703.15
966.95	3770.49
967.252	3674.23
967.554	3668.8
967.856	3649.14
968.158	3639.65
968.46	3632.64
968.761	3603.94
969.063	3584.96
969.365	3614.57
969.666	3547.9
969.968	3507.22
970.269	3541.12
970.571	3479.43
970.872	3520.33
971.174	3434.91
971.475	3423.84
971.776	3481.46
972.077	3387.23
972.378	3399.66
972.679	3409.83
972.98	3431.52
973.281	3380
973.582	3357.17
973.883	3329.38
974.183	3320.11
974.484	3314.01
974.785	3304.97
975.085	3285.31
975.386	3297.96
975.686	3228.36
975.986	3282.15
976.287	3223.84
976.587	3240.56
976.887	3209.15
977.187	3198.76
977.487	3215.25
977.787	3145.2
978.087	3170.96
978.387	3144.3
978.687	3135.93
978.987	3116.5
979.286	3068.14
979.586	3071.53
979.885	3048.25
980.185	3051.42
980.484	2995.6
980.784	3008.03
981.083	3038.76
981.382	3001.47
981.682	2958.54
981.981	2984.07
982.28	2963.28
982.579	2937.3
982.878	2911.99
983.177	2893.91
983.475	2923.51
983.774	2880.12
984.073	2844.64
984.372	2878.77
984.67	2873.34
984.969	2810.75
985.267	2818.2
985.566	2839.9
985.864	2804.64
986.162	2814.59
986.461	2773.68
986.759	2797.19
987.057	2742.95
987.355	2776.85
987.653	2741.59
987.951	2704.99
988.249	2740.46
988.547	2739.33
988.844	2722.39
989.142	2659.79
989.44	2659.11
989.737	2658.21
990.035	2638.77
990.332	2598.55
990.63	2598.77
990.927	2581.6
991.224	2582.5
991.521	2573.01
991.819	2576.18
992.116	2547.7
992.413	2587.25
992.71	2503.41
993.006	2546.12
993.303	2494.14
993.6	2493.24
993.897	2471.32
994.193	2489.4
994.49	2472.68
994.787	2436.74
995.083	2450.98
995.379	2410.53
995.676	2420.47
995.972	2426.8
996.268	2377.31
996.565	2349.06
996.861	2346.12
997.157	2410.08
997.453	2364.43
997.749	2355.84
998.044	2346.12
998.34	2293.7
998.636	2319.46
998.932	2264.09
999.227	2251.21
999.523	2251.89
999.818	2261.16
1000.114	2239.69
1000.409	2255.05
1000.704	2225.22
1001	2189.07
1001.295	2185
1001.59	2198.78
1001.885	2161.95
1002.18	2145
1002.475	2137.09
1002.77	2122.18
1003.065	2118.79
1003.359	2132.57
1003.654	2096.41
1003.949	2111.1
1004.243	2058.9
1004.538	2058.9
1004.832	2068.84
1005.127	2046.25
1005.421	2028.17
1005.715	1999.92
1006.009	2006.47
1006.304	1982.07
1006.598	1983.87
1006.892	1958.79
1007.186	1977.09
1007.48	1953.82
1007.773	1933.48
1008.067	1944.1
1008.361	1892.35
1008.655	1898
1008.948	1882.18
1009.242	1881.05
1009.535	1884.22
1009.829	1868.4
1010.122	1848.96
1010.415	1854.39
1010.708	1829.08
1011.001	1843.54
1011.295	1819.81
1011.588	1798.34
1011.881	1780.72
1012.173	1754.28
1012.466	1773.48
1012.759	1755.41
1013.052	1738.01
1013.344	1758.8
1013.637	1735.97
1013.93	1728.51
1014.222	1690.32
1014.514	1680.83
1014.807	1693.94
1015.099	1663.88
1015.391	1679.93
1015.683	1653.26
1015.976	1651.23
1016.268	1632.25
1016.56	1627.5
1016.851	1625.69
1017.143	1609.42
1017.435	1580.5
1017.727	1573.94
1018.018	1588.18
1018.31	1574.62
1018.602	1574.17
1018.893	1576.43
1019.185	1559.7
1019.476	1541.17
1019.767	1504.79
1020.058	1505.02
1020.35	1501.85
1020.641	1472.25
1020.932	1486.03
1021.223	1464.57
1021.514	1460.05
1021.804	1450.78
1022.095	1451.23
1022.386	1444
1022.677	1423.89
1022.967	1438.13
1023.258	1404.91
1023.548	1372.37
1023.839	1401.52
1024.129	1372.82
1024.419	1370.78
1024.709	1355.87
1025	1316.77
1025.29	1329.65
1025.58	1330.56
1025.87	1334.17
1026.16	1319.03
1026.449	1315.64
1026.739	1279.03
1027.029	1283.1
1027.319	1284.46
1027.608	1291.46
1027.898	1252.37
1028.187	1252.82
1028.477	1237.23
1028.766	1265.25
1029.055	1225.93
1029.344	1213.95
1029.634	1196.55
1029.923	1197.68
1030.212	1205.82
1030.501	1199.49
1030.79	1203.33
1031.078	1169.66
1031.367	1158.81
1031.656	1147.51
1031.945	1157.91
1032.233	1144.12
1032.522	1121.07
1032.81	1114.07
1033.099	1112.26
1033.387	1109.77
1033.675	1109.1
1033.963	1086.27
1034.251	1096.44
1034.54	1075.2
1034.828	1082.88
1035.116	1064.12
1035.403	1042.43
1035.691	1039.72
1035.979	1039.04
1036.267	1008.53
1036.554	1046.72
1036.842	1021.19
1037.129	1022.09
1037.417	1014.18
1037.704	1007.4
1037.992	992.71
1038.279	1005.14
1038.566	999.49
1038.853	999.49
1039.14	999.49
