Data from hue_60_FLMS001491_16.txt Node
Date: Mon Feb 06 15:12:00 GMT 2017
User: dcchb
Spectrometer: FLMS00149
Trigger mode: 0
Integration Time (sec): 2.000000E-2
Scans to average: 10
Electric dark correction enabled: true
Nonlinearity correction enabled: false
Boxcar width: 0
XAxis mode: Wavelengths
Number of Pixels in Spectrum: 2048
>>>>>Begin Spectral Data<<<<<
341.393	-14.7
341.776	-14.7
342.16	-14.7
342.543	-47.02
342.927	-51.76
343.31	-71.42
343.693	-66
344.077	-80.01
344.46	-52.89
344.843	-64.87
345.226	-29.17
345.61	-34.59
345.993	-15.83
346.376	8.57
346.759	6.09
347.142	35.47
347.525	56.71
347.908	58.97
348.291	70.04
348.674	72.53
349.057	106.42
349.44	153.65
349.823	148.46
350.206	164.28
350.588	184.16
350.971	211.51
351.354	249.92
351.737	233.2
352.119	260.54
352.502	264.84
352.884	276.36
353.267	280.2
353.65	309.13
354.032	292.41
354.414	317.27
354.797	319.07
355.179	314.33
355.562	326.76
355.944	342.58
356.326	360.88
356.709	348.9
357.091	358.62
357.473	341.45
357.855	334.21
358.238	368.56
358.62	349.13
359.002	340.77
359.384	329.92
359.766	341.22
360.148	357.49
360.53	328.56
360.912	340.09
361.294	349.81
361.676	320.88
362.057	334.67
362.439	342.12
362.821	330.15
363.203	332.41
363.584	338.96
363.966	298.96
364.348	321.56
364.729	302.12
365.111	300.77
365.493	313.2
365.874	331.05
366.256	328.56
366.637	321.11
367.019	317.94
367.4	324.05
367.781	325.85
368.163	310.49
368.544	322.92
368.925	325.18
369.306	321.79
369.688	325.63
370.069	317.49
370.45	315.68
370.831	316.59
371.212	318.17
371.593	292.18
371.974	313.88
372.355	314.78
372.736	333.31
373.117	337.6
373.498	339.19
373.879	296.48
374.26	310.26
374.641	325.85
375.021	351.62
375.402	324.27
375.783	318.85
376.163	336.25
376.544	319.53
376.925	309.58
377.305	335.34
377.686	326.08
378.066	323.82
378.447	328.79
378.827	317.27
379.208	313.42
379.588	352.52
379.968	328.79
380.349	328.79
380.729	355.23
381.109	348.23
381.489	320.88
381.87	332.86
382.25	328.11
382.63	340.32
383.01	339.41
383.39	344.16
383.77	339.64
384.15	342.12
384.53	343.71
384.91	331.73
385.29	344.84
385.67	358.17
386.049	349.81
386.429	341.22
386.809	352.97
387.189	339.41
387.568	359.07
387.948	354.33
388.328	348.9
388.707	348.23
389.087	360.88
389.466	364.95
389.846	363.37
390.225	352.07
390.605	364.27
390.984	367.21
391.363	350.26
391.743	371.05
392.122	347.55
392.501	342.35
392.881	356.36
393.26	371.05
393.639	388
394.018	362.69
394.397	378.96
394.776	355.46
395.155	383.25
395.534	385.74
395.913	367.43
396.292	382.12
396.671	388
397.05	373.54
397.429	396.36
397.808	364.27
398.186	371.5
398.565	401.33
398.944	380.99
399.323	384.61
399.701	380.31
400.08	373.08
400.458	390.48
400.837	380.09
401.215	371.05
401.594	391.61
401.972	400.2
402.351	403.37
402.729	395.91
403.107	404.27
403.486	405.85
403.864	415.12
404.242	408.11
404.62	413.08
404.999	425.96
405.377	417.6
405.755	418.05
406.133	402.24
406.511	414.44
406.889	416.47
407.267	423.7
407.645	440.88
408.023	409.01
408.401	447.88
408.779	419.64
409.156	419.41
409.534	418.96
409.912	447.43
410.29	460.09
410.667	439.75
411.045	442.01
411.422	465.74
411.8	441.56
412.178	448.34
412.555	444.27
412.933	449.92
413.31	439.97
413.687	453.08
414.065	465.28
414.442	454.21
414.819	484.72
415.197	462.8
415.574	496.7
415.951	493.53
416.328	475.45
416.705	486.3
417.082	468.9
417.46	509.13
417.837	478.39
418.214	483.14
418.591	496.47
418.967	527.66
419.344	494.66
419.721	475.91
420.098	482.91
420.475	479.75
420.852	510.71
421.228	485.85
421.605	515.23
421.982	499.86
422.358	512.74
422.735	537.37
423.111	497.83
423.488	517.94
423.864	511.38
424.241	534.66
424.617	543.02
424.994	543.93
425.37	523.36
425.746	551.84
426.123	548.67
426.499	579.41
426.875	541.21
427.251	557.94
427.627	549.12
428.003	583.47
428.379	540.31
428.756	572.4
429.132	568.78
429.507	596.58
429.883	569.01
430.259	600.42
430.635	582.12
431.011	588.67
431.387	595.22
431.763	606.52
432.138	589.35
432.514	631.38
432.89	615.11
433.265	626.64
433.641	635.68
434.016	632.74
434.392	639.07
434.767	651.49
435.143	646.3
435.518	647.65
435.894	645.62
436.269	680.65
436.644	660.53
437.02	665.28
437.395	671.61
437.77	672.96
438.145	698.72
438.52	695.79
438.895	699.4
439.271	696.46
439.646	710.93
440.021	721.55
440.395	711.38
440.77	710.7
441.145	729.23
441.52	737.59
441.895	718.16
442.27	733.75
442.645	745.73
443.019	729.68
443.394	741.89
443.769	740.98
444.143	738.72
444.518	745.05
444.892	740.31
445.267	769.23
445.641	760.42
446.016	773.75
446.39	792.06
446.764	806.29
447.139	761.1
447.513	782.11
447.887	787.31
448.262	759.97
448.636	775.33
449.01	768.33
449.384	781.66
449.758	801.09
450.132	798.16
450.506	804.71
450.88	807.87
451.254	802.22
451.628	841.77
452.002	821.21
452.376	830.92
452.75	853.97
453.123	832.05
453.497	843.35
453.871	857.14
454.244	866.63
454.618	900.75
454.992	905.27
455.365	888.78
455.739	925.39
456.112	933.07
456.486	914.31
456.859	950.24
457.232	935.78
457.606	971.94
457.979	951.15
458.352	976.46
458.725	977.81
459.099	1010.35
459.472	996.34
459.845	1023.46
460.218	1001.99
460.591	1044.03
460.964	1037.02
461.337	1033.86
461.71	1069.79
462.083	1107.98
462.456	1086.51
462.829	1093.06
463.201	1118.15
463.574	1104.36
463.947	1156.11
464.32	1171.93
464.692	1181.42
465.065	1177.13
465.438	1220.07
465.81	1241.54
466.183	1229.56
466.555	1258.03
466.928	1269.33
467.3	1243.12
467.672	1286.51
468.045	1322.21
468.417	1339.16
468.789	1351.81
469.161	1389.55
469.534	1404.69
469.906	1414.86
470.278	1477.24
470.65	1462.09
471.022	1530.79
471.394	1514.97
471.766	1526.27
472.138	1588.64
472.51	1639.04
472.882	1673.16
473.253	1693.5
473.625	1755.42
473.997	1772.37
474.369	1791.8
474.74	1826.6
475.112	1860.73
475.484	1908.86
475.855	1966.26
476.227	1997
476.598	2050.55
476.97	2134.17
477.341	2176.88
477.713	2251
478.084	2278.8
478.455	2385.69
478.827	2403.31
479.198	2459.58
479.569	2528.28
479.94	2614.38
480.311	2712
480.682	2809.86
481.053	2885.11
481.424	2931.66
481.795	3042.17
482.166	3091.43
482.537	3159.22
482.908	3302.05
483.279	3382.5
483.65	3490.74
484.021	3598.76
484.391	3687.57
484.762	3794.69
485.133	3843.95
485.503	4021.8
485.874	4143.61
486.244	4263.6
486.615	4369.81
486.985	4473.77
487.356	4615.68
487.726	4720.77
488.097	4911.72
488.467	4995.11
488.837	5152.62
489.207	5275.55
489.578	5419.28
489.948	5546.28
490.318	5699.27
490.688	5831.7
491.058	5953.5
491.428	6118.92
491.798	6209.99
492.168	6422.87
492.538	6552.81
492.908	6750.09
493.278	6913.7
493.648	6999.58
494.017	7195.95
494.387	7348.49
494.757	7441.82
495.126	7596.62
495.496	7751.87
495.866	7960.91
496.235	8105.76
496.605	8239.77
496.974	8380.78
497.344	8573.09
497.713	8700.32
498.082	8864.16
498.452	9016.25
498.821	9131.5
499.19	9269.57
499.559	9441.09
499.928	9599.51
500.298	9705.95
500.667	9965.6
501.036	10014.86
501.405	10215.08
501.774	10244.69
502.143	10428.64
502.512	10566.26
502.88	10732.36
503.249	10858.46
503.618	11020.71
503.987	11158.56
504.356	11376.86
504.724	11337.99
505.093	11478.33
505.462	11678.55
505.83	11723.29
506.199	11892.1
506.567	12146.11
506.936	12205.54
507.304	12370.51
507.672	12475.82
508.041	12659.99
508.409	12815.02
508.777	12918.06
509.145	13100.43
509.514	13098.85
509.882	13321.22
510.25	13430.14
510.618	13516.24
510.986	13676.69
511.354	13857.02
511.722	13969.34
512.09	14230.35
512.458	14218.14
512.826	14362.77
513.193	14557.34
513.561	14577.68
513.929	14756.66
514.297	14891.35
514.664	15047.27
515.032	15182.19
515.4	15314.84
515.767	15446.36
516.135	15539.92
516.502	15599.12
516.869	15884.77
517.237	15945.33
517.604	15974.03
517.972	16157.53
518.339	16305.09
518.706	16343.51
519.073	16508.03
519.44	16652.66
519.808	16848.81
520.175	16886.1
520.542	17108.01
520.909	17270.49
521.276	17255.58
521.643	17463.93
522.009	17635.23
522.376	17778.28
522.743	17864.15
523.11	18159.96
523.477	18325.15
523.843	18374.42
524.21	18550.46
524.577	18773.96
524.943	18818.7
525.31	18919.94
525.676	19152.48
526.043	19345.01
526.409	19328.52
526.776	19536.2
527.142	19712.46
527.508	19735.74
527.874	20062.06
528.241	20133.69
528.607	20106.12
528.973	20412.33
529.339	20341.15
529.705	20596.51
530.071	20768.93
530.437	20870.4
530.803	20972.54
531.169	21027.46
531.535	21168.02
531.901	21270.61
532.267	21364.17
532.632	21492.98
532.998	21671.05
533.364	21718.74
533.73	21725.52
534.095	21975.45
534.461	22029.01
534.826	22072.4
535.192	22206.63
535.557	22462.45
535.923	22367.31
536.288	22483.24
536.653	22629.45
537.019	22544.25
537.384	22646.85
537.749	22933.85
538.114	22739.05
538.479	22969.1
538.845	22962.32
539.21	23054.97
539.575	23194.4
539.94	23238.24
540.305	23442.76
540.67	23467.62
541.034	23527.28
541.399	23649.08
541.764	23666.26
542.129	23835.74
542.494	23830.32
542.858	23940.6
543.223	23949.64
543.587	24090.88
543.952	24054.49
544.316	24197.09
544.681	24204.55
545.045	24397.54
545.41	24498.55
545.774	24525.89
546.138	24573.13
546.503	24626.91
546.867	24642.73
547.231	25021.47
547.595	24893.79
547.959	24957.07
548.324	25095.6
548.688	25086.33
549.052	25209.27
549.416	25241.36
549.779	25340.79
550.143	25344.86
550.507	25588.24
550.871	25647.9
551.235	25633.44
551.599	25858.74
551.962	25854
552.326	26016.48
552.689	26049.02
553.053	25953.43
553.417	26076.36
553.78	26511.61
554.143	26307.54
554.507	26433.42
554.87	26594.09
555.234	26814.42
555.597	26643.35
555.96	26968.32
556.323	27008.32
556.686	26967.19
557.05	27106.84
557.413	27259.83
557.776	27345.48
558.139	27608.98
558.502	27713.61
558.865	27694.17
559.228	27931
559.59	27921.96
559.953	28031.57
560.316	28287.6
560.679	28291.45
561.041	28483.98
561.404	28568.27
561.767	28802.84
562.129	28605.79
562.492	29103.18
562.854	29031.99
563.217	29015.72
563.579	29197.41
563.941	29195.83
564.304	29450.28
564.666	29606.44
565.028	29691.86
565.39	29861.35
565.753	30087.56
566.115	30105.63
566.477	30119.19
566.839	30328.23
567.201	30649.12
567.563	30618.62
567.925	30858.84
568.287	30725.28
568.648	30833.53
569.01	31048.89
569.372	31174.08
569.734	31154.42
570.095	31363.23
570.457	31495.65
570.819	31494.52
571.18	31606.16
571.542	31802.99
571.903	31837.79
572.265	31857.68
572.626	32134.51
572.987	32128.41
573.349	32151.46
573.71	32317.78
574.071	32343.09
574.432	32553.71
574.794	32708.73
575.155	32673.93
575.516	32769.07
575.877	32827.82
576.238	32812.23
576.599	33101.49
576.96	33052.22
577.32	32964.32
577.681	33175.38
578.042	33253.35
578.403	33220.36
578.763	33383.97
579.124	33338.77
579.485	33540.57
579.845	33563.85
580.206	33608.14
580.566	33505.09
580.927	33530.63
581.287	33733.11
581.648	33617.63
582.008	33914.35
582.368	33833.9
582.728	33736.73
583.089	33840.68
583.449	33812.43
583.809	33912.77
584.169	33967.23
584.529	33881.13
584.889	34125.19
585.249	34002.71
585.609	33949.38
585.969	34169.71
586.329	34012.2
586.688	34080.45
587.048	34032.76
587.408	34113.89
587.768	34219.43
588.127	34099.65
588.487	34027.57
588.846	34235.02
589.206	34140.11
589.565	34107.79
589.925	34289.48
590.284	34241.12
590.643	34291.51
591.003	34324.28
591.362	34299.65
591.721	34263.94
592.08	34411.96
592.44	34444.5
592.799	34489.7
593.158	34389.14
593.517	34514.56
593.876	34494.9
594.235	34313.43
594.593	34432.75
594.952	34569.25
595.311	34414.22
595.67	34665.29
596.029	34833.19
596.387	34800.2
596.746	34768.34
597.104	34581.68
597.463	34705.97
597.822	34867.77
598.18	34800.88
598.538	34694.67
598.897	34922.23
599.255	34682.92
599.613	35164.94
599.972	35015.34
600.33	35063.92
600.688	34955
601.046	35131.72
601.404	35318.61
601.762	35210.81
602.12	35291.26
602.478	35295.1
602.836	35491.93
603.194	35120.19
603.552	35439.51
603.91	35344.37
604.268	35539.62
604.625	35404.93
604.983	35585.49
605.341	35295.78
605.698	35559.5
606.056	35675.21
606.413	35636.79
606.771	35755.88
607.128	35840.63
607.485	35789.78
607.843	35784.13
608.2	36040.85
608.557	36006.72
608.914	36020.73
609.272	36242.2
609.629	36142.54
609.986	36472.02
610.343	36347.28
610.7	36590.44
611.057	36497.11
611.414	36601.51
611.771	36469.08
612.127	36866.14
612.484	36556.76
612.841	36808.51
613.198	36765.12
613.554	36793.37
613.911	36828.85
614.267	36837.89
614.624	36948.17
614.98	36997.66
615.337	37232
615.693	37091.44
616.05	37088.05
616.406	37399.91
616.762	37301.6
617.118	37330.08
617.475	37312
617.831	37465.67
618.187	37503.63
618.543	37470.87
618.899	37754.47
619.255	37803.29
619.611	37717.86
619.967	37760.8
620.323	37968.03
620.678	37759.22
621.034	37716.06
621.39	37750.41
621.746	37713.12
622.101	38195.37
622.457	37905.88
622.812	37976.39
623.168	38123.5
623.523	38023.62
623.879	38251.86
624.234	37989.5
624.589	38194.01
624.945	38242.14
625.3	38378.64
625.655	38217.06
626.01	38278.53
626.365	38323.5
626.72	38287.11
627.075	38204.41
627.43	38316.72
627.785	38239.66
628.14	38450.05
628.495	38412.99
628.85	38311.97
629.205	38282.37
629.559	38556.03
629.914	38243.95
630.269	38294.8
630.623	38247.57
630.978	38221.13
631.332	38383.16
631.687	38484.85
632.041	38290.96
632.396	38305.19
632.75	38138.19
633.104	38242.37
633.459	38129.38
633.813	38182.94
634.167	38128.47
634.521	38091.87
634.875	37981.13
635.229	38175.48
635.583	37965.32
635.937	38228.13
636.291	38055.71
636.645	38142.49
636.999	38002.83
637.352	37971.87
637.706	37887.35
638.06	38015.26
638.413	37902.27
638.767	37893.68
639.121	37952.89
639.474	37711.76
639.828	37820.01
640.181	37858.88
640.534	37936.39
640.888	37738.2
641.241	37677.87
641.594	37623.18
641.947	37718.99
642.301	37569.39
642.654	37511.77
643.007	37687.36
643.36	37428.83
643.713	37466.57
644.066	37722.61
644.419	37540.47
644.771	37287.59
645.124	36893.48
645.477	36788.17
645.83	36556.76
646.182	36406.49
646.535	36452.13
646.888	36364.91
647.24	36343.89
647.593	36430.44
647.945	36428.63
648.298	36145.25
648.65	36244.68
649.002	36029.32
649.355	36213.5
649.707	36277.45
650.059	36260.05
650.411	36757.44
650.763	36658.23
651.115	37218.22
651.467	37009.41
651.819	37100.25
652.171	36909.98
652.523	36821.39
652.875	36829.75
653.227	36642.19
653.578	36928.51
653.93	36798.57
654.282	36614.16
654.633	36596.99
654.985	36727.16
655.337	36713.82
655.688	36729.19
656.039	36842.41
656.391	36490.55
656.742	36542.3
657.094	36690.32
657.445	36763.76
657.796	36493.04
658.147	36460.04
658.498	36465.02
658.849	36613.03
659.2	36508.4
659.551	36478.35
659.902	36588.18
660.253	36399.25
660.604	36649.87
660.955	36298.24
661.306	36455.3
661.656	36423.21
662.007	36484.22
662.358	36400.84
662.708	36452.59
663.059	36450.1
663.409	36113.39
663.76	36438.58
664.11	36362.19
664.461	36380.5
664.811	36400.84
665.161	36393.61
665.511	36301.18
665.862	36460.04
666.212	36331.91
666.562	36290.11
666.912	36421.85
667.262	36241.74
667.612	36235.19
667.962	36357
668.312	36162.65
668.662	36432.93
669.011	36260.5
669.361	36187.96
669.711	36321.74
670.06	36187.51
670.41	36134.85
670.76	35988.19
671.109	36317.45
671.459	36208.98
671.808	36152.71
672.157	36156.1
672.507	35926.72
672.856	35935.31
673.205	36056.89
673.554	36064.35
673.904	36006.27
674.253	36208.3
674.602	36033.84
674.951	35413.29
675.3	35386.17
675.649	35963.33
675.998	35799.95
676.346	35881.98
676.695	36147.28
677.044	35621.87
677.393	35738.48
677.741	35838.59
678.09	35670.01
678.438	35685.15
678.787	35671.82
679.135	35768.31
679.484	35456.91
679.832	35749.78
680.181	35404.7
680.529	35595.66
680.877	35499.17
681.225	35421.88
681.573	35602.44
681.922	35296.01
682.27	35187.76
682.618	35265.27
682.966	35166.74
683.314	35329
683.661	35119.51
684.009	34960.2
684.357	34867.09
684.705	34954.77
685.053	34830.26
685.4	34854.89
685.748	34580.77
686.095	34774.44
686.443	34571.05
686.79	34519.3
687.138	34683.14
687.485	34509.81
687.832	34389.14
688.18	34422.81
688.527	34299.65
688.874	34296.71
689.221	34152.53
689.568	34186.21
689.915	34139.43
690.262	34080.67
690.609	34022.82
690.956	33759.55
691.303	33889.72
691.65	33603.85
691.997	33637.75
692.344	33449.05
692.69	33473.91
693.037	33559.56
693.383	33194.59
693.73	33222.62
694.077	33020.81
694.423	33098.55
694.769	32983.75
695.116	32897.65
695.462	32920.93
695.808	32760.03
696.155	32853.59
696.501	32550.99
696.847	32655.62
697.193	32416.99
697.539	32412.01
697.885	32284.11
698.231	32195.3
698.577	32154.17
698.923	32076.88
699.269	32005.25
699.614	31747.4
699.96	31833.5
700.306	31718.02
700.651	31715.99
700.997	31592.6
701.342	31618.36
701.688	31471.02
702.033	31406.17
702.379	31326.62
702.724	31279.62
703.069	31387.86
703.415	31061.09
703.76	30980.87
704.105	30976.35
704.45	30918.72
704.795	30800.76
705.14	30699.29
705.485	30599.18
705.83	30612.06
706.175	30600.31
706.52	30496.36
706.865	30345.85
707.209	30338.4
707.554	30221.11
707.899	30291.17
708.243	30074.68
708.588	30147.67
708.932	29796.26
709.277	29841.24
709.621	29791.74
709.966	29615.03
710.31	29769.15
710.654	29566.67
710.998	29509.72
711.342	29446.22
711.687	29399.44
712.031	29237.86
712.375	29141.37
712.719	29250.97
713.063	29239.22
713.407	29294.13
713.75	29121.71
714.094	29139.11
714.438	29029.96
714.782	28922.62
715.125	28787.25
715.469	28733.47
715.812	28650.98
716.156	28596.3
716.499	28755.16
716.843	28634.26
717.186	28426.36
717.53	28662.06
717.873	28577.77
718.216	28460.93
718.559	28245.34
718.902	28227.94
719.246	28400.82
719.589	28131.68
719.932	28171.9
720.275	28074.73
720.617	27947.95
720.96	27971.45
721.303	27924
721.646	27962.19
721.989	27630.9
722.331	27844.23
722.674	27796.77
723.016	27723.78
723.359	27712.03
723.701	27603.33
724.044	27513.16
724.386	27380.28
724.729	27463.44
725.071	27387.97
725.413	27454.86
725.755	27278.36
726.097	27182.32
726.439	27071.14
726.782	27036.79
727.124	27187.52
727.465	27159.72
727.807	27045.6
728.149	26934.87
728.491	26947.53
728.833	26973.29
729.175	26823.24
729.516	26824.14
729.858	26816.91
730.199	26804.03
730.541	26576.91
730.882	26596.35
731.224	26783.69
731.565	26616.01
731.906	26624.14
732.248	26604.94
732.589	26448.33
732.93	26364.72
733.271	26425.51
733.612	26550.47
733.953	26373.76
734.294	26259.18
734.635	26218.51
734.976	26339.41
735.317	26162.91
735.658	26250.82
735.999	26100.09
736.339	26117.49
736.68	26171.73
737.021	25981
737.361	25830.04
737.702	26082.01
738.042	25966.08
738.383	25811.51
738.723	25966.53
739.063	25789.59
739.404	25965.4
739.744	25741.68
740.084	25621.69
740.424	25651.97
740.764	25631.63
741.104	25762.25
741.444	25518.64
741.784	25412.43
742.124	25470.05
742.464	25414.23
742.804	25370.84
743.143	25324.52
743.483	25340.79
743.823	25232.77
744.162	25133.11
744.502	25228.25
744.841	24971.76
745.181	25193.45
745.52	25056.73
745.86	25092.43
746.199	25060.57
746.538	25004.53
746.877	25094.47
747.216	25052.43
747.556	24905.09
747.895	24816.06
748.234	24761.82
748.573	24673.46
748.911	24782.39
749.25	24810.86
749.589	24562.05
749.928	24690.64
750.267	24635.04
750.605	24479.12
750.944	24444.99
751.283	24411.1
751.621	24340.59
751.96	24318.22
752.298	24290.87
752.636	24236.64
752.975	24176.98
753.313	24097.21
753.651	24182.17
753.989	24045
754.327	23918
754.666	23849.08
755.004	23978.34
755.342	23911.45
755.679	23758.68
756.017	23665.8
756.355	23694.28
756.693	23603.89
757.031	23647.27
757.368	23555.75
757.706	23407.05
758.044	23346.72
758.381	23329.99
758.719	23334.97
759.056	23329.09
759.394	23165.03
759.731	23069.89
760.068	23035.09
760.405	22964.81
760.743	22979.72
761.08	22988.31
761.417	22877.35
761.754	22817.01
762.091	22664.02
762.428	22592.84
762.765	22574.31
763.102	22560.07
763.438	22424.26
763.775	22366.86
764.112	22249.34
764.449	22348.55
764.785	22233.53
765.122	22073.08
765.458	22026.3
765.795	21921.67
766.131	21970.48
766.467	21832.41
766.804	21684.16
767.14	21736.36
767.476	21685.74
767.812	21538.18
768.148	21498.18
768.485	21445.75
768.821	21330.5
769.157	21252.08
769.492	21270.84
769.828	21246.88
770.164	20972.77
770.5	20956.5
770.836	21015.7
771.171	20820.91
771.507	20760.57
771.842	20512.89
772.178	20715.15
772.513	20608.48
772.849	20431.31
773.184	20393.35
773.519	20467.92
773.855	20358.09
774.19	20116.52
774.525	20079.23
774.86	20104.32
775.195	20108.61
775.53	20004.66
775.865	19886.69
776.2	19748.17
776.535	19601.73
776.87	19710.43
777.205	19524.67
777.539	19468.63
777.874	19542.07
778.209	19224.34
778.543	19220.95
778.878	19207.62
779.212	19246.03
779.547	19096.21
779.881	19115.42
780.215	18852.82
780.55	19007.17
780.884	18789.32
781.218	18660.96
781.552	18774.63
781.886	18663.22
782.22	18593.85
782.554	18456
782.888	18318.83
783.222	18251.71
783.556	18135.55
783.889	18136.91
784.223	18025.05
784.557	17952.06
784.89	17994.09
785.224	17947.99
785.557	17792.96
785.891	17752.06
786.224	17713.19
786.558	17700.54
786.891	17635
787.224	17570.37
787.557	17450.6
787.891	17447.89
788.224	17371.28
788.557	17406.53
788.89	17303.03
789.223	17308.23
789.556	17164.73
789.888	17095.81
790.221	17061.91
790.554	16863.05
790.887	16910.95
791.219	16889.03
791.552	16765.19
791.884	16776.27
792.217	16614.46
792.549	16617.85
792.882	16504.64
793.214	16417.18
793.546	16323.17
793.879	16353.91
794.211	16240.24
794.543	16255.15
794.875	16190.97
795.207	16231.2
795.539	16150.52
795.871	16169.5
796.203	15899.68
796.535	15923.63
796.867	15890.42
797.198	15902.39
797.53	15861.94
797.862	15711.66
798.193	15657.65
798.525	15612.68
798.856	15652
799.188	15500.37
799.519	15466.25
799.85	15384.21
800.182	15356.19
800.513	15392.12
800.844	15240.49
801.175	15322.07
801.506	15284.56
801.837	15164.33
802.168	15171.56
802.499	15056.99
802.83	14988.07
803.161	14951.01
803.491	14936.54
803.822	14928.18
804.153	14881.85
804.483	14882.53
804.814	14686.61
805.145	14642.76
805.475	14689.32
805.805	14661.75
806.136	14597.79
806.466	14543.56
806.796	14569.77
807.126	14526.16
807.457	14360.96
807.787	14397.12
808.117	14345.6
808.447	14352.15
808.777	14274.19
809.107	14236
809.436	14196
809.766	14193.96
810.096	14041.42
810.426	14019.73
810.755	13996.91
811.085	14022.67
811.414	13998.49
811.744	13855.44
812.073	13901.54
812.403	13757.59
812.732	13639.4
813.061	13802.79
813.39	13714.88
813.719	13654.32
814.049	13764.6
814.378	13649.34
814.707	13562.79
815.036	13521.66
815.365	13500.2
815.693	13369.58
816.022	13404.15
816.351	13329.35
816.68	13293.65
817.008	13342.01
817.337	13233.08
817.665	13193.54
817.994	13231.95
818.322	13160.77
818.651	13162.35
818.979	13093.2
819.307	13137.04
819.636	13051.62
819.964	12985.18
820.292	13045.07
820.62	13094.78
820.948	12994.67
821.276	13039.64
821.604	12989.7
821.932	12961.45
822.259	13000.32
822.587	12981.11
822.915	12923.94
823.243	12974.79
823.57	12969.36
823.898	12866.31
824.225	12921.23
824.553	12860.89
824.88	12875.13
825.207	12951.96
825.535	12867.67
825.862	12878.97
826.189	12830.16
826.516	12881.91
826.843	12914.67
827.17	12832.87
827.497	12861.57
827.824	12917.16
828.151	12922.36
828.478	12872.64
828.805	12961.45
829.131	12855.69
829.458	12887.56
829.785	12721.69
830.111	12896.6
830.438	12851.17
830.764	12959.87
831.09	12895.01
831.417	12835.81
831.743	12916.48
832.069	12793.77
832.395	12786.32
832.722	12732.98
833.048	12786.99
833.374	12722.82
833.7	12713.78
834.026	12761.46
834.351	12796.26
834.677	12742.93
835.003	12745.41
835.329	12659.31
835.654	12674
835.98	12607.79
836.306	12611.18
836.631	12578.86
836.956	12556.49
837.282	12594.46
837.607	12568.24
837.932	12452.77
838.258	12530.28
838.583	12488.47
838.908	12462.71
839.233	12495.25
839.558	12448.92
839.883	12346.1
840.208	12365.08
840.533	12369.83
840.858	12461.13
841.182	12397.85
841.507	12329.15
841.832	12174.58
842.156	12254.13
842.481	12316.27
842.805	12145.2
843.13	12175.94
843.454	12071.08
843.778	12099.1
844.103	12094.58
844.427	12017.52
844.751	11995.15
845.075	11962.61
845.399	12003.06
845.723	11871.31
846.047	11884.19
846.371	11840.13
846.695	11822.5
847.019	11712.9
847.343	11705.21
847.666	11575.95
847.99	11591.55
848.313	11587.03
848.637	11487.82
848.96	11464.77
849.284	11479.23
849.607	11328.95
849.931	11306.58
850.254	11218
850.577	11197.43
850.9	11131.67
851.223	11069.75
851.546	11096.19
851.869	10982.07
852.192	11085.12
852.515	10918.34
852.838	10869.08
853.161	10863.88
853.483	10758.57
853.806	10791.79
854.129	10858.23
854.451	10715.64
854.774	10707.05
855.096	10648.29
855.419	10598.58
855.741	10579.37
856.063	10483.33
856.385	10506.38
856.708	10437.23
857.03	10427.51
857.352	10524.23
857.674	10389.09
857.996	10315.42
858.318	10292.37
858.64	10321.75
858.961	10255.76
859.283	10243.56
859.605	10205.37
859.926	10161.75
860.248	10178.7
860.57	10102.32
860.891	10143.22
861.212	10093.73
861.534	10053.73
861.855	10015.09
862.176	10013.28
862.498	9997.24
862.819	10042.21
863.14	9963.79
863.461	9964.24
863.782	9925.6
864.103	9918.82
864.424	9911.59
864.745	9916.11
865.065	9840.86
865.386	9767.19
865.707	9789.33
866.027	9787.07
866.348	9757.7
866.668	9747.07
866.989	9771.25
867.309	9641.31
867.63	9703.91
867.95	9678.6
868.27	9580.52
868.59	9641.31
868.91	9616.46
869.23	9657.81
869.55	9538.49
869.87	9659.17
870.19	9532.84
870.51	9576.91
870.83	9638.38
871.15	9530.13
871.469	9538.72
871.789	9516.35
872.109	9523.8
872.428	9418.95
872.748	9429.34
873.067	9470.7
873.386	9463.01
873.706	9380.08
874.025	9419.17
874.344	9296.46
874.663	9377.37
874.982	9306.18
875.301	9431.15
875.62	9303.24
875.939	9333.98
876.258	9285.84
876.577	9206.07
876.896	9254.43
877.214	9228.67
877.533	9232.06
877.852	9206.75
878.17	9144.38
878.489	9240.42
878.807	9157.94
879.125	9121.78
879.444	9231.16
879.762	9054.66
880.08	9096.7
880.398	9077.26
880.716	8986.64
881.034	9041.33
881.352	9117.49
881.67	8951.84
881.988	9005.17
882.306	8994.33
882.624	8907.1
882.941	8887.89
883.259	8882.01
883.577	8904.84
883.894	8920.66
884.212	8831.84
884.529	8818.29
884.846	8790.72
885.164	8850.83
885.481	8786.65
885.798	8762.92
886.115	8702.36
886.432	8748.23
886.75	8665.52
887.067	8684.96
887.383	8625.75
887.7	8600.89
888.017	8630.72
888.334	8578.97
888.651	8547.78
888.967	8560.44
889.284	8454.45
889.6	8459.2
889.917	8397.05
890.233	8390.73
890.55	8407.67
890.866	8428.24
891.182	8357.05
891.498	8338.75
891.815	8268.24
892.131	8279.32
892.447	8250.39
892.763	8252.88
893.079	8162.03
893.395	8206.55
893.71	8193.22
894.026	8094.24
894.342	8161.81
894.657	8141.01
894.973	8107.12
895.289	8051.75
895.604	8038.19
895.92	7991.19
896.235	7944.64
896.55	7920.91
896.865	7948.7
897.181	7915.94
897.496	7898.31
897.811	7812.44
898.126	7871.42
898.441	7828.03
898.756	7768.6
899.071	7684.53
899.386	7743.51
899.7	7600.01
900.015	7719.1
900.33	7535.38
900.644	7575.61
900.959	7502.39
901.273	7545.78
901.588	7534.25
901.902	7426.68
902.216	7447.93
902.531	7452.9
902.845	7411.32
903.159	7366.8
903.473	7303.75
903.787	7341.94
904.101	7285.22
904.415	7266.46
904.729	7262.17
905.042	7217.42
905.356	7126.13
905.67	7156.63
905.984	7136.97
906.297	7112.79
906.611	7067.6
906.924	7055.17
907.237	7009.07
907.551	6986.69
907.864	6961.16
908.177	6934.72
908.491	6878.45
908.804	6873.03
909.117	6871.67
909.43	6834.83
909.743	6839.35
910.056	6817.43
910.368	6739.47
910.681	6741.96
910.994	6722.52
911.307	6675.52
911.619	6614.5
911.932	6611.11
912.244	6574.73
912.557	6582.41
912.869	6528.4
913.181	6512.81
913.494	6555.52
913.806	6451.57
914.118	6455.86
914.43	6395.52
914.742	6400.95
915.054	6358.24
915.366	6369.54
915.678	6265.81
915.99	6260.16
916.302	6243.44
916.613	6205.47
916.925	6228.75
917.236	6191.24
917.548	6167.51
917.859	6124.34
918.171	6075.31
918.482	6068.75
918.794	6055.87
919.105	5990.56
919.416	5965.7
919.727	5974.74
920.038	5947.17
920.349	5927.97
920.66	5875.76
920.971	5865.37
921.282	5859.49
921.593	5794.41
921.903	5787.63
922.214	5753.05
922.525	5791.7
922.835	5734.3
923.146	5660.63
923.456	5708.76
923.767	5588.99
924.077	5615.66
924.387	5628.99
924.697	5589.22
925.008	5581.76
925.318	5560.97
925.628	5476
925.938	5489.11
926.248	5443.68
926.558	5455.66
926.867	5467.64
927.177	5360.3
927.487	5356.46
927.796	5351.48
928.106	5358.94
928.416	5341.54
928.725	5291.37
929.034	5264.03
929.344	5268.32
929.653	5196.46
929.962	5184.93
930.271	5127.53
930.581	5154.2
930.89	5124.37
931.199	5104.94
931.508	5079.63
931.817	5083.92
932.125	5049.8
932.434	5031.72
932.743	4949.23
933.051	5016.8
933.36	4963.25
933.669	4936.81
933.977	4939.07
934.286	4878.5
934.594	4869.24
934.902	4876.92
935.21	4825.85
935.519	4841.21
935.827	4786.53
936.135	4782.01
936.443	4727.32
936.751	4740.88
937.059	4717.6
937.367	4717.15
937.674	4691.61
937.982	4678.51
938.29	4634.67
938.597	4659.75
938.905	4584.95
939.213	4522.58
939.52	4535.23
939.827	4499.53
940.135	4492.52
940.442	4478.51
940.749	4509.47
941.056	4483.94
941.363	4429.25
941.67	4429.7
941.977	4378.18
942.284	4401.9
942.591	4338.63
942.898	4366.65
943.205	4311.51
943.511	4312.87
943.818	4288.69
944.125	4264.73
944.431	4304.28
944.738	4230.84
945.044	4228.58
945.35	4199.2
945.657	4158.29
945.963	4181.8
946.269	4136.37
946.575	4118.52
946.881	4116.94
947.187	4108.8
947.493	4097.73
947.799	4072.87
948.105	3991.97
948.41	4076.71
948.716	4022.7
949.022	4002.59
949.327	3944.29
949.633	3970.95
949.938	3958.07
950.244	3909.26
950.549	3872.43
950.854	3904.06
951.16	3828.81
951.465	3884.4
951.77	3869.94
952.075	3819.55
952.38	3784.75
952.685	3805.99
952.99	3722.6
953.294	3781.81
953.599	3733.22
953.904	3751.07
954.209	3723.96
954.513	3729.61
954.818	3674.92
955.122	3646.9
955.426	3655.71
955.731	3642.83
956.035	3639.89
956.339	3591.76
956.643	3533
956.948	3539.33
957.252	3554.47
957.556	3536.16
957.86	3522.83
958.163	3520.35
958.467	3474.24
958.771	3509.5
959.075	3479.22
959.378	3467.92
959.682	3464.75
959.985	3422.72
960.289	3430.18
960.592	3415.72
960.896	3421.59
961.199	3372.33
961.502	3353.12
961.805	3342.27
962.108	3321.93
962.411	3251.65
962.714	3297.98
963.017	3285.32
963.32	3272.89
963.623	3247.36
963.926	3248.26
964.228	3196.06
964.531	3198.09
964.833	3184.53
965.136	3146.8
965.438	3156.51
965.741	3156.74
966.043	3131.43
966.345	3140.47
966.648	3102.05
966.95	3093.24
967.252	3051.66
967.554	3072.45
967.856	3074.93
968.158	3020.02
968.46	3030.41
968.761	3013.24
969.063	3025.44
969.365	2952.45
969.666	2980.02
969.968	2945.22
970.269	2965.11
970.571	2937.99
970.872	2994.94
971.174	2918.1
971.475	2889.63
971.776	2902.28
972.077	2893.24
972.378	2885.33
972.679	2834.49
972.98	2865.45
973.281	2824.54
973.582	2811.21
973.883	2779.12
974.183	2788.61
974.484	2780.03
974.785	2794.26
975.085	2750.87
975.386	2765.56
975.686	2723.3
975.986	2657.09
976.287	2688.28
976.587	2674.27
976.887	2679.01
977.187	2676.75
977.487	2686.69
977.787	2693.02
978.087	2610.31
978.387	2631.56
978.687	2601.73
978.987	2585.68
979.286	2567.38
979.586	2565.79
979.885	2558.11
980.185	2568.51
980.484	2547.94
980.784	2542.74
981.083	2518.11
981.382	2498.45
981.682	2499.36
981.981	2497.77
982.28	2484.67
982.579	2470.88
982.878	2481.5
983.177	2454.61
983.475	2501.16
983.774	2416.19
984.073	2420.26
984.372	2395.63
984.67	2387.95
984.969	2396.53
985.267	2375.74
985.566	2374.16
985.864	2343.2
986.162	2388.62
986.461	2314.73
986.759	2316.31
987.057	2309.98
987.355	2337.78
987.653	2276.54
987.951	2296.87
988.249	2264.11
988.547	2282.64
988.844	2273.37
989.142	2252.81
989.44	2228.4
989.737	2214.16
990.035	2179.59
990.332	2203.77
990.63	2200.83
990.927	2164.45
991.224	2180.72
991.521	2151.79
991.819	2160.16
992.116	2150.44
992.413	2139.82
992.71	2124.22
993.006	2136.88
993.303	2105.24
993.6	2095.07
993.897	2100.04
994.193	2097.78
994.49	2099.59
994.787	2050.78
995.083	2044.68
995.379	2050.78
995.676	2019.59
995.972	1989.31
996.268	2005.58
996.565	2010.1
996.861	1983.66
997.157	2017.11
997.453	1961.06
997.749	1992.93
998.044	1954.28
998.34	1965.13
998.636	1932.36
998.932	1927.17
999.227	1891.01
999.523	1903.44
999.818	1880.16
1000.114	1908.64
1000.409	1878.35
1000.704	1839.94
1001	1877.22
1001.295	1880.39
1001.59	1848.98
1001.885	1822.54
1002.18	1813.05
1002.475	1799.26
1002.77	1791.35
1003.065	1789.09
1003.359	1775.76
1003.654	1770.79
1003.949	1763.56
1004.243	1750.9
1004.538	1766.49
1004.832	1743.89
1005.127	1738.02
1005.421	1678.81
1005.715	1708.19
1006.009	1710.9
1006.304	1712.71
1006.598	1662.09
1006.892	1660.06
1007.186	1664.35
1007.48	1665.03
1007.773	1655.99
1008.067	1634.07
1008.361	1597.91
1008.655	1623.67
1008.948	1613.73
1009.242	1603.79
1009.535	1581.64
1009.829	1571.24
1010.122	1579.15
1010.415	1548.87
1010.708	1542.77
1011.001	1538.02
1011.295	1535.76
1011.588	1555.2
1011.881	1531.47
1012.173	1540.51
1012.466	1527.4
1012.759	1502.55
1013.052	1496.67
1013.344	1500.96
1013.637	1485.82
1013.93	1475.65
1014.222	1457.8
1014.514	1448.76
1014.807	1446.28
1015.099	1417.8
1015.391	1415.32
1015.683	1378.71
1015.976	1391.81
1016.268	1420.74
1016.56	1357.24
1016.851	1401.98
1017.143	1385.94
1017.435	1367.86
1017.727	1354.3
1018.018	1345.49
1018.31	1331.48
1018.602	1350.46
1018.893	1338.71
1019.185	1327.63
1019.476	1297.8
1019.767	1293.51
1020.058	1299.61
1020.35	1279.05
1020.641	1273.62
1020.932	1267.07
1021.223	1248.54
1021.514	1254.64
1021.804	1250.35
1022.095	1243.34
1022.386	1233.85
1022.677	1220.52
1022.967	1232.5
1023.258	1204.47
1023.548	1198.82
1023.839	1214.42
1024.129	1191.37
1024.419	1210.35
1024.709	1195.89
1025	1162.89
1025.29	1166.28
1025.58	1143.91
1025.87	1137.13
1026.16	1145.04
1026.449	1133.74
1026.739	1084.25
1027.029	1108.88
1027.319	1094.42
1027.608	1104.14
1027.898	1100.75
1028.187	1090.8
1028.477	1104.59
1028.766	1068.66
1029.055	1047.42
1029.344	1050.13
1029.634	1073.18
1029.923	1026.63
1030.212	1033.41
1030.501	1029.34
1030.79	1030.92
1031.078	1021.65
1031.367	1001.32
1031.656	1013.29
1031.945	1019.39
1032.233	972.84
1032.522	1008.09
1032.81	992.5
1033.099	975.55
1033.387	980.98
1033.675	961.99
1033.963	977.81
1034.251	963.8
1034.54	921.77
1034.828	952.05
1035.116	913.63
1035.403	925.84
1035.691	936.01
1035.979	933.07
1036.267	900.08
1036.554	899.17
1036.842	891.04
1037.129	907.08
1037.417	878.83
1037.704	864.37
1037.992	864.82
1038.279	867.53
1038.566	877.93
1038.853	877.93
1039.14	877.93
