Data from hue_160_FLMS001491_00050.txt Node
Date: Tue Feb 07 16:51:15 GMT 2017
User: dcchb
Spectrometer: FLMS00149
Trigger mode: 0
Integration Time (sec): 2.000000E-2
Scans to average: 10
Electric dark correction enabled: true
Nonlinearity correction enabled: false
Boxcar width: 0
XAxis mode: Wavelengths
Number of Pixels in Spectrum: 2048
>>>>>Begin Spectral Data<<<<<
341.393	-9.84
341.776	-9.84
342.16	-9.84
342.543	-53.91
342.927	-68.83
343.31	-71.76
343.693	-53.01
344.077	-59.11
344.46	-59.56
344.843	-52.78
345.226	-32.44
345.61	-28.15
345.993	-23.63
346.376	3.94
346.759	9.14
347.142	-4.65
347.525	49.59
347.908	45.3
348.291	79.87
348.674	90.94
349.057	106.31
349.44	123.26
349.823	161.9
350.206	168.46
350.588	209.13
350.971	187.21
351.354	224.73
351.737	236.25
352.119	234.44
352.502	258.62
352.884	262.46
353.267	274.89
353.65	274.22
354.032	279.87
354.414	302.46
354.797	314.67
355.179	310.6
355.562	326.19
355.944	337.04
356.326	326.64
356.709	323.93
357.091	332.75
357.473	321.22
357.855	328.9
358.238	357.83
358.62	335.46
359.002	333.42
359.384	327.55
359.766	333.2
360.148	318.06
360.53	350.37
360.912	328.45
361.294	315.34
361.676	329.58
362.057	330.03
362.439	327.32
362.821	327.55
363.203	303.82
363.584	305.85
363.966	326.42
364.348	288.9
364.729	316.93
365.111	310.37
365.493	324.16
365.874	304.95
366.256	310.83
366.637	315.57
367.019	291.62
367.4	310.83
367.781	307.66
368.163	315.34
368.544	298.17
368.925	318.73
369.306	300.66
369.688	313.08
370.069	335.68
370.45	307.89
370.831	299.3
371.212	301.11
371.593	321.67
371.974	289.36
372.355	304.72
372.736	318.51
373.117	316.47
373.498	314.21
373.879	314.89
374.26	301.11
374.641	300.43
375.021	306.76
375.402	309.24
375.783	320.32
376.163	316.02
376.544	333.65
376.925	307.21
377.305	328.68
377.686	316.47
378.066	337.49
378.447	320.99
378.827	342.01
379.208	347.21
379.588	329.13
379.968	333.65
380.349	345.17
380.729	349.24
381.109	337.49
381.489	335.68
381.87	336.14
382.25	336.14
382.63	341.56
383.01	330.03
383.39	322.58
383.77	341.56
384.15	349.69
384.53	333.65
384.91	344.72
385.29	337.04
385.67	313.08
386.049	351.95
386.429	339.3
386.809	339.3
387.189	344.95
387.568	334.55
387.948	356.93
388.328	335.46
388.707	335.01
389.087	365.29
389.466	359.41
389.846	348.79
390.225	369.58
390.605	358.73
390.984	356.93
391.363	365.29
391.743	370.94
392.122	358.28
392.501	343.59
392.881	371.61
393.26	375.46
393.639	344.72
394.018	368.9
394.397	352.41
394.776	379.98
395.155	357.38
395.534	362.12
395.913	382.01
396.292	382.69
396.671	377.72
397.05	377.72
397.429	377.49
397.808	375.46
398.186	389.24
398.565	368.9
398.944	385.63
399.323	372.74
399.701	374.33
400.08	394.44
400.458	391.28
400.837	408.45
401.215	404.16
401.594	400.31
401.972	364.84
402.351	397.15
402.729	407.55
403.107	392.18
403.486	414.1
403.864	411.84
404.242	405.51
404.62	422.91
404.999	392.4
405.377	417.72
405.755	426.3
406.133	408.45
406.511	396.92
406.889	434.66
407.267	460.65
407.645	456.58
408.023	422.46
408.401	431.27
408.779	446.87
409.156	414.55
409.534	414.55
409.912	415.23
410.29	465.17
410.667	454.78
411.045	453.19
411.422	466.98
411.8	480.09
412.178	462.01
412.555	468.79
412.933	483.25
413.31	456.36
413.687	457.26
414.065	465.17
414.442	476.47
414.819	500.65
415.197	506.75
415.574	491.84
415.951	490.71
416.328	502.46
416.705	485.74
417.082	481.89
417.46	504.04
417.837	503.81
418.214	513.31
418.591	521.89
418.967	526.86
419.344	522.8
419.721	517.37
420.098	522.35
420.475	518.96
420.852	535.45
421.228	530.48
421.605	548.33
421.982	534.77
422.358	544.49
422.735	537.94
423.111	545.85
423.488	529.12
423.864	574.32
424.241	562.12
424.617	575.45
424.994	568.22
425.37	579.97
425.746	579.97
426.123	572.97
426.499	584.04
426.875	586.3
427.251	559.86
427.627	602.79
428.003	592.4
428.379	596.02
428.756	608.9
429.132	612.29
429.507	639.86
429.883	642.57
430.259	631.49
430.635	638.5
431.011	653.42
431.387	636.92
431.763	658.39
432.138	636.92
432.514	664.26
432.89	672.17
433.265	698.84
433.641	687.09
434.016	675.11
434.392	704.26
434.767	713.53
435.143	680.98
435.518	727.54
435.894	710.59
436.269	724.6
436.644	731.61
437.02	751.27
437.395	746.07
437.77	768.67
438.145	776.58
438.52	781.1
438.895	759.17
439.271	777.25
439.646	793.98
440.021	781.77
440.395	796.91
440.77	802.79
441.145	809.12
441.52	826.52
441.895	831.26
442.27	816.8
442.645	826.52
443.019	838.49
443.394	839.17
443.769	849.34
444.143	852.96
444.518	850.25
444.892	857.25
445.267	875.33
445.641	857.93
446.016	865.84
446.39	911.04
446.764	898.61
447.139	891.6
447.513	897.7
447.887	897.25
448.262	908.78
448.636	889.57
449.01	927.53
449.384	929.34
449.758	939.28
450.132	925.5
450.506	935.44
450.88	959.4
451.254	989.68
451.628	968.21
452.002	959.17
452.376	978.38
452.75	996.23
453.123	1012.95
453.497	1041.43
453.871	1034.42
454.244	1038.49
454.618	1028.55
454.992	1073.74
455.365	1053.4
455.739	1107.87
456.112	1131.59
456.486	1114.42
456.859	1100.86
457.232	1123.91
457.606	1136.79
457.979	1160.52
458.352	1140.41
458.725	1178.82
459.099	1192.38
459.472	1238.26
459.845	1242.55
460.218	1254.76
460.591	1249.56
460.964	1273.06
461.337	1318.71
461.71	1303.12
462.083	1304.02
462.456	1306.28
462.829	1345.6
463.201	1358.03
463.574	1372.04
463.947	1408.42
464.32	1435.32
464.692	1458.82
465.065	1449.1
465.438	1461.08
465.81	1484.81
466.183	1530.23
466.555	1544.92
466.928	1533.84
467.3	1589.21
467.672	1624.46
468.045	1617.91
468.417	1632.37
468.789	1684.8
469.161	1681.41
469.534	1723.9
469.906	1755.08
470.278	1813.84
470.65	1824.23
471.022	1824.01
471.394	1906.49
471.766	1926.38
472.138	1936.55
472.51	1990.78
472.882	2027.39
473.253	2056.32
473.625	2099.7
473.997	2146.48
474.369	2194.39
474.74	2255.86
475.112	2298.8
475.484	2345.35
475.855	2391.22
476.227	2473.93
476.598	2527.49
476.97	2574.04
477.341	2679.35
477.713	2688.39
478.084	2715.96
478.455	2823.75
478.827	2884.32
479.198	3006.12
479.569	3028.49
479.94	3166.8
480.311	3183.52
480.682	3285.44
481.053	3395.26
481.424	3491.76
481.795	3578.54
482.166	3627.12
482.537	3726.1
482.908	3880.67
483.279	3940.11
483.65	3986.66
484.021	4178.52
484.391	4279.31
484.762	4313.88
485.133	4395.01
485.503	4519.75
485.874	4644.72
486.244	4725.17
486.615	4881.78
486.985	4953.64
487.356	5135.56
487.726	5181.66
488.097	5383.23
488.467	5424.59
488.837	5570.12
489.207	5742.77
489.578	5862.32
489.948	5947.97
490.318	6070.22
490.688	6168.98
491.058	6341.18
491.428	6499.81
491.798	6531.9
492.168	6700.26
492.538	6863.65
492.908	6891.44
493.278	7119.23
493.648	7176.63
494.017	7278.78
494.387	7410.98
494.757	7530.07
495.126	7655.94
495.496	7778.65
495.866	7896.39
496.235	8044.18
496.605	8135.03
496.974	8226.78
497.344	8362.82
497.713	8445.98
498.082	8487.33
498.452	8640.32
498.821	8728.46
499.19	8774.78
499.559	8867.66
499.928	9038.28
500.298	9130.25
500.667	9115.57
501.036	9187.2
501.405	9273.3
501.774	9443.47
502.143	9513.3
502.512	9567.76
502.88	9638.04
503.249	9738.15
503.618	9772.05
503.987	9918.93
504.356	9921.87
504.724	9995.77
505.093	10031.25
505.462	10103.11
505.83	10182.66
506.199	10252.48
506.567	10412.71
506.936	10379.26
507.304	10516.66
507.672	10553.72
508.041	10610.89
508.409	10790.78
508.777	10739.25
509.145	10823.32
509.514	10822.41
509.882	10902.41
510.25	10907.83
510.618	10972.92
510.986	11045.23
511.354	11118
511.722	11143.99
512.09	11207.49
512.458	11241.84
512.826	11329.74
513.193	11338.11
513.561	11407.03
513.929	11475.05
514.297	11541.04
514.664	11600.02
515.032	11557.99
515.4	11620.13
515.767	11638.44
516.135	11693.35
516.502	11618.78
516.869	11743.52
517.237	11814.25
517.604	11731.54
517.972	11855.38
518.339	11848.15
518.706	11885.21
519.073	11897.41
519.44	11931.76
519.808	11983.06
520.175	11967.02
520.542	12122.04
520.909	12126.56
521.276	12040.23
521.643	12097.41
522.009	12083.85
522.376	12158.65
522.743	12130.18
523.11	12286.33
523.477	12376.04
523.843	12385.99
524.21	12515.48
524.577	12402.26
524.943	12423.28
525.31	12464.4
525.676	12473.9
526.043	12522.71
526.409	12476.38
526.776	12563.16
527.142	12542.82
527.508	12556.83
527.874	12528.13
528.241	12656.72
528.607	12551.86
528.973	12576.04
529.339	12612.42
529.705	12693.55
530.071	12681.8
530.437	12726.77
530.803	12751.85
531.169	12644.51
531.535	12555.93
531.901	12589.82
532.267	12617.85
532.632	12606.1
532.998	12621.69
533.364	12602.03
533.73	12642.48
534.095	12647.22
534.461	12583.72
534.826	12606.77
535.192	12594.57
535.557	12595.25
535.923	12500.56
536.288	12580.33
536.653	12501.69
537.019	12409.49
537.384	12346.21
537.749	12338.31
538.114	12351.19
538.479	12262.15
538.845	12275.71
539.21	12220.34
539.575	12258.08
539.94	12138.54
540.305	12232.77
540.67	12145.99
541.034	12145.77
541.399	12084.07
541.764	12013.79
542.129	12021.93
542.494	12065.77
542.858	11986.9
543.223	11929.28
543.587	11912.1
543.952	11886.57
544.316	11865.1
544.681	11797.08
545.045	11858.32
545.41	11840.47
545.774	11734.03
546.138	11699.9
546.503	11737.42
546.867	11627.82
547.231	11652.67
547.595	11632.56
547.959	11561.38
548.324	11556.86
548.688	11436.86
549.052	11548.5
549.416	11512.34
549.779	11461.04
550.143	11345.56
550.507	11394.6
550.871	11363.42
551.235	11290.42
551.599	11310.31
551.962	11255.62
552.326	11228.5
552.689	11211.1
553.053	11140.6
553.417	11095.85
553.78	11236.41
554.143	11101.28
554.507	11089.3
554.87	11079.81
555.234	11105.8
555.597	10969.08
555.96	11062.63
556.323	11082.97
556.686	11054.05
557.05	11072.35
557.413	10983.31
557.776	10898.8
558.139	10978.12
558.502	10999.58
558.865	10929.3
559.228	10993.93
559.59	10984.22
559.953	10953.94
560.316	11070.32
560.679	10892.47
561.041	11022.18
561.404	11004.56
561.767	11001.62
562.129	10914.84
562.492	10957.1
562.854	10935.86
563.217	10978.57
563.579	10993.48
563.941	11055.85
564.304	11042.07
564.666	11045.91
565.028	11074.61
565.39	11056.08
565.753	11062.41
566.115	11117.09
566.477	11046.36
566.839	11131.56
567.201	11086.14
567.563	11078.9
567.925	11180.82
568.287	11148.96
568.648	11087.49
569.01	11131.78
569.372	11117.55
569.734	11125.68
570.095	11244.55
570.457	11191.89
570.819	11219.69
571.18	11178.79
571.542	11211.1
571.903	11202.06
572.265	11235.51
572.626	11205.45
572.987	11249.97
573.349	11260.59
573.71	11233.7
574.071	11227.6
574.432	11296.07
574.794	11393.92
575.155	11283.87
575.516	11268.73
575.877	11311.67
576.238	11272.34
576.599	11329.74
576.96	11242.74
577.32	11286.58
577.681	11378.33
578.042	11332.68
578.403	11396.41
578.763	11358.22
579.124	11350.76
579.485	11310.54
579.845	11316.19
580.206	11316.41
580.566	11386.47
580.927	11319.35
581.287	11352.57
581.648	11290.2
582.008	11416.3
582.368	11346.69
582.728	11357.54
583.089	11360.7
583.449	11348.95
583.809	11282.74
584.169	11286.13
584.529	11263.31
584.889	11333.59
585.249	11310.99
585.609	11273.47
585.969	11334.72
586.329	11321.61
586.688	11306.47
587.048	11235.74
587.408	11203.19
587.768	11241.61
588.127	11201.39
588.487	11189.64
588.846	11185.57
589.206	11106.02
589.565	11161.61
589.925	11186.25
590.284	11067.15
590.643	11188.73
591.003	11180.6
591.362	11179.69
591.721	11198.45
592.08	11180.14
592.44	11174.49
592.799	11190.31
593.158	11153.93
593.517	11080.03
593.876	11092.24
594.235	11007.72
594.593	11063.08
594.952	11065.34
595.311	11056.76
595.67	11127.94
596.029	11157.09
596.387	11118.68
596.746	11078.45
597.104	11111.45
597.463	11076.19
597.822	11064.67
598.18	11015.63
598.538	11096.53
598.897	11061.95
599.255	11011.11
599.613	11159.13
599.972	11071.22
600.33	11104.89
600.688	11042.75
601.046	11087.04
601.404	11129.98
601.762	11104.21
602.12	11167.71
602.478	11057.44
602.836	11120.26
603.194	11072.35
603.552	11164.55
603.91	10993.03
604.268	11011.56
604.625	10990.54
604.983	11112.35
605.341	11006.14
605.698	11115.74
606.056	11073.93
606.413	11021.05
606.771	11106.93
607.128	11100.6
607.485	11045.23
607.843	11009.07
608.2	11137.43
608.557	11165.46
608.914	11053.59
609.272	11129.3
609.629	11140.82
609.986	11185.79
610.343	11106.25
610.7	11174.49
611.057	11201.39
611.414	11131.33
611.771	11155.51
612.127	11266.7
612.484	11265.11
612.841	11211.33
613.198	11144.89
613.554	11182.4
613.911	11274.6
614.267	11220.82
614.624	11208.84
614.98	11290.42
615.337	11188.96
615.693	11266.24
616.05	11212.91
616.406	11322.96
616.762	11261.72
617.118	11331.55
617.475	11301.5
617.831	11309.63
618.187	11280.93
618.543	11336.75
618.899	11330.42
619.255	11392.79
619.611	11395.73
619.967	11287.03
620.323	11414.71
620.678	11395.96
621.034	11369.74
621.39	11360.03
621.746	11305.79
622.101	11416.97
622.457	11316.86
622.812	11390.31
623.168	11426.24
623.523	11374.94
623.879	11448.84
624.234	11366.13
624.589	11394.83
624.945	11408.16
625.3	11447.93
625.655	11353.7
626.01	11462.17
626.365	11351.44
626.72	11340.59
627.075	11410.87
627.43	11408.16
627.785	11348.28
628.14	11333.59
628.495	11345.34
628.85	11323.42
629.205	11300.37
629.559	11336.3
629.914	11329.52
630.269	11348.95
630.623	11275.51
630.978	11242.74
631.332	11319.58
631.687	11246.36
632.041	11229.41
632.396	11248.39
632.75	11235.74
633.104	11308.95
633.459	11196.41
633.813	11155.51
634.167	11200.26
634.521	11193.25
634.875	11236.41
635.229	11209.75
635.583	11163.87
635.937	11120.48
636.291	11195.96
636.645	11092.91
636.999	11130.65
637.352	11110.99
637.706	11046.14
638.06	11036.64
638.413	11038.9
638.767	10965.01
639.121	10992.58
639.474	11013.14
639.828	11029.87
640.181	11013.14
640.534	10979.25
640.888	11017.44
641.241	10969.53
641.594	10930.88
641.947	10929.08
642.301	10969.98
642.654	10904.9
643.007	10988.06
643.36	10882.75
643.713	10889.3
644.066	10911.45
644.419	10891.79
644.771	10826.93
645.124	10677.56
645.477	10637.56
645.83	10602.08
646.182	10554.85
646.535	10542.65
646.888	10600.5
647.24	10510.33
647.593	10541.29
647.945	10547.17
648.298	10498.13
648.65	10535.87
649.002	10434.63
649.355	10494.96
649.707	10468.98
650.059	10495.42
650.411	10649.31
650.763	10722.08
651.115	10792.36
651.467	10640.27
651.819	10788.52
652.171	10734.05
652.523	10675.75
652.875	10713.94
653.227	10653.83
653.578	10807.5
653.93	10746.93
654.282	10682.98
654.633	10678.24
654.985	10703.09
655.337	10736.31
655.688	10710.1
656.039	10802.3
656.391	10737.67
656.742	10735.41
657.094	10680.27
657.445	10781.06
657.796	10727.5
658.147	10743.77
658.498	10668.07
658.849	10763.88
659.2	10748.06
659.551	10744.45
659.902	10757.1
660.253	10708.97
660.604	10730.44
660.955	10722.98
661.306	10747.39
661.656	10760.72
662.007	10793.04
662.358	10775.18
662.708	10762.53
663.059	10766.6
663.409	10730.66
663.76	10708.07
664.11	10807.27
664.461	10789.19
664.811	10781.06
665.161	10763.43
665.511	10789.87
665.862	10745.13
666.212	10809.08
666.562	10849.08
666.912	10783.09
667.262	10783.77
667.612	10752.13
667.962	10783.09
668.312	10815.41
668.662	10774.96
669.011	10830.77
669.361	10827.16
669.711	10775.63
670.06	10737.44
670.41	10735.41
670.76	10712.13
671.109	10789.42
671.459	10709.42
671.808	10752.13
672.157	10819.7
672.507	10683.21
672.856	10659.48
673.205	10692.7
673.554	10742.42
673.904	10715.07
674.253	10761.17
674.602	10692.47
674.951	10552.36
675.3	10504.23
675.649	10669.42
675.998	10668.07
676.346	10685.02
676.695	10677.78
677.044	10617.9
677.393	10638.01
677.741	10584.23
678.09	10598.01
678.438	10477.56
678.787	10516.21
679.135	10534.51
679.484	10504.23
679.832	10508.98
680.181	10489.54
680.529	10522.99
680.877	10419.03
681.225	10428.07
681.573	10527.05
681.922	10388.07
682.27	10360.05
682.618	10433.5
682.966	10383.1
683.314	10355.31
683.661	10268.53
684.009	10240.06
684.357	10166.61
684.705	10245.48
685.053	10183.56
685.4	10226.04
685.748	10188.53
686.095	10114.41
686.443	10112.83
686.79	10119.61
687.138	10094.07
687.485	10149.21
687.832	10089.33
688.18	9989.89
688.527	10031.7
688.874	9938.59
689.221	9939.5
689.568	9954.64
689.915	9937.92
690.262	9955.32
690.609	9822.89
690.956	9883.23
691.303	9818.82
691.65	9730.01
691.997	9795.1
692.344	9693.63
692.69	9663.35
693.037	9641.43
693.383	9544.93
693.73	9588.32
694.077	9529.79
694.423	9560.53
694.769	9545.38
695.116	9486.86
695.462	9482.11
695.808	9382
696.155	9429.68
696.501	9316.01
696.847	9396.91
697.193	9272.62
697.539	9236.01
697.885	9191.5
698.231	9128.9
698.577	9158.5
698.923	9178.84
699.269	9126.64
699.614	9022.91
699.96	9033.76
700.306	9010.48
700.651	9052.74
700.997	8867.44
701.342	8917.6
701.688	8911.28
702.033	8805.29
702.379	8791.05
702.724	8824.5
703.069	8788.57
703.415	8728
703.76	8749.7
704.105	8686.88
704.45	8595.81
704.795	8598.74
705.14	8625.18
705.485	8584.28
705.83	8472.42
706.175	8553.09
706.52	8498.18
706.865	8498.63
707.209	8513.1
707.554	8438.97
707.899	8454.79
708.243	8392.87
708.588	8357.17
708.932	8300.45
709.277	8267.68
709.621	8271.52
709.966	8235.14
710.31	8256.83
710.654	8142.48
710.998	8213.67
711.342	8221.8
711.687	8175.93
712.031	8174.35
712.375	8109.49
712.719	8145.87
713.063	8070.85
713.407	8162.6
713.75	8003.05
714.094	8107.91
714.438	8076.5
714.782	8093.9
715.125	8020.9
715.469	7982.49
715.812	7987.46
716.156	7987.91
716.499	7947.91
716.843	7907.01
717.186	7859.78
717.53	7921.25
717.873	7947.69
718.216	7932.09
718.559	7806.45
718.902	7817.75
719.246	7835.15
719.589	7842.83
719.932	7850.74
720.275	7785.66
720.617	7784.53
720.96	7841.7
721.303	7784.53
721.646	7808.93
721.989	7791.53
722.331	7781.82
722.674	7741.36
723.016	7747.92
723.359	7726.45
723.701	7745.21
724.044	7680.35
724.386	7675.6
724.729	7729.16
725.071	7700.91
725.413	7704.53
725.755	7629.95
726.097	7663.4
726.439	7601.71
726.782	7625.66
727.124	7703.4
727.465	7661.14
727.807	7590.41
728.149	7630.86
728.491	7652.55
728.833	7589.05
729.175	7587.02
729.516	7583.4
729.858	7607.81
730.199	7635.15
730.541	7561.03
730.882	7588.15
731.224	7632.89
731.565	7499.11
731.906	7537.08
732.248	7566
732.589	7539.34
732.93	7550.86
733.271	7515.83
733.612	7573.46
733.953	7540.69
734.294	7545.66
734.635	7507.25
734.976	7561.93
735.317	7561.26
735.658	7503.18
735.999	7515.16
736.339	7515.61
736.68	7539.56
737.021	7607.81
737.361	7537.53
737.702	7546.12
738.042	7603.97
738.383	7570.07
738.723	7637.19
739.063	7613.68
739.404	7679.22
739.744	7529.62
740.084	7609.62
740.424	7585.44
740.764	7610.52
741.104	7675.83
741.444	7656.39
741.784	7698.65
742.124	7741.36
742.464	7713.12
742.804	7733.23
743.143	7733.45
743.483	7734.58
743.823	7798.09
744.162	7795.6
744.502	7857.75
744.841	7846.67
745.181	7941.58
745.52	7916.27
745.86	7980.68
746.199	7904.98
746.538	7984.97
746.877	8057.29
747.216	8097.29
747.556	8137.06
747.895	8177.51
748.234	8201.69
748.573	8242.14
748.911	8273.55
749.25	8364.85
749.589	8365.75
749.928	8430.16
750.267	8546.77
750.605	8552.19
750.944	8707.67
751.283	8655.24
751.621	8767.78
751.96	8808
752.298	8894.78
752.636	9022.91
752.975	9111.72
753.313	9145.62
753.651	9343.36
753.989	9383.58
754.327	9504.93
754.666	9523.92
755.004	9738.6
755.342	9845.49
755.679	9891.59
756.017	10011.14
756.355	10236.67
756.693	10271.24
757.031	10424.68
757.368	10550.78
757.706	10684.11
758.044	10809.76
758.381	11004.78
758.719	11129.07
759.056	11194.15
759.394	11401.61
759.731	11466.24
760.068	11638.66
760.405	11683.18
760.743	11899.67
761.08	12172.66
761.417	12244.3
761.754	12324.97
762.091	12502.82
762.428	12681.35
762.765	12808.35
763.102	13077.72
763.438	13162.01
763.775	13260.77
764.112	13430.03
764.449	13612.17
764.785	13721.09
765.122	13857.81
765.458	13991.82
765.795	14132.16
766.131	14366.73
766.467	14388.87
766.804	14465.93
767.14	14656.21
767.476	14793.83
767.812	14921.06
768.148	15108.63
768.485	15243.54
768.821	15199.7
769.157	15526.24
769.492	15654.38
769.828	15641.5
770.164	15709.52
770.5	15852.11
770.836	16013.69
771.171	15967.36
771.507	16145.66
771.842	16168.94
772.178	16310.18
772.513	16378.88
772.849	16370.97
773.184	16500
773.519	16664.75
773.855	16571.41
774.19	16675.82
774.525	16768.02
774.86	16934.12
775.195	16990.61
775.53	16902.93
775.865	16998.3
776.2	16945.19
776.535	16960.78
776.87	17073.32
777.205	17143.6
777.539	17124.17
777.874	17280.1
778.209	17230.83
778.543	17250.72
778.878	17239.87
779.212	17315.35
779.547	17234
779.881	17399.19
780.215	17351.28
780.55	17503.14
780.884	17360.09
781.218	17306.76
781.552	17383.37
781.886	17428.34
782.22	17499.3
782.554	17395.35
782.888	17351.06
783.222	17331.39
783.556	17347.89
783.889	17290.72
784.223	17313.77
784.557	17287.1
784.89	17402.58
785.224	17349.7
785.557	17216.14
785.891	17261.34
786.224	17272.64
786.558	17261.79
786.891	17139.76
787.224	17131.4
787.557	17164.39
787.891	17168.46
788.224	17228.12
788.557	17124.17
788.89	17112.64
789.223	17095.02
789.556	17034.45
789.888	17022.02
790.221	17047.11
790.554	16880.56
790.887	16916.94
791.219	16792.88
791.552	16916.94
791.884	16845.31
792.217	16766.66
792.549	16838.98
792.882	16702.26
793.214	16658.64
793.546	16665.88
793.879	16636.72
794.211	16435.6
794.543	16692.99
794.875	16551.98
795.207	16554.69
795.539	16587.46
795.871	16555.82
796.203	16357.18
796.535	16362.15
796.867	16269.95
797.198	16292.1
797.53	16370.52
797.862	16248.26
798.193	16358.99
798.525	16186.79
798.856	16235.6
799.188	16056.17
799.519	15959.68
799.85	15968.94
800.182	16038.55
800.513	15954.71
800.844	15835.84
801.175	15915.39
801.506	15896.18
801.837	15830.42
802.168	15766.46
802.499	15732.57
802.83	15653.02
803.161	15579.35
803.491	15593.14
803.822	15568.05
804.153	15530.99
804.483	15502.74
804.814	15431.56
805.145	15439.01
805.475	15401.05
805.805	15325.35
806.136	15440.37
806.466	15370.77
806.796	15309.53
807.126	15194.05
807.457	15274.5
807.787	15152.02
808.117	15140.04
808.447	15108.4
808.777	15170.77
809.107	15069.31
809.436	15026.6
809.766	14996.99
810.096	15021.62
810.426	14940.5
810.755	14889.2
811.085	14987.5
811.414	14841.97
811.744	14729.43
812.073	14733.95
812.403	14799.26
812.732	14646.27
813.061	14753.84
813.39	14568.98
813.719	14622.77
814.049	14661.63
814.378	14569.89
814.707	14619.6
815.036	14510
815.365	14468.42
815.693	14360.4
816.022	14350.46
816.351	14378.93
816.68	14223.23
817.008	14332.83
817.337	14192.27
817.665	14195.43
817.994	14165.15
818.322	14149.78
818.651	14228.65
818.979	14086.51
819.307	14165.38
819.636	14215.32
819.964	14017.58
820.292	14161.76
820.62	14117.24
820.948	13968.77
821.276	14141.42
821.604	14029.33
821.932	14103.46
822.259	14085.15
822.587	14048.54
822.915	13998.83
823.243	14071.37
823.57	14015.78
823.898	14026.4
824.225	13999.5
824.553	13916.34
824.88	14017.81
825.207	13985.49
825.535	13960.64
825.862	14011.93
826.189	13955.66
826.516	14109.11
826.843	14039.05
827.17	14088.32
827.497	14108.43
827.824	14038.83
828.151	14120.63
828.478	14059.16
828.805	14101.42
829.131	14086.73
829.458	14071.14
829.785	13919.73
830.111	14023.68
830.438	14143
830.764	14023.68
831.09	14097.13
831.417	14014.42
831.743	14061.88
832.069	14058.71
832.395	13990.47
832.722	14056
833.048	14014.87
833.374	14052.84
833.7	13903.91
834.026	13977.81
834.351	14020.52
834.677	13912.05
835.003	13980.75
835.329	13920.18
835.654	13936.68
835.98	13832.5
836.306	13831.83
836.631	13792.28
836.956	13940.3
837.282	13843.8
837.607	13825.95
837.932	13773.07
838.258	13804.03
838.583	13760.19
838.908	13649.91
839.233	13701.66
839.558	13656.01
839.883	13581.44
840.208	13646.07
840.533	13607.2
840.858	13557.71
841.182	13560.19
841.507	13545.96
841.832	13456.24
842.156	13524.26
842.481	13500.99
842.805	13412.18
843.13	13434.55
843.454	13433.87
843.778	13270.71
844.103	13301.9
844.427	13220.99
844.751	13362.46
845.075	13243.82
845.399	13162.46
845.723	13109.36
846.047	13098.51
846.371	13039.76
846.695	13096.7
847.019	12977.38
847.343	12922.47
847.666	12821.68
847.99	12731.97
848.313	12830.27
848.637	12652.87
848.96	12606.77
849.284	12549.37
849.607	12459.43
849.931	12418.3
850.254	12385.31
850.577	12392.54
850.9	12216.5
851.223	12254.24
851.546	12259.44
851.869	12146.45
852.192	12200.91
852.515	12056.73
852.838	12030.29
853.161	12095.15
853.483	11988.48
853.806	11921.82
854.129	11961.59
854.451	11826.68
854.774	11794.59
855.096	11769.51
855.419	11728.38
855.741	11695.61
856.063	11653.35
856.385	11658.1
856.708	11562.51
857.03	11493.81
857.352	11573.81
857.674	11456.29
857.996	11429.4
858.318	11383.98
858.64	11390.99
858.961	11387.6
859.283	11338.33
859.605	11273.47
859.926	11250.2
860.248	11209.97
860.57	11125.46
860.891	11218.11
861.212	11099.92
861.534	11125
861.855	11090.88
862.176	11056.76
862.498	11093.14
862.819	11082.52
863.14	10940.15
863.461	10918.68
863.782	10979.25
864.103	10992.13
864.424	10944.44
864.745	10911.22
865.065	10919.59
865.386	10823.09
865.707	10850.44
866.027	10781.74
866.348	10788.29
866.668	10818.57
866.989	10758.46
867.309	10741.29
867.63	10685.02
867.95	10738.12
868.27	10638.92
868.59	10623.32
868.91	10654.73
869.23	10666.49
869.55	10564.79
869.87	10669.65
870.19	10612.48
870.51	10595.3
870.83	10627.16
871.15	10568.18
871.469	10466.49
871.789	10610.89
872.109	10484.79
872.428	10409.32
872.748	10417.9
873.067	10495.87
873.386	10432.14
873.706	10352.37
874.025	10394.85
874.344	10374.74
874.663	10374.06
874.982	10312.82
875.301	10399.37
875.62	10283.67
875.939	10291.35
876.258	10278.47
876.577	10248.42
876.896	10257.68
877.214	10212.71
877.533	10201.41
877.852	10201.64
878.17	10179.94
878.489	10203.9
878.807	10165.03
879.125	10112.83
879.444	10164.35
879.762	10069.66
880.08	10084.35
880.398	10034.64
880.716	10152.37
881.034	10021.53
881.352	10013.17
881.67	9973.85
881.988	10003
882.306	9923.45
882.624	9790.35
882.941	9860.63
883.259	9896.79
883.577	9821.08
883.894	9820.41
884.212	9785.15
884.529	9763.68
884.846	9802.55
885.164	9712.84
885.481	9668.09
885.798	9703.57
886.115	9591.26
886.432	9642.33
886.75	9605.5
887.067	9710.8
887.383	9570.24
887.7	9579.28
888.017	9555.33
888.334	9489.57
888.651	9485.27
888.967	9450.92
889.284	9407.76
889.6	9412.05
889.917	9341.1
890.233	9365.05
890.55	9351.04
890.866	9299.52
891.182	9271.49
891.498	9284.15
891.815	9192.17
892.131	9176.58
892.447	9137.49
892.763	9155.34
893.079	9090.26
893.395	9085.74
893.71	9039.18
894.026	9012.29
894.342	8985.63
894.657	8941.11
894.973	8953.31
895.289	8919.19
895.604	8895.46
895.92	8819.53
896.235	8819.08
896.55	8723.26
896.865	8758.96
897.181	8716.25
897.496	8738.17
897.811	8725.07
898.126	8640.1
898.441	8591.29
898.756	8570.72
899.071	8508.58
899.386	8502.93
899.7	8433.78
900.015	8443.04
900.33	8397.17
900.644	8427.22
900.959	8379.54
901.273	8371.4
901.588	8267.23
901.902	8209.6
902.216	8209.83
902.531	8226.55
902.845	8231.07
903.159	8095.71
903.473	8036.27
903.787	8017.74
904.101	8031.98
904.415	8036.72
904.729	8005.99
905.042	7960.57
905.356	7941.36
905.67	7892.32
905.984	7896.16
906.297	7864.75
906.611	7784.98
906.924	7798.54
907.237	7784.07
907.551	7767.13
907.864	7700.69
908.177	7671.99
908.491	7634.93
908.804	7583.85
909.117	7548.83
909.43	7512.44
909.743	7504.08
910.056	7453.01
910.368	7453.24
910.681	7422.05
910.994	7392.67
911.307	7368.27
911.619	7331.66
911.932	7305.9
912.244	7272.9
912.557	7254.6
912.869	7172.34
913.181	7119.01
913.494	7188.16
913.806	7045.11
914.118	7115.39
914.43	7073.36
914.742	7048.05
915.054	6997.65
915.366	6989.29
915.678	6921.5
915.99	6865.91
916.302	6825.91
916.613	6783.2
916.925	6792.91
917.236	6789.75
917.548	6714.05
917.859	6795.85
918.171	6683.09
918.482	6690.32
918.794	6690.32
919.105	6626.14
919.416	6615.07
919.727	6559.02
920.038	6549.98
920.349	6545.24
920.66	6459.14
920.971	6495.07
921.282	6435.41
921.593	6403.09
921.903	6313.61
922.214	6338.69
922.525	6344.56
922.835	6278.35
923.146	6239.48
923.456	6273.15
923.767	6202.42
924.077	6215.3
924.387	6223.89
924.697	6156.32
925.008	6187.28
925.318	6169.43
925.628	6072.71
925.938	6062.54
926.248	5972.82
926.558	6026.16
926.867	6026.61
927.177	5961.07
927.487	5924.24
927.796	5852.6
928.106	5869.55
928.416	5905.25
928.725	5888.31
929.034	5822.54
929.344	5863.45
929.653	5803.11
929.962	5742.77
930.271	5714.98
930.581	5685.15
930.89	5648.31
931.199	5579.39
931.508	5668.88
931.817	5639.05
932.125	5612.15
932.434	5619.16
932.743	5487.19
933.051	5501.2
933.36	5480.86
933.669	5456.23
933.977	5451.48
934.286	5460.29
934.594	5422.1
934.902	5384.82
935.21	5326.29
935.519	5376.91
935.827	5360.64
936.135	5298.04
936.443	5292.62
936.751	5246.97
937.059	5250.58
937.367	5183.01
937.674	5216.01
937.982	5209.23
938.29	5134.2
938.597	5177.82
938.905	5062.56
939.213	5103.02
939.52	5066.86
939.827	5021.44
940.135	5003.58
940.442	4962.23
940.749	4975.11
941.056	4996.58
941.363	4880.42
941.67	4922.46
941.977	4879.52
942.284	4863.47
942.591	4836.13
942.898	4861.44
943.205	4828.45
943.511	4799.97
943.818	4826.41
944.125	4751.16
944.431	4744.83
944.738	4704.16
945.044	4699.86
945.35	4639.52
945.657	4603.37
945.963	4604.95
946.269	4573.54
946.575	4629.36
946.881	4562.01
947.187	4571.28
947.493	4531.96
947.799	4498.96
948.105	4510.94
948.41	4472.3
948.716	4453.09
949.022	4432.07
949.327	4400.66
949.633	4358.63
949.938	4380.1
950.244	4403.82
950.549	4348.46
950.854	4336.48
951.16	4296.26
951.465	4249.93
951.77	4286.99
952.075	4261.91
952.38	4200.89
952.685	4204.06
952.99	4182.36
953.294	4209.25
953.599	4167.45
953.904	4127.22
954.209	4091.29
954.513	4110.27
954.818	4061.91
955.122	4085.64
955.426	4085.42
955.731	4051.52
956.035	4000.45
956.339	4029.6
956.643	3981.24
956.948	3917.51
957.252	3965.64
957.556	3949.37
957.86	3955.02
958.163	3883.16
958.467	3903.73
958.771	3885.87
959.075	3849.49
959.378	3811.52
959.682	3842.48
959.985	3810.62
960.289	3810.39
960.592	3746.22
960.896	3778.3
961.199	3705.31
961.502	3713.45
961.805	3671.41
962.108	3677.52
962.411	3674.35
962.714	3632.09
963.017	3637.07
963.32	3681.36
963.623	3595.94
963.926	3554.36
964.228	3595.48
964.531	3567.69
964.833	3551.64
965.136	3531.98
965.438	3536.96
965.741	3484.3
966.043	3509.39
966.345	3446.11
966.648	3450.18
966.95	3464.87
967.252	3436.17
967.554	3377.19
967.856	3371.76
968.158	3369.5
968.46	3346.45
968.761	3350.97
969.063	3339.22
969.365	3307.36
969.666	3324.31
969.968	3266.91
970.269	3211.99
970.571	3300.13
970.872	3254.93
971.174	3239.79
971.475	3266.68
971.776	3204.53
972.077	3227.36
972.378	3183.97
972.679	3196.62
972.98	3137.42
973.281	3119.56
973.582	3137.19
973.883	3129.73
974.183	3091.09
974.484	3084.09
974.785	3054.93
975.085	3045.22
975.386	3084.54
975.686	3003.18
975.986	3033.24
976.287	2991.43
976.587	2972
976.887	3021.71
977.187	2939.68
977.487	2981.26
977.787	2922.51
978.087	2935.84
978.387	2925.22
978.687	2915.73
978.987	2882.06
979.286	2878.67
979.586	2904.2
979.885	2851.55
980.185	2822.62
980.484	2832.34
980.784	2814.26
981.083	2799.12
981.382	2817.65
981.682	2797.77
981.981	2741.5
982.28	2762.96
982.579	2769.29
982.878	2753.7
983.177	2693.14
983.475	2709.18
983.774	2668.96
984.073	2673.47
984.372	2646.36
984.67	2709.18
984.969	2670.54
985.267	2623.08
985.566	2614.49
985.864	2599.58
986.162	2583.53
986.461	2556.87
986.759	2595.06
987.057	2565.68
987.355	2572.23
987.653	2534.5
987.951	2525.68
988.249	2510.32
988.547	2511.67
988.844	2511.9
989.142	2468.51
989.44	2434.61
989.737	2494.04
990.035	2435.06
990.332	2419.02
990.63	2438
990.927	2423.31
991.224	2399.81
991.521	2384.22
991.819	2376.53
992.116	2349.87
992.413	2350.55
992.71	2340.83
993.006	2350.32
993.303	2344.22
993.6	2308.74
993.897	2292.24
994.193	2294.5
994.49	2289.76
994.787	2288.17
995.083	2245.01
995.379	2225.58
995.676	2214.28
995.972	2199.82
996.268	2204.33
996.565	2176.99
996.861	2200.72
997.157	2184.22
997.453	2168.86
997.749	2164.56
998.044	2138.12
998.34	2125.69
998.636	2090.89
998.932	2147.84
999.227	2118.69
999.523	2100.16
999.818	2091.12
1000.114	2072.59
1000.409	2067.39
1000.704	2056.32
1001	2035.53
1001.295	2014.28
1001.59	2040.27
1001.885	2006.6
1002.18	2005.02
1002.475	1984.45
1002.77	1964.57
1003.065	1953.95
1003.359	1970.44
1003.654	1962.08
1003.949	1924.79
1004.243	1894.96
1004.538	1913.95
1004.832	1872.14
1005.127	1870.56
1005.421	1891.57
1005.715	1844.57
1006.009	1865.36
1006.304	1863.55
1006.598	1860.61
1006.892	1832.37
1007.186	1817.68
1007.48	1819.49
1007.773	1818.36
1008.067	1800.73
1008.361	1772.93
1008.655	1763.67
1008.948	1752.82
1009.242	1756.21
1009.535	1730
1009.829	1730.9
1010.122	1725.7
1010.415	1720.28
1010.708	1706.04
1011.001	1671.47
1011.295	1699.04
1011.588	1685.25
1011.881	1657
1012.173	1635.54
1012.466	1645.25
1012.759	1625.59
1013.052	1652.94
1013.344	1616.1
1013.637	1638.47
1013.93	1597.12
1014.222	1594.41
1014.514	1572.94
1014.807	1580.85
1015.099	1570.45
1015.391	1574.07
1015.683	1540.17
1015.976	1560.74
1016.268	1534.07
1016.56	1489.33
1016.851	1515.99
1017.143	1504.01
1017.435	1494.07
1017.727	1485.48
1018.018	1470.12
1018.31	1480.51
1018.602	1456.33
1018.893	1457.69
1019.185	1449.1
1019.476	1427.86
1019.767	1429.21
1020.058	1382.66
1020.35	1411.59
1020.641	1394.19
1020.932	1372.94
1021.223	1356.67
1021.514	1365.71
1021.804	1346.96
1022.095	1363.45
1022.386	1327.07
1022.677	1303.12
1022.967	1285.94
1023.258	1325.49
1023.548	1296.79
1023.839	1288.2
1024.129	1271.03
1024.419	1284.81
1024.709	1264.47
1025	1255.66
1025.29	1239.39
1025.58	1244.81
1025.87	1228.32
1026.16	1212.95
1026.449	1235.09
1026.739	1210.69
1027.029	1213.63
1027.319	1204.59
1027.608	1192.38
1027.898	1146.51
1028.187	1174.31
1028.477	1154.19
1028.766	1157.58
1029.055	1154.19
1029.344	1147.64
1029.634	1127.75
1029.923	1126.17
1030.212	1129.33
1030.501	1119.62
1030.79	1115.55
1031.078	1113.74
1031.367	1113.97
1031.656	1090.69
1031.945	1088.88
1032.233	1065.38
1032.522	1055.89
1032.81	1063.57
1033.099	1054.76
1033.387	1058.15
1033.675	1055.89
1033.963	1040.98
1034.251	1055.44
1034.54	1025.38
1034.828	982.22
1035.116	990.36
1035.403	1011.15
1035.691	1005.27
1035.979	970.69
1036.267	979.73
1036.554	974.99
1036.842	947.64
1037.129	956.91
1037.417	957.36
1037.704	954.2
1037.992	923.24
1038.279	924.14
1038.566	924.37
1038.853	924.37
1039.14	924.37
