Data from hue_120_FLMS001491_00026.txt Node
Date: Tue Feb 07 16:59:08 GMT 2017
User: dcchb
Spectrometer: FLMS00149
Trigger mode: 0
Integration Time (sec): 2.000000E-2
Scans to average: 10
Electric dark correction enabled: true
Nonlinearity correction enabled: false
Boxcar width: 0
XAxis mode: Wavelengths
Number of Pixels in Spectrum: 2048
>>>>>Begin Spectral Data<<<<<
341.393	-9.17
341.776	-9.17
342.16	-9.17
342.543	-39.45
342.927	-54.59
343.31	-50.75
343.693	-71.99
344.077	-80.13
344.46	-60.24
344.843	-54.81
345.226	-54.36
345.61	-27.02
345.993	-14.59
346.376	-13.01
346.759	-1.71
347.142	29.48
347.525	48.69
347.908	63.37
348.291	73.32
348.674	93.2
349.057	120.55
349.44	135.46
349.823	148.57
350.206	176.82
350.588	204.84
350.971	209.13
351.354	229.02
351.737	241.22
352.119	257.49
352.502	255.01
352.884	277.38
353.267	286.42
353.65	313.99
354.032	315.57
354.414	317.6
354.797	325.97
355.179	318.06
355.562	315.12
355.944	339.98
356.326	353.76
356.709	341.11
357.091	339.07
357.473	345.4
357.855	346.76
358.238	331.39
358.62	337.27
359.002	339.07
359.384	350.15
359.766	348.11
360.148	330.94
360.53	354.67
360.912	335.01
361.294	355.57
361.676	332.07
362.057	354.44
362.439	344.95
362.821	340.2
363.203	336.81
363.584	327.77
363.966	330.03
364.348	335.23
364.729	344.72
365.111	320.99
365.493	318.96
365.874	311.5
366.256	335.01
366.637	340.65
367.019	312.63
367.4	319.86
367.781	323.71
368.163	319.86
368.544	310.37
368.925	316.7
369.306	304.05
369.688	324.16
370.069	322.12
370.45	307.66
370.831	339.52
371.212	305.4
371.593	326.64
371.974	306.31
372.355	321.45
372.736	319.64
373.117	322.35
373.498	290.94
373.879	314.44
374.26	311.05
374.641	348.34
375.021	320.77
375.402	319.19
375.783	332.29
376.163	334.1
376.544	310.37
376.925	343.37
377.305	338.62
377.686	338.4
378.066	351.28
378.447	335.23
378.827	333.88
379.208	343.37
379.588	342.46
379.968	332.97
380.349	345.4
380.729	348.11
381.109	334.1
381.489	356.7
381.87	349.47
382.25	331.84
382.63	350.15
383.01	364.61
383.39	367.77
383.77	365.06
384.15	354.44
384.53	349.47
384.91	344.04
385.29	353.99
385.67	358.28
386.049	345.63
386.429	357.6
386.809	363.93
387.189	365.51
387.568	385.63
387.948	364.61
388.328	366.87
388.707	374.78
389.087	378.85
389.466	372.52
389.846	365.06
390.225	389.47
390.605	372.74
390.984	369.35
391.363	358.06
391.743	367.09
392.122	381.33
392.501	376.13
392.881	390.15
393.26	368.45
393.639	374.55
394.018	400.54
394.397	393.76
394.776	398.96
395.155	408.68
395.534	390.82
395.913	414.33
396.292	399.64
396.671	408.9
397.05	400.31
397.429	405.06
397.808	419.97
398.186	391.05
398.565	404.61
398.944	409.13
399.323	410.94
399.701	424.95
400.08	396.92
400.458	409.13
400.837	401.67
401.215	410.26
401.594	409.13
401.972	395.57
402.351	411.16
402.729	414.78
403.107	396.7
403.486	419.75
403.864	431.73
404.242	412.07
404.62	438.73
404.999	432.4
405.377	429.69
405.755	455
406.133	443.03
406.511	429.92
406.889	440.09
407.267	445.51
407.645	435.12
408.023	436.02
408.401	466.75
408.779	451.39
409.156	465.62
409.534	470.14
409.912	464.04
410.29	471.05
410.667	469.01
411.045	470.59
411.422	471.05
411.8	510.59
412.178	503.14
412.555	497.94
412.933	511.95
413.31	493.19
413.687	500.2
414.065	513.31
414.442	520.31
414.819	496.36
415.197	526.86
415.574	515.34
415.951	532.97
416.328	539.52
416.705	512.4
417.082	522.35
417.46	551.95
417.837	557.82
418.214	548.56
418.591	530.03
418.967	535.68
419.344	560.54
419.721	545.4
420.098	543.59
420.475	535.9
420.852	575.45
421.228	558.05
421.605	546.3
421.982	570.25
422.358	581.55
422.735	575.68
423.111	584.49
423.488	564.83
423.864	581.1
424.241	598.28
424.617	597.82
424.994	591.72
425.37	605.28
425.746	618.39
426.123	608.9
426.499	614.09
426.875	616.58
427.251	624.04
427.627	631.95
428.003	652.51
428.379	631.04
428.756	637.37
429.132	659.06
429.507	645.28
429.883	640.76
430.259	679.86
430.635	658.39
431.011	681.89
431.387	668.56
431.763	678.27
432.138	687.31
432.514	690.7
432.89	694.54
433.265	719.18
433.641	730.02
434.016	716.01
434.392	725.28
434.767	742.68
435.143	732.51
435.518	730.48
435.894	753.53
436.269	737.25
436.644	748.1
437.02	758.72
437.395	746.75
437.77	746.29
438.145	783.36
438.52	811.6
438.895	794.43
439.271	803.47
439.646	828.33
440.021	817.03
440.395	841.43
440.77	803.02
441.145	832.39
441.52	866.06
441.895	818.83
442.27	862.45
442.645	872.39
443.019	853.18
443.394	871.04
443.769	881.88
444.143	859.51
444.518	871.04
444.892	895.67
445.267	866.97
445.641	896.57
446.016	914.65
446.39	888.66
446.764	902.67
447.139	912.17
447.513	925.72
447.887	916.46
448.262	916.91
448.636	940.41
449.01	957.59
449.384	945.38
449.758	970.02
450.132	948.55
450.506	984.48
450.88	976.57
451.254	972.5
451.628	979.73
452.002	1014.54
452.376	1048.88
452.75	1021.31
453.123	1003.91
453.497	1048.21
453.871	1063.12
454.244	1081.43
454.618	1114.42
454.992	1059.51
455.365	1114.19
455.739	1106.28
456.112	1126.85
456.486	1107.41
456.859	1128.66
457.232	1181.76
457.606	1160.52
457.979	1171.59
458.352	1205.72
458.725	1213.17
459.099	1219.5
459.472	1242.78
459.845	1233.06
460.218	1280.29
460.591	1282.55
460.964	1288.88
461.337	1294.98
461.71	1337.92
462.083	1350.12
462.456	1359.16
462.829	1351.48
463.201	1405.03
463.574	1403
463.947	1417.24
464.32	1444.35
464.692	1461.53
465.065	1469.89
465.438	1482.09
465.81	1525.03
466.183	1536.1
466.555	1565.48
466.928	1580.17
467.3	1586.27
467.672	1615.2
468.045	1652.26
468.417	1655.65
468.789	1685.7
469.161	1711.69
469.534	1764.57
469.906	1788.07
470.278	1796.66
470.65	1851.12
471.022	1894.51
471.394	1936.77
471.766	1965.92
472.138	2008.63
472.51	2034.17
472.882	2117.56
473.253	2106.71
473.625	2195.3
473.997	2205.24
474.369	2225.13
474.74	2287.04
475.112	2353.71
475.484	2419.24
475.855	2449.98
476.227	2503.99
476.598	2592.12
476.97	2637.54
477.341	2714.15
477.713	2779.46
478.084	2813.58
478.455	2922.28
478.827	2950.98
479.198	3040.47
479.569	3121.6
479.94	3233.69
480.311	3312.55
480.682	3460.8
481.053	3540.8
481.424	3607.91
481.795	3650.17
482.166	3813.11
482.537	3838.42
482.908	4016.04
483.279	4101.69
483.65	4238.18
484.021	4288.8
484.391	4451.06
484.762	4509.36
485.133	4642.91
485.503	4707.55
485.874	4885.39
486.244	5006.52
486.615	5176.46
486.985	5304.37
487.356	5436.57
487.726	5532.38
488.097	5740.51
488.467	5755.65
488.837	5990.45
489.207	6104.35
489.578	6234.96
489.948	6415.52
490.318	6514.28
490.688	6629.76
491.058	6795.85
491.428	6906.58
491.798	7134.37
492.168	7323.75
492.538	7389.51
492.908	7541.82
493.278	7736.39
493.648	7876.05
494.017	7955.37
494.387	8093.9
494.757	8310.39
495.126	8437.17
495.496	8469.48
495.866	8595.58
496.235	8811.39
496.605	8977.72
496.974	9053.87
497.344	9191.95
497.713	9289.8
498.082	9457.48
498.452	9580.19
498.821	9663.57
499.19	9777.92
499.559	9925.49
499.928	10076.22
500.298	10135.2
500.667	10214.52
501.036	10276.89
501.405	10537
501.774	10478.92
502.143	10678.91
502.512	10705.58
502.88	10862.86
503.249	10890.43
503.618	11090.65
503.987	11138.56
504.356	11220.82
504.724	11214.27
505.093	11359.12
505.462	11419.23
505.83	11534.26
506.199	11677.76
506.567	11846.79
506.936	11822.84
507.304	12010.86
507.672	12014.92
508.041	12083.62
508.409	12126.79
508.777	12327.01
509.145	12345.31
509.514	12349.83
509.882	12483.61
510.25	12477.06
510.618	12536.94
510.986	12633.89
511.354	12714.57
511.722	12899.42
512.09	12972.64
512.458	12864.17
512.826	13034.33
513.193	13057.16
513.561	13075.69
513.929	13164.27
514.297	13247.43
514.664	13232.97
515.032	13348.45
515.4	13451.72
515.767	13441.78
516.135	13586.86
516.502	13452.4
516.869	13639.97
517.237	13695.78
517.604	13551.38
517.972	13668.89
518.339	13757.93
518.706	13711.6
519.073	13839.73
519.44	13874.99
519.808	13952.05
520.175	13867.3
520.542	14065.49
520.909	14042.67
521.276	14026.17
521.643	14116.56
522.009	14148.88
522.376	14238.59
522.743	14302.32
523.11	14311.59
523.477	14416.22
523.843	14409.44
524.21	14621.64
524.577	14604.91
524.943	14500.06
525.31	14592.03
525.676	14759.26
526.043	14677.91
526.409	14601.3
526.776	14877.9
527.142	14772.82
527.508	14846.94
527.874	14869.09
528.241	14884.45
528.607	14802.42
528.973	14963.77
529.339	14892.36
529.705	14942.76
530.071	15019.59
530.437	15036.77
530.803	14983.43
531.169	15065.24
531.535	14965.36
531.901	14970.33
532.267	14964.9
532.632	14971
532.998	14994.05
533.364	14995.86
533.73	14926.71
534.095	15052.36
534.461	15046.48
534.826	15054.62
535.192	15045.8
535.557	15086.71
535.923	14883.78
536.288	14956.77
536.653	14927.62
537.019	14866.15
537.384	14834.96
537.749	14873.83
538.114	14787.05
538.479	14853.49
538.845	14810.33
539.21	14720.39
539.575	14700.05
539.94	14829.31
540.305	14729.43
540.67	14636.1
541.034	14736.89
541.399	14590.9
541.764	14624.12
542.129	14568.53
542.494	14496.67
542.858	14557.68
543.223	14486.5
543.587	14424.35
543.952	14429.32
544.316	14370.57
544.681	14264.81
545.045	14383.22
545.41	14398.36
545.774	14365.14
546.138	14208.31
546.503	14233.17
546.867	14124.93
547.231	14192.72
547.595	14148.43
547.959	14080.41
548.324	14084.02
548.688	14082.89
549.052	13946.85
549.416	14014.19
549.779	13914.76
550.143	13932.39
550.507	13969
550.871	14020.3
551.235	13846.51
551.599	13930.35
551.962	13850.81
552.326	13787.76
552.689	13825.05
553.053	13633.86
553.417	13686.97
553.78	13773.52
554.143	13675.45
554.507	13676.12
554.87	13740.3
555.234	13717.25
555.597	13595.22
555.96	13634.54
556.323	13590.25
556.686	13531.27
557.05	13621.44
557.413	13663.02
557.776	13602.68
558.139	13595
558.502	13562.91
558.865	13556.35
559.228	13664.15
559.59	13625.5
559.953	13590.48
560.316	13613.07
560.679	13649.68
561.041	13639.29
561.404	13662.34
561.767	13663.69
562.129	13580.53
562.492	13762.67
562.854	13682.45
563.217	13610.14
563.579	13672.73
563.941	13603.58
564.304	13639.74
564.666	13703.69
565.028	13701.66
565.39	13724.26
565.753	13724.26
566.115	13766.06
566.477	13801.32
566.839	13735.78
567.201	13843.12
567.563	13841.54
567.925	13808.1
568.287	13837.25
568.648	13812.62
569.01	13923.12
569.372	13899.17
569.734	13882.9
570.095	13968.77
570.457	13939.85
570.819	13894.42
571.18	13879.96
571.542	13994.53
571.903	13919.28
572.265	13944.14
572.626	14066.17
572.987	14065.94
573.349	14032.05
573.71	14016
574.071	14096.45
574.432	14078.37
574.794	14127.19
575.155	14091.93
575.516	14057.81
575.877	14097.58
576.238	14099.84
576.599	14122.89
576.96	14119.5
577.32	14140.07
577.681	14151.14
578.042	14174.87
578.403	14153.17
578.763	14105.49
579.124	14169.22
579.485	14220.06
579.845	14250.35
580.206	14166.73
580.566	14161.53
580.927	14160.63
581.287	14243.79
581.648	14192.04
582.008	14199.5
582.368	14208.09
582.728	14211.93
583.089	14178.48
583.449	14199.05
583.809	14161.99
584.169	14170.12
584.529	14108.43
584.889	14119.5
585.249	14069.56
585.609	13979.39
585.969	14133.51
586.329	14009.45
586.688	14001.76
587.048	14034.08
587.408	14087.19
587.768	14003.35
588.127	13948.21
588.487	13950.47
588.846	14071.59
589.206	13990.24
589.565	13926.96
589.925	13961.99
590.284	13930.81
590.643	13951.14
591.003	14011.48
591.362	13994.53
591.721	13984.36
592.08	13906.17
592.44	13950.92
592.799	13970.13
593.158	13948.21
593.517	13911.6
593.876	13883.8
594.235	13911.37
594.593	13807.65
594.952	13919.51
595.311	13832.28
595.67	13883.12
596.029	13936.23
596.387	13938.26
596.746	13976
597.104	13851.26
597.463	13832.28
597.822	13936
598.18	13825.27
598.538	13820.3
598.897	13972.16
599.255	13759.51
599.613	13992.05
599.972	13908.21
600.33	13872.28
600.688	13816.68
601.046	13905.5
601.404	13922.67
601.762	13842.67
602.12	13905.27
602.478	13852.62
602.836	13870.24
603.194	13780.3
603.552	13868.89
603.91	13773.07
604.268	13822.11
604.625	13793.18
604.983	13872.95
605.341	13791.83
605.698	13856.91
606.056	13848.77
606.413	13865.95
606.771	13926.29
607.128	14039.05
607.485	13816.91
607.843	13937.81
608.2	13917.93
608.557	14002.67
608.914	13972.84
609.272	14011.93
609.629	13997.47
609.986	14060.29
610.343	13931.26
610.7	14119.28
611.057	14031.37
611.414	14009.45
611.771	13983.69
612.127	14065.27
612.484	14070.69
612.841	14051.03
613.198	14081.31
613.554	13984.14
613.911	14091.48
614.267	14139.16
614.624	14049
614.98	14193.4
615.337	14211.25
615.693	14143
616.05	14046.51
616.406	14226.84
616.762	14174.64
617.118	14175.32
617.475	14226.62
617.831	14207.18
618.187	14155.66
618.543	14208.54
618.899	14348.42
619.255	14285.15
619.611	14181.65
619.967	14312.26
620.323	14348.2
620.678	14290.57
621.034	14213.06
621.39	14219.39
621.746	14145.26
622.101	14366.5
622.457	14307.52
622.812	14270.91
623.168	14218.93
623.523	14285.15
623.879	14371.02
624.234	14284.02
624.589	14272.49
624.945	14355.2
625.3	14269.55
625.655	14270.68
626.01	14300.29
626.365	14280.63
626.72	14313.39
627.075	14320.63
627.43	14252.83
627.785	14199.73
628.14	14252.38
628.495	14183.91
628.85	14274.53
629.205	14183.91
629.559	14263.68
629.914	14112.72
630.269	14295.54
630.623	14107.98
630.978	14082.89
631.332	14157.47
631.687	14190.01
632.041	14087.19
632.396	14191.59
632.75	14055.55
633.104	14126.06
633.459	14017.58
633.813	13968.09
634.167	14045.83
634.521	14058.94
634.875	14047.87
635.229	14018.26
635.583	13862.79
635.937	13961.99
636.291	13951.37
636.645	13936.46
636.999	13948.66
637.352	13971.26
637.706	13880.64
638.06	13865.27
638.413	13854.65
638.767	13763.58
639.121	13886.29
639.474	13829.79
639.828	13747.53
640.181	13823.92
640.534	13745.73
640.888	13748.66
641.241	13698.04
641.594	13750.25
641.947	13790.92
642.301	13653.53
642.654	13701.43
643.007	13734.2
643.36	13627.99
643.713	13636.58
644.066	13665.5
644.419	13601.32
644.771	13553.64
645.124	13380.76
645.477	13363.36
645.83	13317.26
646.182	13256.47
646.535	13166.98
646.888	13231.39
647.24	13181.9
647.593	13213.31
647.945	13197.27
648.298	13123.14
648.65	13082.69
649.002	13108.91
649.355	13139.41
649.707	13164.95
650.059	13312.29
650.411	13443.59
650.763	13396.36
651.115	13533.75
651.467	13450.59
651.819	13426.41
652.171	13463.47
652.523	13432.06
652.875	13450.37
653.227	13373.31
653.578	13542.57
653.93	13427.77
654.282	13349.8
654.633	13380.76
654.985	13414.66
655.337	13463.25
655.688	13442.91
656.039	13436.81
656.391	13447.65
656.742	13463.25
657.094	13471.16
657.445	13463.93
657.796	13431.84
658.147	13498.28
658.498	13420.54
658.849	13486.98
659.2	13427.99
659.551	13424.83
659.902	13561.32
660.253	13504.15
660.604	13384.83
660.955	13444.72
661.306	13474.55
661.656	13473.87
662.007	13538.95
662.358	13533.53
662.708	13521.33
663.059	13505.05
663.409	13357.94
663.76	13541.66
664.11	13544.15
664.461	13564.26
664.811	13482.46
665.161	13520.42
665.511	13429.35
665.862	13470.25
666.212	13650.59
666.562	13507.77
666.912	13503.92
667.262	13514.77
667.612	13545.05
667.962	13549.57
668.312	13537.37
668.662	13609.91
669.011	13579.85
669.361	13514.55
669.711	13542.34
670.06	13541.44
670.41	13489.69
670.76	13523.59
671.109	13557.26
671.459	13451.72
671.808	13470.48
672.157	13506.18
672.507	13397.94
672.856	13445.62
673.205	13394.55
673.554	13493.76
673.904	13403.36
674.253	13404.04
674.602	13379.18
674.951	13133.76
675.3	13183.93
675.649	13327.43
675.998	13280.43
676.346	13352.52
676.695	13398.39
677.044	13239.52
677.393	13364.27
677.741	13320.2
678.09	13242.91
678.438	13281.56
678.787	13256.02
679.135	13204.95
679.484	13138.74
679.832	13272.29
680.181	13068.46
680.529	13121.79
680.877	13014.67
681.225	13014.67
681.573	13214.67
681.922	12950.04
682.27	12901.91
682.618	12993.2
682.966	12929.7
683.314	12952.07
683.661	12812.42
684.009	12880.44
684.357	12828.46
684.705	12863.04
685.053	12818.52
685.4	12829.82
685.748	12711.18
686.095	12759.76
686.443	12701.91
686.79	12642.7
687.138	12728.58
687.485	12698.3
687.832	12649.48
688.18	12582.37
688.527	12568.13
688.874	12545.98
689.221	12541.24
689.568	12403.16
689.915	12438.19
690.262	12442.94
690.609	12380.56
690.956	12298.31
691.303	12210.63
691.65	12116.16
691.997	12179.21
692.344	12018.09
692.69	12130.18
693.037	12105.32
693.383	11995.04
693.73	11967.02
694.077	11933.12
694.423	11838.88
694.769	11913.68
695.116	11808.38
695.462	11874.81
695.808	11744.42
696.155	11769.96
696.501	11708.94
696.847	11676.4
697.193	11629.4
697.539	11604.31
697.885	11510.76
698.231	11555.73
698.577	11467.82
698.923	11440.48
699.269	11411.55
699.614	11302.4
699.96	11247.94
700.306	11287.71
700.651	11232.35
700.997	11158
701.342	11156.64
701.688	11101.05
702.033	11040.26
702.379	11045.91
702.724	10883.2
703.069	11041.16
703.415	10813.37
703.76	10902.19
704.105	10851.56
704.45	10802.98
704.795	10714.17
705.14	10675.07
705.485	10707.16
705.83	10669.42
706.175	10677.11
706.52	10614.96
706.865	10547.84
707.209	10605.7
707.554	10545.13
707.899	10544.68
708.243	10491.8
708.588	10489.54
708.932	10448.41
709.277	10372.71
709.621	10387.62
709.966	10301.52
710.31	10314.18
710.654	10220.62
710.998	10250.68
711.342	10235.08
711.687	10280.96
712.031	10116.67
712.375	10107.18
712.719	10156.22
713.063	10096.78
713.407	10129.78
713.75	10080.29
714.094	10097.69
714.438	10018.14
714.782	10096.33
715.125	9982.66
715.469	10000.51
715.812	9925.49
716.156	9920.97
716.499	9896.11
716.843	9923
717.186	9861.99
717.53	9871.25
717.873	9875.09
718.216	9818.6
718.559	9849.78
718.902	9766.4
719.246	9735.89
719.589	9723.23
719.932	9643.46
720.275	9718.04
720.617	9690.92
720.96	9652.95
721.303	9676.45
721.646	9700.86
721.989	9652.95
722.331	9627.42
722.674	9659.05
723.016	9585.61
723.359	9597.81
723.701	9615.67
724.044	9575.21
724.386	9521.2
724.729	9603.46
725.071	9544.93
725.413	9558.04
725.755	9549
726.097	9532.05
726.439	9438.95
726.782	9483.47
727.124	9542.22
727.465	9507.42
727.807	9485.5
728.149	9562.79
728.491	9472.17
728.833	9498.83
729.175	9529.57
729.516	9466.74
729.858	9449.79
730.199	9463.8
730.541	9413.86
730.882	9488.66
731.224	9463.58
731.565	9441.88
731.906	9440.3
732.248	9408.44
732.589	9413.86
732.93	9304.71
733.271	9424.48
733.612	9453.86
733.953	9395.11
734.294	9398.04
734.635	9399.17
734.976	9414.54
735.317	9312.85
735.658	9419.06
735.999	9382.23
736.339	9419.06
736.68	9440.75
737.021	9444.14
737.361	9361.21
737.702	9405.95
738.042	9416.12
738.383	9488.89
738.723	9505.39
739.063	9410.7
739.404	9458.16
739.744	9476.69
740.084	9423.35
740.424	9447.76
740.764	9472.39
741.104	9482.34
741.444	9500.64
741.784	9433.98
742.124	9518.72
742.464	9554.88
742.804	9497.7
743.143	9557.59
743.483	9602.11
743.823	9570.69
744.162	9596.46
744.502	9614.08
744.841	9641.65
745.181	9827.41
745.52	9682.33
745.86	9759.84
746.199	9778.15
746.538	9845.04
746.877	9939.5
747.216	10019.72
747.556	10019.5
747.895	10039.83
748.234	10109.21
748.573	10070.79
748.911	10168.65
749.25	10281.64
749.589	10255.65
749.928	10364.35
750.267	10496.77
750.605	10564.57
750.944	10532.7
751.283	10659.25
751.621	10767.05
751.96	10819.7
752.298	10880.04
752.636	11016.53
752.975	11072.12
753.313	11156.87
753.651	11366.35
753.989	11387.14
754.327	11505.33
754.666	11619.23
755.004	11759.56
755.342	11949.39
755.679	11981.48
756.017	12081.59
756.355	12304.63
756.693	12440.45
757.031	12594.8
757.368	12745.75
757.706	12865.07
758.044	12946.2
758.381	13148.23
758.719	13285.17
759.056	13472.51
759.394	13643.81
759.731	13682
760.068	13875.21
760.405	14084.25
760.743	14229.33
761.08	14410.34
761.417	14426.61
761.754	14615.99
762.091	14885.13
762.428	14996.54
762.765	15056.88
763.102	15399.47
763.438	15564.89
763.775	15649.63
764.112	15824.77
764.449	16002.84
764.785	16166.23
765.122	16249.16
765.458	16369.84
765.795	16508.59
766.131	16748.13
766.467	16876.49
766.804	17002.14
767.14	17090.04
767.476	17161
767.812	17365.52
768.148	17574.1
768.485	17597.6
768.821	17789.91
769.157	17920.53
769.492	17957.14
769.828	18111.94
770.164	18117.59
770.5	18260.64
770.836	18485.49
771.171	18437.58
771.507	18516
771.842	18572.49
772.178	18718.48
772.513	18750.11
772.849	18837.8
773.184	18865.59
773.519	19024.46
773.855	19080.05
774.19	19192.14
774.525	19103.33
774.86	19273.72
775.195	19389.19
775.53	19353.49
775.865	19367.5
776.2	19347.16
776.535	19314.39
776.87	19404.33
777.205	19426.48
777.539	19402.75
777.874	19566.14
778.209	19514.61
778.543	19588.06
778.878	19506.7
779.212	19484.78
779.547	19597.78
779.881	19750.31
780.215	19599.36
780.55	19741.5
780.884	19644.55
781.218	19559.58
781.552	19778.56
781.886	19661.5
782.22	19609.98
782.554	19714.61
782.888	19553.48
783.222	19540.38
783.556	19540.6
783.889	19545.35
784.223	19454.05
784.557	19415.18
784.89	19627.61
785.224	19367.95
785.557	19437.55
785.891	19466.03
786.224	19457.21
786.558	19400.94
786.891	19186.49
787.224	19275.75
787.557	19311.68
787.891	19288.41
788.224	19282.53
788.557	19301.51
788.89	19148.3
789.223	19214.51
789.556	19143.1
789.888	19086.15
790.221	19092.25
790.554	18939.04
790.887	18986.49
791.219	18907.85
791.552	18927.74
791.884	18810.9
792.217	18736.56
792.549	18773.84
792.882	18682.55
793.214	18696.1
793.546	18684.81
793.879	18545.83
794.211	18602.1
794.543	18651.81
794.875	18532.04
795.207	18647.29
795.539	18422.44
795.871	18507.18
796.203	18241.2
796.535	18274.42
796.867	18187.19
797.198	18273.06
797.53	18310.13
797.862	18107.65
798.193	18171.82
798.525	18061.77
798.856	18207.3
799.188	17898.84
799.519	17855.22
799.85	17806.18
800.182	17820.87
800.513	17865.39
800.844	17668.11
801.175	17793.53
801.506	17733.64
801.837	17601.67
802.168	17562.57
802.499	17554.21
802.83	17517.38
803.161	17392.41
803.491	17440.09
803.822	17500.2
804.153	17299.76
804.483	17194.68
804.814	17230.15
805.145	17195.8
805.475	17167.78
805.805	17008.01
806.136	17125.07
806.466	17129.37
806.796	17091.85
807.126	16962.36
807.457	16974.57
807.787	16917.17
808.117	16855.25
808.447	16842.14
808.777	16924.85
809.107	16754.23
809.436	16693.22
809.766	16725.76
810.096	16643.73
810.426	16570.51
810.755	16622.03
811.085	16641.24
811.414	16568.48
811.744	16450.97
812.073	16453
812.403	16506.11
812.732	16298.43
813.061	16300.24
813.39	16214.81
813.719	16270.18
814.049	16296.17
814.378	16128.71
814.707	16127.58
815.036	16087.81
815.365	16024.31
815.693	15857.99
816.022	15953.8
816.351	15879.91
816.68	15833.35
817.008	15878.1
817.337	15840.13
817.665	15677.88
817.994	15721.27
818.322	15737.54
818.651	15674.26
818.979	15656.18
819.307	15718.1
819.636	15627.94
819.964	15563.08
820.292	15652.34
820.62	15580.25
820.948	15516.98
821.276	15598.56
821.604	15613.25
821.932	15577.09
822.259	15631.1
822.587	15560.14
822.915	15545.9
823.243	15578.9
823.57	15503.87
823.898	15631.78
824.225	15501.16
824.553	15417.77
824.88	15434.5
825.207	15605.79
825.535	15562.85
825.862	15525.34
826.189	15613.93
826.516	15645.11
826.843	15574.38
827.17	15541.16
827.497	15548.62
827.824	15679.23
828.151	15632
828.478	15601.72
828.805	15639.69
829.131	15587.26
829.458	15467.94
829.785	15484.89
830.111	15496.41
830.438	15566.24
830.764	15538.67
831.09	15576.41
831.417	15437.66
831.743	15516.08
832.069	15587.94
832.395	15429.3
832.722	15483.76
833.048	15428.17
833.374	15572.8
833.7	15420.03
834.026	15374.16
834.351	15422.29
834.677	15381.84
835.003	15385.23
835.329	15424.55
835.654	15345.68
835.98	15261.62
836.306	15350.43
836.631	15212.13
836.956	15263.43
837.282	15273.6
837.607	15203.31
837.932	15231.56
838.258	15107.27
838.583	15124.67
838.908	15146.59
839.233	15219.59
839.558	15032.02
839.883	15083.54
840.208	15013.04
840.533	15048.74
840.858	14945.92
841.182	14980.04
841.507	14938.69
841.832	14922.64
842.156	14853.04
842.481	14910.22
842.805	14892.59
843.13	14849.43
843.454	14745.25
843.778	14741.86
844.103	14703.67
844.427	14634.97
844.751	14679.94
845.075	14619.83
845.399	14588.42
845.723	14512.03
846.047	14532.82
846.371	14404.24
846.695	14387.29
847.019	14213.96
847.343	14215.09
847.666	14146.85
847.99	14105.04
848.313	14046.96
848.637	13971.71
848.96	13898.94
849.284	13975.55
849.607	13823.24
849.931	13818.94
850.254	13707.99
850.577	13657.82
850.9	13581.66
851.223	13647.65
851.546	13430.48
851.869	13448.11
852.192	13472.29
852.515	13377.6
852.838	13286.98
853.161	13233.65
853.483	13174.44
853.806	13193.2
854.129	13076.37
854.451	13071.39
854.774	12972.64
855.096	13023.71
855.419	12916.6
855.741	12956.59
856.063	12903.04
856.385	12811.74
856.708	12823.72
857.03	12798.18
857.352	12748.92
857.674	12663.95
857.996	12651.29
858.318	12563.84
858.64	12594.8
858.961	12538.07
859.283	12533.78
859.605	12465.08
859.926	12405.2
860.248	12478.19
860.57	12365.88
860.891	12415.14
861.212	12356.16
861.534	12311.41
861.855	12267.12
862.176	12237.07
862.498	12232.55
862.819	12218.53
863.14	12145.09
863.461	12131.53
863.782	12032.55
864.103	12131.53
864.424	12057.41
864.745	12051.31
865.065	11928.6
865.386	11883.63
865.707	11869.39
866.027	11972.21
866.348	11908.49
866.668	11920.01
866.989	11899.22
867.309	11826.91
867.63	11838.43
867.95	11849.05
868.27	11691.77
868.59	11834.36
868.91	11744.42
869.23	11723.18
869.55	11547.37
869.87	11713.24
870.19	11708.27
870.51	11640.92
870.83	11682.05
871.15	11614.48
871.469	11633.92
871.789	11588.04
872.109	11620.36
872.428	11511.66
872.748	11538.78
873.067	11506.69
873.386	11472.11
873.706	11490.19
874.025	11415.84
874.344	11371.55
874.663	11442.96
874.982	11408.84
875.301	11409.74
875.62	11368.16
875.939	11339.01
876.258	11331.78
876.577	11217.21
876.896	11281.38
877.214	11244.77
877.533	11210.88
877.852	11225.79
878.17	11167.71
878.489	11169.07
878.807	11199.58
879.125	11165.23
879.444	11175.85
879.762	11073.93
880.08	11111.22
880.398	11029.87
880.716	11102.63
881.034	11052.69
881.352	11055.63
881.67	10908.74
881.988	11002.3
882.306	10966.14
882.624	10881.62
882.941	10847.72
883.259	10854.5
883.577	10823.09
883.894	10845.46
884.212	10817.89
884.529	10798.68
884.846	10696.54
885.164	10763.66
885.481	10655.64
885.798	10754.84
886.115	10600.95
886.432	10679.37
886.75	10571.8
887.067	10594.17
887.383	10566.37
887.7	10612.7
888.017	10472.59
888.334	10478.69
888.651	10463.33
888.967	10441.86
889.284	10404.57
889.6	10370.22
889.917	10344.91
890.233	10316.44
890.55	10229.43
890.866	10248.64
891.182	10242.32
891.498	10172.26
891.815	10140.4
892.131	10080.51
892.447	10059.95
892.763	9997.8
893.079	10032.6
893.395	9962.32
893.71	9925.49
894.026	9991.93
894.342	9930.46
894.657	9852.5
894.973	9835.09
895.289	9836.9
895.604	9794.64
895.92	9743.35
896.235	9690.92
896.55	9634.87
896.865	9660.41
897.181	9639.85
897.496	9627.87
897.811	9580.64
898.126	9522.79
898.441	9503.58
898.756	9397.82
899.071	9384.94
899.386	9403.24
899.7	9320.53
900.015	9319.85
900.33	9243.47
900.644	9290.02
900.959	9203.7
901.273	9253.19
901.588	9194.43
901.902	9062.23
902.216	9044.15
902.531	8962.8
902.845	9006.19
903.159	8934.78
903.473	8966.19
903.787	8876.25
904.101	8829.02
904.415	8797.61
904.729	8829.7
905.042	8755.35
905.356	8771.17
905.67	8757.83
905.984	8683.94
906.297	8657.27
906.611	8579.08
906.924	8566.43
907.237	8506.99
907.551	8540.89
907.864	8471.51
908.177	8472.19
908.491	8389.48
908.804	8380.67
909.117	8292.76
909.43	8343.38
909.743	8220.67
910.056	8268.58
910.368	8212.76
910.681	8196.49
910.994	8109.49
911.307	8107.23
911.619	8085.54
911.932	8039.44
912.244	7960.57
912.557	7997.4
912.869	7925.99
913.181	7927.8
913.494	7873.79
913.806	7789.05
914.118	7793.34
914.43	7759.89
914.742	7776.39
915.054	7691.42
915.366	7697.3
915.678	7638.54
915.99	7602.84
916.302	7522.39
916.613	7534.14
916.925	7502.73
917.236	7510.64
917.548	7418.66
917.859	7412.56
918.171	7351.77
918.482	7374.82
918.794	7257.54
919.105	7331.88
919.416	7249.85
919.727	7214.15
920.038	7180.93
920.349	7169.63
920.66	7159.01
920.971	7175.96
921.282	7141.38
921.593	7077.2
921.903	7049.41
922.214	7038.56
922.525	6989.07
922.835	6985.45
923.146	6905
923.456	6924.89
923.767	6845.57
924.077	6835.4
924.387	6772.35
924.697	6680.15
925.008	6755.18
925.318	6700.26
925.628	6650.55
925.938	6705.69
926.248	6645.35
926.558	6576.42
926.867	6628.85
927.177	6579.81
927.487	6526.71
927.796	6461.62
928.106	6470.89
928.416	6420.5
928.725	6403.77
929.034	6352.93
929.344	6400.16
929.653	6315.41
929.962	6317.22
930.271	6279.93
930.581	6265.24
930.89	6205.81
931.199	6201.97
931.508	6209.88
931.817	6142.76
932.125	6134.17
932.434	6124.23
932.743	6064.12
933.051	6039.71
933.36	6014.18
933.669	5995.2
933.977	6006.49
934.286	5944.58
934.594	5958.59
934.902	5898.93
935.21	5816.22
935.519	5842.88
935.827	5842.88
936.135	5759.72
936.443	5832.26
936.751	5770.57
937.059	5746.16
937.367	5760.63
937.674	5700.74
937.982	5674.53
938.29	5603.12
938.597	5650.57
938.905	5603.79
939.213	5528.54
939.52	5578.03
939.827	5533.29
940.135	5532.61
940.442	5511.82
940.749	5415.55
941.056	5476.34
941.363	5384.14
941.67	5357.02
941.977	5393.18
942.284	5292.39
942.591	5321.77
942.898	5275.67
943.205	5267.31
943.511	5249.9
943.818	5216.01
944.125	5206.74
944.431	5223.92
944.738	5157.93
945.044	5162
945.35	5117.48
945.657	5072.96
945.963	5089.46
946.269	5019.18
946.575	5036.58
946.881	4982.79
947.187	5012.4
947.493	4972.62
947.799	4921.1
948.105	4903.02
948.41	4912.51
948.716	4851.27
949.022	4889.24
949.327	4863.93
949.633	4821.44
949.938	4771.05
950.244	4761.33
950.549	4712.07
950.854	4720.2
951.16	4724.04
951.465	4691.05
951.77	4631.16
952.075	4646.76
952.38	4627.55
952.685	4641.33
952.99	4544.16
953.294	4559.53
953.599	4564.72
953.904	4547.1
954.209	4476.82
954.513	4495.8
954.818	4472.07
955.122	4413.77
955.426	4420.77
955.731	4426.2
956.035	4401.79
956.339	4371.74
956.643	4351.17
956.948	4341
957.252	4308.46
957.556	4289.25
957.86	4280.66
958.163	4311.4
958.467	4249.7
958.771	4232.53
959.075	4219.65
959.378	4196.15
959.682	4160.22
959.985	4110.27
960.289	4148.69
960.592	4121.57
960.896	4082.03
961.199	4099.43
961.502	4065.75
961.805	4044.74
962.108	3987.56
962.411	4028.92
962.714	4021.69
963.017	3960.22
963.32	3947.79
963.623	3911.41
963.926	3950.96
964.228	3890.39
964.531	3898.3
964.833	3888.36
965.136	3878.87
965.438	3837.74
965.741	3838.42
966.043	3828.7
966.345	3790.51
966.648	3772.88
966.95	3776.04
967.252	3763.16
967.554	3672.77
967.856	3693.34
968.158	3688.59
968.46	3712.09
968.761	3665.99
969.063	3656.5
969.365	3625.99
969.666	3634.35
969.968	3605.43
970.269	3607.01
970.571	3564.3
970.872	3532.44
971.174	3561.36
971.475	3503.28
971.776	3469.84
972.077	3475.94
972.378	3473.45
972.679	3463.28
972.98	3428.26
973.281	3446.56
973.582	3400.69
973.883	3378.99
974.183	3398.43
974.484	3367.02
974.785	3377.41
975.085	3350.75
975.386	3318.43
975.686	3296.96
975.986	3300.35
976.287	3305.55
976.587	3256.74
976.887	3287.47
977.187	3294.25
977.487	3212.22
977.787	3228.26
978.087	3204.76
978.387	3209.05
978.687	3161.82
978.987	3165.89
979.286	3129.06
979.586	3118.21
979.885	3133.12
980.185	3054.48
980.484	3068.72
980.784	3084.76
981.083	3075.27
981.382	3026.46
981.682	3010.19
981.981	3024.65
982.28	2965.22
982.579	2981.26
982.878	2983.98
983.177	2985.11
983.475	2964.09
983.774	2968.38
984.073	2905.79
984.372	2874.83
984.67	2892.9
984.969	2893.36
985.267	2889.29
985.566	2874.83
985.864	2851.32
986.162	2822.62
986.461	2782.4
986.759	2822.85
987.057	2790.08
987.355	2764.09
987.653	2746.02
987.951	2747.15
988.249	2719.35
988.547	2712.12
988.844	2702.4
989.142	2706.69
989.44	2682.29
989.737	2667.37
990.035	2679.12
990.332	2643.19
990.63	2660.82
990.927	2626.92
991.224	2620.82
991.521	2577.21
991.819	2602.74
992.116	2573.36
992.413	2560.26
992.71	2552.8
993.006	2538.34
993.303	2520.48
993.6	2537.21
993.897	2522.07
994.193	2498.34
994.49	2432.8
994.787	2488.85
995.083	2452.24
995.379	2421.05
995.676	2454.05
995.972	2397.55
996.268	2419.47
996.565	2420.6
996.861	2431.22
997.157	2370.21
997.453	2387.83
997.749	2370.66
998.044	2346.93
998.34	2345.35
998.636	2319.36
998.932	2265.8
999.227	2284.78
999.523	2291.56
999.818	2275.97
1000.114	2253.6
1000.409	2242.98
1000.704	2242.53
1001	2197.33
1001.295	2204.33
1001.59	2202.75
1001.885	2177.44
1002.18	2180.15
1002.475	2158.01
1002.77	2150.1
1003.065	2144.9
1003.359	2127.5
1003.654	2122.3
1003.949	2104.9
1004.243	2098.35
1004.538	2072.81
1004.832	2087.95
1005.127	2062.42
1005.421	2058.35
1005.715	2032.36
1006.009	2022.19
1006.304	2033.94
1006.598	2009.31
1006.892	1997.79
1007.186	1969.09
1007.48	1954.85
1007.773	1961.63
1008.067	1949.2
1008.361	1953.72
1008.655	1920.05
1008.948	1911.69
1009.242	1912.36
1009.535	1911.69
1009.829	1875.3
1010.122	1865.36
1010.415	1855.42
1010.708	1860.39
1011.001	1865.81
1011.295	1836.43
1011.588	1798.47
1011.881	1820.84
1012.173	1772.48
1012.466	1786.49
1012.759	1770.22
1013.052	1771.13
1013.344	1770.22
1013.637	1761.41
1013.93	1710.34
1014.222	1749.88
1014.514	1747.17
1014.807	1710.79
1015.099	1692.94
1015.391	1668.08
1015.683	1679.6
1015.976	1673.28
1016.268	1622.2
1016.56	1631.92
1016.851	1614.52
1017.143	1626.95
1017.435	1622.88
1017.727	1584.01
1018.018	1557.35
1018.31	1572.49
1018.602	1567.06
1018.893	1551.7
1019.185	1546.05
1019.476	1540.62
1019.767	1530.68
1020.058	1536.78
1020.35	1516.44
1020.641	1500.4
1020.932	1499.72
1021.223	1457.91
1021.514	1457.91
1021.804	1451.13
1022.095	1450.23
1022.386	1447.74
1022.677	1434.64
1022.967	1446.84
1023.258	1406.39
1023.548	1399.84
1023.839	1400.51
1024.129	1372.72
1024.419	1388.76
1024.709	1370.46
1025	1364.58
1025.29	1347.41
1025.58	1343.34
1025.87	1343.34
1026.16	1310.8
1026.449	1308.54
1026.739	1290.01
1027.029	1303.34
1027.319	1282.55
1027.608	1283.23
1027.898	1276.22
1028.187	1271.48
1028.477	1259.95
1028.766	1264.7
1029.055	1237.58
1029.344	1229.45
1029.634	1222.21
1029.923	1221.54
1030.212	1227.64
1030.501	1184.25
1030.79	1206.85
1031.078	1193.29
1031.367	1218.82
1031.656	1170.24
1031.945	1175.44
1032.233	1155.55
1032.522	1143.35
1032.81	1140.18
1033.099	1130.69
1033.387	1130.46
1033.675	1104.25
1033.963	1104.48
1034.251	1105.38
1034.54	1107.87
1034.828	1084.36
1035.116	1081.2
1035.403	1085.95
1035.691	1050.01
1035.979	1071.03
1036.267	1057.7
1036.554	1047.98
1036.842	1046.63
1037.129	1028.32
1037.417	1025.38
1037.704	1026.06
1037.992	1017.25
1038.279	1009.79
1038.566	1025.38
1038.853	1025.38
1039.14	1025.38
