Data from hue_32_FLMS001491_00029.txt Node
Date: Tue Feb 07 17:23:07 GMT 2017
User: dcchb
Spectrometer: FLMS00149
Trigger mode: 0
Integration Time (sec): 2.000000E-2
Scans to average: 10
Electric dark correction enabled: true
Nonlinearity correction enabled: false
Boxcar width: 0
XAxis mode: Wavelengths
Number of Pixels in Spectrum: 2048
>>>>>Begin Spectral Data<<<<<
341.393	-1.82
341.776	-1.82
342.16	-1.82
342.543	-54.93
342.927	-52.67
343.31	-55.38
343.693	-68.49
344.077	-72.33
344.46	-60.58
344.843	-25.1
345.226	-61.26
345.61	-29.62
345.993	-19
346.376	-24.65
346.759	9.7
347.142	27.1
347.525	38.63
347.908	58.52
348.291	80.21
348.674	87.22
349.057	115.01
349.44	122.92
349.823	140.77
350.206	162.47
350.588	202.69
350.971	207.44
351.354	246.31
351.737	255.57
352.119	246.53
352.502	270.26
352.884	270.26
353.267	289.02
353.65	300.99
354.032	297.83
354.414	312.29
354.797	315.68
355.179	326.08
355.562	336.02
355.944	326.53
356.326	327.43
356.709	338.06
357.091	319.07
357.473	340.09
357.855	350.26
358.238	347.1
358.62	351.39
359.002	347.55
359.384	354.78
359.766	352.07
360.148	348.68
360.53	332.63
360.912	326.98
361.294	371.5
361.676	323.82
362.057	348.23
362.439	339.19
362.821	338.51
363.203	342.58
363.584	337.15
363.966	325.85
364.348	329.24
364.729	329.69
365.111	317.27
365.493	350.26
365.874	323.82
366.256	321.56
366.637	300.77
367.019	324.27
367.4	311.62
367.781	308.9
368.163	313.2
368.544	302.8
368.925	312.07
369.306	329.92
369.688	323.14
370.069	324.95
370.45	322.92
370.831	331.28
371.212	305.97
371.593	324.05
371.974	321.33
372.355	319.3
372.736	329.92
373.117	335.8
373.498	336.02
373.879	333.08
374.26	323.37
374.641	307.32
375.021	314.1
375.402	314.33
375.783	323.82
376.163	325.18
376.544	328.11
376.925	348.45
377.305	336.47
377.686	357.26
378.066	337.38
378.447	342.58
378.827	346.19
379.208	340.09
379.588	337.83
379.968	349.81
380.349	344.16
380.729	336.7
381.109	351.39
381.489	357.26
381.87	354.1
382.25	332.86
382.63	358.39
383.01	324.95
383.39	356.81
383.77	347.32
384.15	355.23
384.53	364.27
384.91	363.82
385.29	353.42
385.67	346.42
386.049	348.45
386.429	382.8
386.809	359.75
387.189	366.98
387.568	371.73
387.948	375.12
388.328	365.85
388.707	372.18
389.087	358.85
389.466	357.49
389.846	364.5
390.225	357.94
390.605	367.21
390.984	361.11
391.363	395
391.743	375.34
392.122	381.44
392.501	397.94
392.881	374.67
393.26	389.13
393.639	395.23
394.018	396.81
394.397	388.9
394.776	375.34
395.155	397.26
395.534	400.2
395.913	379.64
396.292	393.42
396.671	391.84
397.05	381.67
397.429	384.38
397.808	406.75
398.186	411.5
398.565	396.13
398.944	399.07
399.323	394.1
399.701	424.16
400.08	410.14
400.458	407.88
400.837	408.11
401.215	381.9
401.594	394.33
401.972	411.5
402.351	416.92
402.729	413.53
403.107	436.36
403.486	423.25
403.864	431.39
404.242	414.44
404.62	428
404.999	418.51
405.377	427.09
405.755	437.26
406.133	435.91
406.511	459.86
406.889	450.82
407.267	447.66
407.645	447.43
408.023	446.3
408.401	458.28
408.779	456.47
409.156	457.37
409.534	459.63
409.912	460.76
410.29	471.84
410.667	481.33
411.045	486.75
411.422	483.81
411.8	482.91
412.178	490.82
412.555	487.66
412.933	486.75
413.31	481.78
413.687	477.49
414.065	500.76
414.442	501.67
414.819	530.59
415.197	505.06
415.574	522.23
415.951	514.77
416.328	528.11
416.705	494.44
417.082	530.37
417.46	539.18
417.837	526.3
418.214	533.31
418.591	532.18
418.967	516.81
419.344	520.65
419.721	548.67
420.098	526.98
420.475	518.62
420.852	546.41
421.228	539.63
421.605	555.68
421.982	565.39
422.358	566.07
422.735	580.08
423.111	575.34
423.488	550.48
423.864	556.36
424.241	581.89
424.617	577.82
424.994	585.28
425.37	590.25
425.746	598.84
426.123	598.39
426.499	595.68
426.875	605.62
427.251	619.86
427.627	603.59
428.003	607.43
428.379	625.05
428.756	625.96
429.132	609.91
429.507	618.05
429.883	660.08
430.259	653.75
430.635	632.74
431.011	642.91
431.387	649.69
431.763	671.15
432.138	659.86
432.514	668.44
432.89	700.98
433.265	698.5
433.641	685.62
434.016	686.52
434.392	724.71
434.767	721.1
435.143	709.35
435.518	710.93
435.894	713.64
436.269	719.29
436.644	745.73
437.02	748.44
437.395	719.06
437.77	733.53
438.145	765.62
438.52	764.94
438.895	755.67
439.271	776.24
439.646	798.83
440.021	795.67
440.395	799.51
440.77	794.09
441.145	791.6
441.52	843.35
441.895	814.2
442.27	844.94
442.645	821.43
443.019	820.3
443.394	822.56
443.769	829.34
444.143	818.5
444.518	849
444.892	842.68
445.267	842.22
445.641	856.91
446.016	848.55
446.39	863.01
446.764	862.79
447.139	859.85
447.513	869.12
447.887	865.73
448.262	886.74
448.636	882.22
449.01	908.89
449.384	919.51
449.758	895.1
450.132	881.77
450.506	892.39
450.88	918.83
451.254	935.55
451.628	938.72
452.002	953.18
452.376	933.52
452.75	961.77
453.123	955.89
453.497	990.69
453.871	969.9
454.244	991.37
454.618	984.59
454.992	1002.22
455.365	1006.74
455.739	1044.48
456.112	1035.44
456.486	1073.4
456.859	1061.88
457.232	1089.67
457.606	1061.2
457.979	1091.03
458.352	1099.39
458.725	1121.09
459.099	1101.43
459.472	1125.61
459.845	1156.57
460.218	1171.25
460.591	1166.96
460.964	1165.38
461.337	1213.74
461.71	1204.02
462.083	1230.46
462.456	1232.95
462.829	1257.35
463.201	1244.7
463.574	1257.58
463.947	1281.31
464.32	1308.43
464.692	1336
465.065	1333.74
465.438	1335.77
465.81	1326.73
466.183	1363.11
466.555	1414.64
466.928	1427.29
467.3	1430.23
467.672	1409.44
468.045	1472.49
468.417	1477.91
468.789	1477.46
469.161	1499.16
469.534	1550.45
469.906	1603.79
470.278	1579.38
470.65	1622.09
471.022	1615.54
471.394	1667.74
471.766	1725.14
472.138	1726.27
472.51	1735.76
472.882	1781.63
473.253	1778.24
473.625	1831.8
473.997	1894.17
474.369	1873.61
474.74	1943.44
475.112	1975.98
475.484	1996.77
475.855	2073.15
476.227	2090.55
476.598	2137.33
476.97	2169.87
477.341	2235.18
477.713	2235.41
478.084	2270.66
478.455	2366.93
478.827	2408.06
479.198	2480.6
479.569	2499.81
479.94	2600.37
480.311	2609.86
480.682	2650.76
481.053	2771.21
481.424	2820.02
481.795	2859.57
482.166	2930.3
482.537	2994.03
482.908	3062.28
483.279	3102.5
483.65	3169.62
484.021	3269.73
484.391	3354.02
484.762	3386.34
485.133	3459.1
485.503	3548.59
485.874	3565.32
486.244	3706.78
486.615	3740.9
486.985	3861.81
487.356	3948.36
487.726	4010.05
488.097	4115.13
488.467	4198.97
488.837	4250.5
489.207	4283.49
489.578	4438.97
489.948	4498.17
490.318	4634.21
490.688	4646.42
491.058	4744.72
491.428	4810.48
491.798	4943.58
492.168	5054.99
492.538	5098.16
492.908	5151.04
493.278	5309.45
493.648	5350.35
494.017	5419.28
494.387	5464.02
494.757	5583.57
495.126	5721.19
495.496	5702.89
495.866	5749.89
496.235	5853.39
496.605	5989.88
496.974	6024.46
497.344	6085.7
497.713	6202.99
498.082	6270.78
498.452	6359.82
498.821	6391.46
499.19	6400.72
499.559	6464.22
499.928	6613.6
500.298	6572.47
500.667	6731.11
501.036	6731.33
501.405	6814.5
501.774	6893.14
502.143	6926.36
502.512	6982.18
502.88	7071.66
503.249	7123.64
503.618	7252.22
503.987	7187.82
504.356	7312.79
504.724	7381.26
505.093	7344.88
505.462	7446.34
505.83	7532.44
506.199	7575.61
506.567	7672.1
506.936	7752.32
507.304	7763.85
507.672	7827.35
508.041	7859.21
508.409	7927.69
508.777	8048.14
509.145	8062.6
509.514	8128.13
509.882	8158.87
510.25	8226.21
510.618	8296.04
510.986	8305.98
511.354	8354.57
511.722	8396.6
512.09	8521.12
512.458	8514.11
512.826	8564.28
513.193	8642.47
513.561	8697.61
513.929	8756.37
514.297	8798.85
514.664	8926.3
515.032	8876.14
515.4	8953.42
515.767	8943.48
516.135	9082.23
516.502	8997.72
516.869	9193.87
517.237	9182.34
517.604	9230.03
517.972	9274.54
518.339	9333.75
518.706	9330.81
519.073	9332.62
519.44	9430.92
519.808	9498.95
520.175	9477.48
520.542	9690.8
520.909	9621.2
521.276	9647.64
521.643	9751.82
522.009	9815.55
522.376	9874.75
522.743	9925.83
523.11	10017.12
523.477	10079.04
523.843	10156.33
524.21	10141.41
524.577	10235.87
524.943	10279.26
525.31	10359.94
525.676	10435.19
526.043	10426.83
526.409	10576.66
526.776	10662.08
527.142	10641.51
527.508	10787.72
527.874	10826.14
528.241	10842.64
528.607	10870.43
528.973	10963.77
529.339	11042.86
529.705	11017.78
530.071	11159.24
530.437	11201.05
530.803	11277.66
531.169	11382.51
531.535	11357.2
531.901	11337.77
532.267	11465.22
532.632	11455.73
532.998	11500.47
533.364	11673.8
533.73	11656.4
534.095	11704.99
534.461	11813.01
534.826	11808.71
535.192	11894.14
535.557	11914.93
535.923	12002.61
536.288	12092.1
536.653	12136.39
537.019	12088.71
537.384	12128.25
537.749	12252.55
538.114	12251.42
538.479	12248.48
538.845	12392.65
539.21	12358.3
539.575	12465.19
539.94	12488.02
540.305	12543.61
540.67	12638.98
541.034	12572.54
541.399	12678.07
541.764	12720.78
542.129	12785.19
542.494	12779.54
542.858	12865.86
543.223	12866.99
543.587	12999.87
543.952	12995.12
544.316	13001.45
544.681	13100.88
545.045	13166.19
545.41	13233.31
545.774	13261.78
546.138	13347.66
546.503	13375.68
546.867	13392.4
547.231	13552.17
547.595	13499.29
547.959	13551.04
548.324	13523.92
548.688	13619.97
549.052	13741.77
549.416	13700.42
549.779	13849.34
550.143	13761.88
550.507	13832.84
550.871	13874.2
551.235	13861.99
551.599	14060.63
551.962	14027.41
552.326	14167.75
552.689	14216.56
553.053	14096.79
553.417	14244.36
553.78	14373.62
554.143	14268.54
554.507	14394.41
554.87	14527.29
555.234	14588.98
555.597	14572.71
555.96	14560.73
556.323	14639.15
556.686	14634.4
557.05	14723.44
557.413	14738.58
557.776	14795.98
558.139	14823.55
558.502	14845.92
558.865	14889.31
559.228	15082.53
559.59	15110.77
559.953	15147.84
560.316	15283.2
560.679	15215.63
561.041	15289.98
561.404	15342.41
561.767	15523.65
562.129	15408.62
562.492	15560.48
562.854	15590.76
563.217	15584.89
563.579	15670.08
563.941	15737.2
564.304	15825.78
564.666	15833.24
565.028	15821.26
565.39	15955.5
565.753	16060.58
566.115	16081.82
566.477	16128.83
566.839	16194.36
567.201	16294.92
567.563	16275.04
567.925	16424.19
568.287	16448.14
568.648	16567.01
569.01	16649.04
569.372	16669.15
569.734	16665.76
570.095	16788.7
570.457	16751.18
570.819	16875.02
571.18	16940.33
571.542	17024.17
571.903	17107.56
572.265	17171.74
572.626	17234.11
572.987	17317.27
573.349	17377.83
573.71	17472.75
574.071	17575.57
574.432	17544.84
574.794	17787.31
575.155	17792.51
575.516	17952.96
575.877	18111.6
576.238	18120.87
576.599	18183.24
576.96	18211.48
577.32	18457.58
577.681	18554.53
578.042	18748.65
578.403	18770.57
578.763	18947.96
579.124	19145.25
579.485	19230.44
579.845	19424.56
580.206	19455.97
580.566	19635.63
580.927	19772.8
581.287	20060.7
581.648	20139.34
582.008	20282.39
582.368	20427.02
582.728	20662.27
583.089	20877.4
583.449	21023.39
583.809	21193.1
584.169	21448.46
584.529	21600.32
584.889	21910.6
585.249	21943.59
585.609	22086.18
585.969	22515.1
586.329	22665.15
586.688	22891.59
587.048	23125.71
587.408	23305.59
587.768	23560.95
588.127	23614.73
588.487	23919.36
588.846	24332.45
589.206	24432.11
589.565	24632.11
589.925	25003.17
590.284	25141.02
590.643	25498.3
591.003	25860.1
591.362	26080.66
591.721	26373.53
592.08	26486.97
592.44	26891.48
592.799	27101.19
593.158	27384.58
593.517	27683.55
593.876	27891.68
594.235	28144.78
594.593	28448.28
594.952	28622.74
595.311	28864.54
595.67	29257.3
596.029	29606.21
596.387	29838.98
596.746	30072.64
597.104	30183.15
597.463	30518.73
597.822	30744.26
598.18	30967.31
598.538	31219.5
598.897	31591.7
599.255	31595.77
599.613	32275.3
599.972	32335.18
600.33	32664.66
600.688	32663.76
601.046	33008.61
601.404	33289.51
601.762	33480.46
602.12	33661.7
602.478	33937.85
602.836	34178.07
603.194	34143.27
603.552	34564.27
603.91	34611.73
604.268	34921.78
604.625	35061.44
604.983	35458.04
605.341	35398.6
605.698	35697.35
606.056	35932.37
606.413	36140.5
606.771	36400.16
607.128	36508.86
607.485	36651.45
607.843	36860.26
608.2	37110.2
608.557	37348.16
608.914	37337.54
609.272	37664.08
609.629	37916.95
609.986	38215.7
610.343	38028.36
610.7	38525.07
611.057	38541.8
611.414	38754.9
611.771	38775.92
612.127	39151.95
612.484	39135.45
612.841	39402.34
613.198	39362.34
613.554	39520.08
613.911	39892.72
614.267	39930.69
614.624	39893.85
614.98	40133.17
615.337	40454.52
615.693	40433.95
616.05	40318.93
616.406	40775.86
616.762	40806.82
617.118	40822.87
617.475	40952.13
617.831	41089.75
618.187	41229.86
618.543	41426.69
618.899	41659.46
619.255	41580.36
619.611	41786.68
619.967	41875.27
620.323	41962.95
620.678	42009.5
621.034	42026.9
621.39	42147.8
621.746	42122.49
622.101	42613.55
622.457	42355.71
622.812	42583.95
623.168	42741.23
623.523	42555.48
623.879	42924.73
624.234	42668.02
624.589	42870.05
624.945	42955.01
625.3	43094.67
625.655	43030.04
626.01	43064.16
626.365	43141.22
626.72	43206.53
627.075	43114.33
627.43	43314.55
627.785	43118.85
628.14	43390.94
628.495	43420.09
628.85	43355.68
629.205	43261
629.559	43557.94
629.914	43357.26
630.269	43512.74
630.623	43460.76
630.978	43331.28
631.332	43572.4
631.687	43741.43
632.041	43592.29
632.396	43570.14
632.75	43459.86
633.104	43621.66
633.459	43299.86
633.813	43405.4
634.167	43468.9
634.521	43602.46
634.875	43607.65
635.229	43594.32
635.583	43384.83
635.937	43471.16
636.291	43471.39
636.645	43388.45
636.999	43470.03
637.352	43646.97
637.706	43354.78
638.06	43589.57
638.413	43439.97
638.767	43322.69
639.121	43297.15
639.474	43281.33
639.828	43262.13
640.181	43240.2
640.534	43346.87
640.888	43090.6
641.241	42964.96
641.594	43242.69
641.947	43275.01
642.301	43061
642.654	43023.49
643.007	43188.91
643.36	43154.56
643.713	43127.21
644.066	43302.58
644.419	42959.99
644.771	42797.96
645.124	42455.82
645.477	42453.56
645.83	42063.96
646.182	42036.62
646.535	41868.04
646.888	42154.13
647.24	41803.86
647.593	42040.24
647.945	42009.05
648.298	41801.6
648.65	41738.55
649.002	41789.4
649.355	41918.43
649.707	41723.86
650.059	41949.62
650.411	42525.2
650.763	42487.46
651.115	42814
651.467	42742.36
651.819	42715.25
652.171	42651.07
652.523	42487.91
652.875	42584.18
653.227	42440.45
653.578	42836.15
653.93	42600.9
654.282	42364.52
654.633	42438.64
654.985	42489.49
655.337	42501.24
655.688	42573.56
656.039	42516.16
656.391	42202.72
656.742	42340.79
657.094	42340.12
657.445	42532.65
657.796	42399.32
658.147	42250.17
658.498	42298.99
658.849	42450.4
659.2	42322.04
659.551	42185.32
659.902	42434.58
660.253	42236.39
660.604	42314.58
660.955	42186.67
661.306	42428.7
661.656	42181.7
662.007	42225.09
662.358	42267.35
662.708	42243.85
663.059	42130.86
663.409	41755.72
663.76	42244.98
664.11	42081.14
664.461	42255.37
664.811	42278.65
665.161	42202.94
665.511	42016.51
665.862	42194.81
666.212	42297.86
666.562	42211.98
666.912	42081.37
667.262	42003.85
667.612	42084.98
667.962	42189.61
668.312	42078.65
668.662	42233
669.011	41989.84
669.361	42023.97
669.711	42031.65
670.06	42016.73
670.41	42097.41
670.76	41931.09
671.109	42145.54
671.459	41958.66
671.808	41941.71
672.157	41928.83
672.507	41770.19
672.856	41854.7
673.205	41828.49
673.554	42027.81
673.904	41774.03
674.253	41963.18
674.602	41905.55
674.951	41263.08
675.3	41004.33
675.649	41730.41
675.998	41836.17
676.346	41739
676.695	41867.59
677.044	41467.6
677.393	41702.39
677.741	41724.09
678.09	41649.06
678.438	41503.98
678.787	41725.67
679.135	41683.64
679.484	41267.6
679.832	41452.46
680.181	41256.08
680.529	41437.99
680.877	41282.29
681.225	41259.69
681.573	41446.13
681.922	41079.81
682.27	41062.86
682.618	41114.84
682.966	41003.2
683.314	41072.8
683.661	40828.52
684.009	40750.1
684.357	40655.19
684.705	40707.16
685.053	40585.81
685.4	40594.17
685.748	40458.13
686.095	40560.05
686.443	40386.72
686.79	40220.85
687.138	40430.79
687.485	40355.08
687.832	40170
688.18	40097.24
688.527	39959.61
688.874	40103.11
689.221	39947.64
689.568	39719.39
689.915	39764.36
690.262	39757.81
690.609	39478.27
690.956	39513.75
691.303	39366.63
691.65	39228.11
691.997	39262.91
692.344	39008.68
692.69	39134.32
693.037	39013.88
693.383	38707.89
693.73	38856.14
694.077	38636.48
694.423	38636.48
694.769	38462.48
695.116	38477.84
695.462	38369.15
695.808	38501.35
696.155	38422.25
696.501	38055.71
696.847	37963.96
697.193	37918.08
697.539	37962.38
697.885	37750.18
698.231	37738.2
698.577	37631.99
698.923	37561.03
699.269	37468.38
699.614	37323.52
699.96	37209.18
700.306	37170.08
700.651	37081.27
700.997	36945.46
701.342	36881.28
701.688	36826.36
702.033	36765.35
702.379	36680.38
702.724	36564.22
703.069	36581.62
703.415	36161.52
703.76	36264.57
704.105	36309.09
704.45	36138.47
704.795	35975.09
705.14	35801.53
705.485	35870.46
705.83	35669.33
706.175	35668.43
706.52	35638.82
706.865	35471.37
707.209	35425.95
707.554	35352.28
707.899	35439.28
708.243	35070.02
708.588	35067.54
708.932	35004.04
709.277	34974.66
709.621	35037.71
709.966	34772.4
710.31	34825.06
710.654	34484.05
710.998	34519.98
711.342	34618.96
711.687	34609.92
712.031	34336.03
712.375	34323.15
712.719	34337.84
713.063	34226.2
713.407	34265.3
713.75	34216.49
714.094	34059.66
714.438	33908.92
714.782	34028.47
715.125	33835.25
715.469	33869.15
715.812	33703.51
716.156	33550.97
716.499	33606.56
716.843	33572.66
717.186	33255.83
717.53	33488.37
717.873	33511.2
718.216	33413.57
718.559	33158.89
718.902	33009.97
719.246	33040.47
719.589	33049.29
719.932	32855.17
720.275	32974.26
720.617	32942.17
720.96	32904.66
721.303	32772.91
721.646	32743.08
721.989	32669.41
722.331	32657.43
722.674	32664.89
723.016	32640.26
723.359	32560.26
723.701	32602.74
724.044	32297.22
724.386	32101.74
724.729	32314.84
725.071	32096.77
725.413	32231.68
725.755	32209.99
726.097	32070.78
726.439	31802.77
726.782	31831.47
727.124	31938.58
727.465	31812.93
727.807	31780.39
728.149	31683.9
728.491	31727.51
728.833	31742.43
729.175	31544.47
729.516	31612.26
729.858	31286.85
730.199	31491.81
730.541	31446.39
730.882	31313.74
731.224	31349.67
731.565	31292.04
731.906	31364.58
732.248	31203.01
732.589	31018.38
732.93	31060.86
733.271	31002.79
733.612	31004.82
733.953	31044.37
734.294	30793.3
734.635	31003.92
734.976	30896.35
735.317	30742.91
735.658	30838.05
735.999	30775.9
736.339	30677.82
736.68	30670.82
737.021	30538.62
737.361	30424.27
737.702	30660.42
738.042	30600.09
738.383	30437.15
738.723	30428.56
739.063	30377.94
739.404	30449.81
739.744	30382.46
740.084	30235.58
740.424	30377.27
740.764	30055.01
741.104	30307.21
741.444	30128.01
741.784	30064.73
742.124	30022.47
742.464	29974.79
742.804	29925.98
743.143	29870.61
743.483	29908.8
743.823	29695.7
744.162	29759.88
744.502	29843.49
744.841	29600.79
745.181	29796.04
745.52	29560.56
745.86	29593.33
746.199	29583.61
746.538	29502.04
746.877	29671.75
747.216	29490.06
747.556	29487.35
747.895	29464.97
748.234	29268.82
748.573	29154.93
748.911	29261.59
749.25	29339.78
749.589	29120.8
749.928	29119.9
750.267	29200.8
750.605	28947.25
750.944	28917.42
751.283	28860.24
751.621	28801.71
751.96	28773.47
752.298	28783.18
752.636	28643.98
752.975	28621.83
753.313	28457.54
753.651	28696.41
753.989	28487.37
754.327	28562.85
754.666	28287.83
755.004	28272.69
755.342	28347.26
755.679	28297.55
756.017	28248.28
756.355	28273.37
756.693	28002.19
757.031	28195.85
757.368	27973.04
757.706	27928.29
758.044	27779.82
758.381	27891
758.719	27716.77
759.056	27791.12
759.394	27739.37
759.731	27500.28
760.068	27472.94
760.405	27410.34
760.743	27309.55
761.08	27301.19
761.417	27217.8
761.754	27067.07
762.091	27144.36
762.428	27038.14
762.765	26812.16
763.102	26928.09
763.438	26733.52
763.775	26620.75
764.112	26569.23
764.449	26701.43
764.785	26426.86
765.122	26316.58
765.458	26276.36
765.795	26183.7
766.131	26117.94
766.467	26188.9
766.804	26008.34
767.14	25882.02
767.476	25808.35
767.812	25867.1
768.148	25694.9
768.485	25615.81
768.821	25466.21
769.157	25372.88
769.492	25468.92
769.828	25378.75
770.164	25079.33
770.5	25030.74
770.836	25035.49
771.171	24861.25
771.507	24745.32
771.842	24555.5
772.178	24717.75
772.513	24599.79
772.849	24512.79
773.184	24376.52
773.519	24341.04
773.855	24299.91
774.19	24132.01
774.525	24058.79
774.86	24068.73
775.195	24058.11
775.53	23909.19
775.865	23747.38
776.2	23656.09
776.535	23492.25
776.87	23521.85
777.205	23285.7
777.539	23233.73
777.874	23348.52
778.209	23161.86
778.543	23048.87
778.878	22947.63
779.212	22996.67
779.547	22854.53
779.881	22887.75
780.215	22693.17
780.55	22655.89
780.884	22595.1
781.218	22513.07
781.552	22534.31
781.886	22361.88
782.22	22214.09
782.554	22165.73
782.888	21939.07
783.222	21905.62
783.556	21880.54
783.889	21887.77
784.223	21752.41
784.557	21584.5
784.89	21695.01
785.224	21513.54
785.557	21430.61
785.891	21289.14
786.224	21280.1
786.558	21216.15
786.891	21040.11
787.224	21022.71
787.557	20989.72
787.891	20960.34
788.224	20851.87
788.557	20763.28
788.89	20651.42
789.223	20696.62
789.556	20575.26
789.888	20540.46
790.221	20407.13
790.554	20264.31
790.887	20273.58
791.219	20149.51
791.552	20190.87
791.884	20100.47
792.217	19956.52
792.549	19890.99
792.882	19824.55
793.214	19758.79
793.546	19678.56
793.879	19589.08
794.211	19531.9
794.543	19478.8
794.875	19483.09
795.207	19486.48
795.539	19408.06
795.871	19297.78
796.203	19200.38
796.535	19138.92
796.867	19106.15
797.198	19076.55
797.53	19016.44
797.862	18920.39
798.193	18948.19
798.525	18728.76
798.856	18742.09
799.188	18556.11
799.519	18486.96
799.85	18475.43
800.182	18476.79
800.513	18397.69
800.844	18361.31
801.175	18441.31
801.506	18284.48
801.837	18232.5
802.168	18226.85
802.499	18104.82
802.83	18016.69
803.161	17956.35
803.491	17912.51
803.822	17990.47
804.153	17867.31
804.483	17751.61
804.814	17686.53
805.145	17653.98
805.475	17639.07
805.805	17551.61
806.136	17544.38
806.466	17597.26
806.796	17413.99
807.126	17324.95
807.457	17346.42
807.787	17256.48
808.117	17200.44
808.447	17139.42
808.777	17176.03
809.107	17031.18
809.436	16986.21
809.766	16975.36
810.096	16936.04
810.426	16831.18
810.755	16853.78
811.085	16765.87
811.414	16727.46
811.744	16658.3
812.073	16583.05
812.403	16618.98
812.732	16540.34
813.061	16542.38
813.39	16333.57
813.719	16467.35
814.049	16498.54
814.378	16306
814.707	16259.22
815.036	16257.64
815.365	16127.47
815.693	16142.16
816.022	16083.4
816.351	15943.07
816.68	15904.43
817.008	15988.94
817.337	15889.74
817.665	15742.62
817.994	15800.02
818.322	15888.38
818.651	15743.75
818.979	15685.45
819.307	15812
819.636	15665.34
819.964	15571.78
820.292	15659.91
820.62	15600.03
820.948	15605
821.276	15668.05
821.604	15536.53
821.932	15602.29
822.259	15568.62
822.587	15627.37
822.915	15519.35
823.243	15502.4
823.57	15436.19
823.898	15535.17
824.225	15449.3
824.553	15475.51
824.88	15454.72
825.207	15470.09
825.535	15456.08
825.862	15487.04
826.189	15369.53
826.516	15520.26
826.843	15501.95
827.17	15514.61
827.497	15539.92
827.824	15426.02
828.151	15454.49
828.478	15431.22
828.805	15440.94
829.131	15426.25
829.458	15437.09
829.785	15405
830.111	15473.03
830.438	15442.74
830.764	15450.2
831.09	15413.59
831.417	15313.03
831.743	15463.76
832.069	15394.61
832.395	15297.89
832.722	15419.92
833.048	15316.19
833.374	15269.19
833.7	15241.84
834.026	15265.8
834.351	15307.38
834.677	15257.44
835.003	15378.79
835.329	15324.1
835.654	15163.43
835.98	15205.69
836.306	15279.58
836.631	15128.85
836.956	15108.29
837.282	15116.42
837.607	15103.32
837.932	15032.13
838.258	15073.04
838.583	15012.7
838.908	14977.9
839.233	14967.5
839.558	14914.4
839.883	14874.85
840.208	14780.16
840.533	14834.85
840.858	14837.34
841.182	14803.21
841.507	14772.93
841.832	14695.19
842.156	14688.19
842.481	14661.52
842.805	14659.26
843.13	14713.5
843.454	14611.13
843.778	14581.75
844.103	14496.78
844.427	14469.44
844.751	14396.9
845.075	14472.83
845.399	14401.19
845.723	14253.17
846.047	14276.9
846.371	14140.18
846.695	14218.37
847.019	14056.34
847.343	13988.32
847.666	13997.13
847.99	13901.32
848.313	13941.54
848.637	13758.04
848.96	13769.12
849.284	13724.82
849.607	13629.01
849.931	13506.98
850.254	13508.11
850.577	13433.76
850.9	13390.82
851.223	13314.44
851.546	13228.56
851.869	13135.69
852.192	13235.57
852.515	13175.91
852.838	13100.43
853.161	13069.02
853.483	13069.47
853.806	12975.69
854.129	12950.38
854.451	12800.78
854.774	12849.37
855.096	12758.29
855.419	12776.6
855.741	12771.85
856.063	12616.6
856.385	12663.16
856.708	12621.12
857.03	12468.58
857.352	12567.79
857.674	12564.4
857.996	12438.3
858.318	12382.49
858.64	12373.22
858.961	12287.57
859.283	12291.19
859.605	12229.72
859.926	12263.84
860.248	12251.42
860.57	12224.3
860.891	12165.77
861.212	12085.09
861.534	12018.65
861.855	12021.36
862.176	12055.94
862.498	12055.26
862.819	12017.3
863.14	11958.09
863.461	11934.36
863.782	11897.98
864.103	11862.72
864.424	11828.15
864.745	11893.91
865.065	11772.56
865.386	11733.24
865.707	11789.28
866.027	11742.5
866.348	11731.88
866.668	11737.53
866.989	11631.32
867.309	11627.93
867.63	11583.18
867.95	11597.2
868.27	11512.23
868.59	11510.87
868.91	11476.75
869.23	11510.19
869.55	11435.84
869.87	11439.46
870.19	11511.55
870.51	11488.95
870.83	11445.79
871.15	11386.58
871.469	11373.92
871.789	11397.88
872.109	11375.51
872.428	11291.67
872.748	11324.89
873.067	11265.68
873.386	11236.98
873.706	11325.34
874.025	11252.8
874.344	11180.03
874.663	11233.14
874.982	11161.27
875.301	11170.09
875.62	11160.6
875.939	11098.45
876.258	11109.75
876.577	11070.2
876.896	11046.48
877.214	11000.15
877.533	11079.47
877.852	11053.93
878.17	11023.88
878.489	11055.51
878.807	10935.07
879.125	10979.58
879.444	10937.33
879.762	10891
880.08	10868.17
880.398	10878.57
880.716	10822.07
881.034	10862.53
881.352	10815.29
881.67	10745.24
881.988	10752.25
882.306	10721.74
882.624	10710.66
882.941	10675.19
883.259	10672.25
883.577	10618.24
883.894	10595.19
884.212	10546.15
884.529	10568.3
884.846	10543.89
885.164	10511.35
885.481	10449.2
885.798	10427.96
886.115	10363.33
886.432	10421.41
886.75	10343.67
887.067	10382.99
887.383	10275.65
887.7	10371.24
888.017	10274.52
888.334	10332.14
888.651	10208.31
888.967	10207.4
889.284	10168.08
889.6	10144.35
889.917	10117.23
890.233	10108.19
890.55	10124.92
890.866	10023.9
891.182	10020.29
891.498	9982.55
891.815	9967.18
892.131	9926.73
892.447	9939.16
892.763	9838.82
893.079	9865.94
893.395	9797.24
893.71	9785.49
894.026	9823.46
894.342	9710.01
894.657	9644.7
894.973	9648.32
895.289	9668.21
895.604	9629.56
895.92	9541.43
896.235	9540.3
896.55	9471.83
896.865	9448.78
897.181	9528.32
897.496	9388.89
897.811	9431.15
898.126	9403.58
898.441	9323.81
898.756	9319.06
899.071	9204.94
899.386	9277.26
899.7	9153.87
900.015	9131.95
900.33	9037.26
900.644	9077.49
900.959	9077.49
901.273	8999.75
901.588	9027.55
901.902	8975.57
902.216	8967.89
902.531	8954.33
902.845	8839.53
903.159	8814.44
903.473	8818.96
903.787	8770.15
904.101	8722.92
904.415	8703.94
904.729	8674.33
905.042	8583.49
905.356	8596.14
905.67	8607.44
905.984	8569.25
906.297	8503.49
906.611	8478.86
906.924	8463.94
907.237	8383.72
907.551	8390.5
907.864	8328.81
908.177	8351.63
908.491	8293.55
908.804	8270.05
909.117	8215.82
909.43	8208.81
909.743	8121.13
910.056	8071.64
910.368	8035.03
910.681	8034.58
910.994	8020.57
911.307	7964.52
911.619	7966.56
911.932	7903.96
912.244	7893.56
912.557	7914.58
912.869	7799.1
913.181	7797.07
913.494	7797.29
913.806	7717.52
914.118	7664.64
914.43	7672.1
914.742	7613.57
915.054	7553.91
915.366	7511.65
915.678	7505.55
915.99	7532.44
916.302	7452.45
916.613	7402.73
916.925	7408.38
917.236	7364.76
917.548	7358.89
917.859	7340.58
918.171	7305.33
918.482	7241.83
918.794	7266.91
919.105	7244.32
919.416	7182.85
919.727	7186.92
920.038	7109.86
920.349	7063.3
920.66	7045.22
920.971	7059.01
921.282	7005.23
921.593	6975.4
921.903	6929.75
922.214	6965.45
922.525	6917.09
922.835	6848.17
923.146	6792.35
923.456	6779.02
923.767	6763.2
924.077	6716.87
924.387	6710.54
924.697	6642.3
925.008	6565.69
925.318	6609.76
925.628	6623.31
925.938	6483.66
926.248	6503.32
926.558	6445.24
926.867	6499.7
927.177	6429.2
927.487	6416.54
927.796	6376.77
928.106	6350.1
928.416	6334.28
928.725	6314.62
929.034	6314.62
929.344	6313.27
929.653	6200.95
929.962	6191.24
930.271	6113.72
930.581	6139.71
930.89	6028.98
931.199	6078.92
931.508	6076.21
931.817	6109.66
932.125	6012.26
932.434	5983.78
932.743	5947.85
933.051	5957.8
933.36	5897.46
933.669	5855.65
933.977	5851.36
934.286	5879.15
934.594	5812.94
934.902	5777.24
935.21	5762.32
935.519	5701.53
935.827	5687.97
936.135	5659.5
936.443	5607.07
936.751	5632.61
937.059	5588.09
937.367	5496.79
937.674	5590.57
937.982	5548.54
938.29	5497.24
938.597	5519.84
938.905	5467.86
939.213	5420.86
939.52	5389.9
939.827	5386.06
940.135	5378.15
940.442	5340.18
940.749	5325.5
941.056	5328.21
941.363	5273.52
941.67	5273.75
941.977	5214.31
942.284	5193.97
942.591	5211.15
942.898	5106.29
943.205	5201.43
943.511	5111.72
943.818	5135.9
944.125	5065.84
944.431	5020.19
944.738	5017.71
945.044	4974.09
945.35	5005.5
945.657	4985.17
945.963	4965.96
946.269	4954.88
946.575	4867.43
946.881	4874.89
947.187	4877.37
947.493	4790.14
947.799	4832.85
948.105	4823.36
948.41	4718.51
948.716	4756.7
949.022	4736.81
949.327	4697.72
949.633	4658.17
949.938	4633.99
950.244	4645.51
950.549	4587.89
950.854	4565.06
951.16	4603.25
951.465	4576.14
951.77	4575.01
952.075	4521.45
952.38	4524.84
952.685	4499.53
952.99	4481
953.294	4461.79
953.599	4419.3
953.904	4426.54
954.209	4382.02
954.513	4366.2
954.818	4360.1
955.122	4362.36
955.426	4346.09
955.731	4286.43
956.035	4296.6
956.339	4265.86
956.643	4237.16
956.948	4199.65
957.252	4229.48
957.556	4196.49
957.86	4164.4
958.163	4182.25
958.467	4156.03
958.771	4134.79
959.075	4115.58
959.378	4072.87
959.682	4084.85
959.985	4034.23
960.289	4019.77
960.592	4038.75
960.896	4024.29
961.199	3998.98
961.502	3970.28
961.805	3974.57
962.108	3923.05
962.411	3916.04
962.714	3871.97
963.017	3864.74
963.32	3883.95
963.623	3857.51
963.926	3861.58
964.228	3825.2
964.531	3811.64
964.833	3808.25
965.136	3779.32
965.438	3725.09
965.741	3720.11
966.043	3736.61
966.345	3697.06
966.648	3716.27
966.95	3667.23
967.252	3648.03
967.554	3615.03
967.856	3638.08
968.158	3573.68
968.46	3591.53
968.761	3582.04
969.063	3549.95
969.365	3531.42
969.666	3541.36
969.968	3509.27
970.269	3523.28
970.571	3455.94
970.872	3471.31
971.174	3453.45
971.475	3397.64
971.776	3375.26
972.077	3422.72
972.378	3403.96
972.679	3390.18
972.98	3346.11
973.281	3346.34
973.582	3333.68
973.883	3311.99
974.183	3307.24
974.484	3271.31
974.785	3288.49
975.085	3292.33
975.386	3254.36
975.686	3227.92
975.986	3221.37
976.287	3230.41
976.587	3187.02
976.887	3187.47
977.187	3196.96
977.487	3142.73
977.787	3133.01
978.087	3106.57
978.387	3098.66
978.687	3105.21
978.987	3102.5
979.286	3048.72
979.586	3042.17
979.885	3029.06
980.185	2990.42
980.484	2973.02
980.784	2993.35
981.083	2994.94
981.382	2964.2
981.682	2923.07
981.981	2960.36
982.28	2919.91
982.579	2934.37
982.878	2926.24
983.177	2916.97
983.475	2896.86
983.774	2854.83
984.073	2858.44
984.372	2808.95
984.67	2805.11
984.969	2828.84
985.267	2822.96
985.566	2768.5
985.864	2787.26
986.162	2763.76
986.461	2742.51
986.759	2719.69
987.057	2761.27
987.355	2704.32
987.653	2749.52
987.951	2666.13
988.249	2678.33
988.547	2673.81
988.844	2667.26
989.142	2659.58
989.44	2628.62
989.737	2624.55
990.035	2608.5
990.332	2602.18
990.63	2593.36
990.927	2603.76
991.224	2564.21
991.521	2552.69
991.819	2558.79
992.116	2526.7
992.413	2494.61
992.71	2475.63
993.006	2512.91
993.303	2473.59
993.6	2480.37
993.897	2489.86
994.193	2456.19
994.49	2435.18
994.787	2432.92
995.083	2425.23
995.379	2387.72
995.676	2389.08
995.972	2389.75
996.268	2328.51
996.565	2331.9
996.861	2320.83
997.157	2323.77
997.453	2326.25
997.749	2303.43
998.044	2310.66
998.34	2283.32
998.636	2260.94
998.932	2250.77
999.227	2249.19
999.523	2258.01
999.818	2220.04
1000.114	2231.34
1000.409	2187.72
1000.704	2198.35
1001	2169.65
1001.295	2158.35
1001.59	2149.53
1001.885	2156.54
1002.18	2097.78
1002.475	2145.01
1002.77	2103.66
1003.065	2079.48
1003.359	2071.8
1003.654	2051.01
1003.949	2064.11
1004.243	2036.54
1004.538	2008.29
1004.832	2019.14
1005.127	2043.55
1005.421	2002.19
1005.715	1983.66
1006.009	1991.8
1006.304	1954.06
1006.598	1972.82
1006.892	1953.38
1007.186	1947.73
1007.48	1955.19
1007.773	1919.26
1008.067	1905.7
1008.361	1867.28
1008.655	1879.94
1008.948	1879.94
1009.242	1869.09
1009.535	1864.8
1009.829	1831.12
1010.122	1855.3
1010.415	1800.84
1010.708	1812.59
1011.001	1788.41
1011.295	1794.29
1011.588	1785.25
1011.881	1768.07
1012.173	1753.61
1012.466	1738.7
1012.759	1705.7
1013.052	1740.28
1013.344	1728.98
1013.637	1732.14
1013.93	1728.98
1014.222	1699.83
1014.514	1673.39
1014.807	1668.64
1015.099	1647.63
1015.391	1649.43
1015.683	1640.85
1015.976	1635.65
1016.268	1621.41
1016.56	1646.95
1016.851	1600.4
1017.143	1585.71
1017.435	1591.58
1017.727	1543
1018.018	1550.68
1018.31	1518.82
1018.602	1560.85
1018.893	1540.51
1019.185	1556.78
1019.476	1536.22
1019.767	1527.18
1020.058	1507.74
1020.35	1493.96
1020.641	1482.43
1020.932	1449.21
1021.223	1451.7
1021.514	1451.25
1021.804	1459.61
1022.095	1431.36
1022.386	1419.16
1022.677	1412.6
1022.967	1401.08
1023.258	1381.42
1023.548	1390.46
1023.839	1382.55
1024.129	1379.16
1024.419	1381.64
1024.709	1358.37
1025	1337.35
1025.29	1337.35
1025.58	1320.86
1025.87	1304.36
1026.16	1290.35
1026.449	1315.66
1026.739	1229.33
1027.029	1264.81
1027.319	1263.23
1027.608	1282.66
1027.898	1248.09
1028.187	1255.32
1028.477	1220.52
1028.766	1210.12
1029.055	1231.82
1029.344	1219.16
1029.634	1194.98
1029.923	1213.74
1030.212	1215.1
1030.501	1189.33
1030.79	1165.6
1031.078	1155.21
1031.367	1172.38
1031.656	1165.38
1031.945	1109.79
1032.233	1126.51
1032.522	1121.54
1032.81	1132.61
1033.099	1107.08
1033.387	1128.09
1033.675	1114.76
1033.963	1089
1034.251	1099.39
1034.54	1060.3
1034.828	1048.55
1035.116	1073.63
1035.403	1045.16
1035.691	1024.37
1035.979	1060.3
1036.267	1050.13
1036.554	1010.35
1036.842	1024.59
1037.129	1030.47
1037.417	1019.62
1037.704	987.98
1037.992	1009.22
1038.279	993.41
1038.566	984.37
1038.853	984.37
1039.14	984.37
