Data from hue_260_FLMS001491_00080.txt Node
Date: Tue Feb 07 15:59:35 GMT 2017
User: dcchb
Spectrometer: FLMS00149
Trigger mode: 0
Integration Time (sec): 2.000000E-2
Scans to average: 10
Electric dark correction enabled: true
Nonlinearity correction enabled: false
Boxcar width: 0
XAxis mode: Wavelengths
Number of Pixels in Spectrum: 2048
>>>>>Begin Spectral Data<<<<<
341.393	-14.21
341.776	-14.21
342.16	-14.21
342.543	-74.77
342.927	-69.8
343.31	-71.38
343.693	-56.02
344.077	-71.16
344.46	-87.2
344.843	-62.34
345.226	-32.97
345.61	-36.13
345.993	-9.24
346.376	-13.53
346.759	11.1
347.142	37.99
347.525	48.39
347.908	63.08
348.291	80.93
348.674	83.42
349.057	115.05
349.44	106.69
349.823	136.52
350.206	156.86
350.588	172.45
350.971	235.05
351.354	197.54
351.737	207.25
352.119	252.9
352.502	260.81
352.884	272.11
353.267	266.24
353.65	293.58
354.032	270.3
354.414	280.92
354.797	294.71
355.179	302.62
355.562	307.59
355.944	334.48
356.326	317.31
356.709	342.62
357.091	352.79
357.473	329.96
357.855	339
358.238	328.38
358.62	324.31
359.002	329.74
359.384	317.31
359.766	315.05
360.148	318.21
360.53	327.93
360.912	327.25
361.294	346.46
361.676	329.74
362.057	327.93
362.439	320.02
362.821	282.28
363.203	300.36
363.584	315.73
363.966	318.66
364.348	320.47
364.729	309.85
365.111	315.27
365.493	313.92
365.874	312.79
366.256	318.66
366.637	302.39
367.019	312.11
367.4	302.62
367.781	296.29
368.163	299.46
368.544	300.36
368.925	303.07
369.306	317.76
369.688	309.85
370.069	309.17
370.45	307.14
370.831	313.92
371.212	295.61
371.593	310.08
371.974	323.41
372.355	313.92
372.736	310.75
373.117	319.57
373.498	306.23
373.879	297.2
374.26	309.85
374.641	315.73
375.021	309.85
375.402	291.32
375.783	290.42
376.163	322.96
376.544	314.14
376.925	328.61
377.305	304.65
377.686	306.69
378.066	309.17
378.447	317.99
378.827	338.32
379.208	303.75
379.588	340.36
379.968	320.25
380.349	312.34
380.729	328.83
381.109	295.84
381.489	339.23
381.87	336.29
382.25	335.84
382.63	338.32
383.01	339.91
383.39	321.38
383.77	325.9
384.15	343.07
384.53	341.71
384.91	330.64
385.29	343.3
385.67	341.49
386.049	357.31
386.429	344.88
386.809	336.06
387.189	327.7
387.568	358.89
387.948	355.95
388.328	361.15
388.707	365.22
389.087	364.99
389.466	354.82
389.846	361.37
390.225	363.18
390.605	351.43
390.984	361.6
391.363	362.5
391.743	364.76
392.122	369.51
392.501	367.48
392.881	385.55
393.26	360.02
393.639	371.32
394.018	359.11
394.397	366.12
394.776	381.71
395.155	382.84
395.534	381.26
395.913	376.52
396.292	403.18
396.671	383.75
397.05	383.75
397.429	388.72
397.808	374.71
398.186	389.85
398.565	405.44
398.944	393.92
399.323	407.48
399.701	401.15
400.08	398.89
400.458	399.34
400.837	402.28
401.215	411.77
401.594	443.86
401.972	416.97
402.351	429.17
402.729	423.29
403.107	424.88
403.486	439.56
403.864	411.99
404.242	434.59
404.62	450.19
404.999	446.8
405.377	464.2
405.755	442.95
406.133	425.33
406.511	452.22
406.889	447.02
407.267	463.97
407.645	468.26
408.023	488.83
408.401	459.68
408.779	481.37
409.156	502.39
409.534	496.96
409.912	497.42
410.29	501.03
410.667	530.41
411.045	522.73
411.422	529.05
411.8	512.11
412.178	545.1
412.555	548.04
412.933	558.88
413.31	578.54
413.687	571.99
414.065	575.38
414.442	573.8
414.819	596.4
415.197	599.33
415.574	582.39
415.951	614.93
416.328	611.76
416.705	623.06
417.082	616.06
417.46	644.98
417.837	617.64
418.214	642.5
418.591	665.32
418.967	662.61
419.344	648.15
419.721	699.22
420.098	667.81
420.475	701.7
420.852	694.25
421.228	694.93
421.605	718.2
421.982	708.71
422.358	717.07
422.735	745.09
423.111	741.25
423.488	757.52
423.864	781.93
424.241	772.44
424.617	780.35
424.994	820.8
425.37	824.64
425.746	804.75
426.123	831.64
426.499	834.13
426.875	846.11
427.251	858.99
427.627	855.37
428.003	879.1
428.379	886.56
428.756	912.32
429.132	938.31
429.507	944.64
429.883	917.74
430.259	931.08
430.635	952.32
431.011	972.88
431.387	992.09
431.763	986.89
432.138	1022.15
432.514	1027.35
432.89	1037.97
433.265	1025.99
433.641	1056.05
434.016	1059.44
434.392	1107.8
434.767	1121.81
435.143	1113.9
435.518	1129.26
435.894	1156.16
436.269	1192.77
436.644	1186.44
437.02	1209.49
437.395	1201.35
437.77	1259.88
438.145	1243.84
438.52	1265.53
438.895	1318.86
439.271	1315.7
439.646	1340.56
440.021	1340.78
440.395	1355.92
440.77	1359.99
441.145	1389.82
441.52	1416.71
441.895	1423.49
442.27	1440.67
442.645	1430.95
443.019	1437.96
443.394	1437.05
443.769	1476.37
444.143	1468.46
444.518	1506.2
444.892	1512.53
445.267	1540.33
445.641	1518.18
446.016	1544.62
446.39	1535.81
446.764	1537.16
447.139	1544.17
447.513	1595.01
447.887	1580.1
448.262	1580.78
448.636	1586.43
449.01	1640.21
449.384	1628.23
449.758	1645.41
450.132	1682.92
450.506	1672.98
450.88	1677.95
451.254	1688.57
451.628	1736.48
452.002	1710.94
452.376	1726.76
452.75	1778.96
453.123	1757.72
453.497	1771.73
453.871	1794.11
454.244	1844.5
454.618	1829.13
454.992	1884.27
455.365	1843.6
455.739	1871.62
456.112	1900.54
456.486	1931.73
456.859	1985.06
457.232	1998.17
457.606	1992.29
457.979	2012.4
458.352	2061.22
458.725	2068.67
459.099	2071.84
459.472	2105.06
459.845	2140.76
460.218	2156.36
460.591	2135.79
460.964	2181.21
461.337	2206.3
461.71	2278.61
462.083	2282.23
462.456	2252.17
462.829	2255.34
463.201	2307.99
463.574	2320.87
463.947	2362.45
464.32	2376.46
464.692	2427.54
465.065	2450.13
465.438	2437.93
465.81	2498.95
466.183	2498.27
466.555	2567.87
466.928	2550.92
467.3	2571.94
467.672	2603.35
468.045	2656
468.417	2646.29
468.789	2672.95
469.161	2699.84
469.534	2752.72
469.906	2814.42
470.278	2815.55
470.65	2882.44
471.022	2867.98
471.394	2931.93
471.766	2959.05
472.138	2980.74
472.51	2999.5
472.882	3094.18
473.253	3095.99
473.625	3115.88
473.997	3155.65
474.369	3230.9
474.74	3227.74
475.112	3315.65
475.484	3364.01
475.855	3388.64
476.227	3421.63
476.598	3491.24
476.97	3526.26
477.341	3532.59
477.713	3637.22
478.084	3681.29
478.455	3704.34
478.827	3700.27
479.198	3845.58
479.569	3832.02
479.94	3907.95
480.311	3973.03
480.682	4003.31
481.053	4090.77
481.424	4165.34
481.795	4214.83
482.166	4227.71
482.537	4297.99
482.908	4360.82
483.279	4399.46
483.65	4463.87
484.021	4548.16
484.391	4584.09
484.762	4616.18
485.133	4670.87
485.503	4740.02
485.874	4786.34
486.244	4792.22
486.615	4848.26
486.985	4921.71
487.356	5026.11
487.726	5067.24
488.097	5149.05
488.467	5110.85
488.837	5240.12
489.207	5220.91
489.578	5295.93
489.948	5377.97
490.318	5401.47
490.688	5416.61
491.058	5514.01
491.428	5603.95
491.798	5596.27
492.168	5697.73
492.538	5718.97
492.908	5797.84
493.278	5791.29
493.648	5827.22
494.017	5908.35
494.387	5921.91
494.757	6001
495.126	6074.22
495.496	6070.6
495.866	6126.19
496.235	6129.13
496.605	6121.68
496.974	6179.98
497.344	6224.5
497.713	6259.52
498.082	6285.96
498.452	6335.91
498.821	6365.51
499.19	6315.34
499.559	6377.26
499.928	6478.73
500.298	6413.19
500.667	6518.05
501.036	6511.04
501.405	6564.38
501.774	6543.36
502.143	6574.09
502.512	6608.22
502.88	6680.3
503.249	6687.76
503.618	6664.71
503.987	6720.76
504.356	6740.87
504.724	6804.82
505.093	6770.02
505.462	6828.32
505.83	6864.93
506.199	6882.79
506.567	6981.31
506.936	6913.97
507.304	7000.97
507.672	6965.04
508.041	7013.86
508.409	7053.63
508.777	7032.84
509.145	7137.69
509.514	7111.03
509.882	7130.24
510.25	7118.26
510.618	7173.62
510.986	7155.55
511.354	7149.9
511.722	7172.27
512.09	7234.87
512.458	7201.87
512.826	7241.42
513.193	7351.25
513.561	7290.46
513.929	7357.12
514.297	7352.83
514.664	7346.95
515.032	7405.71
515.4	7407.07
515.767	7443.45
516.135	7456.56
516.502	7348.31
516.869	7504.92
517.237	7501.3
517.604	7465.14
517.972	7527.29
518.339	7565.48
518.706	7493.84
519.073	7564.12
519.44	7555.99
519.808	7626.04
520.175	7574.29
520.542	7665.82
520.909	7724.12
521.276	7675.08
521.643	7690.22
522.009	7681.18
522.376	7765.47
522.743	7682.09
523.11	7766.83
523.477	7792.82
523.843	7832.82
524.21	7854.96
524.577	7913.94
524.943	7891.35
525.31	7877.34
525.676	7947.62
526.043	7932.25
526.409	7932.93
526.776	8030.33
527.142	7969.31
527.508	8036.88
527.874	8061.06
528.241	8004.56
528.607	7998.01
528.973	8101.96
529.339	8089.76
529.705	8073.04
530.071	8164.79
530.437	8113.71
530.803	8144.9
531.169	8187.61
531.535	8134.28
531.901	8111.23
532.267	8125.01
532.632	8198.68
532.998	8148.29
533.364	8094.96
533.73	8141.96
534.095	8223.77
534.461	8170.21
534.826	8142.19
535.192	8172.47
535.557	8201.85
535.923	8218.57
536.288	8175.63
536.653	8175.63
537.019	8150.1
537.384	8172.24
537.749	8197.33
538.114	8204.11
538.479	8204.11
538.845	8174.28
539.21	8163.66
539.575	8109.87
539.94	8186.25
540.305	8209.76
540.67	8163.66
541.034	8169.3
541.399	8159.59
541.764	8149.64
542.129	8078.91
542.494	8067.39
542.858	8124.33
543.223	8128.4
543.587	8107.39
543.952	8129.08
544.316	8131.34
544.681	8071.23
545.045	8125.24
545.41	8081.4
545.774	8115.52
546.138	8101.74
546.503	8099.48
546.867	8137.67
547.231	8089.08
547.595	8059.7
547.959	8065.58
548.324	8045.47
548.688	8071.68
549.052	8011.34
549.416	7998.91
549.779	8072.58
550.143	8014.28
550.507	8068.97
550.871	8061.29
551.235	8035.3
551.599	8087.27
551.962	8028.07
552.326	8055.64
552.689	8053.15
553.053	7982.87
553.417	8014.51
553.78	8063.55
554.143	8060.38
554.507	8047.73
554.87	8077.56
555.234	8130.89
555.597	8023.32
555.96	8009.08
556.323	8040.72
556.686	8064.67
557.05	8184.67
557.413	8088.4
557.776	8080.72
558.139	8165.92
558.502	8061.74
558.865	8145.35
559.228	8139.25
559.59	8171.34
559.953	8203.43
560.316	8191.9
560.679	8199.81
561.041	8177.44
561.404	8147.16
561.767	8285.46
562.129	8212.92
562.492	8244.56
562.854	8228.96
563.217	8238.46
563.579	8328.4
563.941	8301.5
564.304	8361.62
564.666	8316.87
565.028	8359.81
565.39	8366.59
565.753	8393.71
566.115	8399.58
566.477	8437.32
566.839	8455.4
567.201	8497.43
567.563	8508.51
567.925	8506.7
568.287	8540.14
568.648	8502.4
569.01	8589.86
569.372	8575.62
569.734	8604.32
570.095	8625.11
570.457	8641.83
570.819	8699.01
571.18	8715.51
571.542	8714.6
571.903	8706.47
572.265	8805.45
572.626	8801.38
572.987	8782.17
573.349	8770.42
573.71	8825.56
574.071	8907.36
574.432	8897.65
574.794	8970.87
575.155	8913.47
575.516	8955.5
575.877	8951.88
576.238	9038.66
576.599	9021.03
576.96	9013.58
577.32	9034.14
577.681	9100.13
578.042	9086.79
578.403	9083.86
578.763	9143.97
579.124	9169.05
579.485	9183.06
579.845	9167.47
580.206	9106.68
580.566	9219.22
580.927	9277.75
581.287	9281.82
581.648	9304.87
582.008	9319.11
582.368	9309.84
582.728	9297.64
583.089	9353.68
583.449	9315.04
583.809	9322.27
584.169	9320.46
584.529	9430.74
584.889	9468.93
585.249	9426.22
585.609	9395.94
585.969	9494.92
586.329	9469.61
586.688	9499.89
587.048	9482.72
587.408	9434.58
587.768	9510.29
588.127	9484.98
588.487	9509.83
588.846	9640.45
589.206	9586.89
589.565	9592.32
589.925	9616.27
590.284	9637.29
590.643	9614.24
591.003	9687.23
591.362	9658.31
591.721	9673.22
592.08	9695.82
592.44	9700.11
592.799	9700.34
593.158	9748.47
593.517	9721.35
593.876	9770.84
594.235	9797.28
594.593	9810.84
594.952	9720.9
595.311	9750.96
595.67	9712.32
596.029	9842.03
596.387	9806.55
596.746	9880.45
597.104	9838.19
597.463	9823.72
597.822	9888.36
598.18	9826.44
598.538	9767.68
598.897	9877.73
599.255	9811.07
599.613	9953.89
599.972	9909.37
600.33	9878.86
600.688	9904.85
601.046	9919.54
601.404	9940.56
601.762	9982.59
602.12	9919.32
602.478	10031.4
602.836	9966.09
603.194	9969.71
603.552	9930.61
603.91	9882.25
604.268	10000.67
604.625	9950.5
604.983	9991.86
605.341	9917.96
605.698	10023.95
606.056	10039.99
606.413	10023.27
606.771	10040.67
607.128	10035.02
607.485	9999.77
607.843	10088.35
608.2	10081.57
608.557	10116.6
608.914	10126.54
609.272	10135.58
609.629	10155.24
609.986	10190.27
610.343	10031.4
610.7	10274.33
611.057	10192.98
611.414	10125.86
611.771	10186.65
612.127	10130.16
612.484	10226.2
612.841	10225.97
613.198	10171.06
613.554	10227.78
613.911	10325.41
614.267	10243.37
614.624	10250.61
614.98	10208.12
615.337	10383.03
615.693	10268.01
616.05	10327.89
616.406	10385.97
616.762	10397.27
617.118	10277.5
617.475	10311.4
617.831	10254.22
618.187	10347.1
618.543	10317.27
618.899	10421.45
619.255	10404.27
619.611	10331.06
619.967	10482.46
620.323	10391.62
620.678	10344.62
621.034	10413.09
621.39	10339.87
621.746	10396.14
622.101	10380.77
622.457	10409.92
622.812	10425.29
623.168	10377.16
623.523	10386.87
623.879	10464.39
624.234	10376.48
624.589	10380.32
624.945	10428.91
625.3	10454.44
625.655	10417.61
626.01	10395.69
626.365	10424.61
626.72	10418.29
627.075	10406.31
627.43	10404.05
627.785	10353.65
628.14	10325.63
628.495	10409.25
628.85	10315.01
629.205	10334.45
629.559	10390.26
629.914	10339.87
630.269	10346.87
630.623	10364.73
630.978	10294.45
631.332	10340.55
631.687	10374.67
632.041	10272.98
632.396	10242.7
632.75	10296.93
633.104	10227.78
633.459	10230.95
633.813	10228.23
634.167	10196.82
634.521	10207.44
634.875	10158.18
635.229	10192.98
635.583	10177.39
635.937	10167.67
636.291	10102.14
636.645	10141.91
636.999	10136.48
637.352	10070.72
637.706	10067.11
638.06	10170.38
638.413	10019.88
638.767	10094
639.121	10074.34
639.474	10046.32
639.828	10011.74
640.181	10066.43
640.534	10039.54
640.888	10005.64
641.241	9958.64
641.594	9975.81
641.947	10014.45
642.301	9988.47
642.654	9980.33
643.007	9990.5
643.36	10007.22
643.713	9947.34
644.066	9987.11
644.419	9873.44
644.771	9838.87
645.124	9801.58
645.477	9766.33
645.83	9665.31
646.182	9685.88
646.535	9606.33
646.888	9637.06
647.24	9578.76
647.593	9606.56
647.945	9552.09
648.298	9603.84
648.65	9529.04
649.002	9581.92
649.355	9588.02
649.707	9600
650.059	9599.32
650.411	9724.97
650.763	9750.28
651.115	9788.47
651.467	9835.25
651.819	9799.32
652.171	9776.04
652.523	9710.51
652.875	9793.9
653.227	9772.43
653.578	9783.27
653.93	9794.12
654.282	9729.94
654.633	9743.27
654.985	9775.14
655.337	9783.05
655.688	9839.77
656.039	9826.89
656.391	9793.44
656.742	9779.21
657.094	9743.05
657.445	9825.31
657.796	9784.4
658.147	9785.53
658.498	9730.17
658.849	9750.96
659.2	9709.15
659.551	9716.61
659.902	9869.83
660.253	9778.75
660.604	9791.86
660.955	9749.83
661.306	9755.25
661.656	9755.93
662.007	9795.93
662.358	9759.55
662.708	9810.84
663.059	9774.01
663.409	9685.42
663.76	9808.81
664.11	9847
664.461	9754.8
664.811	9780.79
665.161	9783.05
665.511	9769.04
665.862	9757.96
666.212	9731.07
666.562	9779.66
666.912	9770.62
667.262	9762.48
667.612	9769.71
667.962	9762.03
668.312	9778.53
668.662	9790.73
669.011	9800
669.361	9747.34
669.711	9763.84
670.06	9748.25
670.41	9728.36
670.76	9660.11
671.109	9755.7
671.459	9674.12
671.808	9713.45
672.157	9739.21
672.507	9634.13
672.856	9656.5
673.205	9691.3
673.554	9724.74
673.904	9674.8
674.253	9699.89
674.602	9601.58
674.951	9551.19
675.3	9513.9
675.649	9622.83
675.998	9640.68
676.346	9585.54
676.695	9703.73
677.044	9524.75
677.393	9604.97
677.741	9558.42
678.09	9533.34
678.438	9537.18
678.787	9553.9
679.135	9559.55
679.484	9532.43
679.832	9506.9
680.181	9449.05
680.529	9478.2
680.877	9472.32
681.225	9483.85
681.573	9533.56
681.922	9428.48
682.27	9408.37
682.618	9341.03
682.966	9374.47
683.314	9389.16
683.661	9386.9
684.009	9294.02
684.357	9317.75
684.705	9280.46
685.053	9277.07
685.4	9247.47
685.748	9191.65
686.095	9271.65
686.443	9145.1
686.79	9159.56
687.138	9161.14
687.485	9160.92
687.832	9150.75
688.18	9156.4
688.527	9029.62
688.874	9065.55
689.221	9062.16
689.568	8973.8
689.915	8972
690.262	8990.53
690.609	8948.72
690.956	8857.42
691.303	8868.72
691.65	8770.87
691.997	8792.11
692.344	8714.15
692.69	8767.48
693.037	8732.23
693.383	8681.61
693.73	8726.13
694.077	8628.73
694.423	8655.62
694.769	8560.93
695.116	8564.77
695.462	8576.3
695.808	8538.33
696.155	8533.82
696.501	8494.49
696.847	8495.85
697.193	8420.82
697.539	8460.37
697.885	8309.64
698.231	8366.14
698.577	8306.02
698.923	8329.53
699.269	8259.92
699.614	8271.22
699.96	8215.41
700.306	8179.47
700.651	8103.54
700.997	8070.78
701.342	8096.31
701.688	8087.5
702.033	8036.2
702.379	8051.57
702.724	7982.87
703.069	7965.24
703.415	7855.64
703.76	7934.06
704.105	7872.36
704.45	7916.2
704.795	7754.4
705.14	7831.91
705.485	7840.73
705.83	7741.29
706.175	7745.14
706.52	7758.92
706.865	7749.43
707.209	7701.07
707.554	7668.3
707.899	7658.13
708.243	7562.32
708.588	7641.41
708.932	7532.49
709.277	7577.46
709.621	7573.84
709.966	7466.5
710.31	7417.46
710.654	7433.05
710.998	7418.36
711.342	7386.05
711.687	7435.09
712.031	7392.38
712.375	7400.74
712.719	7358.25
713.063	7359.38
713.407	7431.25
713.75	7314.64
714.094	7339.04
714.438	7299.27
714.782	7307.63
715.125	7294.98
715.469	7282.1
715.812	7233.74
716.156	7243.45
716.499	7221.08
716.843	7202.32
717.186	7184.7
717.53	7201.19
717.873	7196.22
718.216	7191.48
718.559	7158.03
718.902	7096.56
719.246	7120.97
719.589	7076.68
719.932	7053.18
720.275	7057.47
720.617	7058.83
720.96	7016.57
721.303	7012.05
721.646	7067.41
721.989	7019.5
722.331	7071.71
722.674	6964.59
723.016	7046.17
723.359	6994.42
723.701	7002.33
724.044	6958.04
724.386	6935.67
724.729	7001.43
725.071	6958.94
725.413	6971.37
725.755	6935.44
726.097	6891.37
726.439	6909
726.782	6939.51
727.124	6947.64
727.465	6911.03
727.807	6931.15
728.149	6890.02
728.491	6854.54
728.833	6907.19
729.175	6892.05
729.516	6813.18
729.858	6806.18
730.199	6863.8
730.541	6868.55
730.882	6824.26
731.224	6862.9
731.565	6872.16
731.906	6843.24
732.248	6850.92
732.589	6809.34
732.93	6786.74
733.271	6819.28
733.612	6889.56
733.953	6845.95
734.294	6778.16
734.635	6797.82
734.976	6868.32
735.317	6776.12
735.658	6841.2
735.999	6841.43
736.339	6818.83
736.68	6866.97
737.021	6808.21
737.361	6761.66
737.702	6852.5
738.042	6790.13
738.383	6845.5
738.723	6883.01
739.063	6806.63
739.404	6810.24
739.744	6797.36
740.084	6811.15
740.424	6804.82
740.764	6899.28
741.104	6842.56
741.444	6878.49
741.784	6862.22
742.124	6899.73
742.464	6890.02
742.804	6930.24
743.143	6922.33
743.483	6988.09
743.823	6912.61
744.162	6961.65
744.502	7021.99
744.841	6981.77
745.181	7001.43
745.52	6945.83
745.86	7070.35
746.199	7100.18
746.538	7056.34
746.877	7128.88
747.216	7181.99
747.556	7239.61
747.895	7275.32
748.234	7325.26
748.573	7267.86
748.911	7341.3
749.25	7395.09
749.589	7421.98
749.928	7497.91
750.267	7477.57
750.605	7582.2
750.944	7619.26
751.283	7727.73
751.621	7793.72
751.96	7817.68
752.298	7923.44
752.636	7947.84
752.975	7955.75
753.313	8065.35
753.651	8166.37
753.989	8190.77
754.327	8324.56
754.666	8373.59
755.004	8405
755.342	8555.74
755.679	8567.49
756.017	8727.26
756.355	8759.12
756.693	8884.54
757.031	9015.38
757.368	9063.97
757.706	9224.87
758.044	9354.13
758.381	9439.1
758.719	9616.27
759.056	9712.32
759.394	9835.25
759.731	9928.81
760.068	10037.28
760.405	10105.3
760.743	10245.18
761.08	10432.97
761.417	10509.58
761.754	10594.78
762.091	10785.51
762.428	10852.62
762.765	10990.7
763.102	11164.03
763.438	11188.43
763.775	11376.9
764.112	11518.6
764.449	11700.74
764.785	11778.02
765.122	11817.12
765.458	11968.3
765.795	12136.21
766.131	12229.31
766.467	12305.02
766.804	12457.33
767.14	12509.3
767.476	12545.69
767.812	12726.7
768.148	12881.5
768.485	12882.63
768.821	12899.8
769.157	13072
769.492	13206.01
769.828	13254.82
770.164	13326.68
770.5	13426.34
770.836	13456.4
771.171	13492.78
771.507	13622.04
771.842	13693
772.178	13748.59
772.513	13867.01
772.849	13928.7
773.184	13970.96
773.519	13992.43
773.855	14060.68
774.19	14142.26
774.525	14096.15
774.86	14173.44
775.195	14292.99
775.53	14292.31
775.865	14305.41
776.2	14263.61
776.535	14294.57
776.87	14336.6
777.205	14404.4
777.539	14372.31
777.874	14409.82
778.209	14388.35
778.543	14436.94
778.878	14392.42
779.212	14428.35
779.547	14441.23
779.881	14473.32
780.215	14452.3
780.55	14608.91
780.884	14557.16
781.218	14488.69
781.552	14571.4
781.886	14495.24
782.22	14464.96
782.554	14493.43
782.888	14355.36
783.222	14393.77
783.556	14458.86
783.889	14448.46
784.223	14269.48
784.557	14326.21
784.89	14417.73
785.224	14390.16
785.557	14257.51
785.891	14354.45
786.224	14361.46
786.558	14371.4
786.891	14307.67
787.224	14259.54
787.557	14189.94
787.891	14313.78
788.224	14218.19
788.557	14351.97
788.89	14266.77
789.223	14302.03
789.556	14204.63
789.888	14179.32
790.221	14202.37
790.554	14091.64
790.887	14085.31
791.219	14028.59
791.552	14042.14
791.884	13981.81
792.217	13980.23
792.549	13893.9
792.882	13878.53
793.214	13824.3
793.546	13926.22
793.879	13807.57
794.211	13767.58
794.543	13822.26
794.875	13787.91
795.207	13913.56
795.539	13711.53
795.871	13724.19
796.203	13592.89
796.535	13652.78
796.867	13580.24
797.198	13566
797.53	13486
797.862	13410.75
798.193	13507.92
798.525	13406.91
798.856	13464.31
799.188	13244.43
799.519	13231.32
799.85	13217.31
800.182	13230.19
800.513	13254.37
800.844	13189.06
801.175	13238.1
801.506	13287.59
801.837	13154.03
802.168	13131.66
802.499	13128.72
802.83	13053.24
803.161	13000.82
803.491	12974.83
803.822	13094.83
804.153	12955.39
804.483	12860.93
804.814	12855.74
805.145	12790.65
805.475	12792.23
805.805	12714.72
806.136	12754.72
806.466	12724.67
806.796	12762.86
807.126	12613.26
807.457	12619.13
807.787	12604.44
808.117	12593.37
808.447	12541.85
808.777	12603.31
809.107	12479.02
809.436	12552.24
809.766	12452.36
810.096	12447.61
810.426	12449.19
810.755	12316.77
811.085	12353.15
811.414	12328.07
811.744	12255.53
812.073	12276.77
812.403	12273.38
812.732	12215.3
813.061	12241.97
813.39	12197.45
813.719	12135.08
814.049	12185.7
814.378	12110.44
814.707	12028.41
815.036	12077.68
815.365	12011.01
815.693	11925.14
816.022	11902.77
816.351	11916.1
816.68	11852.37
817.008	11999.71
817.337	11759.04
817.665	11781.41
817.994	11787.29
818.322	11813.95
818.651	11747.06
818.979	11717.91
819.307	11736.67
819.636	11716.33
819.964	11668.42
820.292	11655.32
820.62	11714.07
820.948	11640.63
821.276	11694.41
821.604	11689.44
821.932	11677.91
822.259	11677.46
822.587	11662.09
822.915	11553.85
823.243	11736.22
823.57	11637.24
823.898	11681.53
824.225	11608.99
824.553	11585.49
824.88	11623.23
825.207	11651.25
825.535	11578.25
825.862	11658.48
826.189	11692.6
826.516	11658.03
826.843	11699.61
827.17	11649.21
827.497	11695.54
827.824	11705.03
828.151	11731.02
828.478	11665.94
828.805	11705.71
829.131	11683.56
829.458	11679.5
829.785	11580.06
830.111	11658.7
830.438	11690.57
830.764	11663.9
831.09	11675.43
831.417	11636.11
831.743	11699.83
832.069	11698.25
832.395	11602.66
832.722	11638.59
833.048	11569.44
833.374	11629.78
833.7	11577.35
834.026	11585.26
834.351	11617.35
834.677	11550.91
835.003	11635.43
835.329	11547.75
835.654	11551.14
835.98	11487.86
836.306	11474.98
836.631	11488.99
836.956	11478.14
837.282	11555.43
837.607	11465.26
837.932	11426.39
838.258	11482.66
838.583	11346.85
838.908	11310.24
839.233	11437.24
839.558	11332.61
839.883	11308.43
840.208	11281.54
840.533	11180.3
840.858	11326.06
841.182	11272.5
841.507	11220.3
841.832	11167.87
842.156	11255.78
842.481	11166.74
842.805	11205.84
843.13	11117.7
843.454	11078.16
843.778	11148.44
844.103	11079.28
844.427	10983.69
844.751	11009.23
845.075	10953.64
845.399	10956.58
845.723	10924.03
846.047	10866.18
846.371	10813.53
846.695	10756.13
847.019	10715.68
847.343	10658.96
847.666	10684.95
847.99	10592.29
848.313	10533.54
848.637	10451.05
848.96	10468.91
849.284	10469.81
849.607	10376.48
849.931	10355.91
850.254	10266.2
850.577	10261.91
850.9	10106.43
851.223	10217.61
851.546	10145.3
851.869	10105.98
852.192	10090.61
852.515	10016.04
852.838	9961.12
853.161	9995.47
853.483	9855.36
853.806	9881.58
854.129	9861.92
854.451	9861.01
854.774	9811.07
855.096	9810.39
855.419	9748.7
855.741	9735.59
856.063	9685.2
856.385	9612.43
856.708	9644.97
857.03	9588.02
857.352	9597.29
857.674	9552.09
857.996	9510.29
858.318	9510.51
858.64	9499.89
858.961	9542.83
859.283	9461.02
859.605	9381.02
859.926	9393.45
860.248	9319.33
860.57	9351.42
860.891	9351.19
861.212	9208.15
861.534	9265.55
861.855	9240.46
862.176	9250.41
862.498	9180.58
862.819	9230.07
863.14	9187.13
863.461	9124.53
863.782	9197.75
864.103	9100.81
864.424	9145.78
864.745	9147.13
865.065	9060.13
865.386	9061.48
865.707	9047.25
866.027	9061.48
866.348	9035.5
866.668	9015.84
866.989	9000.24
867.309	8894.94
867.63	8964.09
867.95	8972.67
868.27	8927.7
868.59	8870.3
868.91	8822.85
869.23	8884.54
869.55	8862.17
869.87	8910.08
870.19	8814.26
870.51	8900.59
870.83	8825.33
871.15	8801.15
871.469	8807.48
871.789	8772.68
872.109	8777.2
872.428	8716.86
872.748	8701.27
873.067	8717.54
873.386	8696.97
873.706	8710.53
874.025	8704.21
874.344	8648.84
874.663	8619.69
874.982	8629.86
875.301	8568.16
875.62	8595.28
875.939	8621.95
876.258	8550.99
876.577	8567.49
876.896	8515.51
877.214	8523.87
877.533	8547.15
877.852	8522.52
878.17	8524.1
878.489	8495.62
878.807	8500.37
879.125	8468.51
879.444	8426.7
879.762	8400.26
880.08	8447.72
880.398	8352.8
880.716	8443.42
881.034	8332.24
881.352	8355.74
881.67	8362.29
881.988	8355.29
882.306	8308.74
882.624	8275.06
882.941	8284.78
883.259	8186.48
883.577	8237.78
883.894	8259.02
884.212	8204.11
884.529	8172.47
884.846	8197.55
885.164	8119.36
885.481	8052.25
885.798	8073.94
886.115	8098.8
886.432	8094.5
886.75	8014.05
887.067	8030.55
887.383	7969.31
887.7	7965.69
888.017	7884.79
888.334	7978.8
888.651	7891.12
888.967	7946.94
889.284	7856.54
889.6	7816.77
889.917	7804.12
890.233	7802.08
890.55	7737
890.866	7767.51
891.182	7752.59
891.498	7683.67
891.815	7613.84
892.131	7665.14
892.447	7669.43
892.763	7617.68
893.079	7631.24
893.395	7601.41
893.71	7617.23
894.026	7559.15
894.342	7472.83
894.657	7420.85
894.973	7437.35
895.289	7427.18
895.604	7413.17
895.92	7329.33
896.235	7307.63
896.55	7286.84
896.865	7316.45
897.181	7253.4
897.496	7249.78
897.811	7253.17
898.126	7203.23
898.441	7135.21
898.756	7195.32
899.071	7166.62
899.386	7107.86
899.7	7066.28
900.015	7027.64
900.33	6968.21
900.644	7033.06
900.959	7003.91
901.273	6983.57
901.588	6940.18
901.902	6936.12
902.216	6842.33
902.531	6871.71
902.845	6825.61
903.159	6810.02
903.473	6779.29
903.787	6804.6
904.101	6685.5
904.415	6694.09
904.729	6709
905.042	6627.2
905.356	6617.48
905.67	6616.8
905.984	6578.84
906.297	6573.19
906.611	6519.86
906.924	6502.68
907.237	6532.74
907.551	6565.05
907.864	6410.03
908.177	6402.57
908.491	6419.52
908.804	6370.93
909.117	6305.17
909.43	6303.82
909.743	6225.18
910.056	6249.13
910.368	6227.44
910.681	6203.93
910.994	6179.53
911.307	6160.54
911.619	6104.5
911.932	6124.16
912.244	6065.18
912.557	6116.48
912.869	6010.27
913.181	6007.55
913.494	6014.11
913.806	5919.19
914.118	5941.79
914.43	5890.95
914.742	5914
915.054	5832.64
915.366	5887.33
915.678	5803.94
915.99	5805.3
916.302	5722.36
916.613	5732.08
916.925	5763.49
917.236	5755.81
917.548	5653.66
917.859	5721.46
918.171	5636.04
918.482	5645.08
918.794	5530.5
919.105	5603.04
919.416	5578.41
919.727	5505.42
920.038	5535.48
920.349	5478.53
920.66	5469.94
920.971	5404.86
921.282	5453.67
921.593	5382.71
921.903	5382.26
922.214	5373.9
922.525	5347.46
922.835	5307.23
923.146	5283.51
923.456	5281.7
923.767	5257.07
924.077	5243.28
924.387	5148.59
924.697	5187.69
925.008	5152.44
925.318	5129.84
925.628	5150.4
925.938	5136.16
926.248	5060.01
926.558	5067.24
926.867	5088.03
927.177	4988.37
927.487	4997.18
927.796	4973.91
928.106	4956.73
928.416	4929.16
928.725	4963.06
929.034	4892.78
929.344	4893.91
929.653	4892.1
929.962	4820.69
930.271	4783.86
930.581	4785.44
930.89	4768.72
931.199	4754.03
931.508	4752.67
931.817	4719.9
932.125	4708.83
932.434	4709.73
932.743	4672.45
933.051	4627.93
933.36	4620.47
933.669	4595.39
933.977	4603.97
934.286	4586.57
934.594	4532.11
934.902	4494.83
935.21	4559.68
935.519	4487.59
935.827	4499.57
936.135	4462.74
936.443	4416.64
936.751	4385.68
937.059	4410.99
937.367	4353.81
937.674	4385
937.982	4332.57
938.29	4353.59
938.597	4336.19
938.905	4305.9
939.213	4267.49
939.52	4273.36
939.827	4278.33
940.135	4222.97
940.442	4219.35
940.749	4198.79
941.056	4214.15
941.363	4123.76
941.67	4109.52
941.977	4121.28
942.284	4083.76
942.591	4102.75
942.898	4076.98
943.205	4038.34
943.511	4060.49
943.818	3983.43
944.125	3965.57
944.431	3941.39
944.738	3998.79
945.044	3934.61
945.35	3963.31
945.657	3879.7
945.963	3917.44
946.269	3837.67
946.575	3843.54
946.881	3849.64
947.187	3808.97
947.493	3815.07
947.799	3821.62
948.105	3783.66
948.41	3785.01
948.716	3775.52
949.022	3729.42
949.327	3721.96
949.633	3709.76
949.938	3702.3
950.244	3648.07
950.549	3678.12
950.854	3644.68
951.16	3618.24
951.465	3610.78
951.77	3631.8
952.075	3619.14
952.38	3611.91
952.685	3548.86
952.99	3550.67
953.294	3526.26
953.599	3497.34
953.904	3488.98
954.209	3435.42
954.513	3471.12
954.818	3446.72
955.122	3421.18
955.426	3443.1
955.731	3409.66
956.035	3373.72
956.339	3351.13
956.643	3370.79
956.948	3389.09
957.252	3297.57
957.556	3334.86
957.86	3322.88
958.163	3318.81
958.467	3340.73
958.771	3251.92
959.075	3272.03
959.378	3243.11
959.682	3198.81
959.985	3223.22
960.289	3175.09
960.592	3160.4
960.896	3174.18
961.199	3161.08
961.502	3162.66
961.805	3125.6
962.108	3124.01
962.411	3107.29
962.714	3097.8
963.017	3075.88
963.32	3073.39
963.623	3030.46
963.926	3018.48
964.228	3000.85
964.531	3041.98
964.833	3021.87
965.136	3011.02
965.438	2970.8
965.741	2941.65
966.043	2950.01
966.345	2950.23
966.648	2914.75
966.95	2940.29
967.252	2933.74
967.554	2910.91
967.856	2874.98
968.158	2880.4
968.46	2844.47
968.761	2858.71
969.063	2850.35
969.365	2830.01
969.666	2783.91
969.968	2787.75
970.269	2759.28
970.571	2776.45
970.872	2752.27
971.174	2783.91
971.475	2746.85
971.776	2718.83
972.077	2702.1
972.378	2680.86
972.679	2675.66
972.98	2663.24
973.281	2661.43
973.582	2650.58
973.883	2656.91
974.183	2640.18
974.484	2624.37
974.785	2585.27
975.085	2570.81
975.386	2604.71
975.686	2570.13
975.986	2550.92
976.287	2556.12
976.587	2556.57
976.887	2571.94
977.187	2516.8
977.487	2514.09
977.787	2489.23
978.087	2491.94
978.387	2474.09
978.687	2473.18
978.987	2460.08
979.286	2449.91
979.586	2443.81
979.885	2404.48
980.185	2428.66
980.484	2379.17
980.784	2405.84
981.083	2376.91
981.382	2384.82
981.682	2365.39
981.981	2347.76
982.28	2334.2
982.579	2315.45
982.878	2318.84
983.177	2314.09
983.475	2316.13
983.774	2281.1
984.073	2299.63
984.372	2280.65
984.67	2260.31
984.969	2262.79
985.267	2202.68
985.566	2238.84
985.864	2212.17
986.162	2206.07
986.461	2183.47
986.759	2180.76
987.057	2158.62
987.355	2140.08
987.653	2158.84
987.951	2191.84
988.249	2158.84
988.547	2136.7
988.844	2101.67
989.142	2111.39
989.44	2108.9
989.737	2069.35
990.035	2072.52
990.332	2048.56
990.63	2076.81
990.927	2044.49
991.224	2042.01
991.521	2036.81
991.819	2019.18
992.116	2039.97
992.413	2037.49
992.71	1969.02
993.006	1988.9
993.303	2002.46
993.6	1976.02
993.897	1975.12
994.193	1983.03
994.49	1929.24
994.787	1932.86
995.083	1924.95
995.379	1908.9
995.676	1918.17
995.972	1858.28
996.268	1868.68
996.565	1914.55
996.861	1872.75
997.157	1875.46
997.453	1857.61
997.749	1850.15
998.044	1826.65
998.34	1813.77
998.636	1811.28
998.932	1794.56
999.227	1802.92
999.523	1809.7
999.818	1768.34
1000.114	1797.27
1000.409	1770.6
1000.704	1769.93
1001	1739.87
1001.295	1716.82
1001.59	1724.05
1001.885	1763.15
1002.18	1711.4
1002.475	1677.5
1002.77	1691.74
1003.065	1685.41
1003.359	1699.87
1003.654	1678.63
1003.949	1663.26
1004.243	1637.05
1004.538	1635.69
1004.832	1681.79
1005.127	1604.96
1005.421	1638.4
1005.715	1608.12
1006.009	1626.43
1006.304	1608.57
1006.598	1590.72
1006.892	1561.34
1007.186	1564.05
1007.48	1580.1
1007.773	1566.54
1008.067	1553.66
1008.361	1523.83
1008.655	1519.54
1008.948	1520.89
1009.242	1510.5
1009.535	1524.28
1009.829	1484.96
1010.122	1491.06
1010.415	1490.16
1010.708	1477.05
1011.001	1480.22
1011.295	1439.09
1011.588	1454
1011.881	1435.92
1012.173	1415.13
1012.466	1419.88
1012.759	1393.89
1013.052	1394.12
1013.344	1392.08
1013.637	1377.85
1013.93	1370.16
1014.222	1361.57
1014.514	1382.59
1014.807	1371.52
1015.099	1338.3
1015.391	1345.3
1015.683	1354.79
1015.976	1324.97
1016.268	1296.49
1016.56	1295.81
1016.851	1291.07
1017.143	1312.31
1017.435	1296.72
1017.727	1279.99
1018.018	1287.23
1018.31	1268.7
1018.602	1275.93
1018.893	1273.89
1019.185	1218.53
1019.476	1237.74
1019.767	1267.57
1020.058	1206.1
1020.35	1200.9
1020.641	1218.3
1020.932	1174.91
1021.223	1204.97
1021.514	1173.56
1021.804	1151.86
1022.095	1176.04
1022.386	1163.61
1022.677	1147.57
1022.967	1117.51
1023.258	1121.35
1023.548	1119.09
1023.839	1149.38
1024.129	1111.64
1024.419	1112.54
1024.709	1122.71
1025	1072.54
1025.29	1084.52
1025.58	1046.33
1025.87	1053.33
1026.16	1049.04
1026.449	1064.18
1026.739	1050.17
1027.029	1031.41
1027.319	1054.46
1027.608	1044.97
1027.898	1039.55
1028.187	1031.87
1028.477	1003.84
1028.766	1016.95
1029.055	1004.97
1029.344	996.84
1029.634	979.21
1029.923	1002.49
1030.212	981.47
1030.501	973.34
1030.79	970.17
1031.078	962.71
1031.367	938.08
1031.656	935.6
1031.945	934.24
1032.233	941.7
1032.522	924.52
1032.81	933.56
1033.099	949.16
1033.387	922.49
1033.675	926.78
1033.963	903.73
1034.251	916.61
1034.54	884.98
1034.828	911.19
1035.116	890.4
1035.403	875.26
1035.691	873.45
1035.979	874.81
1036.267	857.18
1036.554	847.92
1036.842	851.08
1037.129	853.11
1037.417	837.75
1037.704	835.26
1037.992	852.66
1038.279	832.55
1038.566	851.98
1038.853	851.98
1039.14	851.98
