Data from hue_160_FLMS001491_00041.txt Node
Date: Tue Feb 07 16:51:13 GMT 2017
User: dcchb
Spectrometer: FLMS00149
Trigger mode: 0
Integration Time (sec): 2.000000E-2
Scans to average: 10
Electric dark correction enabled: true
Nonlinearity correction enabled: false
Boxcar width: 0
XAxis mode: Wavelengths
Number of Pixels in Spectrum: 2048
>>>>>Begin Spectral Data<<<<<
341.393	-33.12
341.776	-33.12
342.16	-33.12
342.543	-67.02
342.927	-56.62
343.31	-72.44
343.693	-62.5
344.077	-70.63
344.46	-73.57
344.843	-61.59
345.226	-37.41
345.61	-26.79
345.993	-15.95
346.376	-5.1
346.759	0.1
347.142	30.38
347.525	47.1
347.908	60.89
348.291	92.07
348.674	88.01
349.057	107.44
349.44	120.1
349.823	135.01
350.206	151.28
350.588	190.6
350.971	218.4
351.354	220.21
351.737	250.94
352.119	252.3
352.502	271.73
352.884	269.24
353.267	274.89
353.65	303.14
354.032	297.72
354.414	315.57
354.797	309.47
355.179	318.06
355.562	329.81
355.944	298.17
356.326	304.95
356.709	322.58
357.091	335.68
357.473	339.07
357.855	328.23
358.238	335.46
358.62	337.72
359.002	330.49
359.384	336.14
359.766	335.23
360.148	302.24
360.53	320.54
360.912	331.39
361.294	336.59
361.676	321.9
362.057	330.71
362.439	328.23
362.821	308.79
363.203	311.05
363.584	311.5
363.966	332.97
364.348	315.57
364.729	321.9
365.111	311.05
365.493	313.31
365.874	312.63
366.256	328.9
366.637	301.33
367.019	293.42
367.4	302.92
367.781	298.62
368.163	306.31
368.544	314.89
368.925	302.24
369.306	327.55
369.688	297.49
370.069	303.37
370.45	303.14
370.831	304.5
371.212	309.24
371.593	302.24
371.974	291.16
372.355	300.88
372.736	309.7
373.117	298.4
373.498	278.28
373.879	297.04
374.26	309.92
374.641	309.47
375.021	309.02
375.402	318.96
375.783	341.56
376.163	306.53
376.544	319.41
376.925	305.85
377.305	324.16
377.686	313.31
378.066	315.34
378.447	309.92
378.827	325.51
379.208	325.29
379.588	315.12
379.968	311.5
380.349	333.88
380.729	341.11
381.109	328.9
381.489	335.46
381.87	319.64
382.25	352.63
382.63	336.14
383.01	330.49
383.39	346.53
383.77	349.47
384.15	354.44
384.53	334.33
384.91	324.61
385.29	351.28
385.67	366.19
386.049	347.89
386.429	317.83
386.809	347.89
387.189	349.02
387.568	342.24
387.948	361.45
388.328	357.15
388.707	355.34
389.087	370.48
389.466	353.31
389.846	357.83
390.225	374.55
390.605	384.5
390.984	361.9
391.363	353.08
391.743	366.42
392.122	360.99
392.501	355.34
392.881	356.7
393.26	347.21
393.639	368.9
394.018	351.05
394.397	353.76
394.776	356.25
395.155	374.55
395.534	383.59
395.913	367.09
396.292	401.44
396.671	393.76
397.05	360.32
397.429	382.01
397.808	366.42
398.186	367.32
398.565	388.34
398.944	374.78
399.323	397.83
399.701	368.22
400.08	393.31
400.458	382.91
400.837	415.91
401.215	411.61
401.594	390.82
401.972	400.99
402.351	400.31
402.729	396.25
403.107	388.79
403.486	381.56
403.864	405.51
404.242	414.55
404.62	418.84
404.999	412.07
405.377	398.28
405.755	430.37
406.133	398.51
406.511	406.64
406.889	438.96
407.267	433.76
407.645	422.01
408.023	425.17
408.401	405.51
408.779	437.15
409.156	427.43
409.534	432.4
409.912	433.76
410.29	465.17
410.667	433.99
411.045	436.7
411.422	451.16
411.8	446.87
412.178	445.96
412.555	443.03
412.933	453.65
413.31	484.83
413.687	491.84
414.065	479.86
414.442	497.26
414.819	506.07
415.197	500.88
415.574	469.24
415.951	486.87
416.328	497.94
416.705	493.42
417.082	495.68
417.46	500.42
417.837	520.99
418.214	516.92
418.591	524.15
418.967	507.88
419.344	528.22
419.721	539.75
420.098	518.28
420.475	524.15
420.852	537.94
421.228	532.06
421.605	546.98
421.982	526.19
422.358	519.41
422.735	548.11
423.111	563.02
423.488	559.41
423.864	544.72
424.241	568.9
424.617	580.2
424.994	559.41
425.37	554.43
425.746	592.85
426.123	584.49
426.499	580.87
426.875	605.51
427.251	584.49
427.627	607.09
428.003	608.67
428.379	612.96
428.756	606.18
429.132	636.01
429.507	617.71
429.883	624.94
430.259	629.69
430.635	640.08
431.011	647.99
431.387	663.81
431.763	645.73
432.138	688.67
432.514	684.83
432.89	674.88
433.265	692.74
433.641	686.18
434.016	697.03
434.392	702.68
434.767	689.12
435.143	713.3
435.518	694.32
435.894	701.1
436.269	734.09
436.644	744.49
437.02	747.65
437.395	738.84
437.77	769.12
438.145	772.28
438.52	772.06
438.895	784.03
439.271	776.58
439.646	799.85
440.021	820.64
440.395	801.43
440.77	812.96
441.145	794.88
441.52	821.77
441.895	835.78
442.27	835.78
442.645	838.04
443.019	832.85
443.394	838.04
443.769	842.79
444.143	851.38
444.518	846.18
444.892	876.01
445.267	874.65
445.641	881.21
446.016	877.59
446.39	902.45
446.764	909.23
447.139	908.1
447.513	902.9
447.887	926.85
448.262	906.74
448.636	931.6
449.01	923.46
449.384	941.54
449.758	950.13
450.132	969.34
450.506	978.38
450.88	966.85
451.254	967.08
451.628	981.77
452.002	991.94
452.376	1018.83
452.75	1002.11
453.123	1028.09
453.497	1035.78
453.871	1005.95
454.244	1069.22
454.618	1037.13
454.992	1081.2
455.365	1068.77
455.739	1087.53
456.112	1099.73
456.486	1120.97
456.859	1123.46
457.232	1152.84
457.606	1142.22
457.979	1156.23
458.352	1201.65
458.725	1214.3
459.099	1225.38
459.472	1232.16
459.845	1252.27
460.218	1252.27
460.591	1273.96
460.964	1272.38
461.337	1297.69
461.71	1330.91
462.083	1321.42
462.456	1324.36
462.829	1354.19
463.201	1367.97
463.574	1392.6
463.947	1404.58
464.32	1434.64
464.692	1457.46
465.065	1476.44
465.438	1493.17
465.81	1517.8
466.183	1520.74
466.555	1569.32
466.928	1585.82
467.3	1573.39
467.672	1637.34
468.045	1642.99
468.417	1681.18
468.789	1665.37
469.161	1715.08
469.534	1758.47
469.906	1773.16
470.278	1810.9
470.65	1836.89
471.022	1866.49
471.394	1915.53
471.766	1933.16
472.138	1989.88
472.51	2032.36
472.882	2090.21
473.253	2124.34
473.625	2157.1
473.997	2197.33
474.369	2222.87
474.74	2285.46
475.112	2340.6
475.484	2401.17
475.855	2438.23
476.227	2482.97
476.598	2514.61
476.97	2588.96
477.341	2667.37
477.713	2762.06
478.084	2788.95
478.455	2853.81
478.827	2910.08
479.198	3038.89
479.569	3066.46
479.94	3209.05
480.311	3249.73
480.682	3301.93
481.053	3440.69
481.424	3528.82
481.795	3576.5
482.166	3708.02
482.537	3797.51
482.908	3876.61
483.279	3959.32
483.65	4090.61
484.021	4192.08
484.391	4301.45
484.762	4392.75
485.133	4525.86
485.503	4575.8
485.874	4781.22
486.244	4845.85
486.615	4967.88
486.985	5082.23
487.356	5249.23
487.726	5308.66
488.097	5484.02
488.467	5531.93
488.837	5738.25
489.207	5791.81
489.578	5925.14
489.948	6069.32
490.318	6260.95
490.688	6297.11
491.058	6459.14
491.428	6604.22
491.798	6666.82
492.168	6931.89
492.538	7019.12
492.908	7111.1
493.278	7200.14
493.648	7268.16
494.017	7464.99
494.387	7620.24
494.757	7723.51
495.126	7826.79
495.496	7857.75
495.866	8076.72
496.235	8200.11
496.605	8303.38
496.974	8317.85
497.344	8491.18
497.713	8592.87
498.082	8692.07
498.452	8822.47
498.821	8871.73
499.19	8983.59
499.559	9130.93
499.928	9131.16
500.298	9277.6
500.667	9433.07
501.036	9430.81
501.405	9550.81
501.774	9613.41
502.143	9705.61
502.512	9777.69
502.88	9829.22
503.249	9878.48
503.618	10003.68
503.987	9999.61
504.356	10105.14
504.724	10163
505.093	10268.53
505.462	10313.5
505.83	10405.47
506.199	10466.26
506.567	10651.12
506.936	10503.33
507.304	10737.9
507.672	10762.53
508.041	10792.58
508.409	10899.02
508.777	10965.01
509.145	10958
509.514	11016.08
509.882	11042.52
510.25	11157.32
510.618	11210.2
510.986	11287.71
511.354	11239.8
511.722	11340.37
512.09	11433.47
512.458	11467.59
512.826	11483.41
513.193	11587.59
513.561	11552.79
513.929	11597.31
514.297	11724.31
514.664	11726.8
515.032	11699.45
515.4	11845.21
515.767	11869.39
516.135	11897.64
516.502	11842.73
516.869	11968.6
517.237	11908.03
517.604	11851.09
517.972	12040.23
518.339	12044.53
518.706	12058.76
519.073	11957.07
519.44	12089.95
519.808	12118.2
520.175	12096.73
520.542	12275.93
520.909	12353.9
521.276	12190.51
521.643	12202.94
522.009	12320.68
522.376	12341.7
522.743	12380.34
523.11	12406.1
523.477	12477.74
523.843	12540.56
524.21	12531.07
524.577	12593.89
524.943	12588.92
525.31	12649.71
525.676	12682.48
526.043	12672.99
526.409	12708.47
526.776	12814
527.142	12693.55
527.508	12776.49
527.874	12752.53
528.241	12700.78
528.607	12758.41
528.973	12767.9
529.339	12846.99
529.705	12750.72
530.071	12881.34
530.437	12902.13
530.803	12846.54
531.169	12775.36
531.535	12737.84
531.901	12771.06
532.267	12822.13
532.632	12802.02
532.998	12784.4
533.364	12796.82
533.73	12786.2
534.095	12844.51
534.461	12723.83
534.826	12770.84
535.192	12743.94
535.557	12807.22
535.923	12595.47
536.288	12725.19
536.653	12580.11
537.019	12607.23
537.384	12612.87
537.749	12559.77
538.114	12500.11
538.479	12478.41
538.845	12483.39
539.21	12367.91
539.575	12425.31
539.94	12336.5
540.305	12371.07
540.67	12327.01
541.034	12333.11
541.399	12302.15
541.764	12318.42
542.129	12218.53
542.494	12171.76
542.858	12132.21
543.223	12082.27
543.587	12094.47
543.952	12067.58
544.316	12019.44
544.681	11973.34
545.045	11911.2
545.41	11933.57
545.774	11938.77
546.138	11831.2
546.503	11807.02
546.867	11796.85
547.231	11863.97
547.595	11747.36
547.959	11806.79
548.324	11711.43
548.688	11707.14
549.052	11674.14
549.416	11587.82
549.779	11536.07
550.143	11547.59
550.507	11565.67
550.871	11551.43
551.235	11478.44
551.599	11484.09
551.962	11498.55
552.326	11394.6
552.689	11338.11
553.053	11321.84
553.417	11345.34
553.78	11399.35
554.143	11301.5
554.507	11373.81
554.87	11203.87
555.234	11350.08
555.597	11203.42
555.96	11222.85
556.323	11164.33
556.686	11185.34
557.05	11220.37
557.413	11170.65
557.776	11214.49
558.139	11177.21
558.502	11136.98
558.865	11078.23
559.228	11169.97
559.59	11190.99
559.953	11144.21
560.316	11205.91
560.679	11144.66
561.041	11226.47
561.404	11165
561.767	11252.01
562.129	11121.16
562.492	11139.69
562.854	11155.29
563.217	11094.72
563.579	11192.57
563.941	11165.46
564.304	11188.05
564.666	11154.61
565.028	11125
565.39	11189.86
565.753	11237.54
566.115	11255.17
566.477	11203.19
566.839	11232.12
567.201	11305.11
567.563	11266.47
567.925	11226.92
568.287	11287.26
568.648	11272.34
569.01	11274.83
569.372	11317.09
569.734	11191.44
570.095	11439.8
570.457	11360.7
570.819	11388.27
571.18	11406.13
571.542	11375.17
571.903	11336.98
572.265	11420.14
572.626	11361.61
572.987	11475.28
573.349	11430.31
573.71	11442.28
574.071	11438.44
574.432	11383.98
574.794	11562.28
575.155	11473.47
575.516	11332.23
575.877	11483.86
576.238	11468.5
576.599	11512.56
576.96	11437.09
577.32	11580.81
577.681	11478.67
578.042	11531.55
578.403	11489.74
578.763	11458.55
579.124	11482.96
579.485	11478.22
579.845	11528.61
580.206	11473.24
580.566	11462.85
580.927	11538.78
581.287	11619.45
581.648	11432.79
582.008	11551.21
582.368	11511.89
582.728	11506.91
583.089	11453.13
583.449	11477.99
583.809	11541.26
584.169	11513.02
584.529	11498.1
584.889	11542.17
585.249	11476.18
585.609	11475.96
585.969	11484.54
586.329	11454.49
586.688	11451.32
587.048	11428.72
587.408	11354.6
587.768	11409.97
588.127	11435.05
588.487	11343.98
588.846	11514.15
589.206	11385.34
589.565	11366.81
589.925	11430.53
590.284	11341.27
590.643	11327.71
591.003	11354.83
591.362	11372
591.721	11334.49
592.08	11360.93
592.44	11421.04
592.799	11367.94
593.158	11273.7
593.517	11362.51
593.876	11357.77
594.235	11335.85
594.593	11357.77
594.952	11299.01
595.311	11252.68
595.67	11288.62
596.029	11295.17
596.387	11245.23
596.746	11317.99
597.104	11258.56
597.463	11170.65
597.822	11267.6
598.18	11247.03
598.538	11188.73
598.897	11258.33
599.255	11191.22
599.613	11325
599.972	11281.84
600.33	11276.86
600.688	11211.56
601.046	11280.25
601.404	11315.28
601.762	11271.89
602.12	11237.09
602.478	11295.85
602.836	11294.72
603.194	11209.75
603.552	11289.29
603.91	11206.81
604.268	11238
604.625	11233.7
604.983	11306.47
605.341	11220.14
605.698	11238
606.056	11347.82
606.413	11212.91
606.771	11282.74
607.128	11308.95
607.485	11202.29
607.843	11188.96
608.2	11368.16
608.557	11302.4
608.914	11251.55
609.272	11337.65
609.629	11325.68
609.986	11381.27
610.343	11282.51
610.7	11419.23
611.057	11364.55
611.414	11336.07
611.771	11416.97
612.127	11390.76
612.484	11310.54
612.841	11454.49
613.198	11334.26
613.554	11393.02
613.911	11455.84
614.267	11412.23
614.624	11439.8
614.98	11461.94
615.337	11455.39
615.693	11478.44
616.05	11443.41
616.406	11524.99
616.762	11499.68
617.118	11410.65
617.475	11515.95
617.831	11484.09
618.187	11477.76
618.543	11502.62
618.899	11606.57
619.255	11627.59
619.611	11453.36
619.967	11600.7
620.323	11512.79
620.678	11528.84
621.034	11501.27
621.39	11512.34
621.746	11478.22
622.101	11539
622.457	11560.7
622.812	11538.1
623.168	11562.51
623.523	11596.86
623.879	11643.18
624.234	11552.79
624.589	11572.68
624.945	11608.16
625.3	11504.88
625.655	11552.56
626.01	11638.44
626.365	11580.13
626.72	11574.48
627.075	11557.08
627.43	11550.53
627.785	11506.69
628.14	11529.29
628.495	11559.57
628.85	11613.8
629.205	11515.28
629.559	11542.85
629.914	11502.4
630.269	11521.15
630.623	11526.8
630.978	11494.03
631.332	11529.29
631.687	11526.35
632.041	11420.14
632.396	11459.01
632.75	11400.25
633.104	11473.7
633.459	11330.2
633.813	11409.52
634.167	11390.31
634.521	11308.95
634.875	11454.26
635.229	11275.51
635.583	11257.66
635.937	11356.86
636.291	11261.72
636.645	11202.06
636.999	11302.4
637.352	11328.16
637.706	11218.11
638.06	11329.52
638.413	11226.24
638.767	11177.88
639.121	11283.42
639.474	11184.89
639.828	11168.39
640.181	11247.94
640.534	11274.38
640.888	11140.82
641.241	11113.48
641.594	11106.02
641.947	11120.03
642.301	11131.56
642.654	11099.02
643.007	11123.42
643.36	11048.17
643.713	11067.6
644.066	11074.38
644.419	11014.05
644.771	10871.45
645.124	10823.32
645.477	10775.18
645.83	10793.49
646.182	10709.65
646.535	10756.43
646.888	10762.75
647.24	10683.43
647.593	10751.45
647.945	10708.29
648.298	10697.67
648.65	10659.25
649.002	10658.12
649.355	10707.39
649.707	10647.05
650.059	10680.04
650.411	10866.03
650.763	10848.85
651.115	10954.16
651.467	11004.78
651.819	10929.3
652.171	10974.05
652.523	10892.47
652.875	10887.72
653.227	10851.11
653.578	10920.72
653.93	10942.86
654.282	10863.77
654.633	10866.71
654.985	10941.73
655.337	10896.54
655.688	10956.42
656.039	11010.2
656.391	10819.7
656.742	10967.04
657.094	10906.25
657.445	10998.23
657.796	10894.05
658.147	10892.92
658.498	10843.88
658.849	10933.37
659.2	10901.51
659.551	10890.66
659.902	10918.23
660.253	11018.34
660.604	10868.97
660.955	10869.87
661.306	10980.83
661.656	10893.82
662.007	10948.96
662.358	10929.3
662.708	10923.88
663.059	11014.72
663.409	10844.33
663.76	10948.29
664.11	10975.18
664.461	11007.95
664.811	10982.86
665.161	11007.27
665.511	10955.07
665.862	10960.04
666.212	11012.92
666.562	11094.95
666.912	10978.34
667.262	10963.65
667.612	10986.7
667.962	10947.83
668.312	10927.27
668.662	11037.55
669.011	11019.92
669.361	10934.5
669.711	10928.63
670.06	10964.78
670.41	10899.93
670.76	10987.15
671.109	10977.44
671.459	10923.2
671.808	10933.82
672.157	10927.72
672.507	10899.93
672.856	10908.74
673.205	10989.64
673.554	10916.65
673.904	10929.3
674.253	10959.58
674.602	10845.24
674.951	10776.76
675.3	10622.87
675.649	10769.76
675.998	10785.58
676.346	10829.42
676.695	10826.71
677.044	10666.03
677.393	10772.7
677.741	10771.79
678.09	10748.97
678.438	10730.89
678.787	10736.99
679.135	10808.63
679.484	10648.86
679.832	10707.61
680.181	10566.37
680.529	10697.9
680.877	10627.62
681.225	10607.73
681.573	10626.49
681.922	10566.83
682.27	10537.67
682.618	10530.22
682.966	10440.5
683.314	10541.29
683.661	10452.93
684.009	10423.33
684.357	10420.16
684.705	10353.05
685.053	10401.41
685.4	10298.81
685.748	10363.89
686.095	10356.66
686.443	10269.66
686.79	10296.78
687.138	10219.27
687.485	10290.45
687.832	10261.07
688.18	10271.69
688.527	10141.75
688.874	10189.89
689.221	10112.83
689.568	10160.96
689.915	10101.53
690.262	10081.64
690.609	10060.63
690.956	10008.42
691.303	9929.33
691.65	9918.93
691.997	9943.34
692.344	9847.98
692.69	9815.66
693.037	9813.4
693.383	9772.95
693.73	9699.28
694.077	9749.22
694.423	9721.65
694.769	9678.04
695.116	9613.86
695.462	9613.86
695.808	9516.23
696.155	9581.32
696.501	9492.96
696.847	9441.43
697.193	9418.83
697.539	9437.36
697.885	9350.36
698.231	9361.21
698.577	9335.9
698.923	9312.85
699.269	9252.51
699.614	9187.2
699.96	9080.09
700.306	9193.3
700.651	9137.71
700.997	9070.59
701.342	9119.63
701.688	9045.74
702.033	8996.7
702.379	9028.11
702.724	9002.57
703.069	8945.63
703.415	8873.99
703.76	8907.44
704.105	8836.7
704.45	8826.76
704.795	8707.89
705.14	8773.65
705.485	8728.68
705.83	8700.66
706.175	8669.02
706.52	8676.48
706.865	8629.25
707.209	8649.81
707.554	8544.06
707.899	8571.17
708.243	8501.8
708.588	8519.2
708.932	8413.44
709.277	8450.72
709.621	8441.23
709.966	8351.74
710.31	8391.97
710.654	8326.66
710.998	8305.42
711.342	8335.92
711.687	8328.02
712.031	8287.56
712.375	8274.01
712.719	8276.27
713.063	8269.26
713.407	8264.29
713.75	8248.24
714.094	8210.28
714.438	8167.57
714.782	8203.95
715.125	8187
715.469	8199.88
715.812	8096.84
716.156	8051.41
716.499	8048.7
716.843	8065.42
717.186	8018.19
717.53	8059.77
717.873	8054.58
718.216	8068.36
718.559	7991.53
718.902	7941.58
719.246	7987.23
719.589	7955.37
719.932	7926.67
720.275	7962.6
720.617	7974.8
720.96	7894.35
721.303	7920.79
721.646	7957.63
721.989	7865.65
722.331	7941.13
722.674	7865.88
723.016	7921.92
723.359	7807.35
723.701	7880.57
724.044	7844.64
724.386	7825.66
724.729	7845.99
725.071	7884.86
725.413	7894.58
725.755	7850.29
726.097	7804.19
726.439	7767.58
726.782	7722.61
727.124	7813.68
727.465	7726.45
727.807	7769.61
728.149	7763.06
728.491	7727.58
728.833	7802.61
729.175	7721.93
729.516	7734.36
729.858	7782.49
730.199	7739.56
730.541	7775.49
730.882	7695.72
731.224	7753.79
731.565	7686.68
731.906	7677.86
732.248	7696.39
732.589	7683.51
732.93	7643.51
733.271	7704.53
733.612	7653.46
733.953	7717.41
734.294	7657.52
734.635	7637.41
734.976	7630.18
735.317	7705.66
735.658	7655.49
735.999	7685.09
736.339	7613.46
736.68	7684.87
737.021	7717.86
737.361	7648.03
737.702	7693
738.042	7724.19
738.383	7678.09
738.723	7768.71
739.063	7733.45
739.404	7778.65
739.744	7718.77
740.084	7748.6
740.424	7771.65
740.764	7787.92
741.104	7868.14
741.444	7839.21
741.784	7871.98
742.124	7824.3
742.464	7854.36
742.804	7869.04
743.143	7886.9
743.483	7923.28
743.823	7867.91
744.162	7955.14
744.502	7947.69
744.841	7951.75
745.181	8038.31
745.52	8066.78
745.86	8118.98
746.199	8076.04
746.538	8138.87
746.877	8137.06
747.216	8246.44
747.556	8274.91
747.895	8325.53
748.234	8321.69
748.573	8379.31
748.911	8434
749.25	8524.62
749.589	8513.32
749.928	8556.94
750.267	8666.76
750.605	8704.28
750.944	8800.09
751.283	8872.86
751.621	8963.03
751.96	9021.78
752.298	9017.49
752.636	9242.34
752.975	9234.43
753.313	9311.49
753.651	9506.06
753.989	9528.66
754.327	9632.39
754.666	9715.55
755.004	9913.96
755.342	9997.12
755.679	10075.09
756.017	10150.34
756.355	10315.76
756.693	10454.06
757.031	10603.44
757.368	10737.44
757.706	10821.28
758.044	10948.29
758.381	11113.48
758.719	11277.99
759.056	11367.26
759.394	11590.08
759.731	11648.15
760.068	11888.6
760.405	11963.85
760.743	12128.82
761.08	12299.21
761.417	12387.57
761.754	12593.67
762.091	12710.05
762.428	12918.4
762.765	13020.32
763.102	13266.87
763.438	13347.54
763.775	13481.78
764.112	13674.99
764.449	13832.28
764.785	13957.7
765.122	14047.87
765.458	14238.37
765.795	14349.1
766.131	14555.42
766.467	14628.87
766.804	14792.25
767.14	14794.74
767.476	15044
767.812	15150.43
768.148	15334.61
768.485	15351.33
768.821	15512.23
769.157	15635.62
769.492	15761.04
769.828	15918.55
770.164	15955.84
770.5	16037.19
770.836	16213.23
771.171	16236.51
771.507	16384.3
771.842	16300.01
772.178	16578.65
772.513	16706.55
772.849	16764.18
773.184	16850.73
773.519	16942.93
773.855	16899.09
774.19	16883.5
774.525	16999.2
774.86	17174.56
775.195	17182.7
775.53	17216.6
775.865	17171.62
776.2	17201.23
776.535	17194.68
776.87	17336.82
777.205	17335.24
777.539	17325.97
777.874	17475.8
778.209	17479.87
778.543	17484.84
778.878	17546.76
779.212	17535.46
779.547	17587.43
779.881	17641.67
780.215	17546.3
780.55	17672.4
780.884	17616.36
781.218	17586.76
781.552	17706.07
781.886	17636.47
782.22	17626.53
782.554	17720.31
782.888	17572.52
783.222	17579.52
783.556	17572.97
783.889	17506.76
784.223	17453.43
784.557	17514.89
784.89	17549.24
785.224	17475.12
785.557	17323.94
785.891	17442.13
786.224	17499.75
786.558	17479.41
786.891	17403.94
787.224	17393.54
787.557	17349.7
787.891	17404.39
788.224	17322.13
788.557	17371.17
788.89	17322.81
789.223	17401
789.556	17168.91
789.888	17184.51
790.221	17094.56
790.554	17115.13
790.887	17187.9
791.219	17090.04
791.552	17088.92
791.884	17062.93
792.217	16964.17
792.549	16941.12
792.882	16854.12
793.214	16872.88
793.546	16939.09
793.879	16776.61
794.211	16787.68
794.543	16798.3
794.875	16762.14
795.207	16805.08
795.539	16733.22
795.871	16763.73
796.203	16679.21
796.535	16558.08
796.867	16530.51
797.198	16553.79
797.53	16503.62
797.862	16363.06
798.193	16390.85
798.525	16297.07
798.856	16388.82
799.188	16188.37
799.519	16143.63
799.85	16134.36
800.182	16151.09
800.513	16203.51
800.844	16001.26
801.175	16066.8
801.506	16093.46
801.837	16013.46
802.168	16048.04
802.499	15938.44
802.83	15870.42
803.161	15821.83
803.491	15843.52
803.822	15812.34
804.153	15699.57
804.483	15593.14
804.814	15616.64
805.145	15522.63
805.475	15560.14
805.805	15507.49
806.136	15626.35
806.466	15539.58
806.796	15523.08
807.126	15375.06
807.457	15410.09
807.787	15387.04
808.117	15327.83
808.447	15255.97
808.777	15321.5
809.107	15233.6
809.436	15200.38
809.766	15268.85
810.096	15091.91
810.426	15102.3
810.755	15074.96
811.085	15077.89
811.414	14996.09
811.744	14929.88
812.073	14880.61
812.403	14900.72
812.732	14820.05
813.061	14863.66
813.39	14758.81
813.719	14777.79
814.049	14922.42
814.378	14805.59
814.707	14686.94
815.036	14694.4
815.365	14610.11
815.693	14509.1
816.022	14582.77
816.351	14551.35
816.68	14412.83
817.008	14506.16
817.337	14358.37
817.665	14375.77
817.994	14376.67
818.322	14362.21
818.651	14359.5
818.979	14244.24
819.307	14375.09
819.636	14362.21
819.964	14245.6
820.292	14310.01
820.62	14229.78
820.948	14196.11
821.276	14306.62
821.604	14172.16
821.932	14187.3
822.259	14211.48
822.587	14094.87
822.915	14142.78
823.243	14211.7
823.57	14206.73
823.898	14206.28
824.225	14118.82
824.553	14114.53
824.88	14213.51
825.207	14186.17
825.535	14198.37
825.862	14284.92
826.189	14110.91
826.516	14268.42
826.843	14192.27
827.17	14195.88
827.497	14223.91
827.824	14222.55
828.151	14267.07
828.478	14230.46
828.805	14311.81
829.131	14233.62
829.458	14259.84
829.785	14150.24
830.111	14232.27
830.438	14230.46
830.764	14274.75
831.09	14303.23
831.417	14189.78
831.743	14190.91
832.069	14248.31
832.395	14198.6
832.722	14209.22
833.048	14109.56
833.374	14197.92
833.7	14092.84
834.026	14161.08
834.351	14148.43
834.677	14185.71
835.003	14125.38
835.329	14165.38
835.654	13980.07
835.98	13985.49
836.306	14031.37
836.631	14017.36
836.956	14057.81
837.282	13995.66
837.607	13990.24
837.932	13873.86
838.258	13919.28
838.583	13977.58
838.908	13826.4
839.233	13924.03
839.558	13826.4
839.883	13775.33
840.208	13705.5
840.533	13749.12
840.858	13721.09
841.182	13744.37
841.507	13689.91
841.832	13590.48
842.156	13670.25
842.481	13575.11
842.805	13655.33
843.13	13604.49
843.454	13557.03
843.778	13422.34
844.103	13450.14
844.427	13353.42
844.751	13413.98
845.075	13413.53
845.399	13323.59
845.723	13269.81
846.047	13302.35
846.371	13129.92
846.695	13182.35
847.019	13054.22
847.343	13055.35
847.666	12943.49
847.99	12894.68
848.313	12927.67
848.637	12851.74
848.96	12780.78
849.284	12752.31
849.607	12678.18
849.931	12653.1
850.254	12609.26
850.577	12551.18
850.9	12424.4
851.223	12354.35
851.546	12420.79
851.869	12304.18
852.192	12292.21
852.515	12268.25
852.838	12147.58
853.161	12129.05
853.483	12069.61
853.806	12009.05
854.129	12035.94
854.451	12035.04
854.774	11930.86
855.096	11804.53
855.419	11795.72
855.741	11873.23
856.063	11722.28
856.385	11745.33
856.708	11710.98
857.03	11671.88
857.352	11653.8
857.674	11630.08
857.996	11564.54
858.318	11433.92
858.64	11473.47
858.961	11469.18
859.283	11467.14
859.605	11356.86
859.926	11459.01
860.248	11322.74
860.57	11267.37
860.891	11342.85
861.212	11211.1
861.534	11234.83
861.855	11220.14
862.176	11218.33
862.498	11220.37
862.819	11159.35
863.14	11141.5
863.461	11009.3
863.782	11029.87
864.103	11109.19
864.424	11052.24
864.745	11049.75
865.065	10996.65
865.386	11003.43
865.707	10988.51
866.027	10915.07
866.348	10998.45
866.668	10927.27
866.989	10874.62
867.309	10850.21
867.63	10872.13
867.95	10827.84
868.27	10821.96
868.59	10756.43
868.91	10750.32
869.23	10784.45
869.55	10708.97
869.87	10735.41
870.19	10712.13
870.51	10713.94
870.83	10790.55
871.15	10623.32
871.469	10635.75
871.789	10671.46
872.109	10678.24
872.428	10517.79
872.748	10628.29
873.067	10595.3
873.386	10540.39
873.706	10564.57
874.025	10496.77
874.344	10395.31
874.663	10473.04
874.982	10468.75
875.301	10376.55
875.62	10413.84
875.939	10401.86
876.258	10396.66
876.577	10331.13
876.896	10376.32
877.214	10267.4
877.533	10339.71
877.852	10287.29
878.17	10301.97
878.489	10283.67
878.807	10282.54
879.125	10240.06
879.444	10264.69
879.762	10177.23
880.08	10170.9
880.398	10207.74
880.716	10168.87
881.034	10139.95
881.352	10109.66
881.67	10081.42
881.988	10057.69
882.306	9992.38
882.624	9961.87
882.941	9948.31
883.259	9889.33
883.577	9922.1
883.894	9921.42
884.212	9877.81
884.529	9841.65
884.846	9847.98
885.164	9816.56
885.481	9791.03
885.798	9821.54
886.115	9732.27
886.432	9817.24
886.75	9681.2
887.067	9744.02
887.383	9743.57
887.7	9707.64
888.017	9608.66
888.334	9631.48
888.651	9629.45
888.967	9532.05
889.284	9497.48
889.6	9513.75
889.917	9396.91
890.233	9456.12
890.55	9360.76
890.866	9382.68
891.182	9327.99
891.498	9413.64
891.815	9347.42
892.131	9260.65
892.447	9259.06
892.763	9206.41
893.079	9255.67
893.395	9148.78
893.71	9180.2
894.026	9125.28
894.342	9128.9
894.657	8967.32
894.973	9011.16
895.289	9016.36
895.604	8960.32
895.92	8943.82
896.235	8956.02
896.55	8826.53
896.865	8830.6
897.181	8794.22
897.496	8774.33
897.811	8754.44
898.126	8711.06
898.441	8707.21
898.756	8641.23
899.071	8585.18
899.386	8599.19
899.7	8470.84
900.015	8515.58
900.33	8425.64
900.644	8489.37
900.959	8410.05
901.273	8440.1
901.588	8346.09
901.902	8320.56
902.216	8288.69
902.531	8295.25
902.845	8248.47
903.159	8293.89
903.473	8172.09
903.787	8106.78
904.101	8134.12
904.415	8102.26
904.729	8120.34
905.042	8027.46
905.356	8081.47
905.67	7977.06
905.984	7976.61
906.297	7952.88
906.611	7825.88
906.924	7875.6
907.237	7910.4
907.551	7810.97
907.864	7814.81
908.177	7742.27
908.491	7749.5
908.804	7695.26
909.117	7651.88
909.43	7610.97
909.743	7549.96
910.056	7574.36
910.368	7479.45
910.681	7468.6
910.994	7434.25
911.307	7387.25
911.619	7353.58
911.932	7393.8
912.244	7305.67
912.557	7353.13
912.869	7287.36
913.181	7314.93
913.494	7175.28
913.806	7227.71
914.118	7196.75
914.43	7069.29
914.742	7142.28
915.054	7064.77
915.366	7002.4
915.678	7003.08
915.99	7036.3
916.302	6885.12
916.613	6910.88
916.925	6943.42
917.236	6881.27
917.548	6817.09
917.859	6823.87
918.171	6793.14
918.482	6782.52
918.794	6729.64
919.105	6671.34
919.416	6619.59
919.727	6649.19
920.038	6580.04
920.349	6568.29
920.66	6611
920.971	6606.25
921.282	6525.8
921.593	6482.64
921.903	6437.9
922.214	6429.31
922.525	6394.06
922.835	6387.28
923.146	6368.97
923.456	6332.59
923.767	6294.85
924.077	6236.09
924.387	6241.06
924.697	6174.17
925.008	6170.78
925.318	6174.63
925.628	6166.49
925.938	6100.5
926.248	6074.74
926.558	6056.89
926.867	6057.79
927.177	6037.68
927.487	6035.87
927.796	5953.39
928.106	5910.45
928.416	6005.82
928.725	5940.51
929.034	5873.62
929.344	5905.93
929.653	5848.53
929.962	5779.16
930.271	5783
930.581	5766.95
930.89	5717.91
931.199	5709.1
931.508	5693.96
931.817	5679.27
932.125	5661.87
932.434	5639.27
932.743	5611.02
933.051	5561.53
933.36	5539.61
933.669	5485.83
933.977	5493.74
934.286	5503.46
934.594	5477.92
934.902	5462.78
935.21	5393.63
935.519	5397.7
935.827	5424.36
936.135	5384.36
936.443	5324.93
936.751	5316.57
937.059	5281.77
937.367	5236.8
937.674	5225.95
937.982	5231.83
938.29	5202.45
938.597	5185.27
938.905	5158.61
939.213	5113.18
939.52	5107.31
939.827	5106.86
940.135	5089.46
940.442	5045.84
940.749	4991.15
941.056	5024.6
941.363	4991.83
941.67	5015.79
941.977	4953.64
942.284	4906.86
942.591	4867.77
942.898	4886.07
943.205	4866.41
943.511	4794.78
943.818	4838.39
944.125	4798.16
944.431	4764.04
944.738	4747.32
945.044	4776.47
945.35	4708.22
945.657	4673.42
945.963	4632.07
946.269	4616.25
946.575	4636.59
946.881	4624.84
947.187	4657.6
947.493	4572.63
947.799	4588.68
948.105	4520.88
948.41	4465.74
948.716	4543.71
949.022	4470.04
949.327	4506.87
949.633	4422.81
949.938	4385.75
950.244	4453.99
950.549	4394.79
950.854	4371.96
951.16	4341.23
951.465	4308.01
951.77	4312.75
952.075	4303.04
952.38	4239.76
952.685	4260.55
952.99	4237.95
953.294	4250.16
953.599	4189.82
953.904	4136.71
954.209	4170.61
954.513	4118.86
954.818	4152.98
955.122	4129.93
955.426	4076.6
955.731	4055.36
956.035	4065.53
956.339	4044.51
956.643	4025.08
956.948	4014
957.252	3978.75
957.556	3993.89
957.86	3947.79
958.163	3951.63
958.467	3954.8
958.771	3880
959.075	3894.23
959.378	3862.82
959.682	3873.44
959.985	3831.86
960.289	3811.75
960.592	3817.4
960.896	3802.94
961.199	3753.67
961.502	3751.41
961.805	3735.14
962.108	3700.11
962.411	3737.85
962.714	3691.53
963.017	3646.1
963.32	3670.96
963.623	3652.43
963.926	3649.49
964.228	3624.41
964.531	3594.35
964.833	3591.87
965.136	3545.09
965.438	3581.93
965.741	3552.1
966.043	3552.77
966.345	3503.06
966.648	3505.54
966.95	3476.62
967.252	3441.36
967.554	3453.57
967.856	3451.53
968.158	3414.25
968.46	3398.88
968.761	3357.07
969.063	3376.28
969.365	3357.07
969.666	3328.15
969.968	3353.23
970.269	3343.97
970.571	3284.76
970.872	3305.32
971.174	3263.06
971.475	3261.71
971.776	3222.84
972.077	3209.28
972.378	3206.34
972.679	3237.08
972.98	3179.45
973.281	3200.47
973.582	3169.51
973.883	3151.43
974.183	3148.49
974.484	3114.37
974.785	3097.87
975.085	3080.24
975.386	3100.58
975.686	3063.52
975.986	3070.98
976.287	3044.09
976.587	3004.31
976.887	3027.82
977.187	2995.27
977.487	2990.3
977.787	3007.03
978.087	2997.08
978.387	2966.57
978.687	2958.21
978.987	2922.73
979.286	2926.8
979.586	2897.2
979.885	2901.27
980.185	2832.79
980.484	2873.7
980.784	2862.4
981.083	2858.33
981.382	2863.53
981.682	2826.24
981.981	2796.64
982.28	2812.68
982.579	2770.42
982.878	2772.91
983.177	2761.16
983.475	2728.84
983.774	2686.13
984.073	2717.77
984.372	2663.08
984.67	2704.66
984.969	2679.58
985.267	2686.13
985.566	2671.89
985.864	2633.25
986.162	2598
986.461	2619.92
986.759	2607.49
987.057	2555.51
987.355	2575.4
987.653	2557.55
987.951	2571.1
988.249	2540.15
988.547	2515.51
988.844	2525.91
989.142	2538.11
989.44	2477.55
989.737	2492.69
990.035	2463.76
990.332	2458.34
990.63	2437.55
990.927	2435.52
991.224	2433.03
991.521	2396.19
991.819	2410.88
992.116	2366.82
992.413	2409.75
992.71	2350.32
993.006	2328.17
993.303	2343.09
993.6	2321.85
993.897	2341.51
994.193	2299.02
994.49	2297.21
994.787	2259.93
995.083	2278.91
995.379	2279.81
995.676	2246.14
995.972	2236.42
996.268	2236.65
996.565	2199.59
996.861	2212.7
997.157	2177.67
997.453	2191.91
997.749	2168.63
998.044	2193.71
998.34	2140.38
998.636	2148.97
998.932	2153.71
999.227	2107.61
999.523	2128.63
999.818	2101.06
1000.114	2071
1000.409	2095.19
1000.704	2074.39
1001	2043.21
1001.295	2067.16
1001.59	2040.05
1001.885	2036.43
1002.18	1999.82
1002.475	1994.62
1002.77	2001.18
1003.065	1960.27
1003.359	1946.94
1003.654	1969.09
1003.949	1948.52
1004.243	1929.77
1004.538	1952.82
1004.832	1942.65
1005.127	1933.38
1005.421	1891.35
1005.715	1855.19
1006.009	1864.91
1006.304	1888.18
1006.598	1840.95
1006.892	1855.42
1007.186	1833.72
1007.48	1802.76
1007.773	1826.94
1008.067	1807.06
1008.361	1746.04
1008.655	1807.06
1008.948	1790.11
1009.242	1759.15
1009.535	1741.3
1009.829	1766.61
1010.122	1703.1
1010.415	1713.5
1010.708	1713.05
1011.001	1706.27
1011.295	1671.02
1011.588	1677.79
1011.881	1642.54
1012.173	1664.01
1012.466	1650
1012.759	1642.54
1013.052	1681.64
1013.344	1634.86
1013.637	1642.77
1013.93	1617.91
1014.222	1612.71
1014.514	1591.02
1014.807	1602.09
1015.099	1563
1015.391	1611.13
1015.683	1561.19
1015.976	1565.48
1016.268	1544.92
1016.56	1559.38
1016.851	1502.21
1017.143	1503.11
1017.435	1492.94
1017.727	1467.63
1018.018	1494.75
1018.31	1493.39
1018.602	1457.01
1018.893	1453.85
1019.185	1428.76
1019.476	1445.48
1019.767	1423.56
1020.058	1435.77
1020.35	1387.18
1020.641	1412.94
1020.932	1377.01
1021.223	1377.24
1021.514	1360.97
1021.804	1340.4
1022.095	1367.07
1022.386	1352.61
1022.677	1348.54
1022.967	1286.84
1023.258	1310.8
1023.548	1307.41
1023.839	1290.01
1024.129	1288.43
1024.419	1305.15
1024.709	1283.68
1025	1273.06
1025.29	1262.66
1025.58	1248.43
1025.87	1224.7
1026.16	1247.98
1026.449	1229.67
1026.739	1235.32
1027.029	1247.3
1027.319	1192.38
1027.608	1198.71
1027.898	1183.34
1028.187	1190.58
1028.477	1163.68
1028.766	1178.15
1029.055	1158.49
1029.344	1145.61
1029.634	1146.96
1029.923	1147.64
1030.212	1127.3
1030.501	1127.98
1030.79	1124.14
1031.078	1098.38
1031.367	1107.41
1031.656	1074.42
1031.945	1072.61
1032.233	1078.94
1032.522	1056.57
1032.81	1050.24
1033.099	1055.21
1033.387	1071.94
1033.675	1049.34
1033.963	1057.25
1034.251	1056.12
1034.54	1039.17
1034.828	1019.06
1035.116	1005.04
1035.403	1022.44
1035.691	995.78
1035.979	972.73
1036.267	964.14
1036.554	970.24
1036.842	972.28
1037.129	984.93
1037.417	957.36
1037.704	960.3
1037.992	924.82
1038.279	940.64
1038.566	936.57
1038.853	936.57
1039.14	936.57
