Data from hue_130_FLMS001491_00053.txt Node
Date: Tue Feb 07 16:57:47 GMT 2017
User: dcchb
Spectrometer: FLMS00149
Trigger mode: 0
Integration Time (sec): 2.000000E-2
Scans to average: 10
Electric dark correction enabled: true
Nonlinearity correction enabled: false
Boxcar width: 0
XAxis mode: Wavelengths
Number of Pixels in Spectrum: 2048
>>>>>Begin Spectral Data<<<<<
341.393	-14.03
341.776	-14.03
342.16	-14.03
342.543	-54.48
342.927	-62.61
343.31	-76.85
343.693	-58.32
344.077	-39.56
344.46	-47.24
344.843	-65.78
345.226	-53.12
345.61	-37.08
345.993	-25.55
346.376	-19.67
346.759	18.06
347.142	17.61
347.525	38.63
347.908	49.02
348.291	84.5
348.674	101.23
349.057	114.11
349.44	127.21
349.823	156.14
350.206	147.55
350.588	175.12
350.971	206.31
351.354	220.09
351.737	256.7
352.119	250.6
352.502	269.81
352.884	268.68
353.267	271.84
353.65	309.13
354.032	291.28
354.414	305.06
354.797	300.99
355.179	320.43
355.562	303.03
355.944	313.65
356.326	322.46
356.709	331.28
357.091	330.15
357.473	332.18
357.855	340.99
358.238	344.16
358.62	343.48
359.002	349.81
359.384	343.93
359.766	346.87
360.148	351.39
360.53	357.94
360.912	356.13
361.294	334.21
361.676	327.66
362.057	330.37
362.439	346.19
362.821	314.33
363.203	306.42
363.584	323.37
363.966	329.24
364.348	344.38
364.729	330.6
365.111	322.46
365.493	315.23
365.874	314.78
366.256	319.3
366.637	307.77
367.019	322.24
367.4	326.98
367.781	336.93
368.163	313.42
368.544	338.28
368.925	311.39
369.306	325.63
369.688	329.47
370.069	291.5
370.45	311.84
370.831	313.42
371.212	306.19
371.593	316.81
371.974	344.16
372.355	326.76
372.736	324.05
373.117	309.13
373.498	326.76
373.879	312.97
374.26	311.39
374.641	313.2
375.021	314.33
375.402	323.82
375.783	329.47
376.163	339.64
376.544	345.06
376.925	325.4
377.305	326.08
377.686	305.97
378.066	309.36
378.447	346.64
378.827	341.45
379.208	338.28
379.588	343.71
379.968	328.11
380.349	343.03
380.729	337.38
381.109	358.39
381.489	340.09
381.87	320.88
382.25	360.88
382.63	329.47
383.01	348.45
383.39	335.8
383.77	340.09
384.15	338.96
384.53	360.65
384.91	341.67
385.29	369.24
385.67	348.45
386.049	358.17
386.429	359.07
386.809	376.7
387.189	359.52
387.568	356.13
387.948	364.5
388.328	370.37
388.707	353.65
389.087	362.46
389.466	371.5
389.846	374.44
390.225	370.82
390.605	379.86
390.984	371.73
391.363	367.43
391.743	388.45
392.122	367.66
392.501	388.22
392.881	409.01
393.26	390.26
393.639	376.02
394.018	366.53
394.397	388
394.776	391.61
395.155	409.24
395.534	385.96
395.913	399.75
396.292	377.38
396.671	400.88
397.05	400.2
397.429	398.39
397.808	398.85
398.186	403.14
398.565	409.69
398.944	373.54
399.323	397.26
399.701	392.07
400.08	421.67
400.458	414.89
400.837	413.08
401.215	409.24
401.594	457.83
401.972	435.23
402.351	424.83
402.729	422.57
403.107	446.75
403.486	448.11
403.864	428.68
404.242	426.64
404.62	430.93
404.999	446.98
405.377	469.58
405.755	428.68
406.133	440.88
406.511	464.83
406.889	465.51
407.267	487.2
407.645	442.01
408.023	463.25
408.401	471.61
408.779	464.61
409.156	469.8
409.534	466.19
409.912	486.3
410.29	460.09
410.667	485.17
411.045	476.81
411.422	478.84
411.8	495.57
412.178	496.02
412.555	500.99
412.933	508.45
413.31	507.32
413.687	488.56
414.065	502.57
414.442	501.89
414.819	503.25
415.197	505.51
415.574	516.81
415.951	531.27
416.328	520.65
416.705	532.18
417.082	546.86
417.46	537.15
417.837	532.85
418.214	528.33
418.591	550.25
418.967	552.74
419.344	566.75
419.721	555.68
420.098	556.36
420.475	563.36
420.852	555
421.228	580.99
421.605	563.59
421.982	581.89
422.358	578.95
422.735	570.82
423.111	573.3
423.488	589.57
423.864	587.54
424.241	629.57
424.617	603.13
424.994	626.41
425.37	611.27
425.746	587.32
426.123	600.42
426.499	607.43
426.875	623.7
427.251	624.6
427.627	632.74
428.003	638.61
428.379	646.3
428.756	630.7
429.132	642.45
429.507	661.89
429.883	657.82
430.259	667.31
430.635	675.9
431.011	676.58
431.387	667.99
431.763	671.83
432.138	708.67
432.514	700.31
432.89	694.2
433.265	719.51
433.641	735.11
434.016	724.49
434.392	733.3
434.767	731.94
435.143	751.38
435.518	771.72
435.894	756.58
436.269	775.56
436.644	758.38
437.02	767.65
437.395	773.52
437.77	806.07
438.145	784.15
438.52	813.98
438.895	800.42
439.271	824.14
439.646	813.3
440.021	826.18
440.395	817.59
440.77	825.05
441.145	837.7
441.52	861.88
441.895	846.97
442.27	848.78
442.645	852.17
443.019	866.4
443.394	890.13
443.769	880.87
444.143	898.27
444.518	912.73
444.892	898.27
445.267	898.27
445.641	919.51
446.016	904.59
446.39	912.73
446.764	915.44
447.139	922.67
447.513	928.55
447.887	946.18
448.262	931.94
448.636	948.89
449.01	988.43
449.384	958.83
449.758	954.09
450.132	987.3
450.506	984.59
450.88	976.91
451.254	988.89
451.628	1034.31
452.002	1021.65
452.376	1036.12
452.75	1045.38
453.123	1016.23
453.497	1046.74
453.871	1065.72
454.244	1086.96
454.618	1071.6
454.992	1071.6
455.365	1120.86
455.739	1099.17
456.112	1137.13
456.486	1137.81
456.859	1150.69
457.232	1168.99
457.606	1145.94
457.979	1214.64
458.352	1225.04
458.725	1213.97
459.099	1232.27
459.472	1248.09
459.845	1252.38
460.218	1283.12
460.591	1282.89
460.964	1310.46
461.337	1314.75
461.71	1324.02
462.083	1380.74
462.456	1394.07
462.829	1368.54
463.201	1404.24
463.574	1422.77
463.947	1439.5
464.32	1474.75
464.692	1492.15
465.065	1496.9
465.438	1515.2
465.81	1520.4
466.183	1534.63
466.555	1581.41
466.928	1595.65
467.3	1603.11
467.672	1667.29
468.045	1679.94
468.417	1720.39
468.789	1672.71
469.161	1735.31
469.534	1795.64
469.906	1821.86
470.278	1817.11
470.65	1872.25
471.022	1902.53
471.394	1926.26
471.766	1982.08
472.138	2006.71
472.51	2046.03
472.882	2109.08
473.253	2123.32
473.625	2163.77
473.997	2218.01
474.369	2286.25
474.74	2287.16
475.112	2367.61
475.484	2389.3
475.855	2471.79
476.227	2539.81
476.598	2587.26
476.97	2612.8
477.341	2747.71
477.713	2823.64
478.084	2834.26
478.455	2948.16
478.827	2956.07
479.198	3108.83
479.569	3129.62
479.94	3273.57
480.311	3290.97
480.682	3434.02
481.053	3522.15
481.424	3610.29
481.795	3671.53
482.166	3818.64
482.537	3881.24
482.908	3998.98
483.279	4069.94
483.65	4195.58
484.021	4346.31
484.391	4441
484.762	4536.36
485.133	4665.63
485.503	4732.06
485.874	4889.8
486.244	5016.35
486.615	5144.94
486.985	5312.39
487.356	5454.08
487.726	5527.75
488.097	5722.55
488.467	5801.42
488.837	5983.33
489.207	6051.35
489.578	6214.74
489.948	6368.41
490.318	6540.38
490.688	6606.14
491.058	6810.43
491.428	6917.32
491.798	7074.83
492.168	7266.01
492.538	7400.47
492.908	7569.05
493.278	7717.07
493.648	7822.15
494.017	7941.92
494.387	8140.34
494.757	8241.35
495.126	8387.11
495.496	8495.36
495.866	8622.58
496.235	8682.02
496.605	8872.75
496.974	9012.63
497.344	9173.3
497.713	9290.36
498.082	9446.52
498.452	9536.01
498.821	9665.27
499.19	9778.71
499.559	9911.59
499.928	10025.03
500.298	10090.57
500.667	10253.28
501.036	10292.82
501.405	10378.02
501.774	10565.13
502.143	10631.12
502.512	10752.47
502.88	10913.82
503.249	10911.79
503.618	11043.09
503.987	11118.11
504.356	11225.23
504.724	11315.85
505.093	11336.18
505.462	11479.91
505.83	11481.27
506.199	11588.38
506.567	11875.15
506.936	11803.29
507.304	11948.15
507.672	11937.75
508.041	12054.81
508.409	12132.55
508.777	12241.02
509.145	12337.51
509.514	12350.85
509.882	12442.14
510.25	12535.02
510.618	12616.83
510.986	12568.02
511.354	12716.94
511.722	12840.78
512.09	12907.22
512.458	12920.1
512.826	13020.43
513.193	13063.37
513.561	13104.05
513.929	13180.66
514.297	13291.39
514.664	13330.03
515.032	13388.79
515.4	13442.34
515.767	13502.68
516.135	13535.22
516.502	13487.09
516.869	13678.72
517.237	13621.55
517.604	13633.53
517.972	13698.61
518.339	13799.4
518.706	13808.21
519.073	13801.43
519.44	13784.71
519.808	13976.34
520.175	13900.86
520.542	14082.1
520.909	14048.66
521.276	14127.75
521.643	14162.78
522.009	14159.39
522.376	14266.05
522.743	14257.24
523.11	14383.11
523.477	14472.83
523.843	14422.21
524.21	14521.19
524.577	14568.64
524.943	14617.23
525.31	14635.99
525.676	14725.93
526.043	14813.61
526.409	14793.95
526.776	14849.99
527.142	14847.73
527.508	14806.6
527.874	14953.72
528.241	14914.85
528.607	14908.97
528.973	14947.84
529.339	14899.48
529.705	15019.93
530.071	15115.07
530.437	14949.65
530.803	15023.32
531.169	15164.33
531.535	15065.58
531.901	14961.85
532.267	15039.36
532.632	15090.66
532.998	15143.77
533.364	15071.68
533.73	15030.55
534.095	15159.59
534.461	15135.18
534.826	15114.84
535.192	15157.78
535.557	15164.78
535.923	15016.77
536.288	15013.6
536.653	15037.1
537.019	14948.29
537.384	14959.14
537.749	14937.22
538.114	14944.23
538.479	14886.83
538.845	14985.58
539.21	14823.55
539.575	14906.03
539.94	14768.41
540.305	14841.86
540.67	14753.27
541.034	14742.42
541.399	14814.74
541.764	14715.08
542.129	14716.44
542.494	14732.03
542.858	14701.29
543.223	14569.09
543.587	14626.27
543.952	14554.63
544.316	14550.11
544.681	14522.32
545.045	14353.73
545.41	14531.36
545.774	14484.12
546.138	14403.67
546.503	14363.9
546.867	14310.12
547.231	14403.67
547.595	14371.36
547.959	14283.23
548.324	14222.21
548.688	14229.67
549.052	14249.33
549.416	14226.96
549.779	14150.35
550.143	14127.3
550.507	14120.74
550.871	14097.92
551.235	13971.14
551.599	14003.23
551.962	14071.71
552.326	13959.39
552.689	14028.54
553.053	13927.98
553.417	13919.39
553.78	13979.05
554.143	13868.77
554.507	13934.76
554.87	13864.03
555.234	13973.86
555.597	13858.38
555.96	13873.29
556.323	13897.25
556.686	13809.11
557.05	13874.42
557.413	13841.66
557.776	13800.07
558.139	13878.94
558.502	13713.98
558.865	13780.87
559.228	13748.1
559.59	13751.94
559.953	13779.06
560.316	13910.13
560.679	13885.27
561.041	13897.02
561.404	13831.71
561.767	13899.51
562.129	13812.96
562.492	13981.54
562.854	13858.83
563.217	13866.06
563.579	13787.65
563.941	13960.52
564.304	13918.94
564.666	13967.53
565.028	13970.47
565.39	14033.52
565.753	14036.23
566.115	14014.08
566.477	14055.44
566.839	14109.22
567.201	14095.21
567.563	14131.59
567.925	14149.22
568.287	14132.27
568.648	14064.7
569.01	14191.7
569.372	14193.74
569.734	14177.01
570.095	14295.2
570.457	14257.92
570.819	14195.32
571.18	14227.18
571.542	14265.37
571.903	14274.86
572.265	14293.4
572.626	14287.97
572.987	14322.32
573.349	14394.86
573.71	14381.08
574.071	14423.34
574.432	14413.84
574.794	14482.99
575.155	14444.13
575.516	14388.99
575.877	14451.36
576.238	14353.05
576.599	14458.81
576.96	14407.29
577.32	14393.28
577.681	14443.22
578.042	14453.39
578.403	14441.64
578.763	14501.07
579.124	14490.23
579.485	14551.24
579.845	14598.02
580.206	14482.09
580.566	14532.03
580.927	14494.97
581.287	14511.92
581.648	14465.59
582.008	14538.59
582.368	14447.06
582.728	14553.95
583.089	14453.84
583.449	14419.49
583.809	14429.89
584.169	14464.46
584.529	14414.3
584.889	14530.9
585.249	14400.51
585.609	14385.82
585.969	14493.62
586.329	14404.13
586.688	14323.68
587.048	14478.02
587.408	14382.66
587.768	14382.66
588.127	14339.5
588.487	14299.04
588.846	14423.11
589.206	14298.82
589.565	14370.23
589.925	14349.67
590.284	14319.84
590.643	14350.57
591.003	14412.04
591.362	14429.89
591.721	14324.81
592.08	14294.07
592.44	14339.72
592.799	14407.06
593.158	14365.03
593.517	14277.12
593.876	14286.39
594.235	14286.16
594.593	14282.77
594.952	14273.73
595.311	14225.37
595.67	14206.84
596.029	14341.08
596.387	14235.09
596.746	14258.37
597.104	14240.97
597.463	14127.3
597.822	14294.53
598.18	14135.43
598.538	14196
598.897	14219.27
599.255	14138.6
599.613	14231.48
599.972	14215.21
600.33	14267.41
600.688	14254.98
601.046	14230.12
601.404	14164.81
601.762	14252.27
602.12	14271.02
602.478	14294.07
602.836	14268.54
603.194	14194.19
603.552	14287.97
603.91	14124.36
604.268	14271.93
604.625	14228.76
604.983	14209.56
605.341	14161.2
605.698	14346.73
606.056	14261.98
606.413	14216.56
606.771	14374.07
607.128	14297.92
607.485	14243
607.843	14266.28
608.2	14287.97
608.557	14400.96
608.914	14247.29
609.272	14379.27
609.629	14436.67
609.986	14454.52
610.343	14415.43
610.7	14380.17
611.057	14360.29
611.414	14347.41
611.771	14461.07
612.127	14486.38
612.484	14425.82
612.841	14473.5
613.198	14400.06
613.554	14408.19
613.911	14464.69
614.267	14537.23
614.624	14456.33
614.98	14461.75
615.337	14544.01
615.693	14539.94
616.05	14536.1
616.406	14663.33
616.762	14520.73
617.118	14558.25
617.475	14583.56
617.831	14591.47
618.187	14667.62
618.543	14690.22
618.899	14724.34
619.255	14737
619.611	14673.5
619.967	14755.3
620.323	14801.63
620.678	14722.99
621.034	14614.74
621.39	14719.15
621.746	14555.76
622.101	14796.21
622.457	14672.82
622.812	14752.37
623.168	14734.97
623.523	14730.45
623.879	14784
624.234	14687.06
624.589	14731.12
624.945	14691.58
625.3	14741.97
625.655	14714.4
626.01	14702.42
626.365	14671.69
626.72	14653.61
627.075	14691.8
627.43	14668.07
627.785	14644.8
628.14	14692.03
628.495	14666.94
628.85	14725.93
629.205	14638.47
629.559	14743.1
629.914	14640.28
630.269	14648.41
630.623	14586.72
630.978	14576.1
631.332	14617.68
631.687	14602.09
632.041	14590.79
632.396	14602.31
632.75	14487.97
633.104	14525.93
633.459	14491.36
633.813	14473.28
634.167	14535.87
634.521	14508.76
634.875	14474.41
635.229	14519.83
635.583	14369.55
635.937	14368.2
636.291	14350.57
636.645	14364.13
636.999	14323.45
637.352	14408.87
637.706	14215.88
638.06	14313.28
638.413	14288.88
638.767	14246.84
639.121	14258.14
639.474	14229.67
639.828	14180.63
640.181	14174.53
640.534	14226.28
640.888	14180.63
641.241	14100.18
641.594	14150.8
641.947	14157.35
642.301	14145.83
642.654	14164.36
643.007	14114.64
643.36	14075.55
643.713	14055.66
644.066	14090.24
644.419	14042.1
644.771	14005.95
645.124	13828.32
645.477	13819.28
645.83	13765.73
646.182	13726.4
646.535	13591.72
646.888	13666.07
647.24	13629.91
647.593	13747.65
647.945	13617.25
648.298	13590.81
648.65	13516.92
649.002	13480.54
649.355	13635.33
649.707	13535.22
650.059	13586.97
650.411	13784.48
650.763	13780.64
651.115	13890.02
651.467	13805.05
651.819	13886.17
652.171	13898.38
652.523	13792.62
652.875	13889.56
653.227	13855.44
653.578	13984.02
653.93	13910.35
654.282	13864.71
654.633	13812.28
654.985	13886.85
655.337	13847.76
655.688	13883.46
656.039	13929.79
656.391	13843.92
656.742	13925.72
657.094	13800.98
657.445	13978.15
657.796	13951.94
658.147	13879.39
658.498	13901.09
658.849	13928.89
659.2	13890.02
659.551	13846.18
659.902	13915.33
660.253	13897.7
660.604	13874.2
660.955	13859.51
661.306	13917.13
661.656	13883.01
662.007	13859.28
662.358	13934.53
662.708	14004.14
663.059	13911.71
663.409	13763.92
663.76	13916.46
664.11	13876.01
664.461	14012.95
664.811	13968.88
665.161	13930.92
665.511	13939.51
665.862	13939.28
666.212	13947.87
666.562	13949
666.912	13922.11
667.262	13843.92
667.612	13943.57
667.962	13934.08
668.312	13875.78
668.662	13976.34
669.011	13959.84
669.361	13880.98
669.711	13871.03
670.06	13917.59
670.41	13872.16
670.76	13865.84
671.109	13913.97
671.459	13902.9
671.808	13862.22
672.157	13897.47
672.507	13828.77
672.856	13744.48
673.205	13817.7
673.554	13795.56
673.904	13848.44
674.253	13871.26
674.602	13755.56
674.951	13591.94
675.3	13535.45
675.649	13782.45
675.998	13673.98
676.346	13725.05
676.695	13759.62
677.044	13601.66
677.393	13623.13
677.741	13630.14
678.09	13666.29
678.438	13670.81
678.787	13616.8
679.135	13702.22
679.484	13585.17
679.832	13627.88
680.181	13494.77
680.529	13593.07
680.877	13511.72
681.225	13463.81
681.573	13544.49
681.922	13390.59
682.27	13372.06
682.618	13379.3
682.966	13353.31
683.314	13426.75
683.661	13323.7
684.009	13240.09
684.357	13203.03
684.705	13243.93
685.053	13268.11
685.4	13203.93
685.748	13130.94
686.095	13040.32
686.443	13091.39
686.79	13053.88
687.138	13118.51
687.485	13050.72
687.832	12978.63
688.18	13018.17
688.527	12902.7
688.874	12956.26
689.221	12911.06
689.568	12849.37
689.915	12811.4
690.262	12785.41
690.609	12751.06
690.956	12712.42
691.303	12670.39
691.65	12585.19
691.997	12570.95
692.344	12555.81
692.69	12497.28
693.037	12574.57
693.383	12378.42
693.73	12315.14
694.077	12244.64
694.423	12310.4
694.769	12248.7
695.116	12170.51
695.462	12287.8
695.808	12112.21
696.155	12175.26
696.501	12085.77
696.847	12108.59
697.193	11927.81
697.539	12004.42
697.885	11894.36
698.231	11839.45
698.577	11841.03
698.923	11868.37
699.269	11741.6
699.614	11788.15
699.96	11669.06
700.306	11646.91
700.651	11567.59
700.997	11478.78
701.342	11548.61
701.688	11518.78
702.033	11448.05
702.379	11407.14
702.724	11391.78
703.069	11375.51
703.415	11224.1
703.76	11246.47
704.105	11288.73
704.45	11200.14
704.795	11198.56
705.14	11049.64
705.485	11100.71
705.83	11048.51
706.175	10974.39
706.52	10986.14
706.865	10869.08
707.209	10961.96
707.554	10827.27
707.899	10954.05
708.243	10815.52
708.588	10810.55
708.932	10755.18
709.277	10728.74
709.621	10761.74
709.966	10692.13
710.31	10720.61
710.654	10560.84
710.998	10624.79
711.342	10577.11
711.687	10574.62
712.031	10536.21
712.375	10392.48
712.719	10480.16
713.063	10496.89
713.407	10467.51
713.75	10474.96
714.094	10482.2
714.438	10392.03
714.782	10417.57
715.125	10342.99
715.469	10374.85
715.812	10322.43
716.156	10283.56
716.499	10233.39
716.843	10240.17
717.186	10249.21
717.53	10255.31
717.873	10255.08
718.216	10166.27
718.559	10164.69
718.902	10175.31
719.246	10145.48
719.589	10066.16
719.932	10034.3
720.275	10056.22
720.617	10049.44
720.96	10030.91
721.303	10078.59
721.646	10034.75
721.989	9930.12
722.331	10052.15
722.674	9939.61
723.016	10003.79
723.359	9951.14
723.701	9965.6
724.044	9903.45
724.386	9806.73
724.729	9928.76
725.071	9932.15
725.413	9925.15
725.755	9900.52
726.097	9823.68
726.439	9805.6
726.782	9817.58
727.124	9865.94
727.465	9777.36
727.807	9804.7
728.149	9749.33
728.491	9776.23
728.833	9838.15
729.175	9770.35
729.516	9742.1
729.858	9764.93
730.199	9731.03
730.541	9758.37
730.882	9727.41
731.224	9740.52
731.565	9671.14
731.906	9740.97
732.248	9696.23
732.589	9651.48
732.93	9658.94
733.271	9669.56
733.612	9657.13
733.953	9769.9
734.294	9704.82
734.635	9713.85
734.976	9705.27
735.317	9663.69
735.658	9742.1
735.999	9732.39
736.339	9674.31
736.68	9679.96
737.021	9742.78
737.361	9678.38
737.702	9788.66
738.042	9676.57
738.383	9722.22
738.723	9745.27
739.063	9736.68
739.404	9824.81
739.744	9772.84
740.084	9763.57
740.424	9807.41
740.764	9776.9
741.104	9799.73
741.444	9793.85
741.784	9860.52
742.124	9898.26
742.464	9922.89
742.804	9881.76
743.143	9857.58
743.483	9865.04
743.823	9886.51
744.162	9917.24
744.502	10009.21
744.841	9935.09
745.181	10045.6
745.52	10127.4
745.86	10073.85
746.199	10108.19
746.538	10130.34
746.877	10237
747.216	10262.31
747.556	10299.15
747.895	10352.93
748.234	10298.02
748.573	10420.95
748.911	10431.35
749.25	10529.88
749.589	10495.98
749.928	10617.79
750.267	10764
750.605	10764.9
750.944	10945.69
751.283	10948.62
751.621	11020.26
751.96	11153.59
752.298	11228.84
752.636	11290.99
752.975	11374.83
753.313	11431.1
753.651	11541.15
753.989	11714.25
754.327	11833.8
754.666	11813.46
755.004	12004.42
755.342	12071.31
755.679	12262.71
756.017	12366.89
756.355	12504.74
756.693	12667.68
757.031	12883.26
757.368	12883.94
757.706	13013.88
758.044	13182.01
758.381	13396.92
758.719	13565.96
759.056	13645.28
759.394	13902.9
759.731	13970.69
760.068	14068.77
760.405	14214.98
760.743	14442.77
761.08	14581.98
761.417	14650.45
761.754	14857.9
762.091	15048.86
762.428	15155.75
762.765	15298.34
763.102	15513.25
763.438	15632.12
763.775	15698.56
764.112	15955.72
764.449	16155.27
764.785	16246.79
765.122	16382.83
765.458	16441.14
765.795	16642.71
766.131	16835.48
766.467	16940.11
766.804	17077.73
767.14	17214.22
767.476	17449.02
767.812	17493.54
768.148	17630.03
768.485	17769.69
768.821	17826.18
769.157	17907.54
769.492	17962.9
769.828	18103.46
770.164	18124.93
770.5	18312.5
770.836	18465.04
771.171	18518.59
771.507	18573.51
771.842	18592.27
772.178	18746.61
772.513	18818.93
772.849	18896.44
773.184	18945.93
773.519	19053.27
773.855	19133.04
774.19	19098.47
774.525	19171.91
774.86	19350.89
775.195	19359.48
775.53	19380.27
775.865	19385.92
776.2	19315.18
776.535	19434.05
776.87	19433.37
777.205	19481.73
777.539	19402.87
777.874	19659.36
778.209	19434.05
778.543	19497.33
778.878	19549.08
779.212	19613.71
779.547	19563.54
779.881	19700.71
780.215	19492.81
780.55	19709.3
780.884	19578.45
781.218	19683.31
781.552	19768.28
781.886	19639.02
782.22	19510.43
782.554	19498.91
782.888	19514.5
783.222	19460.04
783.556	19402.87
783.889	19459.81
784.223	19319.25
784.557	19352.92
784.89	19496.42
785.224	19263.66
785.557	19340.72
785.891	19359.93
786.224	19375.75
786.558	19329.87
786.891	19192.02
787.224	19151.35
787.557	19150.44
787.891	19098.47
788.224	19154.51
788.557	19162.65
788.89	19126.94
789.223	19175.98
789.556	19027.96
789.888	19097.34
790.221	19001.75
790.554	18878.36
790.887	18910.45
791.219	18897.12
791.552	18861.64
791.884	18766.27
792.217	18851.47
792.549	18685.14
792.882	18604.69
793.214	18576.67
793.546	18648.99
793.879	18639.04
794.211	18358.15
794.543	18518.14
794.875	18531.93
795.207	18503.45
795.539	18347.98
795.871	18458.26
796.203	18290.13
796.535	18232.95
796.867	18220.07
797.198	18208.09
797.53	18221.65
797.862	18046.97
798.193	18169.68
798.525	17976.24
798.856	18008.55
799.188	17757.71
799.519	17768.11
799.85	17773.76
800.182	17799.97
800.513	17751.84
800.844	17533.08
801.175	17615.34
801.506	17592.97
801.837	17531.05
802.168	17551.16
802.499	17556.36
802.83	17477.27
803.161	17359.08
803.491	17440.43
803.822	17407.21
804.153	17403.82
804.483	17230.04
804.814	17238.4
805.145	17140.33
805.475	17148.01
805.805	16967.68
806.136	17003.38
806.466	17065.98
806.796	16990.5
807.126	16937.17
807.457	16919.54
807.787	16892.65
808.117	16826.44
808.447	16723.39
808.777	16819.2
809.107	16640.23
809.436	16657.18
809.766	16562.71
810.096	16591.19
810.426	16524.3
810.755	16557.52
811.085	16464.19
811.414	16431.19
811.744	16369.05
812.073	16309.39
812.403	16427.58
812.732	16332.44
813.061	16308.26
813.39	16140.58
813.719	16166.11
814.049	16140.8
814.378	16126.79
814.707	16147.36
815.036	16029.17
815.365	16057.42
815.693	15879.79
816.022	15873.24
816.351	15903.75
816.68	15769.74
817.008	15875.5
817.337	15739.46
817.665	15627.15
817.994	15626.47
818.322	15685.45
818.651	15632.12
818.979	15624.43
819.307	15627.82
819.636	15585.56
819.964	15504.66
820.292	15469.64
820.62	15560.25
820.948	15529.97
821.276	15524.78
821.604	15457.88
821.932	15484.1
822.259	15469.86
822.587	15541.5
822.915	15556.19
823.243	15511.89
823.57	15529.52
823.898	15517.09
824.225	15352.35
824.553	15433.93
824.88	15536.53
825.207	15522.29
825.535	15447.49
825.862	15565.68
826.189	15446.13
826.516	15530.65
826.843	15545.79
827.17	15569.75
827.497	15491.56
827.824	15506.02
828.151	15568.39
828.478	15533.14
828.805	15710.99
829.131	15562.29
829.458	15561.84
829.785	15525
830.111	15448.39
830.438	15548.5
830.764	15514.38
831.09	15493.14
831.417	15463.99
831.743	15499.92
832.069	15481.16
832.395	15475.74
832.722	15436.42
833.048	15350.77
833.374	15407.72
833.7	15287.27
834.026	15379.02
834.351	15429.41
834.677	15343.54
835.003	15312.58
835.329	15339.24
835.654	15331.11
835.98	15214.73
836.306	15337.66
836.631	15201.17
836.956	15259.47
837.282	15293.14
837.607	15241.39
837.932	15155.97
838.258	15129.98
838.583	15201.85
838.908	15120.49
839.233	15155.52
839.558	15051.79
839.883	14985.13
840.208	14975.19
840.533	14926.37
840.858	14949.65
841.182	14929.08
841.507	14928.86
841.832	14855.87
842.156	14839.82
842.481	14836.88
842.805	14771.8
843.13	14741.07
843.454	14655.65
843.778	14716.21
844.103	14750.78
844.427	14687.74
844.751	14595.31
845.075	14537
845.399	14507.63
845.723	14467.63
846.047	14412.94
846.371	14407.52
846.695	14390.12
847.019	14252.04
847.343	14236.45
847.666	14174.3
847.99	14084.36
848.313	14139.28
848.637	13954.2
848.96	13940.18
849.284	13897.25
849.607	13833.07
849.931	13753.3
850.254	13696.57
850.577	13551.72
850.9	13542.68
851.223	13479.63
851.546	13459.07
851.869	13394.21
852.192	13408.45
852.515	13271.73
852.838	13232.41
853.161	13249.13
853.483	13150.15
853.806	13231.05
854.129	13089.36
854.451	12966.65
854.774	12963.03
855.096	12956.93
855.419	12970.94
855.741	12924.39
856.063	12849.82
856.385	12750.16
856.708	12718.75
857.03	12679.65
857.352	12749.93
857.674	12634.46
857.996	12726.43
858.318	12561.46
858.64	12566.44
858.961	12459.55
859.283	12478.08
859.605	12415.25
859.926	12405.08
860.248	12398.53
860.57	12330.96
860.891	12378.42
861.212	12234.47
861.534	12254.58
861.855	12200.8
862.176	12248.25
862.498	12196.5
862.819	12224.52
863.14	12106.33
863.461	12104.3
863.782	12055.26
864.103	12126.9
864.424	12024.75
864.745	12046.9
865.065	12054.13
865.386	11887.58
865.707	11894.59
866.027	11919.9
866.348	11835.38
866.668	11877.41
866.989	11843.97
867.309	11795.38
867.63	11845.78
867.95	11798.55
868.27	11770.52
868.59	11754.71
868.91	11721.26
869.23	11774.82
869.55	11622.05
869.87	11657.31
870.19	11626.35
870.51	11582.96
870.83	11677.64
871.15	11580.47
871.469	11597.87
871.789	11654.14
872.109	11592.9
872.428	11518.1
872.748	11523.3
873.067	11419.35
873.386	11552.45
873.706	11502.51
874.025	11375.51
874.344	11302.51
874.663	11435.62
874.982	11365.34
875.301	11340.7
875.62	11295.28
875.939	11276.98
876.258	11298.9
876.577	11281.72
876.896	11282.63
877.214	11173.7
877.533	11229.75
877.852	11183.42
878.17	11142.07
878.489	11234.04
878.807	11197.88
879.125	11219.8
879.444	11175.51
879.762	11073.82
880.08	11098
880.398	11066.36
880.716	11029.3
881.034	11011.22
881.352	11031.56
881.67	10938
881.988	11033.59
882.306	10966.7
882.624	10901.17
882.941	10793.6
883.259	10774.17
883.577	10861.62
883.894	10864.56
884.212	10775.75
884.529	10753.6
884.846	10703.66
885.164	10749.53
885.481	10712.25
885.798	10642.87
886.115	10576.88
886.432	10579.37
886.75	10562.19
887.067	10581.63
887.383	10500.27
887.7	10477.68
888.017	10512.25
888.334	10422.31
888.651	10424.12
888.967	10407.62
889.284	10341.18
889.6	10331.24
889.917	10305.7
890.233	10223.9
890.55	10175.76
890.866	10228.42
891.182	10222.32
891.498	10139.83
891.815	10110.45
892.131	10116.33
892.447	10058.7
892.763	10042.43
893.079	10002.89
893.395	9968.54
893.71	9896.9
894.026	9989.55
894.342	9877.24
894.657	9829.78
894.973	9752.72
895.289	9755.89
895.604	9768.09
895.92	9677.25
896.235	9681.77
896.55	9706.62
896.865	9588.66
897.181	9620.75
897.496	9611.48
897.811	9507.08
898.126	9493.3
898.441	9411.94
898.756	9414.88
899.071	9384.82
899.386	9402
899.7	9246.52
900.015	9247.65
900.33	9266.86
900.644	9174.89
900.959	9209.91
901.273	9137.82
901.588	9162.46
901.902	9062.8
902.216	9052.18
902.531	9007.43
902.845	8940.32
903.159	8971.05
903.473	8934.44
903.787	8811.96
904.101	8775.35
904.415	8807.21
904.729	8825.74
905.042	8741.45
905.356	8698.29
905.67	8724.73
905.984	8686.31
906.297	8641.57
906.611	8560.89
906.924	8563.15
907.237	8507.33
907.551	8448.8
907.864	8383.72
908.177	8382.36
908.491	8442.48
908.804	8305.53
909.117	8278.86
909.43	8245.19
909.743	8202.26
910.056	8215.14
910.368	8225.98
910.681	8114.12
910.994	8106.89
911.307	8101.24
911.619	8073.67
911.932	8076.61
912.244	7905.77
912.557	8004.97
912.869	7912.55
913.181	7882.49
913.494	7823.73
913.806	7789.39
914.118	7804.98
914.43	7724.98
914.742	7730.86
915.054	7655.15
915.366	7689.73
915.678	7611.99
915.99	7635.49
916.302	7549.84
916.613	7497.87
916.925	7527.92
917.236	7587.81
917.548	7405.89
917.859	7411.09
918.171	7444.31
918.482	7377.19
918.794	7306.91
919.105	7316.18
919.416	7245.9
919.727	7217.42
920.038	7209.06
920.349	7160.93
920.66	7132.68
920.971	7098.33
921.282	7062.63
921.593	7030.54
921.903	7045.45
922.214	6986.02
922.525	6942.63
922.835	6925.23
923.146	6903.99
923.456	6864.66
923.767	6818.79
924.077	6786.7
924.387	6778.34
924.697	6740.37
925.008	6733.14
925.318	6709.19
925.628	6663.09
925.938	6625.12
926.248	6658.12
926.558	6586.48
926.867	6609.08
927.177	6532.24
927.487	6480.49
927.796	6482.53
928.106	6460.61
928.416	6448.63
928.725	6421.06
929.034	6330.44
929.344	6345.36
929.653	6322.53
929.962	6293.83
930.271	6249.54
930.581	6226.49
930.89	6221.97
931.199	6219.48
931.508	6207.05
931.817	6193.04
932.125	6153.5
932.434	6137.23
932.743	6117.34
933.051	6018.36
933.36	5997.34
933.669	5971.13
933.977	5971.13
934.286	5921.86
934.594	5906.27
934.902	5880.28
935.21	5863.56
935.519	5854.75
935.827	5813.17
936.135	5782.66
936.443	5750.34
936.751	5769.33
937.059	5741.3
937.367	5666.96
937.674	5688.88
937.982	5625.83
938.29	5668.54
938.597	5582.21
938.905	5549.22
939.213	5550.8
939.52	5524.59
939.827	5558.71
940.135	5428.32
940.442	5465.38
940.749	5483.01
941.056	5449.79
941.363	5436
941.67	5383.35
941.977	5350.35
942.284	5259.06
942.591	5327.53
942.898	5273.52
943.205	5257.25
943.511	5279.85
943.818	5227.65
944.125	5235.33
944.431	5213.86
944.738	5171.15
945.044	5147.2
945.35	5059.74
945.657	5104.26
945.963	5056.35
946.269	4984.49
946.575	5073.3
946.881	4980.19
947.187	4991.04
947.493	4930.25
947.799	4951.95
948.105	4911.5
948.41	4883.25
948.716	4913.75
949.022	4854.77
949.327	4811.84
949.633	4770.03
949.938	4785.85
950.244	4761.22
950.549	4709.69
950.854	4725.96
951.16	4709.92
951.465	4676.93
951.77	4656.59
952.075	4659.3
952.38	4586.08
952.685	4594.22
952.99	4561
953.294	4538.85
953.599	4553.31
953.904	4517.16
954.209	4478.74
954.513	4464.73
954.818	4472.18
955.122	4455.46
955.426	4473.31
955.731	4391.96
956.035	4379.98
956.339	4351.06
956.643	4370.27
956.948	4350.61
957.252	4302.92
957.556	4278.07
957.86	4269.48
958.163	4268.57
958.467	4262.7
958.771	4183.38
959.075	4213.21
959.378	4197.39
959.682	4196.71
959.985	4154.68
960.289	4109.48
960.592	4149.93
960.896	4116.49
961.199	4075.36
961.502	4051.18
961.805	4066.09
962.108	4035.13
962.411	3998.3
962.714	4002.14
963.017	3986.55
963.32	4005.3
963.623	3936.61
963.926	3940.45
964.228	3905.42
964.531	3873.1
964.833	3890.05
965.136	3821.35
965.438	3803.05
965.741	3812.54
966.043	3822.48
966.345	3764.18
966.648	3794.46
966.95	3819.32
967.252	3720.34
967.554	3716.72
967.856	3718.53
968.158	3695.93
968.46	3678.76
968.761	3668.14
969.063	3624.3
969.365	3620.46
969.666	3610.96
969.968	3562.15
970.269	3563.28
970.571	3552.43
970.872	3562.83
971.174	3547.69
971.475	3523.74
971.776	3504.07
972.077	3426.34
972.378	3466.34
972.679	3466.79
972.98	3461.14
973.281	3448.03
973.582	3377.98
973.883	3328.26
974.183	3318.32
974.484	3346.79
974.785	3356.28
975.085	3350.41
975.386	3305.44
975.686	3262.5
975.986	3256.4
976.287	3321.71
976.587	3274.25
976.887	3269.73
977.187	3246.23
977.487	3203.29
977.787	3243.97
978.087	3168.94
978.387	3186.34
978.687	3135.04
978.987	3163.74
979.286	3130.07
979.586	3111.77
979.885	3102.96
980.185	3051.88
980.484	3062.96
980.784	3064.76
981.083	3086.91
981.382	3043.52
981.682	3003.3
981.981	3027.48
982.28	2982.28
982.579	2999.23
982.878	2966.69
983.177	2916.97
983.475	2952.45
983.774	2954.03
984.073	2891.21
984.372	2861.38
984.67	2923.75
984.969	2898.67
985.267	2875.39
985.566	2849.4
985.864	2848.5
986.162	2773.47
986.461	2780.25
986.759	2834.71
987.057	2774.15
987.355	2778.44
987.653	2786.58
987.951	2773.7
988.249	2737.09
988.547	2732.8
988.844	2708.84
989.142	2728.5
989.44	2687.6
989.737	2663.64
990.035	2676.75
990.332	2653.48
990.63	2596.08
990.927	2644.66
991.224	2620.48
991.521	2624.32
991.819	2585.68
992.116	2598.56
992.413	2577.55
992.71	2564.66
993.006	2544.1
993.303	2525.34
993.6	2513.59
993.897	2514.72
994.193	2514.04
994.49	2549.07
994.787	2455.74
995.083	2482.63
995.379	2439.02
995.676	2430.66
995.972	2436.08
996.268	2407.15
996.565	2402.41
996.861	2372.58
997.157	2397.89
997.453	2337.1
997.749	2336.65
998.044	2367.16
998.34	2320.15
998.636	2311.56
998.932	2307.04
999.227	2258.23
999.523	2269.98
999.818	2284.45
1000.114	2251.68
1000.409	2235.86
1000.704	2243.54
1001	2214.84
1001.295	2238.8
1001.59	2192.24
1001.885	2182.3
1002.18	2156.54
1002.475	2166.71
1002.77	2171
1003.065	2142.08
1003.359	2142.53
1003.654	2122.19
1003.949	2115.86
1004.243	2096.88
1004.538	2051.46
1004.832	2064.79
1005.127	2051.68
1005.421	2053.27
1005.715	2036.54
1006.009	2048.29
1006.304	2017.11
1006.598	1974.4
1006.892	1996.54
1007.186	1982.08
1007.48	1965.81
1007.773	1973.04
1008.067	1952.7
1008.361	1907.73
1008.655	1933.49
1008.948	1924.68
1009.242	1918.13
1009.535	1889.2
1009.829	1877.22
1010.122	1862.08
1010.415	1850.33
1010.708	1863.44
1011.001	1841.97
1011.295	1844.91
1011.588	1829.99
1011.881	1768.07
1012.173	1822.54
1012.466	1754.74
1012.759	1792.03
1013.052	1759.26
1013.344	1733.5
1013.637	1755.65
1013.93	1722.88
1014.222	1755.87
1014.514	1738.25
1014.807	1663.9
1015.099	1690.11
1015.391	1669.55
1015.683	1699.38
1015.976	1685.82
1016.268	1656.89
1016.56	1625.71
1016.851	1634.75
1017.143	1592.94
1017.435	1611.92
1017.727	1594.07
1018.018	1607.63
1018.31	1596.1
1018.602	1571.24
1018.893	1547.74
1019.185	1568.31
1019.476	1555.65
1019.767	1511.81
1020.058	1511.13
1020.35	1525.14
1020.641	1485.82
1020.932	1502.55
1021.223	1491.25
1021.514	1442.43
1021.804	1438.59
1022.095	1467.74
1022.386	1426.62
1022.677	1436.78
1022.967	1444.47
1023.258	1408.76
1023.548	1420.29
1023.839	1396.79
1024.129	1373.06
1024.419	1347.07
1024.709	1366.73
1025	1342.1
1025.29	1353.85
1025.58	1347.07
1025.87	1329.44
1026.16	1297.8
1026.449	1337.58
1026.739	1311.82
1027.029	1297.35
1027.319	1296.22
1027.608	1277.69
1027.898	1274.98
1028.187	1264.36
1028.477	1244.25
1028.766	1239.28
1029.055	1252.38
1029.344	1242.67
1029.634	1216.9
1029.923	1232.27
1030.212	1191.14
1030.501	1205.38
1030.79	1183.23
1031.078	1168.09
1031.367	1183.46
1031.656	1147.98
1031.945	1147.3
1032.233	1134.42
1032.522	1124.02
1032.81	1152.05
1033.099	1136.68
1033.387	1119.5
1033.675	1116.11
1033.963	1118.83
1034.251	1117.47
1034.54	1111.6
1034.828	1072.05
1035.116	1076.57
1035.403	1043.35
1035.691	1073.63
1035.979	1048.77
1036.267	1064.59
1036.554	1048.09
1036.842	1032.95
1037.129	1052.84
1037.417	1038.15
1037.704	1028.89
1037.992	1018.72
1038.279	1002.9
1038.566	994.08
1038.853	994.08
1039.14	994.08
