Data from hue_170_FLMS001491_00029.txt Node
Date: Tue Feb 07 16:48:28 GMT 2017
User: dcchb
Spectrometer: FLMS00149
Trigger mode: 0
Integration Time (sec): 2.000000E-2
Scans to average: 10
Electric dark correction enabled: true
Nonlinearity correction enabled: false
Boxcar width: 0
XAxis mode: Wavelengths
Number of Pixels in Spectrum: 2048
>>>>>Begin Spectral Data<<<<<
341.393	0.99
341.776	0.99
342.16	0.99
342.543	-71.55
342.927	-70.65
343.31	-68.39
343.693	-73.36
344.077	-74.49
344.46	-53.93
344.843	-45.79
345.226	-37.43
345.61	-33.36
345.993	-26.81
346.376	31.5
346.759	-8.73
347.142	22.68
347.525	42.8
347.908	50.48
348.291	79.4
348.674	80.76
349.057	114.66
349.44	121.66
349.823	132.96
350.206	184.71
350.588	181.77
350.971	212.96
351.354	222.23
351.737	231.49
352.119	264.26
352.502	263.13
352.884	264.26
353.267	270.13
353.65	286.4
354.032	300.64
354.414	314.88
354.797	315.56
355.179	298.83
355.562	313.75
355.944	310.81
356.326	341.54
356.709	337.7
357.091	329.79
357.473	336.12
357.855	330.92
358.238	335.9
358.62	337.93
359.002	338.83
359.384	344.26
359.766	336.12
360.148	332.96
360.53	351.26
360.912	331.83
361.294	323.69
361.676	333.86
362.057	307.42
362.439	337.25
362.821	300.42
363.203	328.21
363.584	296.8
363.966	332.28
364.348	316.46
364.729	321.43
365.111	340.19
365.493	302.68
365.874	324.37
366.256	332.96
366.637	292.96
367.019	295.44
367.4	285.27
367.781	327.31
368.163	311.71
368.544	307.2
368.925	289.79
369.306	311.94
369.688	316.46
370.069	312.84
370.45	302.68
370.831	308.55
371.212	325.27
371.593	311.71
371.974	325.5
372.355	285.73
372.736	313.52
373.117	325.05
373.498	316.01
373.879	320.98
374.26	330.92
374.641	301.77
375.021	303.81
375.402	283.69
375.783	305.61
376.163	322.56
376.544	329.79
376.925	323.24
377.305	322.11
377.686	325.5
378.066	325.5
378.447	330.7
378.827	334.09
379.208	331.83
379.588	307.42
379.968	325.27
380.349	323.69
380.729	325.95
381.109	336.57
381.489	346.06
381.87	340.19
382.25	338.15
382.63	341.54
383.01	333.18
383.39	323.92
383.77	338.15
384.15	339.06
384.53	351.26
384.91	367.31
385.29	336.12
385.67	343.8
386.049	363.92
386.429	356.91
386.809	358.27
387.189	358.72
387.568	344.71
387.948	352.62
388.328	363.47
388.707	361.88
389.087	343.35
389.466	349.23
389.846	363.01
390.225	350.81
390.605	353.97
390.984	356.91
391.363	359.4
391.743	367.08
392.122	364.82
392.501	360.98
392.881	373.86
393.26	368.44
393.639	379.74
394.018	377.02
394.397	380.64
394.776	364.59
395.155	378.15
395.534	355.78
395.913	370.47
396.292	358.49
396.671	354.43
397.05	379.06
397.429	383.8
397.808	393.75
398.186	373.41
398.565	391.49
398.944	392.84
399.323	400.53
399.701	397.59
400.08	390.81
400.458	389.68
400.837	379.74
401.215	404.37
401.594	406.18
401.972	409.57
402.351	403.01
402.729	422.9
403.107	419.51
403.486	434.42
403.864	416.57
404.242	429.68
404.62	413.63
404.999	425.16
405.377	417.02
405.755	415.22
406.133	429.68
406.511	434.88
406.889	446.4
407.267	451.37
407.645	449.11
408.023	445.72
408.401	434.88
408.779	465.38
409.156	454.76
409.534	452.28
409.912	454.31
410.29	463.12
410.667	492.05
411.045	470.81
411.422	473.07
411.8	490.02
412.178	488.89
412.555	500.86
412.933	511.03
413.31	518.72
413.687	503.8
414.065	523.01
414.442	544.93
414.819	528.88
415.197	525.49
415.574	549.45
415.951	551.48
416.328	563.23
416.705	573.63
417.082	567.98
417.46	541.31
417.837	584.02
418.214	587.19
418.591	577.7
418.967	616.79
419.344	587.64
419.721	587.41
420.098	567.3
420.475	603.68
420.852	598.04
421.228	617.02
421.605	614.53
421.982	615.21
422.358	636.9
422.735	645.27
423.111	661.31
423.488	639.16
423.864	657.02
424.241	677.36
424.617	651.82
424.994	676.68
425.37	681.2
425.746	688.43
426.123	668.32
426.499	696.11
426.875	724.59
427.251	729.11
427.627	727.52
428.003	727.75
428.379	729.56
428.756	749.9
429.132	759.39
429.507	774.08
429.883	771.82
430.259	768.2
430.635	794.87
431.011	803
431.387	793.96
431.763	807.52
432.138	844.58
432.514	833.51
432.89	840.97
433.265	857.92
433.641	864.69
434.016	852.72
434.392	871.93
434.767	870.8
435.143	890.23
435.518	913.06
435.894	925.26
436.269	922.32
436.644	946.27
437.02	930.23
437.395	943.56
437.77	970.91
438.145	978.59
438.52	992.15
438.895	1008.65
439.271	997.8
439.646	1036.67
440.021	1029.89
440.395	1043.9
440.77	1040.96
441.145	1054.29
441.52	1038.25
441.895	1088.19
442.27	1108.08
442.645	1081.41
443.019	1114.63
443.394	1112.6
443.769	1117.57
444.143	1105.14
444.518	1134.74
444.892	1150.34
445.267	1173.16
445.641	1175.87
446.016	1177.91
446.39	1190.79
446.764	1206.38
447.139	1191.92
447.513	1221.75
447.887	1233.95
448.262	1252.26
448.636	1238.7
449.01	1263.78
449.384	1268.53
449.758	1260.16
450.132	1288.64
450.506	1292.48
450.88	1311.69
451.254	1298.13
451.628	1331.8
452.002	1344.91
452.376	1339.03
452.75	1362.08
453.123	1350.56
453.497	1374.06
453.871	1409.99
454.244	1401.4
454.618	1442.98
454.992	1468.07
455.365	1474.62
455.739	1500.61
456.112	1510.33
456.486	1534.51
456.859	1529.08
457.232	1570.44
457.606	1580.83
457.979	1565.24
458.352	1617.9
458.725	1671.23
459.099	1673.49
459.472	1663.54
459.845	1695.18
460.218	1705.8
460.591	1771.34
460.964	1743.54
461.337	1771.79
461.71	1797.55
462.083	1814.05
462.456	1852.69
462.829	1814.27
463.201	1898.79
463.574	1902.18
463.947	1920.49
464.32	1985.12
464.692	2022.18
465.065	2066.25
465.438	2065.34
465.81	2117.54
466.183	2077.54
466.555	2132.23
466.928	2173.36
467.3	2173.59
467.672	2228.5
468.045	2279.12
468.417	2317.76
468.789	2334.49
469.161	2357.31
469.534	2428.72
469.906	2467.59
470.278	2482.96
470.65	2521.83
471.022	2590.07
471.394	2635.5
471.766	2645.89
472.138	2707.58
472.51	2783.97
472.882	2826.23
473.253	2879.56
473.625	2936.5
473.997	3013.56
474.369	2999.1
474.74	3053.34
475.112	3158.42
475.484	3203.62
475.855	3310.05
476.227	3343.05
476.598	3443.84
476.97	3505.08
477.341	3630.05
477.713	3687.67
478.084	3739.2
478.455	3848.35
478.827	3922.92
479.198	4024.16
479.569	4086.76
479.94	4261.22
480.311	4264.15
480.682	4338.95
481.053	4446.75
481.424	4637.25
481.795	4634.54
482.166	4752.5
482.537	4886.28
482.908	5069.78
483.279	5090.57
483.65	5194.98
484.021	5310.45
484.391	5446.27
484.762	5494.63
485.133	5570.11
485.503	5761.97
485.874	5918.12
486.244	5938.23
486.615	6152.01
486.985	6263.42
487.356	6327.15
487.726	6461.84
488.097	6635.84
488.467	6644.66
488.837	6874.71
489.207	6971.2
489.578	7115.83
489.948	7210.06
490.318	7333.23
490.688	7395.37
491.058	7530.51
491.428	7734.8
491.798	7811.18
492.168	7958.75
492.538	8070.61
492.908	8186.76
493.278	8389.92
493.648	8412.52
494.017	8538.84
494.387	8679.18
494.757	8716.01
495.126	8873.75
495.496	8961.66
495.866	9052.05
496.235	9115.55
496.605	9201.2
496.974	9273.97
497.344	9397.58
497.713	9501.76
498.082	9582.88
498.452	9687.74
498.821	9755.31
499.19	9782.2
499.559	9927.06
499.928	10004.57
500.298	10129.99
500.667	10225.13
501.036	10241.4
501.405	10303.32
501.774	10411.11
502.143	10440.71
502.512	10466.02
502.88	10534.5
503.249	10595.74
503.618	10654.04
503.987	10718.45
504.356	10779.24
504.724	10936.52
505.093	10945.11
505.462	10990.3
505.83	11048.61
506.199	11126.57
506.567	11203.63
506.936	11231.65
507.304	11319.79
507.672	11414.93
508.041	11469.61
508.409	11443.85
508.777	11518.88
509.145	11651.98
509.514	11663.96
509.882	11669.38
510.25	11670.06
510.618	11690.85
510.986	11770.85
511.354	11860.34
511.722	11917.74
512.09	11981.46
512.458	11947.57
512.826	12090.84
513.193	12151.18
513.561	12148.69
513.929	12120.22
514.297	12251.06
514.664	12342.59
515.032	12298.74
515.4	12443.15
515.767	12357.27
516.135	12430.04
516.502	12265.98
516.869	12481.34
517.237	12476.59
517.604	12383.26
517.972	12534.22
518.339	12532.86
518.706	12595.46
519.073	12649.7
519.44	12663.48
519.808	12721.33
520.175	12644.5
520.542	12749.81
520.909	12778.28
521.276	12791.16
521.643	12835.23
522.009	12892.63
522.376	12897.15
522.743	12910.25
523.11	13016.01
523.477	13141.66
523.843	13024.83
524.21	13146.41
524.577	13179.17
524.943	13200.64
525.31	13156.12
525.676	13178.5
526.043	13243.35
526.409	13300.53
526.776	13419.84
527.142	13314.99
527.508	13321.09
527.874	13417.13
528.241	13348.89
528.607	13356.34
528.973	13360.86
529.339	13288.32
529.705	13439.96
530.071	13477.92
530.437	13451.93
530.803	13481.09
531.169	13467.53
531.535	13351.82
531.901	13314.54
532.267	13448.77
532.632	13482.44
532.998	13435.89
533.364	13343.01
533.73	13413.07
534.095	13423.46
534.461	13342.11
534.826	13343.69
535.192	13407.19
535.557	13456.45
535.923	13333.75
536.288	13329.68
536.653	13287.64
537.019	13240.87
537.384	13178.72
537.749	13237.93
538.114	13231.15
538.479	13136.24
538.845	13176.01
539.21	13069.8
539.575	13061.44
539.94	13030.7
540.305	13089.46
540.67	12997.03
541.034	12991.38
541.399	12980.76
541.764	12965.17
542.129	12954.77
542.494	12836.13
542.858	12748.22
543.223	12789.13
543.587	12782.35
543.952	12754.33
544.316	12725.63
544.681	12618.96
545.045	12585.06
545.41	12586.19
545.774	12606.53
546.138	12610.83
546.503	12527.44
546.867	12488.57
547.231	12555.46
547.595	12513.65
547.959	12448.12
548.324	12400.66
548.688	12377.61
549.052	12379.19
549.416	12302.59
549.779	12180.56
550.143	12145.98
550.507	12213.77
550.871	12211.52
551.235	12070.28
551.599	12117.05
551.962	12131.74
552.326	12097.39
552.689	12043.16
553.053	12003.38
553.417	11931.07
553.78	11996.61
554.143	11959.77
554.507	11903.27
554.87	11927.23
555.234	12055.36
555.597	11912.54
555.96	11902.6
556.323	11832.54
556.686	11817.85
557.05	11834.8
557.413	11811.98
557.776	11739.21
558.139	11824.63
558.502	11792.32
558.865	11710.96
559.228	11812.66
559.59	11766.78
559.953	11735.37
560.316	11871.19
560.679	11787.8
561.041	11731.98
561.404	11768.14
561.767	11847.68
562.129	11697.4
562.492	11791.87
562.854	11730.4
563.217	11739.44
563.579	11745.31
563.941	11767.91
564.304	11757.74
564.666	11801.36
565.028	11792.54
565.39	11882.26
565.753	11818.76
566.115	11801.36
566.477	11905.31
566.839	11831.64
567.201	11872.31
567.563	11937.85
567.925	11948.02
568.287	11902.6
568.648	11964.06
569.01	11970.84
569.372	11975.14
569.734	11895.37
570.095	11911.64
570.457	11901.69
570.819	12043.16
571.18	11957.51
571.542	11997.28
571.903	12028.92
572.265	12058.98
572.626	12019.43
572.987	12010.62
573.349	12032.31
573.71	12031.41
574.071	12114.57
574.432	12110.73
574.794	12130.39
575.155	12183.04
575.516	12054.68
575.877	12119.54
576.238	12084.06
576.599	12101.69
576.96	12079.32
577.32	12209.48
577.681	12124.74
578.042	12191.63
578.403	12218.97
578.763	12104.85
579.124	12124.96
579.485	12144.4
579.845	12199.54
580.206	12119.09
580.566	12092.2
580.927	12164.28
581.287	12222.81
581.648	12105.08
582.008	12170.84
582.368	12150.73
582.728	12142.36
583.089	12110.5
583.449	12125.19
583.809	12122.03
584.169	12147.79
584.529	12110.73
584.889	12059.65
585.249	11957.74
585.609	12001.8
585.969	12074.8
586.329	12015.36
586.688	12001.35
587.048	11984.85
587.408	11999.09
587.768	11888.13
588.127	11911.86
588.487	11970.39
588.846	12052.42
589.206	11917.96
589.565	11905.31
589.925	11993.89
590.284	11889.04
590.643	11929.71
591.003	12054.91
591.362	11998.41
591.721	11921.35
592.08	11888.59
592.44	11917.29
592.799	11946.21
593.158	11916.61
593.517	11882.94
593.876	11876.38
594.235	11842.94
594.593	11813.79
594.952	11854.01
595.311	11858.53
595.67	11934.69
596.029	11973.1
596.387	11834.35
596.746	11848.81
597.104	11843.84
597.463	11854.01
597.822	11818.98
598.18	11859.43
598.538	11780.34
598.897	11768.59
599.255	11819.21
599.613	11869.15
599.972	11799.77
600.33	11815.37
600.688	11794.35
601.046	11816.05
601.404	11860.79
601.762	11862.37
602.12	11882.03
602.478	11831.86
602.836	11874.57
603.194	11823.05
603.552	11784.18
603.91	11753
604.268	11847.46
604.625	11740.57
604.983	11802.49
605.341	11746.67
605.698	11747.35
606.056	11889.94
606.413	11733.79
606.771	11842.94
607.128	11804.29
607.485	11718.65
607.843	11782.6
608.2	11923.39
608.557	11880.45
608.914	11788.93
609.272	11865.54
609.629	11890.85
609.986	11939.88
610.343	11910.96
610.7	11961.58
611.057	11859.21
611.414	11880.45
611.771	11896.95
612.127	12027.57
612.484	11969.94
612.841	12030.5
613.198	11970.17
613.554	11986.44
613.911	11974.46
614.267	11982.14
614.624	11874.57
614.98	11960
615.337	11993.44
615.693	12041.35
616.05	11939.66
616.406	12097.62
616.762	12022.14
617.118	12101.69
617.475	11995.93
617.831	12086.32
618.187	12038.64
618.543	12063.04
618.899	12200.89
619.255	12161.57
619.611	12040.67
619.967	12099.65
620.323	12177.17
620.678	12120.44
621.034	12098.98
621.39	12107.79
621.746	12072.31
622.101	12239.31
622.457	12109.6
622.812	12086.32
623.168	12058.75
623.523	12120.67
623.879	12112.53
624.234	12045.42
624.589	12143.49
624.945	12132.2
625.3	12203.38
625.655	12052.42
626.01	12133.55
626.365	12134
626.72	12120.9
627.075	12070.95
627.43	12097.85
627.785	12112.53
628.14	12016.49
628.495	12138.97
628.85	12108.24
629.205	12122.25
629.559	12101.01
629.914	12036.38
630.269	12032.99
630.623	12002.26
630.978	12003.84
631.332	12135.81
631.687	12008.13
632.041	12048.58
632.396	12079.32
632.75	11960.9
633.104	11951.86
633.459	11922.94
633.813	11946.21
634.167	11891.3
634.521	11817.18
634.875	11889.94
635.229	11847.23
635.583	11782.83
635.937	11860.56
636.291	11839.55
636.645	11849.26
636.999	11739.66
637.352	11882.03
637.706	11705.77
638.06	11791.87
638.413	11751.19
638.767	11708.48
639.121	11775.59
639.474	11613.11
639.828	11592.32
640.181	11665.54
640.534	11703.28
640.888	11641.13
641.241	11524.53
641.594	11558.65
641.947	11638.87
642.301	11617.63
642.654	11640.46
643.007	11654.02
643.36	11561.59
643.713	11524.98
644.066	11577.41
644.419	11493.34
644.771	11489.05
645.124	11307.13
645.477	11344.42
645.83	11289.28
646.182	11258.55
646.535	11273.69
646.888	11277.3
647.24	11164.54
647.593	11225.33
647.945	11187.59
648.298	11114.82
648.65	11113.69
649.002	11139.9
649.355	11127.25
649.707	11142.16
650.059	11139.9
650.411	11389.39
650.763	11320.01
651.115	11435.94
651.467	11449.28
651.819	11406.34
652.171	11379.9
652.523	11347.58
652.875	11377.64
653.227	11255.38
653.578	11397.98
653.93	11392.33
654.282	11301.93
654.633	11311.43
654.985	11376.73
655.337	11321.59
655.688	11429.39
656.039	11403.4
656.391	11369.96
656.742	11404.98
657.094	11423.06
657.445	11414.7
657.796	11441.37
658.147	11355.94
658.498	11379.67
658.849	11448.15
659.2	11421.71
659.551	11413.8
659.902	11471.2
660.253	11432.33
660.604	11475.94
660.955	11414.47
661.306	11477.3
661.656	11496.28
662.007	11480.23
662.358	11398.66
662.708	11480.01
663.059	11400.01
663.409	11428.71
663.76	11490.18
664.11	11488.37
664.461	11439.56
664.811	11462.38
665.161	11442.27
665.511	11480.46
665.862	11422.61
666.212	11524.75
666.562	11531.31
666.912	11425.77
667.262	11418.54
667.612	11438.2
667.962	11526.11
668.312	11445.21
668.662	11458.77
669.011	11402.72
669.361	11396.17
669.711	11371.54
670.06	11375.38
670.41	11410.18
670.76	11409.5
671.109	11506.22
671.459	11413.12
671.808	11404.98
672.157	11423.29
672.507	11356.62
672.856	11348.71
673.205	11397.75
673.554	11439.11
673.904	11319.11
674.253	11413.12
674.602	11314.82
674.951	11203.63
675.3	11163.41
675.649	11271.88
675.998	11294.48
676.346	11308.26
676.695	11322.05
677.044	11280.69
677.393	11230.75
677.741	11271.2
678.09	11226.68
678.438	11190.98
678.787	11264.42
679.135	11207.93
679.484	11151.2
679.832	11209.73
680.181	11059.45
680.529	11137.87
680.877	11093.58
681.225	11069.62
681.573	11199.79
681.922	11059.91
682.27	11057.2
682.618	11053.35
682.966	11085.44
683.314	10979.46
683.661	11002.51
684.009	11016.29
684.357	10959.57
684.705	10901.04
685.053	10939.46
685.4	10910.98
685.748	10825.11
686.095	10824.43
686.443	10802.74
686.79	10758.22
687.138	10750.76
687.485	10804.09
687.832	10638.9
688.18	10776.75
688.527	10676.19
688.874	10677.77
689.221	10602.97
689.568	10546.25
689.915	10547.6
690.262	10506.25
690.609	10537.66
690.956	10424.44
691.303	10428.74
691.65	10301.96
691.997	10360.72
692.344	10286.37
692.69	10227.84
693.037	10278.23
693.383	10199.82
693.73	10177.9
694.077	10098.35
694.423	10168.63
694.769	10113.04
695.116	10047.5
695.462	10058.35
695.808	10011.12
696.155	9950.78
696.501	9912.37
696.847	9851.13
697.193	9816.78
697.539	9850.45
697.885	9755.53
698.231	9743.33
698.577	9724.12
698.923	9661.75
699.269	9678.93
699.614	9578.82
699.96	9576.1
700.306	9542.21
700.651	9515.77
700.997	9470.57
701.342	9486.39
701.688	9453.62
702.033	9417.92
702.379	9367.52
702.724	9405.94
703.069	9394.41
703.415	9253.17
703.76	9215.44
704.105	9210.46
704.45	9206.85
704.795	9151.93
705.14	9099.73
705.485	9072.39
705.83	9101.31
706.175	9016.8
706.52	8976.57
706.865	8987.42
707.209	8966.63
707.554	8895.22
707.899	8934.09
708.243	8846.41
708.588	8780.42
708.932	8765.96
709.277	8822
709.621	8767.31
709.966	8732.28
710.31	8763.7
710.654	8645.96
710.998	8645.96
711.342	8639.86
711.687	8593.08
712.031	8563.93
712.375	8567.54
712.719	8536.13
713.063	8568
713.407	8542.01
713.75	8478.96
714.094	8516.7
714.438	8436.7
714.782	8551.95
715.125	8383.82
715.469	8480.09
715.812	8408.68
716.156	8393.31
716.499	8384.72
716.843	8368
717.186	8352.18
717.53	8398.51
717.873	8382.01
718.216	8346.98
718.559	8281.22
718.902	8224.73
719.246	8240.55
719.589	8228.57
719.932	8194.9
720.275	8205.74
720.617	8210.72
720.96	8178.4
721.303	8160.77
721.646	8199.64
721.989	8083.26
722.331	8170.72
722.674	8114.9
723.016	8135.69
723.359	8168.23
723.701	8154.22
724.044	8096.37
724.386	8045.75
724.729	8152.86
725.071	8039.65
725.413	8070.61
725.755	8096.14
726.097	8079.42
726.439	8039.87
726.782	8029.25
727.124	8083.49
727.465	8032.64
727.807	8016.82
728.149	8075.35
728.491	8024.28
728.833	8023.83
729.175	8019.31
729.516	7964.62
729.858	8021.79
730.199	7976.37
730.541	8017.28
730.882	7986.32
731.224	7988.8
731.565	7977.05
731.906	7974.79
732.248	8027.22
732.589	7937.05
732.93	7917.39
733.271	7944.73
733.612	7990.16
733.953	8010.95
734.294	7926.88
734.635	7894.34
734.976	7981.12
735.317	7957.39
735.658	7949.03
735.999	7937.96
736.339	7951.97
736.68	7977.95
737.021	8027.22
737.361	7896.83
737.702	8041.23
738.042	8028.35
738.383	8015.69
738.723	8047.33
739.063	8040.33
739.404	8073.54
739.744	8018.18
740.084	8022.92
740.424	8036.26
740.764	8094.34
741.104	8086.2
741.444	8062.92
741.784	8085.75
742.124	8109.93
742.464	8125.29
742.804	8110.15
743.143	8156.93
743.483	8132.75
743.823	8130.27
744.162	8211.62
744.502	8288.23
744.841	8248.68
745.181	8330.94
745.52	8357.38
745.86	8392.86
746.199	8398.96
746.538	8429.69
746.877	8538.84
747.216	8598.28
747.556	8572.06
747.895	8610.93
748.234	8602.8
748.573	8661.33
748.911	8782
749.25	8775.22
749.589	8892.96
749.928	8977.7
750.267	8949.23
750.605	9063.58
750.944	9089.11
751.283	9169.56
751.621	9256.56
751.96	9311.25
752.298	9387.18
752.636	9565.71
752.975	9626.27
753.313	9701.3
753.651	9759.38
753.989	9883.89
754.327	10037.11
754.666	10066.94
755.004	10168.63
755.342	10336.08
755.679	10450.21
756.017	10478.45
756.355	10688.62
756.693	10754.15
757.031	10994.15
757.368	11048.61
757.706	11233.91
758.044	11319.11
758.381	11484.53
758.719	11553.68
759.056	11734.69
759.394	11923.84
759.731	12067.11
760.068	12179.88
760.405	12271.63
760.743	12467.33
761.08	12673.65
761.417	12829.8
761.754	12982.57
762.091	13225.05
762.428	13285.39
762.765	13355.67
763.102	13631.14
763.438	13690.12
763.775	13911.81
764.112	13989.32
764.449	14247.17
764.785	14346.37
765.122	14423.21
765.458	14592.02
765.795	14827.27
766.131	14969.18
766.467	15090.31
766.804	15095.51
767.14	15283.07
767.476	15390.64
767.812	15594.7
768.148	15761.03
768.485	15739.33
768.821	15779.33
769.157	15969.61
769.492	16068.14
769.828	16188.36
770.164	16247.34
770.5	16409.14
770.836	16468.35
771.171	16570.04
771.507	16546.99
771.842	16682.58
772.178	16852.97
772.513	16946.31
772.849	17055.68
773.184	16909.24
773.519	17133.42
773.855	17271.95
774.19	17291.83
774.525	17268.33
774.86	17416.58
775.195	17506.97
775.53	17513.3
775.865	17523.24
776.2	17477.14
776.535	17515.1
776.87	17614.08
777.205	17604.82
777.539	17558.04
777.874	17722.1
778.209	17645.72
778.543	17735.89
778.878	17768.88
779.212	17809.11
779.547	17722.78
779.881	17832.38
780.215	17788.09
780.55	17963
780.884	17942.89
781.218	17864.93
781.552	17891.59
781.886	17937.69
782.22	17935.21
782.554	17895.43
782.888	17824.93
783.222	17676.23
783.556	17815.44
783.889	17839.39
784.223	17796.9
784.557	17707.19
784.89	17807.3
785.224	17700.64
785.557	17652.5
785.891	17704.48
786.224	17745.61
786.558	17724.82
786.891	17541.54
787.224	17595.1
787.557	17510.58
787.891	17582
788.224	17567.08
788.557	17556.91
788.89	17563.24
789.223	17565.72
789.556	17535.44
789.888	17506.07
790.221	17415.22
790.554	17384.71
790.887	17403.69
791.219	17273.98
791.552	17273.98
791.884	17275.11
792.217	17265.39
792.549	17189.46
792.882	17196.69
793.214	17027.43
793.546	17168.45
793.879	16916.93
794.211	17012.52
794.543	17077.83
794.875	16977.04
795.207	17084.38
795.539	16919.19
795.871	16938.85
796.203	16771.17
796.535	16726.65
796.867	16638.29
797.198	16679.42
797.53	16650.27
797.862	16581.8
798.193	16599.87
798.525	16494.11
798.856	16560.33
799.188	16395.59
799.519	16400.33
799.85	16271.97
800.182	16274.01
800.513	16275.81
800.844	16230.17
801.175	16244.86
801.506	16285.98
801.837	16247.79
802.168	16193.78
802.499	16004.86
802.83	16030.62
803.161	15967.57
803.491	15931.64
803.822	16040.57
804.153	15903.17
804.483	15888.71
804.814	15713.8
805.145	15816.84
805.475	15765.77
805.805	15761.03
806.136	15570.75
806.466	15731.87
806.796	15659.33
807.126	15560.58
807.457	15586.34
807.787	15446.01
808.117	15493.46
808.447	15450.53
808.777	15457.76
809.107	15432.67
809.436	15313.35
809.766	15369.85
810.096	15277.42
810.426	15161.72
810.755	15274.03
811.085	15155.17
811.414	15149.06
811.744	15133.92
812.073	15031.33
812.403	15100.93
812.732	14962.18
813.061	15037.88
813.39	14889.64
813.719	14933.7
814.049	15059.8
814.378	14856.19
814.707	14832.92
815.036	14888.51
815.365	14690.32
815.693	14632.92
816.022	14715.4
816.351	14721.96
816.68	14509.53
817.008	14666.82
817.337	14482.87
817.665	14455.75
817.994	14560.38
818.322	14502.75
818.651	14427.5
818.979	14375.98
819.307	14452.81
819.636	14412.36
819.964	14319.03
820.292	14361.29
820.62	14340.05
820.948	14295.98
821.276	14375.75
821.604	14359.26
821.932	14333.04
822.259	14359.26
822.587	14317.67
822.915	14265.92
823.243	14304.57
823.57	14341.18
823.898	14301.4
824.225	14308.86
824.553	14264.79
824.88	14318.13
825.207	14347.73
825.535	14280.61
825.862	14388.41
826.189	14291.01
826.516	14384.34
826.843	14413.72
827.17	14324.91
827.497	14307.05
827.824	14372.81
828.151	14377.79
828.478	14301.4
828.805	14469.76
829.131	14382.31
829.458	14345.02
829.785	14316.32
830.111	14387.96
830.438	14422.08
830.764	14331.23
831.09	14368.07
831.417	14193.61
831.743	14357.45
832.069	14318.13
832.395	14285.13
832.722	14342.53
833.048	14193.16
833.374	14299.82
833.7	14145.7
834.026	14156.77
834.351	14164.01
834.677	14236.77
835.003	14212.59
835.329	14171.24
835.654	14126.27
835.98	14161.52
836.306	14128.3
836.631	14028.64
836.956	14194.97
837.282	14132.59
837.607	14058.92
837.932	14025.25
838.258	14065.48
838.583	13990.23
838.908	13969.21
839.233	14001.52
839.558	13959.49
839.883	13884.24
840.208	13913.39
840.533	13827.52
840.858	13850.12
841.182	13883.11
841.507	13793.62
841.832	13813.05
842.156	13697.35
842.481	13691.25
842.805	13715.88
843.13	13705.26
843.454	13640.63
843.778	13604.47
844.103	13552.04
844.427	13544.14
844.751	13557.47
845.075	13419.39
845.399	13464.14
845.723	13417.36
846.047	13335.1
846.371	13236.8
846.695	13206.74
847.019	13164.26
847.343	13035
847.666	13063.02
847.99	12969.24
848.313	13028.22
848.637	12848.79
848.96	12815.34
849.284	12769.69
849.607	12719.3
849.931	12692.86
850.254	12606.31
850.577	12517.04
850.9	12476.14
851.223	12511.62
851.546	12397.95
851.869	12346.2
852.192	12376.71
852.515	12304.17
852.838	12357.95
853.161	12282.7
853.483	12209.71
853.806	12167.22
854.129	12186.66
854.451	12071.63
854.774	11988.24
855.096	11952.31
855.419	11960.67
855.741	11960.67
856.063	11802.26
856.385	11808.81
856.708	11739.44
857.03	11716.16
857.352	11756.16
857.674	11760.68
857.996	11693.34
858.318	11614.69
858.64	11649.95
858.961	11554.13
859.283	11536.05
859.605	11480.91
859.926	11525.43
860.248	11398.88
860.57	11418.32
860.891	11403.85
861.212	11341.71
861.534	11352.55
861.855	11340.13
862.176	11334.93
862.498	11304.19
862.819	11173.8
863.14	11249.73
863.461	11143.52
863.782	11166.8
864.103	11157.31
864.424	11122.5
864.745	11079.34
865.065	11040.7
865.386	11078.89
865.707	11054.94
866.027	10998.44
866.348	11012.9
866.668	10999.8
866.989	10910.98
867.309	10868.95
867.63	10984.2
867.95	10896.75
868.27	10878.89
868.59	10861.72
868.91	10812.68
869.23	10803.64
869.55	10841.16
869.87	10849.29
870.19	10764.1
870.51	10858.1
870.83	10779.46
871.15	10722.06
871.469	10739.69
871.789	10693.59
872.109	10775.62
872.428	10648.84
872.748	10664.89
873.067	10672.8
873.386	10684.32
873.706	10591.22
874.025	10595.51
874.344	10534.95
874.663	10529.07
874.982	10488.4
875.301	10450.21
875.62	10467.38
875.939	10476.87
876.258	10540.82
876.577	10374.5
876.896	10376.08
877.214	10372.69
877.533	10391.22
877.852	10294.96
878.17	10395.97
878.489	10377.89
878.807	10353.94
879.125	10303.09
879.444	10273.03
879.762	10258.35
880.08	10278.23
880.398	10241.62
880.716	10224.22
881.034	10130.21
881.352	10174.28
881.67	10247.05
881.988	10135.64
882.306	10177.44
882.624	10007.05
882.941	10032.36
883.259	10034.17
883.577	10016.54
883.894	9985.58
884.212	9952.59
884.529	9931.8
884.846	9890.45
885.164	9875.98
885.481	9875.53
885.798	9866.49
886.115	9758.92
886.432	9816.1
886.75	9825.36
887.067	9770
887.383	9707.4
887.7	9801.86
888.017	9738.13
888.334	9724.35
888.651	9659.94
888.967	9635.76
889.284	9584.69
889.6	9552.15
889.917	9513.96
890.233	9543.11
890.55	9513.73
890.866	9463.79
891.182	9475.09
891.498	9479.16
891.815	9426.28
892.131	9406.84
892.447	9340.86
892.763	9265.6
893.079	9285.49
893.395	9268.54
893.71	9217.7
894.026	9185.83
894.342	9202.1
894.657	9131.37
894.973	9050.69
895.289	9058.38
895.604	9033.75
895.92	9038.04
896.235	8930.25
896.55	8961.66
896.865	8869.91
897.181	8897.25
897.496	8869.68
897.811	8796.92
898.126	8778.61
898.441	8760.98
898.756	8732.28
899.071	8725.51
899.386	8702.91
899.7	8579.75
900.015	8635.79
900.33	8532.06
900.644	8529.8
900.959	8529.58
901.273	8474.66
901.588	8423.59
901.902	8442.12
902.216	8391.5
902.531	8401.9
902.845	8313.31
903.159	8241.22
903.473	8249.36
903.787	8192.19
904.101	8169.14
904.415	8198.29
904.729	8142.7
905.042	8083.04
905.356	8083.94
905.67	8003.26
905.984	8036.48
906.297	7945.19
906.611	7945.19
906.924	7937.96
907.237	7912.87
907.551	7900.44
907.864	7796.26
908.177	7726.66
908.491	7758.3
908.804	7785.64
909.117	7662.03
909.43	7631.75
909.743	7607.34
910.056	7584.52
910.368	7604.4
910.681	7579.77
910.994	7537.06
911.307	7474.01
911.619	7339.1
911.932	7361.25
912.244	7370.06
912.557	7367.12
912.869	7310.85
913.181	7307.24
913.494	7261.81
913.806	7215.04
914.118	7211.65
914.43	7150.86
914.742	7168.71
915.054	7070.41
915.366	7095.04
915.678	7054.81
915.99	7013.46
916.302	7035.15
916.613	6962.61
916.925	6993.35
917.236	6902.5
917.548	6900.47
917.859	6858.89
918.171	6823.41
918.482	6822.05
918.794	6762.62
919.105	6732.34
919.416	6711.09
919.727	6683.3
920.038	6695.28
920.349	6622.96
920.66	6633.36
920.971	6593.36
921.282	6605.56
921.593	6506.13
921.903	6495.28
922.214	6486.24
922.525	6462.06
922.835	6443.08
923.146	6435.17
923.456	6396.07
923.767	6342.97
924.077	6315.85
924.387	6309.98
924.697	6261.16
925.008	6258.68
925.318	6201.96
925.628	6236.08
925.938	6164.89
926.248	6096.65
926.558	6121.96
926.867	6113.6
927.177	6055.29
927.487	6032.02
927.796	5952.02
928.106	5990.89
928.416	5966.03
928.725	5935.07
929.034	5919.25
929.344	5895.97
929.653	5924.9
929.962	5823.89
930.271	5852.81
930.581	5813.72
930.89	5757.45
931.199	5749.54
931.508	5725.36
931.817	5745.47
932.125	5691.46
932.434	5681.29
932.743	5638.35
933.051	5629.54
933.36	5620.28
933.669	5584.12
933.977	5526.72
934.286	5565.81
934.594	5476.1
934.902	5449.88
935.21	5429.77
935.519	5445.82
935.827	5446.27
936.135	5351.13
936.443	5318.81
936.751	5323.56
937.059	5315.65
937.367	5300.51
937.674	5279.72
937.982	5213.51
938.29	5212.6
938.597	5189.55
938.905	5143
939.213	5191.36
939.52	5118.82
939.827	5111.14
940.135	5091.7
940.442	5048.77
940.749	5029.56
941.056	5034.08
941.363	4997.24
941.67	5007.18
941.977	4960.63
942.284	4907.75
942.591	4897.36
942.898	4906.4
943.205	4915.44
943.511	4863.69
943.818	4855.1
944.125	4792.73
944.431	4778.04
944.738	4783.01
945.044	4761.54
945.35	4705.5
945.657	4709.34
945.963	4670.47
946.269	4652.17
946.575	4671.15
946.881	4686.97
947.187	4600.42
947.493	4611.49
947.799	4582.56
948.105	4541.21
948.41	4521.1
948.716	4510.7
949.022	4493.75
949.327	4511.83
949.633	4463.47
949.938	4453.53
950.244	4413.08
950.549	4343.47
950.854	4394.55
951.16	4379.63
951.465	4359.29
951.77	4343.7
952.075	4316.81
952.38	4315.23
952.685	4292.4
952.99	4260.54
953.294	4214.66
953.599	4251.27
953.904	4185.29
954.209	4167.43
954.513	4170.14
954.818	4143.03
955.122	4112.74
955.426	4133.99
955.731	4097.83
956.035	4098.06
956.339	4028
956.643	4098.28
956.948	4032.07
957.252	3981
957.556	3996.82
957.86	3973.99
958.163	3968.57
958.467	3889.7
958.771	3949.59
959.075	3899.19
959.378	3927.67
959.682	3910.04
959.985	3891.51
960.289	3848.35
960.592	3771.74
960.896	3771.29
961.199	3736.03
961.502	3770.38
961.805	3728.12
962.108	3760.21
962.411	3686.99
962.714	3662.36
963.017	3701.68
963.32	3691.06
963.623	3640.89
963.926	3649.48
964.228	3632.53
964.531	3577.84
964.833	3617.62
965.136	3559.54
965.438	3582.59
965.741	3556.15
966.043	3500.78
966.345	3487
966.648	3507.11
966.95	3459.88
967.252	3457.85
967.554	3442.48
967.856	3432.31
968.158	3408.58
968.46	3411.97
968.761	3410.16
969.063	3378.53
969.365	3387.57
969.666	3370.39
969.968	3345.31
970.269	3341.01
970.571	3341.47
970.872	3314.35
971.174	3316.61
971.475	3275.03
971.776	3237.97
972.077	3231.64
972.378	3218.31
972.679	3208.81
972.98	3217.63
973.281	3176.05
973.582	3155.26
973.883	3195.48
974.183	3171.75
974.484	3145.09
974.785	3113.9
975.085	3095.6
975.386	3139.66
975.686	3110.06
975.986	3046.56
976.287	3056.95
976.587	3062.15
976.887	3062.38
977.187	3037.52
977.487	3020.12
977.787	2951.65
978.087	2995.49
978.387	2983.74
978.687	2974.7
978.987	2917.07
979.286	2901.25
979.586	2919.56
979.885	2922.04
980.185	2898.54
980.484	2865.32
980.784	2866.9
981.083	2861.48
981.382	2834.36
981.682	2803.63
981.981	2810.18
982.28	2793.23
982.579	2739.9
982.878	2778.54
983.177	2736.51
983.475	2725.66
983.774	2750.07
984.073	2727.92
984.372	2693.12
984.67	2688.15
984.969	2685.66
985.267	2695.38
985.566	2670.75
985.864	2615.16
986.162	2651.54
986.461	2618.55
986.759	2596.4
987.057	2617.19
987.355	2571.54
987.653	2584.2
987.951	2569.06
988.249	2557.53
988.547	2533.8
988.844	2527.7
989.142	2519.11
989.44	2524.54
989.737	2506.23
990.035	2482.28
990.332	2471.21
990.63	2450.87
990.927	2444.99
991.224	2418.78
991.521	2396.41
991.819	2414.71
992.116	2423.98
992.413	2381.27
992.71	2385.33
993.006	2353.92
993.303	2362.51
993.6	2384.88
993.897	2356.86
994.193	2312.57
994.49	2284.77
994.787	2282.74
995.083	2284.77
995.379	2301.95
995.676	2285.45
995.972	2278.89
996.268	2292
996.565	2240.03
996.861	2220.37
997.157	2272.57
997.453	2214.72
997.749	2212.23
998.044	2168.62
998.34	2146.69
998.636	2176.3
998.932	2159.12
999.227	2145.34
999.523	2152.12
999.818	2145.57
1000.114	2115.51
1000.409	2082.74
1000.704	2076.87
1001	2074.15
1001.295	2082.52
1001.59	2038.9
1001.885	2051.33
1002.18	2035.51
1002.475	2004.78
1002.77	2010.65
1003.065	1997.32
1003.359	1987.38
1003.654	1969.98
1003.949	1960.49
1004.243	1948.73
1004.538	1949.19
1004.832	1916.42
1005.127	1936.31
1005.421	1895.85
1005.715	1878.23
1006.009	1889.75
1006.304	1879.13
1006.598	1866.93
1006.892	1856.31
1007.186	1842.07
1007.48	1856.31
1007.773	1802.98
1008.067	1815.86
1008.361	1797.55
1008.655	1786.93
1008.948	1781.73
1009.242	1748.06
1009.535	1784.9
1009.829	1762.75
1010.122	1741.28
1010.415	1748.74
1010.708	1703.09
1011.001	1732.69
1011.295	1667.39
1011.588	1710.32
1011.881	1676.2
1012.173	1681.85
1012.466	1676.65
1012.759	1652.7
1013.052	1642.75
1013.344	1655.41
1013.637	1643.21
1013.93	1620.38
1014.222	1621.06
1014.514	1604.79
1014.807	1588.07
1015.099	1572.47
1015.391	1580.16
1015.683	1565.24
1015.976	1550.33
1016.268	1544.22
1016.56	1556.88
1016.851	1501.74
1017.143	1518.91
1017.435	1518.46
1017.727	1487.73
1018.018	1498.12
1018.31	1509.42
1018.602	1437.11
1018.893	1439.14
1019.185	1461.97
1019.476	1459.48
1019.767	1455.64
1020.058	1422.19
1020.35	1379.48
1020.641	1418.13
1020.932	1373.83
1021.223	1391.23
1021.514	1385.36
1021.804	1363.66
1022.095	1374.06
1022.386	1370.22
1022.677	1347.39
1022.967	1313.95
1023.258	1325.7
1023.548	1325.47
1023.839	1299.71
1024.129	1283.44
1024.419	1293.38
1024.709	1293.38
1025	1291.58
1025.29	1241.18
1025.58	1248.64
1025.87	1242.54
1026.16	1236.66
1026.449	1237.79
1026.739	1248.64
1027.029	1232.82
1027.319	1208.87
1027.608	1232.37
1027.898	1195.53
1028.187	1187.85
1028.477	1181.75
1028.766	1147.63
1029.055	1163.67
1029.344	1152.37
1029.634	1153.95
1029.923	1152.6
1030.212	1139.94
1030.501	1139.49
1030.79	1135.65
1031.078	1113.05
1031.367	1101.75
1031.656	1081.64
1031.945	1088.64
1032.233	1105.14
1032.522	1088.64
1032.81	1075.99
1033.099	1062.66
1033.387	1039.61
1033.675	1059.27
1033.963	1029.44
1034.251	1052.26
1034.54	1036.89
1034.828	1022.66
1035.116	1009.1
1035.403	1031.47
1035.691	1020.85
1035.979	980.17
1036.267	1010.23
1036.554	982.21
1036.842	952.15
1037.129	997.12
1037.417	970
1037.704	951.92
1037.992	964.58
1038.279	954.41
1038.566	944.24
1038.853	944.24
1039.14	944.24
