Data from hue_270_FLMS001491_00044.txt Node
Date: Tue Feb 07 15:57:14 GMT 2017
User: dcchb
Spectrometer: FLMS00149
Trigger mode: 0
Integration Time (sec): 2.000000E-2
Scans to average: 10
Electric dark correction enabled: true
Nonlinearity correction enabled: false
Boxcar width: 0
XAxis mode: Wavelengths
Number of Pixels in Spectrum: 2048
>>>>>Begin Spectral Data<<<<<
341.393	-39.6
341.776	-39.6
342.16	-39.6
342.543	-63.33
342.927	-86.83
343.31	-73.05
343.693	-66.72
344.077	-81.64
344.46	-67.17
344.843	-55.87
345.226	-23.33
345.61	-29.43
345.993	-2.77
346.376	-6.84
346.759	25.25
347.142	26.61
347.525	32.26
347.908	49.21
348.291	77.68
348.674	103.67
349.057	92.14
349.44	126.04
349.823	151.35
350.206	171.24
350.588	177.11
350.971	203.78
351.354	195.19
351.737	243.78
352.119	249.88
352.502	258.02
352.884	260.05
353.267	275.87
353.65	279.48
354.032	293.72
354.414	293.27
354.797	300.05
355.179	314.29
355.562	310.67
355.944	314.06
356.326	332.36
356.709	319.26
357.091	338.69
357.473	347.73
357.855	336.88
358.238	311.8
358.62	357.67
359.002	311.12
359.384	351.8
359.766	355.41
360.148	336.66
360.53	330.56
360.912	335.98
361.294	327.39
361.676	328.97
362.057	360.16
362.439	343.44
362.821	324.45
363.203	327.17
363.584	314.06
363.966	319.94
364.348	305.7
364.729	323.78
365.111	301.63
365.493	324.45
365.874	319.71
366.256	311.57
366.637	322.65
367.019	332.36
367.4	302.53
367.781	335.3
368.163	285.81
368.544	318.58
368.925	290.78
369.306	312.93
369.688	311.35
370.069	309.09
370.45	311.35
370.831	318.13
371.212	313.83
371.593	330.1
371.974	288.98
372.355	327.39
372.736	307.73
373.117	324.45
373.498	338.47
373.879	324.45
374.26	311.12
374.641	308.86
375.021	305.25
375.402	309.77
375.783	325.58
376.163	313.38
376.544	327.84
376.925	310.9
377.305	305.47
377.686	323.78
378.066	321.97
378.447	326.26
378.827	307.28
379.208	335.53
379.588	313.16
379.968	357
380.349	317.22
380.729	348.18
381.109	339.82
381.489	324
381.87	322.19
382.25	340.95
382.63	339.37
383.01	347.5
383.39	348.86
383.77	352.7
384.15	342.31
384.53	349.99
384.91	335.08
385.29	354.28
385.67	348.41
386.049	353.61
386.429	368.75
386.809	340.5
387.189	346.6
387.568	372.59
387.948	356.77
388.328	353.15
388.707	372.36
389.087	364.68
389.466	374.85
389.846	362.65
390.225	375.53
390.605	365.13
390.984	368.07
391.363	379.82
391.743	381.4
392.122	390.44
392.501	368.3
392.881	389.54
393.26	379.82
393.639	409.88
394.018	380.05
394.397	378.01
394.776	373.04
395.155	389.09
395.534	391.35
395.913	371.01
396.292	399.26
396.671	411.68
397.05	390.89
397.429	419.82
397.808	414.62
398.186	393.61
398.565	389.76
398.944	389.09
399.323	400.61
399.701	406.71
400.08	405.13
400.458	422.53
400.837	436.09
401.215	439.03
401.594	418.01
401.972	421.85
402.351	425.92
402.729	420.05
403.107	426.15
403.486	426.82
403.864	451.91
404.242	453.72
404.62	451.01
404.999	434.51
405.377	449.42
405.755	449.65
406.133	457.33
406.511	465.24
406.889	443.32
407.267	474.06
407.645	492.59
408.023	488.52
408.401	513.83
408.779	514.28
409.156	517.67
409.534	516.31
409.912	509.08
410.29	537.78
410.667	499.14
411.045	550.89
411.422	546.82
411.8	558.8
412.178	532.36
412.555	565.13
412.933	542.3
413.31	570.78
413.687	578.91
414.065	585.01
414.442	569.42
414.819	592.7
415.197	625.69
415.574	625.24
415.951	614.16
416.328	628.85
416.705	601.74
417.082	638.34
417.46	627.72
417.837	659.36
418.214	631.34
418.591	661.17
418.967	670.89
419.344	674.28
419.721	665.46
420.098	696.2
420.475	696.2
420.852	714.05
421.228	711.34
421.605	721.96
421.982	741.17
422.358	732.58
422.735	726.48
423.111	754.27
423.488	786.59
423.864	780.04
424.241	796.31
424.617	790.66
424.994	822.29
425.37	803.99
425.746	822.07
426.123	860.03
426.499	855.06
426.875	846.25
427.251	869.07
427.627	883.31
428.003	888.51
428.379	888.73
428.756	903.87
429.132	912.01
429.507	908.39
429.883	950.2
430.259	960.6
430.635	975.96
431.011	983.19
431.387	982.29
431.763	987.49
432.138	999.69
432.514	1025.68
432.89	1027.94
433.265	1049.86
433.641	1083.98
434.016	1100.03
434.392	1115.39
434.767	1156.3
435.143	1117.65
435.518	1140.93
435.894	1155.62
436.269	1167.82
436.644	1187.71
437.02	1214.83
437.395	1220.02
437.77	1232.91
438.145	1261.83
438.52	1275.39
438.895	1279.46
439.271	1275.62
439.646	1342.06
440.021	1328.72
440.395	1343.64
440.77	1381.38
441.145	1377.53
441.52	1426.57
441.895	1396.74
442.27	1398.78
442.645	1401.26
443.019	1450.53
443.394	1442.39
443.769	1458.44
444.143	1432.67
444.518	1478.55
444.892	1504.08
445.267	1490.3
445.641	1509.06
446.016	1512.9
446.39	1524.2
446.764	1536.63
447.139	1535.95
447.513	1572.33
447.887	1547.02
448.262	1568.04
448.636	1560.13
449.01	1608.26
449.384	1576.17
449.758	1623.86
450.132	1652.1
450.506	1640.35
450.88	1637.64
451.254	1644.42
451.628	1662.27
452.002	1691.2
452.376	1689.39
452.75	1682.84
453.123	1706.34
453.497	1753.12
453.871	1757.64
454.244	1777.98
454.618	1768.26
454.992	1827.47
455.365	1824.75
455.739	1867.92
456.112	1865.88
456.486	1874.47
456.859	1874.02
457.232	1915.37
457.606	1946.78
457.979	1955.37
458.352	1961.7
458.725	1984.75
459.099	2000.34
459.472	2054.35
459.845	2054.13
460.218	2083.05
460.591	2071.75
460.964	2059.1
461.337	2151.3
461.71	2135.71
462.083	2192.43
462.456	2189.72
462.829	2215.48
463.201	2220
463.574	2235.82
463.947	2215.93
464.32	2271.3
464.692	2304.74
465.065	2350.16
465.438	2397.62
465.81	2392.42
466.183	2400.56
466.555	2434.23
466.928	2427.68
467.3	2450.5
467.672	2467
468.045	2506.09
468.417	2517.62
468.789	2572.08
469.161	2558.75
469.534	2634.22
469.906	2662.92
470.278	2675.81
470.65	2660.44
471.022	2782.7
471.394	2762.13
471.766	2797.38
472.138	2822.69
472.51	2834.22
472.882	2867.21
473.253	2942.01
473.625	2989.7
473.997	2989.47
474.369	3011.39
474.74	3040.54
475.112	3130.48
475.484	3134.78
475.855	3190.37
476.227	3209.8
476.598	3257.26
476.97	3310.14
477.341	3407.31
477.713	3405.73
478.084	3420.64
478.455	3487.54
478.827	3488.44
479.198	3621.32
479.569	3567.53
479.94	3713.97
480.311	3717.81
480.682	3755.78
481.053	3831.26
481.424	3879.39
481.795	3856.34
482.166	3910.8
482.537	3957.81
482.908	4037.35
483.279	4099.04
483.65	4136.11
484.021	4176.56
484.391	4221.3
484.762	4254.07
485.133	4291.58
485.503	4387.85
485.874	4441.41
486.244	4474.85
486.615	4514.18
486.985	4568.18
487.356	4609.77
487.726	4656.77
488.097	4716.43
488.467	4745.58
488.837	4858.57
489.207	4859.48
489.578	4949.42
489.948	4959.81
490.318	5014.27
490.688	5072.8
491.058	5092.24
491.428	5122.97
491.798	5201.61
492.168	5291.33
492.538	5286.58
492.908	5350.54
493.278	5366.58
493.648	5371.55
494.017	5440.7
494.387	5418.56
494.757	5494.04
495.126	5560.93
495.496	5515.73
495.866	5575.39
496.235	5674.14
496.605	5685.67
496.974	5691.09
497.344	5714.6
497.713	5757.31
498.082	5798.44
498.452	5828.49
498.821	5865.33
499.19	5840.92
499.559	5897.19
499.928	5940.8
500.298	5964.53
500.667	5989.16
501.036	5971.76
501.405	6041.82
501.774	6054.7
502.143	6091.08
502.512	6080.91
502.88	6133.79
503.249	6098.99
503.618	6191.19
503.987	6163.17
504.356	6245.2
504.724	6242.27
505.093	6236.84
505.462	6251.53
505.83	6263.73
506.199	6324.75
506.567	6379.66
506.936	6362.49
507.304	6428.93
507.672	6468.25
508.041	6450.17
508.409	6482.48
508.777	6496.04
509.145	6592.31
509.514	6511.18
509.882	6565.87
510.25	6551.41
510.618	6590.5
510.986	6595.25
511.354	6618.07
511.722	6719.99
512.09	6677.51
512.458	6660.56
512.826	6686.55
513.193	6711.41
513.561	6734.91
513.929	6845.87
514.297	6796.15
514.664	6874.79
515.032	6808.8
515.4	6880.67
515.767	6925.19
516.135	6947.78
516.502	6902.81
516.869	6932.19
517.237	6977.84
517.604	6934
517.972	6971.96
518.339	7013.09
518.706	6995.92
519.073	7011.06
519.44	7029.82
519.808	7075.46
520.175	7080.21
520.542	7125.86
520.909	7136.25
521.276	7146.2
521.643	7189.81
522.009	7210.15
522.376	7246.76
522.743	7218.28
523.11	7265.97
523.477	7303.48
523.843	7363.82
524.21	7399.07
524.577	7402.01
524.943	7424.83
525.31	7435.68
525.676	7496.47
526.043	7491.05
526.409	7539.41
526.776	7644.71
527.142	7623.7
527.508	7642.45
527.874	7635.67
528.241	7616.69
528.607	7584.83
528.973	7737.59
529.339	7698.95
529.705	7722.23
530.071	7792.73
530.437	7776.46
530.803	7792.51
531.169	7805.84
531.535	7835.67
531.901	7845.39
532.267	7839.74
532.632	7924.93
532.998	7884.71
533.364	7930.36
533.73	7939.85
534.095	7994.31
534.461	7999.28
534.826	7987.3
535.192	7984.37
535.557	7983.69
535.923	8025.27
536.288	8081.99
536.653	8045.38
537.019	7947.76
537.384	8039.73
537.749	8059.62
538.114	8097.58
538.479	8023.24
538.845	8049.45
539.21	8045.61
539.575	8110.24
539.94	8101.65
540.305	8135.1
540.67	8113.18
541.034	8175.77
541.399	8197.69
541.764	8211.93
542.129	8214.87
542.494	8162.89
542.858	8191.59
543.223	8177.58
543.587	8283.57
543.952	8225.94
544.316	8194.76
544.681	8146.17
545.045	8259.61
545.41	8298.03
545.774	8343.23
546.138	8250.12
546.503	8286.28
546.867	8228.43
547.231	8361.08
547.595	8303.45
547.959	8353.62
548.324	8347.07
548.688	8369.89
549.052	8319.05
549.416	8305.26
549.779	8336.45
550.143	8368.09
550.507	8373.28
550.871	8410.34
551.235	8400.63
551.599	8464.13
551.962	8512.04
552.326	8446.05
552.689	8489.89
553.053	8436.78
553.417	8473.39
553.78	8562.2
554.143	8548.19
554.507	8471.36
554.87	8639.94
555.234	8623.45
555.597	8634.97
555.96	8577.57
556.323	8590.23
556.686	8610.56
557.05	8672.71
557.413	8674.97
557.776	8701.86
558.139	8770.79
558.502	8777.11
558.865	8723.33
559.228	8808.53
559.59	8780.05
559.953	8817.56
560.316	8924.91
560.679	8835.19
561.041	8872.93
561.404	8926.26
561.767	8995.64
562.129	8949.31
562.492	9084
562.854	9031.34
563.217	9136.43
563.579	9054.85
563.941	9165.13
564.304	9155.86
564.666	9188.63
565.028	9186.14
565.39	9221.85
565.753	9263.2
566.115	9279.93
566.477	9340.94
566.839	9415.74
567.201	9371
567.563	9446.47
567.925	9441.96
568.287	9459.13
568.648	9481.5
569.01	9529.64
569.372	9572.8
569.734	9542.52
570.095	9692.12
570.457	9650.54
570.819	9697.09
571.18	9711.1
571.542	9744.32
571.903	9801.95
572.265	9843.53
572.626	9825.45
572.987	9925.56
573.349	9885.56
573.71	9951.55
574.071	9925.56
574.432	9982.96
574.794	10005.1
575.155	10096.4
575.516	10023.18
575.877	10086.68
576.238	10160.35
576.599	10181.37
576.96	10107.93
577.32	10149.73
577.681	10239
578.042	10249.17
578.403	10280.13
578.763	10365.09
579.124	10312.21
579.485	10412.33
579.845	10467.24
580.206	10415.26
580.566	10512.21
580.927	10465.21
581.287	10533.23
581.648	10507.46
582.008	10652.54
582.368	10591.76
582.728	10640.57
583.089	10635.82
583.449	10689.61
583.809	10744.07
584.169	10750.4
584.529	10729.38
584.889	10857.29
585.249	10759.43
585.609	10800.11
585.969	10862.03
586.329	10916.72
586.688	10939.09
587.048	10916.27
587.408	10999.88
587.768	11071.06
588.127	11029.03
588.487	10998.75
588.846	11079.43
589.206	11090.95
589.565	11118.3
589.925	11090.73
590.284	11135.92
590.643	11119.2
591.003	11234.68
591.362	11284.62
591.721	11268.12
592.08	11291.4
592.44	11314.67
592.799	11323.49
593.158	11361.68
593.517	11426.99
593.876	11338.4
594.235	11277.16
594.593	11347.89
594.952	11474.22
595.311	11485.97
595.67	11438.06
596.029	11499.3
596.387	11542.24
596.746	11549.47
597.104	11511.73
597.463	11523.26
597.822	11514.89
598.18	11559.87
598.538	11473.31
598.897	11652.97
599.255	11582.24
599.613	11724.83
599.972	11676.02
600.33	11715.34
600.688	11696.81
601.046	11657.04
601.404	11752.4
601.762	11700.65
602.12	11812.74
602.478	11820.42
602.836	11779.52
603.194	11809.12
603.552	11863.59
603.91	11797.6
604.268	11862.68
604.625	11803.47
604.983	11832.4
605.341	11742.23
605.698	11868.11
606.056	11852.74
606.413	11842.34
606.771	11911.95
607.128	11926.86
607.485	11896.58
607.843	11866.52
608.2	12000.53
608.557	11986.75
608.914	11991.27
609.272	12059.51
609.629	12110.81
609.986	12091.38
610.343	12010.02
610.7	12144.26
611.057	12127.76
611.414	12048.44
611.771	12097.03
612.127	12237.81
612.484	12076.24
612.841	12225.84
613.198	12191.71
613.554	12150.36
613.911	12247.08
614.267	12302.9
614.624	12218.61
614.98	12282.78
615.337	12282.78
615.693	12322.33
616.05	12271.03
616.406	12286.17
616.762	12330.69
617.118	12350.35
617.475	12304.25
617.831	12382.89
618.187	12417.24
618.543	12410.24
618.899	12445.72
619.255	12419.73
619.611	12402.33
619.967	12460.63
620.323	12480.52
620.678	12481.2
621.034	12374.99
621.39	12418.37
621.746	12335.66
622.101	12487.07
622.457	12327.53
622.812	12463.57
623.168	12515.77
623.523	12481.42
623.879	12506.06
624.234	12411.82
624.589	12409.56
624.945	12404.14
625.3	12502.89
625.655	12506.28
626.01	12423.8
626.365	12451.14
626.72	12516
627.075	12414.53
627.43	12476.9
627.785	12393.06
628.14	12506.73
628.495	12422.22
628.85	12376.57
629.205	12367.08
629.559	12484.36
629.914	12365.49
630.269	12426.51
630.623	12349.68
630.978	12409.56
631.332	12322.78
631.687	12419.28
632.041	12368.21
632.396	12368.21
632.75	12291.15
633.104	12299.28
633.459	12252.05
633.813	12275.33
634.167	12221.54
634.521	12258.6
634.875	12253.18
635.229	12179.28
635.583	12101.55
635.937	12167.99
636.291	12173.41
636.645	12188.55
636.999	12050.93
637.352	12147.42
637.706	12142
638.06	12118.49
638.413	12096.57
638.767	12142.9
639.121	12042.11
639.474	11991.72
639.828	11957.6
640.181	12072.39
640.534	12105.84
640.888	11941.32
641.241	11954.21
641.594	11988.1
641.947	11985.39
642.301	11981.1
642.654	12011.61
643.007	11965.28
643.36	11958.95
643.713	11991.04
644.066	11904.49
644.419	11994.66
644.771	11790.59
645.124	11718.96
645.477	11697.04
645.83	11585.63
646.182	11637.6
646.535	11508.57
646.888	11591.73
647.24	11502.24
647.593	11531.17
647.945	11437.61
648.298	11365.97
648.65	11466.53
649.002	11452.75
649.355	11529.58
649.707	11544.5
650.059	11530.04
650.411	11721.9
650.763	11656.59
651.115	11794.21
651.467	11707.21
651.819	11785.4
652.171	11766.64
652.523	11681.9
652.875	11697.26
653.227	11650.71
653.578	11851.84
653.93	11730.03
654.282	11672.63
654.633	11654.33
654.985	11659.75
655.337	11692.07
655.688	11741.78
656.039	11744.27
656.391	11613.88
656.742	11685.96
657.094	11697.94
657.445	11785.85
657.796	11677.6
658.147	11706.75
658.498	11630.6
658.849	11708.56
659.2	11728
659.551	11693.42
659.902	11664.95
660.253	11703.36
660.604	11730.93
660.955	11699.52
661.306	11657.72
661.656	11702.23
662.007	11656.59
662.358	11730.48
662.708	11694.55
663.059	11715.57
663.409	11673.31
663.76	11733.19
664.11	11702.01
664.461	11668.79
664.811	11691.39
665.161	11691.39
665.511	11686.42
665.862	11740.2
666.212	11723.48
666.562	11776.81
666.912	11769.8
667.262	11717.83
667.612	11706.75
667.962	11656.59
668.312	11695.23
668.662	11751.5
669.011	11772.97
669.361	11745.62
669.711	11697.04
670.06	11708.79
670.41	11649.58
670.76	11722.57
671.109	11742.91
671.459	11677.83
671.808	11639.19
672.157	11593.99
672.507	11555.35
672.856	11623.14
673.205	11627.43
673.554	11612.07
673.904	11585.85
674.253	11607.55
674.602	11623.59
674.951	11450.94
675.3	11340.89
675.649	11563.93
675.998	11527.55
676.346	11488.23
676.695	11593.31
677.044	11499.75
677.393	11439.19
677.741	11531.62
678.09	11524.16
678.438	11486.2
678.787	11450.49
679.135	11445.07
679.484	11362.36
679.832	11386.76
680.181	11356.26
680.529	11328.91
680.877	11380.21
681.225	11384.05
681.573	11344.73
681.922	11340.44
682.27	11299.53
682.618	11287.33
682.966	11194
683.314	11200.78
683.661	11192.42
684.009	11185.41
684.357	11198.97
684.705	11118.75
685.053	11146.32
685.4	11113.32
685.748	11028.13
686.095	11008.69
686.443	10958.3
686.79	10970.73
687.138	10962.14
687.485	11019.09
687.832	10951.97
688.18	10911.07
688.527	10853.44
688.874	10879.21
689.221	10763.28
689.568	10805.31
689.915	10754.69
690.262	10711.3
690.609	10703.16
690.956	10683.96
691.303	10678.31
691.65	10619.1
691.997	10547.69
692.344	10502.94
692.69	10546.11
693.037	10540.68
693.383	10486
693.73	10494.58
694.077	10337.98
694.423	10412.1
694.769	10286
695.116	10337.3
695.462	10258.66
695.808	10245.78
696.155	10216.17
696.501	10207.36
696.847	10163.52
697.193	10048.04
697.539	10104.99
697.885	10031.54
698.231	10038.32
698.577	10037.65
698.923	9949.29
699.269	10000.36
699.614	9832.45
699.96	9882.85
700.306	9893.02
700.651	9773.7
700.997	9702.74
701.342	9735.51
701.688	9720.37
702.033	9668.39
702.379	9622.29
702.724	9587.04
703.069	9648.5
703.415	9510.43
703.76	9490.09
704.105	9498.9
704.45	9511.78
704.795	9377.1
705.14	9408.96
705.485	9347.27
705.83	9356.53
706.175	9304.78
706.52	9286.7
706.865	9281.73
707.209	9236.54
707.554	9248.74
707.899	9172.13
708.243	9208.06
708.588	9122.87
708.932	9078.12
709.277	9106.82
709.621	9096.43
709.966	9049.2
710.31	9096.43
710.654	8974.4
710.998	9014.85
711.342	8971.91
711.687	8964.91
712.031	8860.5
712.375	8913.83
712.719	8911.57
713.063	8874.96
713.407	8895.98
713.75	8838.13
714.094	8794.97
714.438	8810.56
714.782	8789.09
715.125	8822.99
715.469	8820.5
715.812	8686.49
716.156	8685.82
716.499	8685.14
716.843	8718.13
717.186	8661.86
717.53	8699.6
717.873	8665.7
718.216	8693.27
718.559	8619.6
718.902	8601.3
719.246	8546.84
719.589	8559.72
719.932	8567.85
720.275	8527.4
720.617	8576.22
720.96	8509.55
721.303	8542.54
721.646	8529.21
721.989	8517.01
722.331	8455.77
722.674	8462.77
723.016	8497.57
723.359	8440.17
723.701	8442.66
724.044	8339.16
724.386	8346.16
724.729	8396.78
725.071	8410.8
725.413	8410.8
725.755	8371.7
726.097	8328.54
726.439	8344.13
726.782	8311.82
727.124	8370.8
727.465	8390.01
727.807	8346.62
728.149	8292.15
728.491	8247.64
728.833	8308.88
729.175	8306.84
729.516	8284.47
729.858	8298.26
730.199	8309.1
730.541	8261.65
730.882	8309.78
731.224	8354.07
731.565	8250.57
731.906	8274.3
732.248	8194.53
732.589	8203.12
732.93	8100.3
733.271	8198.15
733.612	8214.64
733.953	8240.18
734.294	8223
734.635	8227.98
734.976	8246.51
735.317	8190.69
735.658	8159.5
735.999	8202.44
736.339	8216.22
736.68	8252.38
737.021	8266.39
737.361	8162.89
737.702	8267.52
738.042	8190.01
738.383	8223.46
738.723	8227.52
739.063	8276.34
739.404	8192.72
739.744	8235.89
740.084	8278.82
740.424	8287.41
740.764	8246.73
741.104	8272.72
741.444	8278.6
741.784	8259.84
742.124	8353.62
742.464	8291.02
742.804	8322.44
743.143	8292.61
743.483	8368.54
743.823	8341.87
744.162	8356.79
744.502	8451.25
744.841	8384.58
745.181	8390.68
745.52	8443.79
745.86	8467.29
746.199	8522.66
746.538	8502.54
746.877	8540.51
747.216	8641.98
747.556	8663.67
747.895	8702.54
748.234	8691.47
748.573	8778.02
748.911	8797
749.25	8898.92
749.589	8823.44
749.928	8915.87
750.267	9019.37
750.605	8982.53
750.944	9117.44
751.283	9136.65
751.621	9191.34
751.96	9325.12
752.298	9355.63
752.636	9476.53
752.975	9480.37
753.313	9528.05
753.651	9675.4
753.989	9771.21
754.327	9836.75
754.666	9882.85
755.004	10036.74
755.342	10179.11
755.679	10226.57
756.017	10314.02
756.355	10519.21
756.693	10608.7
757.031	10760.79
757.368	10742.03
757.706	10976.83
758.044	11024.51
758.381	11274.9
758.719	11341.57
759.056	11575.01
759.394	11591.96
759.731	11732.97
760.068	11879.63
760.405	12024.49
760.743	12118.04
761.08	12358.26
761.417	12415.89
761.754	12572.49
762.091	12732.04
762.428	12876.44
762.765	12996.66
763.102	13205.02
763.438	13319.82
763.775	13407.95
764.112	13667.38
764.449	13919.13
764.785	13966.36
765.122	14019.46
765.458	14165.9
765.795	14334.26
766.131	14457.64
766.467	14646.56
766.804	14775.6
767.14	14785.77
767.476	15013.56
767.812	15095.82
768.148	15262.59
768.485	15290.61
768.821	15384.62
769.157	15536.71
769.492	15707.33
769.828	15832.07
770.164	15770.38
770.5	16039.75
770.836	16129.46
771.171	16123.59
771.507	16251.49
771.842	16315.67
772.178	16494.88
772.513	16621.65
772.849	16678.15
773.184	16617.59
773.519	16758.37
773.855	16831.59
774.19	16859.61
774.525	16899.61
774.86	17065.94
775.195	17089.66
775.53	17183.9
775.865	17161.3
776.2	17156.33
776.535	17188.19
776.87	17168.08
777.205	17318.13
777.539	17340.73
777.874	17475.19
778.209	17326.72
778.543	17445.81
778.878	17464.8
779.212	17481.74
779.547	17480.61
779.881	17627.73
780.215	17582.08
780.55	17654.62
780.884	17571.01
781.218	17592.25
781.552	17721.06
781.886	17708.4
782.22	17719.7
782.554	17600.61
782.888	17495.3
783.222	17588.41
783.556	17557.45
783.889	17532.59
784.223	17483.1
784.557	17499.82
784.89	17531.23
785.224	17530.78
785.557	17457.79
785.891	17456.66
786.224	17406.72
786.558	17497.11
786.891	17346.15
787.224	17279.49
787.557	17322.65
787.891	17373.27
788.224	17364.46
788.557	17355.87
788.89	17428.86
789.223	17418.47
789.556	17285.59
789.888	17253.73
790.221	17248.3
790.554	17090.57
790.887	17208.08
791.219	17194.97
791.552	17144.58
791.884	17065.26
792.217	17022.09
792.549	17042.21
792.882	16995.43
793.214	16874.75
793.546	17029.55
793.879	16876.56
794.211	16785.49
794.543	16897.58
794.875	16789.78
795.207	16923.11
795.539	16796.11
795.871	16752.5
796.203	16665.49
796.535	16716.79
796.867	16545.95
797.198	16646.74
797.53	16551.37
797.862	16554.99
798.193	16539.4
798.525	16425.05
798.856	16461.88
799.188	16200.87
799.519	16248.1
799.85	16234.09
800.182	16181.21
800.513	16201.78
800.844	16139.86
801.175	16242
801.506	16173.98
801.837	16116.81
802.168	16067.54
802.499	15982.35
802.83	15933.08
803.161	15999.97
803.491	15969.47
803.822	15948.45
804.153	15805.86
804.483	15753.65
804.814	15718.17
805.145	15727.67
805.475	15680.89
805.805	15635.24
806.136	15692.41
806.466	15564.96
806.796	15538.52
807.126	15461.01
807.457	15397.96
807.787	15446.32
808.117	15374
808.447	15298.52
808.777	15353.21
809.107	15306.89
809.436	15268.02
809.766	15335.81
810.096	15228.92
810.426	15162.48
810.755	15217.62
811.085	15099.89
811.414	15117.74
811.744	15018.31
812.073	14983.05
812.403	15015.37
812.732	14969.27
813.061	15039.55
813.39	14875.26
813.719	14889.95
814.049	14971.08
814.378	14859.89
814.707	14806.33
815.036	14746.45
815.365	14668.94
815.693	14603.18
816.022	14582.84
816.351	14630.52
816.68	14517.53
817.008	14589.84
817.337	14520.69
817.665	14441.6
817.994	14440.24
818.322	14425.33
818.651	14425.1
818.979	14417.87
819.307	14404.99
819.636	14381.94
819.964	14232.79
820.292	14288.16
820.62	14298.55
820.948	14379.23
821.276	14345.78
821.604	14162.96
821.932	14252
822.259	14336.52
822.587	14315.5
822.915	14221.94
823.243	14215.84
823.57	14314.82
823.898	14240.02
824.225	14242.28
824.553	14233.47
824.88	14254.26
825.207	14269.17
825.535	14332.45
825.862	14229.17
826.189	14264.43
826.516	14237.54
826.843	14313.69
827.17	14288.83
827.497	14337.19
827.824	14363.41
828.151	14289.06
828.478	14359.79
828.805	14446.34
829.131	14339
829.458	14247.25
829.785	14248.61
830.111	14270.75
830.438	14306.69
830.764	14325.44
831.09	14376.74
831.417	14261.72
831.743	14384.88
832.069	14327.7
832.395	14242.28
832.722	14289.51
833.048	14240.92
833.374	14254.03
833.7	14147.14
834.026	14169.74
834.351	14211.77
834.677	14272.11
835.003	14229.4
835.329	14212.45
835.654	14193.69
835.98	14115.73
836.306	14166.35
836.631	14118.22
836.956	14088.16
837.282	14127.71
837.607	14009.52
837.932	14065.34
838.258	14106.69
838.583	14003.64
838.908	13929.52
839.233	13927.26
839.558	13853.82
839.883	13856.53
840.208	13870.09
840.533	13845.23
840.858	13818.56
841.182	13801.61
841.507	13868.96
841.832	13653.37
842.156	13777.89
842.481	13770.88
842.805	13732.01
843.13	13668.28
843.454	13604.33
843.778	13593.48
844.103	13463.77
844.427	13539.02
844.751	13511.45
845.075	13402.53
845.399	13408.86
845.723	13373.83
846.047	13339.25
846.371	13243.66
846.695	13158.02
847.019	13115.98
847.343	13086.61
847.666	12978.81
847.99	12967.06
848.313	12942.88
848.637	12912.15
848.96	12875.99
849.284	12812.71
849.607	12780.85
849.931	12715.77
850.254	12636.45
850.577	12531.14
850.9	12477.81
851.223	12448.43
851.546	12451.14
851.869	12268.1
852.192	12364.82
852.515	12286.85
852.838	12251.82
853.161	12161.21
853.483	12192.17
853.806	12222
854.129	12120.98
854.451	12076.01
854.774	12024.03
855.096	11985.62
855.419	11926.64
855.741	11921.44
856.063	11855
856.385	11818.62
856.708	11713.99
857.03	11774.55
857.352	11719.64
857.674	11709.01
857.996	11686.87
858.318	11556.48
858.64	11606.64
858.961	11533.88
859.283	11543.37
859.605	11461.79
859.926	11459.76
860.248	11539.08
860.57	11337.95
860.891	11462.92
861.212	11376.14
861.534	11335.92
861.855	11275.81
862.176	11332.98
862.498	11289.14
862.819	11240.1
863.14	11261.34
863.461	11159.65
863.782	11129.82
864.103	11109.03
864.424	11101.8
864.745	11165.98
865.065	11087.79
865.386	11067.45
865.707	10995.81
866.027	11086.66
866.348	11002.37
866.668	10999.88
866.989	10972.99
867.309	10932.99
867.63	10952.65
867.95	10879.43
868.27	10890.05
868.59	10823.16
868.91	10865.87
869.23	10813.67
869.55	10730.51
869.87	10776.38
870.19	10788.36
870.51	10852.54
870.83	10746.55
871.15	10703.16
871.469	10736.16
871.789	10714.01
872.109	10715.37
872.428	10647.57
872.748	10621.59
873.067	10669.95
873.386	10623.17
873.706	10634.47
874.025	10582.72
874.344	10474.7
874.663	10512.66
874.982	10487.58
875.301	10464.08
875.62	10467.01
875.939	10497.07
876.258	10485.77
876.577	10441.93
876.896	10411.65
877.214	10455.94
877.533	10317.64
877.852	10391.76
878.17	10362.16
878.489	10355.38
878.807	10286
879.125	10248.49
879.444	10336.62
879.762	10260.46
880.08	10232.89
880.398	10163.97
880.716	10245.1
881.034	10236.74
881.352	10172.78
881.67	10125.33
881.988	10168.26
882.306	10137.08
882.624	10152.67
882.941	10041.49
883.259	10014.37
883.577	9970.75
883.894	9963.75
884.212	9999
884.529	9970.08
884.846	9852.57
885.164	9949.51
885.481	9932.34
885.798	9900.93
886.115	9846.46
886.432	9785
886.75	9783.19
887.067	9793.58
887.383	9700.71
887.7	9779.35
888.017	9676.53
888.334	9711.78
888.651	9665.45
888.967	9655.73
889.284	9561.95
889.6	9579.8
889.917	9483.08
890.233	9488.96
890.55	9464.55
890.866	9472.46
891.182	9449.41
891.498	9393.59
891.815	9407.83
892.131	9402.18
892.447	9318.57
892.763	9285.35
893.079	9231.57
893.395	9236.99
893.71	9182.53
894.026	9211.23
894.342	9155.41
894.657	9111.57
894.973	9062.53
895.289	9044.23
895.604	9051.23
895.92	8920.16
896.235	8932.14
896.55	8914.96
896.865	8943.21
897.181	8893.72
897.496	8861.41
897.811	8790.22
898.126	8761.75
898.441	8709.09
898.756	8708.19
899.071	8702.09
899.386	8697.79
899.7	8542.32
900.015	8605.82
900.33	8463.9
900.644	8469.33
900.959	8484.01
901.273	8451.7
901.588	8408.08
901.902	8442.43
902.216	8406.73
902.531	8347.75
902.845	8273.85
903.159	8244.47
903.473	8253.29
903.787	8228.65
904.101	8169.45
904.415	8157.47
904.729	8108.2
905.042	8033.4
905.356	8031.6
905.67	8013.74
905.984	7998.15
906.297	7985.04
906.611	7914.54
906.924	7927.64
907.237	7837.48
907.551	7788.21
907.864	7806.74
908.177	7810.13
908.491	7729.46
908.804	7719.74
909.117	7631.83
909.43	7612.4
909.743	7602.23
910.056	7557.94
910.368	7600.87
910.681	7506.41
910.994	7474.32
911.307	7503.7
911.619	7407.66
911.932	7413.76
912.244	7369.69
912.557	7386.19
912.869	7279.53
913.181	7270.03
913.494	7281.11
913.806	7203.6
914.118	7225.06
914.43	7158.63
914.742	7106.65
915.054	7101.23
915.366	7112.3
915.678	7085.41
915.99	6974.68
916.302	7008.8
916.613	6918.41
916.925	6907.78
917.236	6919.99
917.548	6862.81
917.859	6928.8
918.171	6796.37
918.482	6741.91
918.794	6728.58
919.105	6756.83
919.416	6701.24
919.727	6732.65
920.038	6610.39
920.349	6619.43
920.66	6636.38
920.971	6590.5
921.282	6558.19
921.593	6511.41
921.903	6466.44
922.214	6444.52
922.525	6461.47
922.835	6405.88
923.146	6396.84
923.456	6381.24
923.767	6368.82
924.077	6331.98
924.387	6290.63
924.697	6296.28
925.008	6284.07
925.318	6209.5
925.628	6226.45
925.938	6180.57
926.248	6128.82
926.558	6116.62
926.867	6085.43
927.177	6082.27
927.487	6040.69
927.796	5990.97
928.106	5986.68
928.416	5935.61
928.725	5962.27
929.034	5908.04
929.344	5918.43
929.653	5889.28
929.962	5848.38
930.271	5790.53
930.581	5782.62
930.89	5804.54
931.199	5719.12
931.508	5716.86
931.817	5721.15
932.125	5691.09
932.434	5667.14
932.743	5635.28
933.051	5627.82
933.36	5569.29
933.669	5566.8
933.977	5511.89
934.286	5557.99
934.594	5510.53
934.902	5448.39
935.21	5473.7
935.519	5438.9
935.827	5447.26
936.135	5372.23
936.443	5369.75
936.751	5313.02
937.059	5341.05
937.367	5279.58
937.674	5270.09
937.982	5228.05
938.29	5242.29
938.597	5175.4
938.905	5191.45
939.213	5181.5
939.52	5117.78
939.827	5097.44
940.135	5101.28
940.442	5052.92
940.749	5035.74
941.056	5050.43
941.363	4958.91
941.67	5023.99
941.977	4923.66
942.284	4985.12
942.591	4923.2
942.898	4923.66
943.205	4907.16
943.511	4852.02
943.818	4872.81
944.125	4856.31
944.431	4778.8
944.738	4785.13
945.044	4796.65
945.35	4745.13
945.657	4755.75
945.963	4719.82
946.269	4678.69
946.575	4672.59
946.881	4641.18
947.187	4612.25
947.493	4555.76
947.799	4558.92
948.105	4546.94
948.41	4562.31
948.716	4528.19
949.022	4509.43
949.327	4482.76
949.633	4439.83
949.938	4400.28
950.244	4439.15
950.549	4367.29
950.854	4380.85
951.16	4364.8
951.465	4320.06
951.77	4286.16
952.075	4351.92
952.38	4266.27
952.685	4273.5
952.99	4248.65
953.294	4237.8
953.599	4187.18
953.904	4174.52
954.209	4166.16
954.513	4200.74
954.818	4138.14
955.122	4113.73
955.426	4121.19
955.731	4110.34
956.035	4073.73
956.339	4077.12
956.643	4037.35
956.948	4030.12
957.252	3997.58
957.556	3993.28
957.86	3978.14
958.163	3965.04
958.467	3983.12
958.771	3968.2
959.075	3918.26
959.378	3896.11
959.682	3830.8
959.985	3887.98
960.289	3822.89
960.592	3791.71
960.896	3813.18
961.199	3789.45
961.502	3769.34
961.805	3724.37
962.108	3754.65
962.411	3712.84
962.714	3664.48
963.017	3658.15
963.32	3733.18
963.623	3684.82
963.926	3659.73
964.228	3592.62
964.531	3626.74
964.833	3627.64
965.136	3576.8
965.438	3566.18
965.741	3549.68
966.043	3551.49
966.345	3526.4
966.648	3512.85
966.95	3499.74
967.252	3461.1
967.554	3467.42
967.856	3466.29
968.158	3433.07
968.46	3415.45
968.761	3403.02
969.063	3377.26
969.365	3380.19
969.666	3344.94
969.968	3348.33
970.269	3337.48
970.571	3304.72
970.872	3330.25
971.174	3256.81
971.475	3285.96
971.776	3248.9
972.077	3254.77
972.378	3219.29
972.679	3254.77
972.98	3191.05
973.281	3178.17
973.582	3204.38
973.883	3184.94
974.183	3161.44
974.484	3159.86
974.785	3099.3
975.085	3102.01
975.386	3092.52
975.686	3082.8
975.986	3113.76
976.287	3010.49
976.587	3011.16
976.887	3040.77
977.187	2994.44
977.487	3010.71
977.787	2976.14
978.087	2995.12
978.387	2951.96
978.687	2928.68
978.987	2920.09
979.286	2916.25
979.586	2901.34
979.885	2886.42
980.185	2866.76
980.484	2899.75
980.784	2860.66
981.083	2848.23
981.382	2849.59
981.682	2812.07
981.981	2814.11
982.28	2793.99
982.579	2772.53
982.878	2782.24
983.177	2756.48
983.475	2751.96
983.774	2754.22
984.073	2742.7
984.372	2650.95
984.67	2697.27
984.969	2661.79
985.267	2704.73
985.566	2660.44
985.864	2649.14
986.162	2648.91
986.461	2594.23
986.759	2572.53
987.057	2583.38
987.355	2559.2
987.653	2572.31
987.951	2581.8
988.249	2543.61
988.547	2526.88
988.844	2519.88
989.142	2500.22
989.44	2486.66
989.737	2481.01
990.035	2468.58
990.332	2448.01
990.63	2441.01
990.927	2452.31
991.224	2455.7
991.521	2419.99
991.819	2372.99
992.116	2432.42
992.413	2391.52
992.71	2372.31
993.006	2370.95
993.303	2384.51
993.6	2340.9
993.897	2355.14
994.193	2326.21
994.49	2323.5
994.787	2294.57
995.083	2313.55
995.379	2263.61
995.676	2237.85
995.972	2258.19
996.268	2231.07
996.565	2222.94
996.861	2206.44
997.157	2209.6
997.453	2212.54
997.749	2189.04
998.044	2169.38
998.34	2133.67
998.636	2157.17
998.932	2119.44
999.227	2131.41
999.523	2138.42
999.818	2102.04
1000.114	2107.91
1000.409	2083.73
1000.704	2066.1
1001	2065.43
1001.295	2030.85
1001.59	2036.73
1001.885	2056.84
1002.18	1985.43
1002.475	1985.88
1002.77	2016.39
1003.065	1991.98
1003.359	1996.73
1003.654	1967.35
1003.949	1970.29
1004.243	1947.46
1004.538	1938.65
1004.832	1919.44
1005.127	1900.91
1005.421	1914.02
1005.715	1879.89
1006.009	1874.7
1006.304	1868.82
1006.598	1858.2
1006.892	1857.75
1007.186	1858.43
1007.48	1829.73
1007.773	1817.07
1008.067	1761.03
1008.361	1782.27
1008.655	1791.53
1008.948	1783.4
1009.242	1773
1009.535	1753.57
1009.829	1731.65
1010.122	1741.37
1010.415	1725.77
1010.708	1714.02
1011.001	1696.62
1011.295	1707.92
1011.588	1673.35
1011.881	1655.04
1012.173	1660.01
1012.466	1675.15
1012.759	1649.39
1013.052	1636.28
1013.344	1625.66
1013.637	1618.21
1013.93	1623.18
1014.222	1601.48
1014.514	1575.04
1014.807	1557.19
1015.099	1578.66
1015.391	1558.77
1015.683	1519
1015.976	1565.78
1016.268	1542.5
1016.56	1518.32
1016.851	1525.78
1017.143	1532.78
1017.435	1486.68
1017.727	1506.8
1018.018	1475.38
1018.31	1446.91
1018.602	1467.25
1018.893	1443.75
1019.185	1420.02
1019.476	1454.82
1019.767	1441.71
1020.058	1400.81
1020.35	1421.6
1020.641	1378.89
1020.932	1424.09
1021.223	1399.91
1021.514	1358.55
1021.804	1356.97
1022.095	1295.73
1022.386	1347.25
1022.677	1324.88
1022.967	1334.6
1023.258	1311.55
1023.548	1323.75
1023.839	1289.18
1024.129	1294.6
1024.419	1271.55
1024.709	1262.96
1025	1287.14
1025.29	1271.55
1025.58	1254.15
1025.87	1264.99
1026.16	1252.79
1026.449	1239.68
1026.739	1203.98
1027.029	1210.99
1027.319	1194.04
1027.608	1197.43
1027.898	1160.36
1028.187	1170.08
1028.477	1161.49
1028.766	1180.25
1029.055	1180.25
1029.344	1163.98
1029.634	1133.25
1029.923	1138.9
1030.212	1125.34
1030.501	1136.18
1030.79	1111.33
1031.078	1100.71
1031.367	1130.76
1031.656	1091.21
1031.945	1093.25
1032.233	1070.42
1032.522	1088.28
1032.81	1076.3
1033.099	1093.47
1033.387	1063.42
1033.675	1050.54
1033.963	1043.08
1034.251	996.3
1034.54	1027.49
1034.828	1035.4
1035.116	1025.68
1035.403	1009.18
1035.691	1010.09
1035.979	1022.97
1036.267	1010.09
1036.554	975.74
1036.842	970.77
1037.129	951.1
1037.417	949.07
1037.704	961.05
1037.992	950.43
1038.279	936.87
1038.566	921.95
1038.853	921.95
1039.14	921.95
