Data from hue_90_FLMS001491_93.txt Node
Date: Mon Feb 06 15:25:56 GMT 2017
User: dcchb
Spectrometer: FLMS00149
Trigger mode: 0
Integration Time (sec): 2.000000E-2
Scans to average: 10
Electric dark correction enabled: true
Nonlinearity correction enabled: false
Boxcar width: 0
XAxis mode: Wavelengths
Number of Pixels in Spectrum: 2048
>>>>>Begin Spectral Data<<<<<
341.393	-28.19
341.776	-28.19
342.16	-28.19
342.543	-63.44
342.927	-69.32
343.31	-79.26
343.693	-70.68
344.077	-43.56
344.46	-59.6
344.843	-51.47
345.226	-40.62
345.61	-26.16
345.993	-26.84
346.376	-11.02
346.759	6.61
347.142	12.49
347.525	39.6
347.908	66.95
348.291	65.59
348.674	99.94
349.057	118.02
349.44	116.66
349.823	148.53
350.206	164.35
350.588	166.83
350.971	214.97
351.354	231.46
351.737	230.78
352.119	244.34
352.502	252.48
352.884	255.87
353.267	294.74
353.65	278.92
354.032	294.51
354.414	315.53
354.797	317.79
355.179	320.05
355.562	335.64
355.944	345.13
356.326	348.52
356.709	341.74
357.091	339.93
357.473	348.75
357.855	349.65
358.238	338.13
358.62	350.78
359.002	337.9
359.384	328.86
359.766	325.47
360.148	330.44
360.53	342.87
360.912	335.87
361.294	356.21
361.676	350.78
362.057	331.35
362.439	320.95
362.821	309.88
363.203	340.61
363.584	324.12
363.966	313.72
364.348	334.06
364.729	332.03
365.111	325.92
365.493	315.53
365.874	317.79
366.256	321.4
366.637	311.69
367.019	324.57
367.4	308.07
367.781	318.24
368.163	316.66
368.544	315.08
368.925	298.58
369.306	304
369.688	307.62
370.069	316.43
370.45	313.95
370.831	305.36
371.212	320.5
371.593	304.23
371.974	318.47
372.355	306.94
372.736	310.1
373.117	325.47
373.498	311.23
373.879	300.84
374.26	308.3
374.641	298.13
375.021	311.91
375.402	325.7
375.783	305.13
376.163	320.95
376.544	329.99
376.925	336.77
377.305	316.43
377.686	336.54
378.066	329.09
378.447	343.55
378.827	332.48
379.208	327.51
379.588	344.23
379.968	316.43
380.349	351.01
380.729	332.93
381.109	331.57
381.489	334.96
381.87	356.21
382.25	346.26
382.63	345.13
383.01	321.63
383.39	356.21
383.77	353.49
384.15	366.15
384.53	348.75
384.91	338.58
385.29	369.09
385.67	358.69
386.049	343.1
386.429	351.01
386.809	350.56
387.189	360.95
387.568	360.72
387.948	357.11
388.328	350.78
388.707	357.79
389.087	353.72
389.466	358.01
389.846	370.67
390.225	362.53
390.605	396.88
390.984	374.28
391.363	354.85
391.743	366.37
392.122	366.15
392.501	368.86
392.881	372.02
393.26	363.21
393.639	380.61
394.018	374.96
394.397	372.7
394.776	376.77
395.155	386.26
395.534	380.61
395.913	386.49
396.292	400.05
396.671	399.14
397.05	389.2
397.429	391.01
397.808	396.66
398.186	405.02
398.565	388.29
398.944	363.21
399.323	402.98
399.701	398.92
400.08	413.6
400.458	387.62
400.837	421.97
401.215	409.09
401.594	394.17
401.972	393.49
402.351	413.15
402.729	410.67
403.107	415.41
403.486	432.36
403.864	418.58
404.242	434.85
404.62	398.24
404.999	423.77
405.377	422.42
405.755	421.97
406.133	422.19
406.511	412.93
406.889	431.91
407.267	444.11
407.645	440.27
408.023	429.88
408.401	442.08
408.779	431.46
409.156	433.27
409.534	443.21
409.912	458.35
410.29	462.19
410.667	472.13
411.045	477.78
411.422	468.74
411.8	479.59
412.178	467.84
412.555	491.12
412.933	457.45
413.31	483.66
413.687	493.6
414.065	489.08
414.442	488.18
414.819	498.8
415.197	494.28
415.574	502.64
415.951	494.51
416.328	512.13
416.705	504
417.082	503.09
417.46	521.62
417.837	539.25
418.214	504
418.591	524.56
418.967	535.41
419.344	525.01
419.721	538.35
420.098	504.45
420.475	545.35
420.852	518.91
421.228	558.91
421.605	537.67
421.982	556.43
422.358	539.03
422.735	542.64
423.111	559.14
423.488	554.17
423.864	550.78
424.241	576.31
424.617	560.04
424.994	573.37
425.37	566.14
425.746	562.08
426.123	579.7
426.499	570.21
426.875	588.52
427.251	600.27
427.627	596.2
428.003	593.49
428.379	598.91
428.756	616.31
429.132	618.57
429.507	608.85
429.883	639.81
430.259	633.03
430.635	658.34
431.011	608.18
431.387	640.72
431.763	628.74
432.138	648.4
432.514	656.54
432.89	629.87
433.265	674.62
433.641	665.8
434.016	685.69
434.392	695.86
434.767	687.72
435.143	707.83
435.518	725.46
435.894	731.79
436.269	717.55
436.644	692.24
437.02	706.93
437.395	743.99
437.77	748.74
438.145	769.53
438.52	745.57
438.895	764.78
439.271	751.45
439.646	751.9
440.021	778.34
440.395	774.5
440.77	771.34
441.145	762.52
441.52	794.39
441.895	801.84
442.27	759.81
442.645	792.58
443.019	818.57
443.394	805.69
443.769	809.98
444.143	823.99
444.518	812.24
444.892	815.4
445.267	845.01
445.641	836.64
446.016	857.66
446.39	843.88
446.764	857.44
447.139	851.56
447.513	838.68
447.887	857.66
448.262	876.19
448.636	882.52
449.01	863.08
449.384	898.79
449.758	883.88
450.132	931.56
450.506	897.43
450.88	909.64
451.254	874.38
451.628	931.11
452.002	919.35
452.376	936.76
452.75	932.46
453.123	945.34
453.497	953.25
453.871	989.18
454.244	998.45
454.618	1014.27
454.992	1026.7
455.365	1019.24
455.739	1002.97
456.112	1049.97
456.486	1048.16
456.859	1064.66
457.232	1083.19
457.606	1057.88
457.979	1094.94
458.352	1076.19
458.725	1101.27
459.099	1136.07
459.472	1153.02
459.845	1144.43
460.218	1162.96
460.591	1172.68
460.964	1198.44
461.337	1208.16
461.71	1222.62
462.083	1277.31
462.456	1233.92
462.829	1234.6
463.201	1273.02
463.574	1271.66
463.947	1312.34
464.32	1319.8
464.692	1331.77
465.065	1364.54
465.438	1357.31
465.81	1393.47
466.183	1408.61
466.555	1454.48
466.928	1471.88
467.3	1471.43
467.672	1492.22
468.045	1506.46
468.417	1543.97
468.789	1570.64
469.161	1544.87
469.534	1583.52
469.906	1621.71
470.278	1641.14
470.65	1673.91
471.022	1688.15
471.394	1775.83
471.766	1781.25
472.138	1786
472.51	1838.2
472.882	1895.37
473.253	1918.2
473.625	1945.09
473.997	2030.74
474.369	2014.01
474.74	2065.76
475.112	2139.66
475.484	2125.88
475.855	2181.24
476.227	2229.15
476.598	2306.89
476.97	2356.15
477.341	2400.22
477.713	2454.23
478.084	2515.92
478.455	2589.59
478.827	2618.07
479.198	2735.13
479.569	2782.13
479.94	2897.16
480.311	2921.56
480.682	3060.09
481.053	3084.27
481.424	3154.32
481.795	3262.8
482.166	3350.93
482.537	3400.42
482.908	3543.24
483.279	3627.76
483.65	3706.63
484.021	3788.43
484.391	3856.9
484.762	3970.12
485.133	4070.23
485.503	4190.23
485.874	4317.01
486.244	4361.52
486.615	4528.07
486.985	4588.86
487.356	4736.43
487.726	4829.99
488.097	4940.04
488.467	5091
488.837	5249.41
489.207	5333.02
489.578	5393.14
489.948	5554.71
490.318	5632.22
490.688	5741.37
491.058	5992.67
491.428	6061.82
491.798	6195.15
492.168	6315.37
492.538	6396.05
492.908	6507.68
493.278	6688.24
493.648	6742.48
494.017	6888.46
494.387	7023.15
494.757	7175.91
495.126	7227.89
495.496	7349.92
495.866	7454.55
496.235	7572.96
496.605	7697.03
496.974	7789.91
497.344	7944.25
497.713	8069
498.082	8148.09
498.452	8259.05
498.821	8299.95
499.19	8455.65
499.559	8564.8
499.928	8667.63
500.298	8715.53
500.667	8853.16
501.036	8901.52
501.405	9035.53
501.774	9081.4
502.143	9193.94
502.512	9281.85
502.88	9394.39
503.249	9383.54
503.618	9468.96
503.987	9612.46
504.356	9637.77
504.724	9731.1
505.093	9858.55
505.462	9881.83
505.83	9958.44
506.199	10089.28
506.567	10209.05
506.936	10116.17
507.304	10324.3
507.672	10304.87
508.041	10420.57
508.409	10468.71
508.777	10488.14
509.145	10594.13
509.514	10633.68
509.882	10773.78
510.25	10782.82
510.618	10833.9
510.986	10872.09
511.354	10949.37
511.722	11081.12
512.09	11094
512.458	11126.09
512.826	11164.73
513.193	11324.5
513.561	11246.09
513.929	11324.73
514.297	11395.46
514.664	11501
515.032	11504.16
515.4	11603.14
515.767	11569.24
516.135	11580.77
516.502	11564.05
516.869	11806.3
517.237	11771.27
517.604	11703.48
517.972	11873.87
518.339	11954.09
518.706	11853.53
519.073	11910.25
519.44	11967.65
519.808	12037.93
520.175	11931.72
520.542	12110.25
520.909	12215.55
521.276	12083.58
521.643	12224.82
522.009	12315.44
522.376	12331.71
522.743	12334.42
523.11	12356.12
523.477	12432.27
523.843	12429.79
524.21	12590.46
524.577	12680.4
524.943	12604.47
525.31	12609.44
525.676	12701.19
526.043	12692.15
526.409	12708.42
526.776	12917.91
527.142	12752.72
527.508	12799.49
527.874	12808.99
528.241	12829.1
528.607	12821.87
528.973	12969.88
529.339	12923.33
529.705	13022.09
530.071	13108.64
530.437	13037.23
530.803	13086.72
531.169	13060.73
531.535	13019.38
531.901	12951.81
532.267	13039.71
532.632	13083.78
532.998	13039.71
533.364	12996.1
533.73	13013.73
534.095	13061.18
534.461	13049.43
534.826	13130.56
535.192	13112.25
535.557	13068.19
535.923	13017.79
536.288	13050.33
536.653	13032.03
537.019	12921.52
537.384	13030.67
537.749	12972.6
538.114	12988.42
538.479	12912.49
538.845	12856.89
539.21	12897.12
539.575	12901.41
539.94	12815.99
540.305	12872.03
540.67	12762.21
541.034	12790.68
541.399	12799.27
541.764	12733.06
542.129	12817.35
542.494	12691.93
542.858	12733.73
543.223	12672.04
543.587	12731.47
543.952	12600.4
544.316	12655.32
544.681	12576.67
545.045	12650.35
545.41	12627.52
545.774	12593.17
546.138	12539.61
546.503	12543
546.867	12410.8
547.231	12562.21
547.595	12471.59
547.959	12453.51
548.324	12401.09
548.688	12346.17
549.052	12387.3
549.416	12372.84
549.779	12311.6
550.143	12413.52
550.507	12322.9
550.871	12306.63
551.235	12309.79
551.599	12202.22
551.962	12250.36
552.326	12249.45
552.689	12329.68
553.053	12060.3
553.417	12133.52
553.78	12295.78
554.143	12115.22
554.507	12203.8
554.87	12167.87
555.234	12181.21
555.597	12062.79
555.96	12093.75
556.323	12123.13
556.686	12105.95
557.05	12065.73
557.413	12009.23
557.776	12144.37
558.139	12061.89
558.502	12052.17
558.865	12073.64
559.228	12071.6
559.59	12137.82
559.953	12059.4
560.316	12197.7
560.679	12113.86
561.041	12160.64
561.404	12179.17
561.767	12205.16
562.129	12102.34
562.492	12217.14
562.854	12075.9
563.217	12108.89
563.579	12183.92
563.941	12200.64
564.304	12268.66
564.666	12235.22
565.028	12237.25
565.39	12262.11
565.753	12318.15
566.115	12233.41
566.477	12284.71
566.839	12375.32
567.201	12354.99
567.563	12375.78
567.925	12348.66
568.287	12412.61
568.648	12461.42
569.01	12421.2
569.372	12469.56
569.734	12347.08
570.095	12549.56
570.457	12553.62
570.819	12518.37
571.18	12469.79
571.542	12541.2
571.903	12560.4
572.265	12600.86
572.626	12565.15
572.987	12608.31
573.349	12632.94
573.71	12590.01
574.071	12590.91
574.432	12669.33
574.794	12715.65
575.155	12663.9
575.516	12603.57
575.877	12616.45
576.238	12630.23
576.599	12748.2
576.96	12744.13
577.32	12673.4
577.681	12797.23
578.042	12771.47
578.403	12658.48
578.763	12736.67
579.124	12709.78
579.485	12720.63
579.845	12794.07
580.206	12820.74
580.566	12853.73
580.927	12733.96
581.287	12808.08
581.648	12727.63
582.008	12790.68
582.368	12682.21
582.728	12826.16
583.089	12768.53
583.449	12712.94
583.809	12749.1
584.169	12738.25
584.529	12743
584.889	12739.61
585.249	12668.2
585.609	12721.53
585.969	12731.02
586.329	12710
586.688	12736.67
587.048	12712.94
587.408	12672.27
587.768	12716.33
588.127	12703
588.487	12596.79
588.846	12756.11
589.206	12589.33
589.565	12639.05
589.925	12675.88
590.284	12655.09
590.643	12621.42
591.003	12613.74
591.362	12696.9
591.721	12576.9
592.08	12652.15
592.44	12587.3
592.799	12608.31
593.158	12568.54
593.517	12549.78
593.876	12531.48
594.235	12530.35
594.593	12628.88
594.952	12611.02
595.311	12584.58
595.67	12445.15
596.029	12588.88
596.387	12564.92
596.746	12616
597.104	12580.97
597.463	12519.5
597.822	12568.77
598.18	12569.22
598.538	12524.7
598.897	12601.76
599.255	12496
599.613	12620.29
599.972	12589.33
600.33	12494.64
600.688	12528.09
601.046	12536
601.404	12565.83
601.762	12593.4
602.12	12668.65
602.478	12601.08
602.836	12630.01
603.194	12493.97
603.552	12539.84
603.91	12538.26
604.268	12495.1
604.625	12534.64
604.983	12508.65
605.341	12558.37
605.698	12551.14
606.056	12532.83
606.413	12580.52
606.771	12583.45
607.128	12525.6
607.485	12536.68
607.843	12463.91
608.2	12590.69
608.557	12674.75
608.914	12623.23
609.272	12715.2
609.629	12655.54
609.986	12705.26
610.343	12771.02
610.7	12731.7
611.057	12679.95
611.414	12717.91
611.771	12639.95
612.127	12761.3
612.484	12665.49
612.841	12745.03
613.198	12777.8
613.554	12718.37
613.911	12771.7
614.267	12738.48
614.624	12833.17
614.98	12776.44
615.337	12778.25
615.693	12885.59
616.05	12764.69
616.406	12881.98
616.762	12795.2
617.118	12898.25
617.475	12876.1
617.831	12836.78
618.187	12910.9
618.543	12924.01
618.899	12944.12
619.255	13011.24
619.611	12884.46
619.967	12923.78
620.323	12986.16
620.678	12946.16
621.034	12914.97
621.39	12940.06
621.746	12898.02
622.101	13039.49
622.457	12931.47
622.812	12944.8
623.168	13025.93
623.523	12910.68
623.879	13003.78
624.234	12986.83
624.589	13016.89
624.945	12971.47
625.3	13049.88
625.655	12992.94
626.01	12946.83
626.365	12871.36
626.72	12938.93
627.075	12962.65
627.43	12952.03
627.785	12899.38
628.14	12903.22
628.495	12916.78
628.85	12882.43
629.205	12839.72
629.559	12934.41
629.914	12765.37
630.269	12894.86
630.623	12820.96
630.978	12809.44
631.332	12894.41
631.687	12830.45
632.041	12854.86
632.396	12808.53
632.75	12758.14
633.104	12762.21
633.459	12700.97
633.813	12763.56
634.167	12607.86
634.521	12745.03
634.875	12692.38
635.229	12723.34
635.583	12703.45
635.937	12614.41
636.291	12649.89
636.645	12655.54
636.999	12676.33
637.352	12611.48
637.706	12564.02
638.06	12646.28
638.413	12561.76
638.767	12541.65
639.121	12611.02
639.474	12504.81
639.828	12504.13
640.181	12498.48
640.534	12475.89
640.888	12396.34
641.241	12385.49
641.594	12366.96
641.947	12528.54
642.301	12442.67
642.654	12471.14
643.007	12419.62
643.36	12379.62
643.713	12377.58
644.066	12420.52
644.419	12320.41
644.771	12266.17
645.124	12228.21
645.477	12140.3
645.83	12097.82
646.182	11984.15
646.535	11952.74
646.888	12013.98
647.24	11970.14
647.593	11965.62
647.945	11937.14
648.298	12001.77
648.65	11849.69
649.002	11881.55
649.355	11980.53
649.707	11929.23
650.059	11959.52
650.411	12089.23
650.763	12151.83
651.115	12231.15
651.467	12122.9
651.819	12259.4
652.171	12219.62
652.523	12195.89
652.875	12265.04
653.227	12185.95
653.578	12273.63
653.93	12210.58
654.282	12237.7
654.633	12142.56
654.985	12133.3
655.337	12163.8
655.688	12220.98
656.039	12171.26
656.391	12014.2
656.742	12164.03
657.094	12158.15
657.445	12171.71
657.796	12079.74
658.147	12061.66
658.498	12152.05
658.849	12158.15
659.2	12120.42
659.551	12110.7
659.902	12143.47
660.253	12171.04
660.604	12222.11
660.955	12106.86
661.306	12250.81
661.656	12221.2
662.007	12124.94
662.358	12139.17
662.708	12206.97
663.059	12240.19
663.409	12167.87
663.76	12176.69
664.11	12236.8
664.461	12229.11
664.811	12257.59
665.161	12220.75
665.511	12208.55
665.862	12177.36
666.212	12209.9
666.562	12327.42
666.912	12218.27
667.262	12105.5
667.612	12266.85
667.962	12258.04
668.312	12163.8
668.662	12277.02
669.011	12265.5
669.361	12256.23
669.711	12173.07
670.06	12254.42
670.41	12175.56
670.76	12170.81
671.109	12203.13
671.459	12154.09
671.808	12159.74
672.157	12227.08
672.507	12141.43
672.856	12170.13
673.205	12160.19
673.554	12069.34
673.904	12066.41
674.253	12111.15
674.602	12166.52
674.951	11934.88
675.3	11791.16
675.649	11994.54
675.998	12012.17
676.346	12020.98
676.695	12001.1
677.044	11875.9
677.393	12070.02
677.741	11955.9
678.09	11983.02
678.438	11955.22
678.787	11906.18
679.135	11995.67
679.484	11879.97
679.832	11920.87
680.181	11844.04
680.529	11860.31
680.877	11841.78
681.225	11806.75
681.573	11891.27
681.922	11777.83
682.27	11798.39
682.618	11795.68
682.966	11755.91
683.314	11747.54
683.661	11792.51
684.009	11666.64
684.357	11605.63
684.705	11536.48
685.053	11517.04
685.4	11551.17
685.748	11514.56
686.095	11572.41
686.443	11419.64
686.79	11438.63
687.138	11454.67
687.485	11497.61
687.832	11422.13
688.18	11355.69
688.527	11330.15
688.874	11280.66
689.221	11312.75
689.568	11224.62
689.915	11265.3
690.262	11137.84
690.609	11204.28
690.956	11129.26
691.303	11075.7
691.65	11029.37
691.997	11069.37
692.344	11014.91
692.69	11008.81
693.037	10950.28
693.383	10891.07
693.73	10896.49
694.077	10785.99
694.423	10864.18
694.769	10785.31
695.116	10755.93
695.462	10718.87
695.808	10754.35
696.155	10695.37
696.501	10569.5
696.847	10562.26
697.193	10537.63
697.539	10541.47
697.885	10440.69
698.231	10423.06
698.577	10450.18
698.923	10306.68
699.269	10324.08
699.614	10254.25
699.96	10261.93
700.306	10280.92
700.651	10202.73
700.997	10130.19
701.342	10181.94
701.688	10088.83
702.033	9969.96
702.379	10027.59
702.724	10035.05
703.069	9961.38
703.415	9833.92
703.76	9863.53
704.105	9815.39
704.45	9843.64
704.795	9826.46
705.14	9735.17
705.485	9722.06
705.83	9642.29
706.175	9702.17
706.52	9626.02
706.865	9610.43
707.209	9609.75
707.554	9545.34
707.899	9598
708.243	9541.27
708.588	9460.15
708.932	9387.61
709.277	9424.67
709.621	9435.29
709.966	9391.45
710.31	9395.74
710.654	9306.7
710.998	9255.41
711.342	9290.21
711.687	9289.08
712.031	9249.53
712.375	9204.11
712.719	9232.81
713.063	9193.26
713.407	9198.46
713.75	9189.19
714.094	9120.27
714.438	9083.21
714.782	9129.76
715.125	8977.45
715.469	9068.74
715.812	9015.86
716.156	8996.43
716.499	9059.25
716.843	8998.92
717.186	8967.28
717.53	8969.76
717.873	9018.35
718.216	8897.45
718.559	8923.89
718.902	8849.54
719.246	8895.42
719.589	8869.2
719.932	8849.09
720.275	8817.45
720.617	8832.37
720.96	8784.01
721.303	8767.74
721.646	8790.33
721.989	8743.1
722.331	8754.18
722.674	8765.25
723.016	8723.22
723.359	8762.54
723.701	8823.55
724.044	8609.32
724.386	8624.46
724.729	8718.47
725.071	8686.16
725.413	8704.69
725.755	8630.34
726.097	8628.53
726.439	8686.38
726.782	8617.23
727.124	8649.55
727.465	8595.76
727.807	8605.48
728.149	8609.55
728.491	8558.25
728.833	8615.2
729.175	8645.93
729.516	8575.2
729.858	8588.53
730.199	8573.84
730.541	8495.88
730.882	8547.18
731.224	8563.67
731.565	8497.23
731.906	8491.58
732.248	8509.21
732.589	8428.54
732.93	8550.34
733.271	8508.08
733.612	8600.51
733.953	8557.57
734.294	8493.17
734.635	8455.88
734.976	8572.94
735.317	8483.68
735.658	8455.43
735.999	8560.96
736.339	8495.2
736.68	8515.99
737.021	8489.32
737.361	8488.65
737.702	8538.14
738.042	8476.22
738.383	8515.54
738.723	8548.53
739.063	8587.18
739.404	8583.56
739.744	8527.74
740.084	8539.27
740.424	8587.18
740.764	8547.63
741.104	8533.17
741.444	8533.84
741.784	8643.67
742.124	8646.83
742.464	8616.1
742.804	8629.66
743.143	8646.38
743.483	8667.4
743.823	8660.62
744.162	8671.69
744.502	8704.01
744.841	8711.24
745.181	8821.75
745.52	8759.83
745.86	8826.94
746.199	8850.67
746.538	8834.17
746.877	8890.67
747.216	9009.31
747.556	8905.81
747.895	9002.98
748.234	8964.57
748.573	9048.86
748.911	9124.56
749.25	9160.04
749.589	9130.21
749.928	9256.08
750.267	9304.9
750.605	9388.51
750.944	9437.1
751.283	9419.02
751.621	9561.16
751.96	9626.24
752.298	9661.5
752.636	9821.95
752.975	9858.78
753.313	9888.84
753.651	10089.06
753.989	10083.86
754.327	10131.09
754.666	10234.59
755.004	10372.21
755.342	10451.31
755.679	10574.02
756.017	10661.47
756.355	10830.28
756.693	10848.58
757.031	11032.31
757.368	11104.17
757.706	11194.79
758.044	11327.22
758.381	11526.08
758.719	11595.23
759.056	11741.44
759.394	11855.11
759.731	11917.48
760.068	12086.74
760.405	12180.98
760.743	12350.69
761.08	12503
761.417	12581.65
761.754	12735.77
762.091	12844.24
762.428	13027.28
762.765	13056.44
763.102	13288.52
763.438	13412.81
763.775	13468.63
764.112	13668.4
764.449	13726.7
764.785	13923.08
765.122	13940.25
765.458	14063.42
765.795	14274.03
766.131	14361.94
766.467	14508.6
766.804	14646.23
767.14	14704.53
767.476	14873.11
767.812	14841.93
768.148	15046.44
768.485	15154.69
768.821	15219.09
769.157	15207.57
769.492	15311.97
769.828	15567.78
770.164	15521.46
770.5	15638.74
770.836	15705.18
771.171	15684.84
771.507	15878.96
771.842	15926.87
772.178	16027.66
772.513	16085.06
772.849	16143.59
773.184	16178.61
773.519	16199.63
773.855	16265.62
774.19	16276.69
774.525	16399.85
774.86	16446.18
775.195	16464.03
775.53	16471.04
775.865	16457.7
776.2	16482.79
776.535	16466.97
776.87	16554.42
777.205	16622.9
777.539	16595.78
777.874	16770.01
778.209	16591.03
778.543	16704.7
778.878	16660.41
779.212	16701.09
779.547	16593.07
779.881	16716.23
780.215	16621.09
780.55	16785.83
780.884	16699.28
781.218	16732.95
781.552	16827.41
781.886	16768.66
782.22	16740.41
782.554	16699.28
782.888	16591.71
783.222	16593.97
783.556	16670.35
783.889	16614.99
784.223	16512.39
784.557	16620.86
784.89	16614.99
785.224	16614.53
785.557	16523.01
785.891	16500.64
786.224	16529.34
786.558	16499.96
786.891	16360.08
787.224	16330.93
787.557	16377.7
787.891	16448.89
788.224	16304.71
788.557	16344.94
788.89	16370.02
789.223	16388.33
789.556	16266.3
789.888	16131.16
790.221	16204.83
790.554	16043.25
790.887	16171.16
791.219	16106.3
791.552	16132.97
791.884	16062.91
792.217	15921.67
792.549	15960.54
792.882	15823.82
793.214	15821.79
793.546	15912.41
793.879	15791.96
794.211	15723.71
794.543	15777.95
794.875	15686.42
795.207	15809.36
795.539	15655.92
795.871	15659.31
796.203	15578.4
796.535	15463.38
796.867	15554.22
797.198	15481.68
797.53	15480.55
797.862	15403.04
798.193	15427.9
798.525	15339.09
798.856	15435.13
799.188	15268.36
799.519	15112.88
799.85	15146.32
800.182	15110.85
800.513	15199.88
800.844	15041.92
801.175	15169.83
801.506	15024.97
801.837	15007.57
802.168	15018.42
802.499	14921.7
802.83	14883.51
803.161	14845.54
803.491	14826.11
803.822	14852.32
804.153	14762.15
804.483	14643.97
804.814	14666.11
805.145	14654.59
805.475	14601.03
805.805	14566.68
806.136	14476.74
806.466	14521.93
806.796	14486.91
807.126	14397.19
807.457	14332.34
807.787	14274.94
808.117	14302.28
808.447	14229.74
808.777	14316.74
809.107	14276.52
809.436	14248.95
809.766	14229.29
810.096	14150.19
810.426	14132.57
810.755	14053.47
811.085	14092.12
811.414	14067.94
811.744	13981.84
812.073	13949.29
812.403	13960.14
812.732	13918.56
813.061	13928.96
813.39	13738.9
813.719	13769.86
814.049	13868.17
814.378	13836.75
814.707	13769.19
815.036	13690.32
815.365	13608.06
815.693	13574.61
816.022	13540.04
816.351	13550.21
816.68	13457.33
817.008	13477.67
817.337	13363.32
817.665	13351.57
817.994	13478.8
818.322	13392.25
818.651	13305.24
818.979	13261.18
819.307	13388.86
819.636	13328.07
819.964	13254.17
820.292	13370.33
820.62	13264.34
820.948	13237.45
821.276	13207.39
821.604	13217.79
821.932	13135.53
822.259	13212.82
822.587	13232.02
822.915	13133.27
823.243	13232.25
823.57	13147.96
823.898	13156.32
824.225	13176.89
824.553	13184.34
824.88	13178.69
825.207	13176.66
825.535	13113.61
825.862	13187.96
826.189	13145.02
826.516	13296.43
826.843	13186.15
827.17	13227.73
827.497	13317.45
827.824	13198.58
828.151	13283.55
828.478	13257.11
828.805	13203.55
829.131	13236.77
829.458	13238.35
829.785	13131.91
830.111	13192.25
830.438	13195.87
830.764	13184.57
831.09	13216.66
831.417	13197
831.743	13230.9
832.069	13221.4
832.395	13140.95
832.722	13157.68
833.048	13185.25
833.374	13159.26
833.7	13137.79
834.026	13141.63
834.351	13109.99
834.677	13168.98
835.003	13093.5
835.329	13121.52
835.654	13100.28
835.98	13055.76
836.306	13088.98
836.631	13054.63
836.956	13107.51
837.282	12994.07
837.607	12943.67
837.932	12903.67
838.258	12914.29
838.583	12915.42
838.908	12834.07
839.233	12910.9
839.558	12780.51
839.883	12813.96
840.208	12767.4
840.533	12809.21
840.858	12788.19
841.182	12663.68
841.507	12729.89
841.832	12673.85
842.156	12624.36
842.481	12605.83
842.805	12593.85
843.13	12604.92
843.454	12577.13
843.778	12487.19
844.103	12474.3
844.427	12421.65
844.751	12435.44
845.075	12482.21
845.399	12353.18
845.723	12304.82
846.047	12368.32
846.371	12267.76
846.695	12224.82
847.019	12099.17
847.343	12085.61
847.666	12050.81
847.99	12004.49
848.313	12034.09
848.637	11882.68
848.96	11922.23
849.284	11908.22
849.607	11720.88
849.931	11705.74
850.254	11623.48
850.577	11646.3
850.9	11528.57
851.223	11472.98
851.546	11481.56
851.869	11354.79
852.192	11416.25
852.515	11324.05
852.838	11224.85
853.161	11266.88
853.483	11219.42
853.806	11228.46
854.129	11190.72
854.451	11129.48
854.774	11120.89
855.096	11117.96
855.419	11012.42
855.741	11049.48
856.063	10976.72
856.385	10973.33
856.708	10939.2
857.03	10830.28
857.352	10845.2
857.674	10828.02
857.996	10771.98
858.318	10760.23
858.64	10762.71
858.961	10678.19
859.283	10665.54
859.605	10521.36
859.926	10599.1
860.248	10524.53
860.57	10493.34
860.891	10472.32
861.212	10472.1
861.534	10456.96
861.855	10442.49
862.176	10364.3
862.498	10436.62
862.819	10431.65
863.14	10336.06
863.461	10398.43
863.782	10296.96
864.103	10294.7
864.424	10259.67
864.745	10258.54
865.065	10207.92
865.386	10161.37
865.707	10208.15
866.027	10190.52
866.348	10182.39
866.668	10150.52
866.989	10111.2
867.309	10083.18
867.63	10157.3
867.95	10054.93
868.27	9982.84
868.59	9973.58
868.91	10091.32
869.23	10016.52
869.55	9991.43
869.87	10035.72
870.19	9915.28
870.51	9929.74
870.83	9958.89
871.15	9892.23
871.469	9939
871.789	9952.56
872.109	9838.22
872.428	9835.28
872.748	9830.76
873.067	9784.21
873.386	9852
873.706	9814.04
874.025	9698.78
874.344	9767.94
874.663	9759.57
874.982	9695.17
875.301	9713.02
875.62	9643.19
875.939	9634.61
876.258	9631.44
876.577	9564.55
876.896	9595.96
877.214	9658.79
877.533	9586.7
877.852	9548.05
878.17	9630.76
878.489	9541.5
878.807	9513.25
879.125	9493.14
879.444	9526.13
879.762	9423.99
880.08	9529.3
880.398	9413.82
880.716	9421.5
881.034	9380.83
881.352	9332.47
881.67	9385.57
881.988	9357.32
882.306	9360.26
882.624	9299.25
882.941	9309.87
883.259	9320.94
883.577	9242.53
883.894	9221.51
884.212	9133.38
884.529	9153.49
884.846	9188.29
885.164	9185.13
885.481	9113.26
885.798	9140.38
886.115	9104
886.432	9078.91
886.75	8957.56
887.067	8985.36
887.383	9001.4
887.7	9022.19
888.017	8910.56
888.334	8957.34
888.651	8920.95
888.967	8857.45
889.284	8811.12
889.6	8820.84
889.917	8742.2
890.233	8786.04
890.55	8722.99
890.866	8761.41
891.182	8709.66
891.498	8663.11
891.815	8636.21
892.131	8628.98
892.447	8553.28
892.763	8561.87
893.079	8483.45
893.395	8559.15
893.71	8509.21
894.026	8422.89
894.342	8500.62
894.657	8424.92
894.973	8387.63
895.289	8367.75
895.604	8364.36
895.92	8272.83
896.235	8264.7
896.55	8258.37
896.865	8229.67
897.181	8226.28
897.496	8188.32
897.811	8136.79
898.126	8137.02
898.441	8074.42
898.756	8060.18
899.071	8060.86
899.386	8021.77
899.7	7967.76
900.015	7981.99
900.33	7930.92
900.644	7854.31
900.959	7830.59
901.273	7870.13
901.588	7800.08
901.902	7742
902.216	7681.89
902.531	7755.56
902.845	7703.13
903.159	7637.6
903.473	7598.95
903.787	7602.57
904.101	7561.21
904.415	7558.05
904.729	7508.56
905.042	7512.63
905.356	7457.26
905.67	7432.18
905.984	7434.44
906.297	7358.06
906.611	7301.56
906.924	7307.89
907.237	7323.48
907.551	7224.95
907.864	7162.58
908.177	7236.93
908.491	7150.38
908.804	7155.8
909.117	7021.79
909.43	7082.36
909.743	6993.54
910.056	7037.39
910.368	7012.3
910.681	6942.25
910.994	6894.56
911.307	6902.47
911.619	6803.27
911.932	6832.42
912.244	6822.7
912.557	6857.05
912.869	6721.91
913.181	6701.35
913.494	6728.69
913.806	6659.09
914.118	6657.06
914.43	6602.82
914.742	6582.03
915.054	6572.99
915.366	6522.14
915.678	6491.41
915.99	6450.73
916.302	6445.99
916.613	6457.06
916.925	6389.49
917.236	6435.82
917.548	6309.5
917.859	6358.99
918.171	6256.84
918.482	6277.86
918.794	6267.91
919.105	6246.67
919.416	6235.15
919.727	6229.5
920.038	6183.85
920.349	6098.2
920.66	6120.35
920.971	6110.4
921.282	6064.53
921.593	6023.85
921.903	5982.05
922.214	5961.03
922.525	5966.45
922.835	5944.31
923.146	5909.05
923.456	5907.92
923.767	5865.66
924.077	5858.89
924.387	5840.81
924.697	5790.19
925.008	5802.62
925.318	5736.63
925.628	5711.09
925.938	5724.65
926.248	5667.7
926.558	5688.27
926.867	5667.48
927.177	5640.36
927.487	5621.15
927.796	5543.87
928.106	5570.98
928.416	5537.09
928.725	5512
929.034	5483.53
929.344	5534.6
929.653	5540.7
929.962	5456.41
930.271	5415.51
930.581	5381.38
930.89	5389.07
931.199	5384.32
931.508	5296.87
931.817	5325.57
932.125	5269.52
932.434	5247.15
932.743	5195.85
933.051	5219.35
933.36	5196.76
933.669	5138.9
933.977	5100.49
934.286	5109.07
934.594	5109.07
934.902	5062.07
935.21	5032.92
935.519	5019.59
935.827	4961.28
936.135	4981.62
936.443	4957.67
936.751	4939.81
937.059	4927.84
937.367	4912.47
937.674	4895.07
937.982	4876.09
938.29	4864.79
938.597	4819.82
938.905	4757.22
939.213	4764.45
939.52	4813.72
939.827	4754.06
940.135	4766.03
940.442	4704.79
940.749	4729.2
941.056	4687.62
941.363	4611.69
941.67	4630.22
941.977	4575.76
942.284	4600.39
942.591	4602.65
942.898	4539.15
943.205	4569.65
943.511	4515.19
943.818	4500.5
944.125	4500.96
944.431	4460.73
944.738	4420.28
945.044	4413.5
945.35	4441.07
945.657	4406.49
945.963	4392.48
946.269	4292.37
946.575	4326.5
946.881	4328.53
947.187	4257.8
947.493	4269.1
947.799	4278.81
948.105	4251.92
948.41	4204.92
948.716	4169.89
949.022	4147.97
949.327	4173.73
949.633	4124.92
949.938	4161.98
950.244	4145.94
950.549	4082.21
950.854	4090.57
951.16	4048.31
951.465	4053.28
951.77	4020.29
952.075	3995.88
952.38	4002.21
952.685	3983.68
952.99	3952.72
953.294	3965.38
953.599	3886.06
953.904	3883.34
954.209	3922.89
954.513	3890.8
954.818	3848.32
955.122	3800.41
955.426	3797.24
955.731	3779.17
956.035	3759.73
956.339	3799.28
956.643	3759.73
956.948	3759.51
957.252	3717.47
957.556	3683.8
957.86	3702.33
958.163	3705.95
958.467	3678.15
958.771	3636.8
959.075	3644.48
959.378	3620.07
959.682	3638.38
959.985	3591.37
960.289	3557.25
960.592	3500.98
960.896	3565.39
961.199	3525.84
961.502	3513.18
961.805	3517.03
962.108	3477.25
962.411	3480.87
962.714	3427.99
963.017	3406.07
963.32	3482.22
963.623	3419.63
963.926	3356.58
964.228	3376.92
964.531	3373.98
964.833	3346.86
965.136	3332.4
965.438	3287.43
965.741	3255.34
966.043	3304.38
966.345	3289.01
966.648	3275.45
966.95	3231.84
967.252	3226.41
967.554	3202.23
967.856	3230.25
968.158	3190.71
968.46	3180.76
968.761	3163.82
969.063	3110.48
969.365	3101.22
969.666	3115.91
969.968	3120.2
970.269	3086.53
970.571	3095.57
970.872	3095.79
971.174	3070.94
971.475	3055.8
971.776	2988.9
972.077	3016.02
972.378	3004.27
972.679	3023.03
972.98	2978.51
973.281	2944.16
973.582	2978.51
973.883	2971.73
974.183	2908.23
974.484	2960.43
974.785	2905.06
975.085	2872.75
975.386	2922.69
975.686	2853.31
975.986	2868.46
976.287	2855.8
976.587	2826.65
976.887	2819.42
977.187	2813.32
977.487	2781.23
977.787	2800.43
978.087	2759.98
978.387	2775.58
978.687	2757.5
978.987	2765.86
979.286	2739.87
979.586	2720.66
979.885	2703.94
980.185	2665.3
980.484	2652.42
980.784	2668.46
981.083	2646.54
981.382	2611.51
981.682	2634.11
981.981	2608.35
982.28	2593.43
982.579	2574.45
982.878	2576.03
983.177	2550.72
983.475	2593.43
983.774	2556.15
984.073	2530.61
984.372	2547.56
984.67	2517.73
984.969	2524.74
985.267	2514.57
985.566	2487.45
985.864	2515.92
986.162	2447.45
986.461	2484.74
986.759	2439.99
987.057	2400.67
987.355	2426.66
987.653	2394.12
987.951	2424.85
988.249	2395.25
988.547	2389.6
988.844	2365.87
989.142	2361.35
989.44	2375.14
989.737	2348.92
990.035	2318.87
990.332	2319.32
990.63	2329.49
990.927	2275.25
991.224	2292.65
991.521	2248.81
991.819	2249.71
992.116	2280.9
992.413	2241.35
992.71	2227.34
993.006	2211.75
993.303	2210.85
993.6	2193.45
993.897	2169.94
994.193	2196.61
994.49	2166.78
994.787	2154.58
995.083	2143.5
995.379	2118.42
995.676	2121.81
995.972	2131.3
996.268	2097.63
996.565	2087.46
996.861	2087.23
997.157	2101.02
997.453	2060.57
997.749	2011.98
998.044	2029.83
998.34	2029.38
998.636	2040.45
998.932	2058.31
999.227	2006.78
999.523	1993
999.818	2000.46
1000.114	1958.2
1000.409	1968.37
1000.704	1934.47
1001	1942.38
1001.295	1940.57
1001.59	1929.5
1001.885	1926.11
1002.18	1891.53
1002.475	1896.73
1002.77	1905.32
1003.065	1870.06
1003.359	1875.26
1003.654	1844.08
1003.949	1851.76
1004.243	1846.34
1004.538	1792.55
1004.832	1814.02
1005.127	1776.05
1005.421	1820.35
1005.715	1803.62
1006.009	1789.61
1006.304	1782.38
1006.598	1769.05
1006.892	1725.66
1007.186	1730.41
1007.48	1723.18
1007.773	1755.04
1008.067	1710.07
1008.361	1710.07
1008.655	1713.46
1008.948	1682.27
1009.242	1695.15
1009.535	1648.37
1009.829	1672.78
1010.122	1647.92
1010.415	1636.62
1010.708	1611.09
1011.001	1602.5
1011.295	1603.63
1011.588	1635.27
1011.881	1571.99
1012.173	1546
1012.466	1567.7
1012.759	1563.18
1013.052	1533.58
1013.344	1513.24
1013.637	1534.71
1013.93	1553.91
1014.222	1519.34
1014.514	1514.37
1014.807	1509.4
1015.099	1489.51
1015.391	1484.76
1015.683	1479.57
1015.976	1495.84
1016.268	1460.58
1016.56	1431.88
1016.851	1413.13
1017.143	1449.51
1017.435	1422.39
1017.727	1413.13
1018.018	1405.67
1018.31	1429.62
1018.602	1383.07
1018.893	1399.34
1019.185	1369.06
1019.476	1370.87
1019.767	1324.77
1020.058	1345.33
1020.35	1345.33
1020.641	1336.52
1020.932	1345.78
1021.223	1303.98
1021.514	1279.34
1021.804	1260.59
1022.095	1282.96
1022.386	1247.26
1022.677	1291.32
1022.967	1251.1
1023.258	1254.94
1023.548	1259.23
1023.839	1228.72
1024.129	1227.37
1024.419	1203.41
1024.709	1243.64
1025	1239.35
1025.29	1178.1
1025.58	1202.51
1025.87	1188.5
1026.16	1199.35
1026.449	1188.73
1026.739	1150.31
1027.029	1151.89
1027.319	1144.66
1027.608	1138.56
1027.898	1145.34
1028.187	1140.37
1028.477	1118.22
1028.766	1118.9
1029.055	1089.07
1029.344	1084.77
1029.634	1080.48
1029.923	1077.77
1030.212	1049.97
1030.501	1078.22
1030.79	1046.81
1031.078	1063.31
1031.367	1061.72
1031.656	1042.06
1031.945	1068.73
1032.233	1026.02
1032.522	1023.08
1032.81	1045.45
1033.099	1039.13
1033.387	1023.53
1033.675	996.19
1033.963	981.95
1034.251	983.08
1034.54	985.34
1034.828	972.46
1035.116	979.47
1035.403	960.03
1035.691	978.79
1035.979	950.31
1036.267	945.34
1036.554	941.73
1036.842	931.33
1037.129	941.95
1037.417	941.5
1037.704	949.64
1037.992	915.29
1038.279	915.51
1038.566	893.82
1038.853	893.82
1039.14	893.82
