Data from hue_100_FLMS001491_00089.txt Node
Date: Tue Feb 07 17:03:47 GMT 2017
User: dcchb
Spectrometer: FLMS00149
Trigger mode: 0
Integration Time (sec): 2.000000E-2
Scans to average: 10
Electric dark correction enabled: true
Nonlinearity correction enabled: false
Boxcar width: 0
XAxis mode: Wavelengths
Number of Pixels in Spectrum: 2048
>>>>>Begin Spectral Data<<<<<
341.393	-4.83
341.776	-4.83
342.16	-4.83
342.543	-71.95
342.927	-74.43
343.31	-67.2
343.693	-79.86
344.077	-77.14
344.46	-57.48
344.843	-57.71
345.226	-43.02
345.61	-26.07
345.993	-16.81
346.376	8.73
346.759	-2.12
347.142	36.3
347.525	43.08
347.908	46.69
348.291	97.31
348.674	85.34
349.057	109.97
349.44	114.71
349.823	148.84
350.206	169.63
350.588	188.16
350.971	196.52
351.354	217.99
351.737	244.2
352.119	260.7
352.502	273.58
352.884	286.46
353.267	318.78
353.65	286.01
354.032	314.03
354.414	299.57
354.797	319
355.179	338.21
355.562	324.88
355.944	319.23
356.326	307.03
356.709	343.18
357.091	333.47
357.473	340.47
357.855	332.56
358.238	334.37
358.62	350.87
359.002	310.42
359.384	344.31
359.766	329.62
360.148	346.8
360.53	326.46
360.912	336.4
361.294	337.08
361.676	330.3
362.057	322.62
362.439	336.4
362.821	323.97
363.203	338.66
363.584	342.51
363.966	342.73
364.348	334.37
364.729	346.8
365.111	314.94
365.493	345.67
365.874	321.49
366.256	316.29
366.637	308.38
367.019	312
367.4	345.44
367.781	319.68
368.163	337.31
368.544	296.4
368.925	304.09
369.306	316.97
369.688	300.92
370.069	316.29
370.45	323.52
370.831	330.75
371.212	331.88
371.593	309.51
371.974	312.68
372.355	323.97
372.736	309.96
373.117	321.26
373.498	315.39
373.879	326.46
374.26	337.76
374.641	306.12
375.021	320.36
375.402	312.9
375.783	319.45
376.163	316.07
376.544	315.61
376.925	333.47
377.305	333.92
377.686	324.65
378.066	312
378.447	342.28
378.827	333.01
379.208	338.21
379.588	347.02
379.968	348.61
380.349	350.87
380.729	361.04
381.109	335.5
381.489	356.29
381.87	348.61
382.25	328.49
382.63	326.69
383.01	353.8
383.39	339.79
383.77	348.15
384.15	358.78
384.53	385.44
384.91	365.78
385.29	361.71
385.67	338.44
386.049	391.09
386.429	354.26
386.809	366.46
387.189	361.49
387.568	383.41
387.948	372.33
388.328	357.42
388.707	373.92
389.087	363.07
389.466	378.89
389.846	375.27
390.225	369.62
390.605	362.39
390.984	359.68
391.363	386.35
391.743	369.4
392.122	389.96
392.501	392
392.881	401.03
393.26	398.77
393.639	377.31
394.018	401.94
394.397	398.32
394.776	408.04
395.155	400.58
395.534	409.4
395.913	403.97
396.292	408.72
396.671	389.28
397.05	415.05
397.429	414.82
397.808	403.07
398.186	413.24
398.565	412.56
398.944	407.14
399.323	412.11
399.701	415.05
400.08	441.03
400.458	439.45
400.837	448.27
401.215	438.55
401.594	409.4
401.972	442.84
402.351	441.26
402.729	449.39
403.107	437.19
403.486	417.31
403.864	451.88
404.242	441.71
404.62	448.94
404.999	444.2
405.377	432.45
405.755	446.01
406.133	468.6
406.511	458.43
406.889	463.41
407.267	467.47
407.645	475.83
408.023	472.67
408.401	479.22
408.779	456.85
409.156	467.7
409.534	477.19
409.912	457.76
410.29	468.83
410.667	491.88
411.045	490.3
411.422	516.06
411.8	504.08
412.178	518.32
412.555	504.53
412.933	527.58
413.31	532.56
413.687	533.69
414.065	517.87
414.442	548.83
414.819	529.62
415.197	542.27
415.574	516.51
415.951	548.15
416.328	551.77
416.705	532.56
417.082	563.74
417.46	563.74
417.837	555.83
418.214	547.47
418.591	558.09
418.967	564.87
419.344	561.93
419.721	587.47
420.098	596.28
420.475	601.71
420.852	585.21
421.228	588.6
421.605	615.04
421.982	578.43
422.358	600.13
422.735	620.69
423.111	605.78
423.488	627.02
423.864	610.52
424.241	634.7
424.617	606.68
424.994	630.86
425.37	652.55
425.746	645.77
426.123	637.19
426.499	662.72
426.875	670.63
427.251	678.99
427.627	677.19
428.003	669.5
428.379	693.68
428.756	670.86
429.132	702.04
429.507	721.48
429.883	684.19
430.259	705.66
430.635	727.58
431.011	733.46
431.387	748.37
431.763	730.29
432.138	761.48
432.514	761.7
432.89	765.32
433.265	758.09
433.641	786.34
434.016	771.87
434.392	797.41
434.767	822.94
435.143	783.85
435.518	798.54
435.894	805.54
436.269	823.85
436.644	830.18
437.02	868.37
437.395	846.22
437.77	860.46
438.145	846.45
438.52	883.73
438.895	876.73
439.271	890.97
439.646	913.79
440.021	910.85
440.395	878.31
440.77	909.72
441.145	920.12
441.52	932.32
441.895	917.41
442.27	928.25
442.645	939.33
443.019	958.76
443.394	938.2
443.769	951.75
444.143	937.74
444.518	983.39
444.892	972.77
445.267	968.7
445.641	1005.54
446.016	1001.7
446.39	1000.57
446.764	1031.53
447.139	1008.93
447.513	991.98
447.887	1017.29
448.262	1019.55
448.636	1026.1
449.01	1011.64
449.384	1023.62
449.758	1057.97
450.132	1040.11
450.506	1076.72
450.88	1089.15
451.254	1071.53
451.628	1094.35
452.002	1104.52
452.376	1128.02
452.75	1123.28
453.123	1132.99
453.497	1132.99
453.871	1163.5
454.244	1169.83
454.618	1200.34
454.992	1200.34
455.365	1199.66
455.739	1219.09
456.112	1245.08
456.486	1238.75
456.859	1238.75
457.232	1267.23
457.606	1284.18
457.979	1297.06
458.352	1332.08
458.725	1338.19
459.099	1354.23
459.472	1384.74
459.845	1386.77
460.218	1398.97
460.591	1421.12
460.964	1437.39
461.337	1460.89
461.71	1501.12
462.083	1504.73
462.456	1521.68
462.829	1508.35
463.201	1547.45
463.574	1583.38
463.947	1589.48
464.32	1635.8
464.692	1587.67
465.065	1649.14
465.438	1667.44
465.81	1702.92
466.183	1712.19
466.555	1749.93
466.928	1761.22
467.3	1794.67
467.672	1805.97
468.045	1873.31
468.417	1892.07
468.789	1894.55
469.161	1938.62
469.534	1971.16
469.906	2013.2
470.278	2032.18
470.65	2092.97
471.022	2155.11
471.394	2144.49
471.766	2188.78
472.138	2223.59
472.51	2275.56
472.882	2333.87
473.253	2363.02
473.625	2428.1
473.997	2471.94
474.369	2526.85
474.74	2571.6
475.112	2654.53
475.484	2664.7
475.855	2709.22
476.227	2815.89
476.598	2893.85
476.97	2913.96
477.341	3014.98
477.713	3081.19
478.084	3094.98
478.455	3255.65
478.827	3348.53
479.198	3419.71
479.569	3504.46
479.94	3590.56
480.311	3657.67
480.682	3766.82
481.053	3905.58
481.424	3980.38
481.795	4093.37
482.166	4181.5
482.537	4306.69
482.908	4426.47
483.279	4491.32
483.65	4644.99
484.021	4753.69
484.391	4889.5
484.762	4970.86
485.133	5079.33
485.503	5169.95
485.874	5354.8
486.244	5480.9
486.615	5611.97
486.985	5737.17
487.356	5939.19
487.726	6012.41
488.097	6182.8
488.467	6306.64
488.837	6496.92
489.207	6633.19
489.578	6833.41
489.948	6955.66
490.318	7098.49
490.688	7134.87
491.058	7365.82
491.428	7530.56
491.798	7652.6
492.168	7862.08
492.538	7966.03
492.908	8156.31
493.278	8363.99
493.648	8411.9
494.017	8602.63
494.387	8671.78
494.757	8889.85
495.126	9025.89
495.496	9092.33
495.866	9199.9
496.235	9429.5
496.605	9551.53
496.974	9736.38
497.344	9809.37
497.713	9968.01
498.082	10066.77
498.452	10217.95
498.821	10325.29
499.19	10411.39
499.559	10627.21
499.928	10735
500.298	10766.86
500.667	11035.56
501.036	10993.52
501.405	11126.4
501.774	11214.08
502.143	11309
502.512	11440.74
502.88	11536.79
503.249	11624.92
503.618	11760.06
503.987	11825.37
504.356	12002.99
504.724	12062.2
505.093	12104.23
505.462	12235.07
505.83	12342.19
506.199	12443.66
506.567	12631.67
506.936	12561.84
507.304	12743.08
507.672	12837.54
508.041	12878.67
508.409	13021.49
508.777	13111.89
509.145	13178.1
509.514	13157.99
509.882	13281.15
510.25	13357.08
510.618	13430.97
510.986	13486.34
511.354	13612.89
511.722	13679.56
512.09	13765.88
512.458	13809.72
512.826	13924.52
513.193	13917.06
513.561	13966.55
513.929	14080.45
514.297	14191.86
514.664	14235.47
515.032	14190.5
515.4	14385.98
515.767	14439.31
516.135	14516.37
516.502	14365.41
516.869	14597.72
517.237	14570.38
517.604	14643.37
517.972	14737.61
518.339	14739.64
518.706	14751.84
519.073	14755.46
519.44	14925.85
519.808	15022.12
520.175	14979.86
520.542	15103.7
520.909	15234.09
521.276	15098.28
521.643	15204.26
522.009	15258.95
522.376	15293.3
522.743	15363.35
523.11	15470.24
523.477	15505.04
523.843	15592.95
524.21	15713.17
524.577	15682.67
524.943	15711.14
525.31	15787.52
525.676	15825.26
526.043	15952.94
526.409	15885.15
526.776	16062.54
527.142	15949.78
527.508	15993.39
527.874	16172.82
528.241	16170.34
528.607	16176.21
528.973	16193.16
529.339	16136.67
529.705	16209.21
530.071	16364.91
530.437	16293.72
530.803	16343.21
531.169	16358.36
531.535	16359.71
531.901	16320.16
532.267	16312.25
532.632	16291.69
532.998	16364.23
533.364	16421.63
533.73	16312.71
534.095	16437.22
534.461	16405.59
534.826	16462.99
535.192	16477.45
535.557	16572.13
535.923	16386.15
536.288	16288.53
536.653	16410.33
537.019	16359.03
537.384	16314.51
537.749	16421.86
538.114	16273.16
538.479	16298.7
538.845	16271.13
539.21	16264.35
539.575	16230.67
539.94	16177.34
540.305	16209.43
540.67	16119.27
541.034	16167.63
541.399	16180.51
541.764	16206.95
542.129	16198.81
542.494	16082.2
542.858	16074.07
543.223	16123.56
543.587	16091.7
543.952	15948.2
544.316	16007.4
544.681	15925.6
545.045	15942.77
545.41	16053.73
545.774	15918.59
546.138	15945.48
546.503	15853.28
546.867	15797.92
547.231	15886.05
547.595	15725.6
547.959	15790.69
548.324	15753.17
548.688	15657.36
549.052	15784.36
549.416	15718.6
549.779	15657.58
550.143	15611.93
550.507	15603.57
550.871	15584.36
551.235	15529.45
551.599	15568.09
551.962	15517.7
552.326	15506.63
552.689	15587.75
553.053	15501.65
553.417	15396.57
553.78	15588.21
554.143	15504.37
554.507	15402.9
554.87	15467.31
555.234	15455.78
555.597	15332.39
555.96	15460.53
556.323	15370.58
556.686	15346.18
557.05	15408.1
557.413	15356.8
557.776	15395.67
558.139	15422.33
558.502	15444.03
558.865	15387.76
559.228	15438.15
559.59	15379.4
559.953	15439.06
560.316	15612.16
560.679	15505.5
561.041	15439.51
561.404	15461.2
561.767	15593.4
562.129	15395.44
562.492	15580.3
562.854	15463.92
563.217	15520.86
563.579	15495.78
563.941	15555.89
564.304	15653.74
564.666	15713.4
565.028	15685.6
565.39	15613.97
565.753	15691.25
566.115	15683.57
566.477	15674.31
566.839	15656
567.201	15775.09
567.563	15765.6
567.925	15846.73
568.287	15808.99
568.648	15813.96
569.01	15906.62
569.372	16037.69
569.734	15915.88
570.095	15894.64
570.457	15993.17
570.819	15957.91
571.18	15981.87
571.542	15997.46
571.903	16015.31
572.265	15977.57
572.626	16045.14
572.987	16094.63
573.349	16134.86
573.71	16088.31
574.071	16096.67
574.432	16107.06
574.794	16307.51
575.155	16157.68
575.516	16131.24
575.877	16091.92
576.238	16117.68
576.599	16258.7
576.96	16212.82
577.32	16141.19
577.681	16192.03
578.042	16220.51
578.403	16264.35
578.763	16303.89
579.124	16317.9
579.485	16292.37
579.845	16262.31
580.206	16316.77
580.566	16407.62
580.927	16288.75
581.287	16385.7
581.648	16267.06
582.008	16338.02
582.368	16362.42
582.728	16406.04
583.089	16260.96
583.449	16212.37
583.809	16290.79
584.169	16280.17
584.529	16254.18
584.889	16453.27
585.249	16190
585.609	16253.95
585.969	16354.51
586.329	16237.68
586.688	16185.25
587.048	16152.26
587.408	16116.78
587.768	16184.57
588.127	16188.42
588.487	16179.6
588.846	16225.03
589.206	16092.15
589.565	16038.59
589.925	16184.57
590.284	16045.14
590.643	16176.21
591.003	16164.01
591.362	16117.68
591.721	16070.23
592.08	16074.07
592.44	16159.94
592.799	16221.86
593.158	16070
593.517	16058.25
593.876	16055.09
594.235	16050.57
594.593	16093.73
594.952	16122.43
595.311	15957.91
595.67	16018.48
596.029	16182.31
596.387	16105.93
596.746	16121.98
597.104	16078.36
597.463	16055.31
597.822	16039.27
598.18	16006.5
598.538	15928.99
598.897	16044.24
599.255	15890.57
599.613	16130.11
599.972	16005.14
600.33	16065.93
600.688	15912.27
601.046	16091.02
601.404	15996.1
601.762	16034.07
602.12	16166.95
602.478	16079.94
602.836	16227.96
603.194	15992.94
603.552	16023.45
603.91	15949.33
604.268	16042.43
604.625	15986.61
604.983	15980.74
605.341	16058.48
605.698	16057.12
606.056	16107.29
606.413	16089.44
606.771	16108.19
607.128	16083.56
607.485	16035.88
607.843	16055.09
608.2	16099.15
608.557	16152.94
608.914	16024.58
609.272	16220.51
609.629	16224.12
609.986	16251.47
610.343	16201.98
610.7	16303.89
611.057	16282.65
611.414	16279.94
611.771	16278.36
612.127	16339.82
612.484	16284.68
612.841	16309.99
613.198	16258.92
613.554	16250.11
613.911	16395.64
614.267	16341.63
614.624	16308.86
614.98	16357.9
615.337	16440.61
615.693	16414.4
616.05	16312.71
616.406	16413.27
616.762	16481.74
617.118	16460.05
617.475	16395.42
617.831	16474.74
618.187	16496.43
618.543	16578.91
618.899	16546.6
619.255	16526.03
619.611	16474.96
619.967	16617.33
620.323	16522.87
620.678	16590.89
621.034	16513.15
621.39	16525.58
621.746	16378.24
622.101	16656.43
622.457	16554.73
622.812	16606.48
623.168	16495.07
623.523	16537.79
623.879	16585.92
624.234	16478.13
624.589	16548.41
624.945	16487.39
625.3	16585.69
625.655	16514.28
626.01	16612.36
626.365	16569.65
626.72	16551.57
627.075	16524.68
627.43	16594.96
627.785	16481.74
628.14	16461.63
628.495	16486.26
628.85	16622.76
629.205	16499.14
629.559	16608.74
629.914	16458.47
630.269	16510.22
630.623	16455.75
630.978	16493.72
631.332	16582.98
631.687	16513.38
632.041	16446.94
632.396	16488.97
632.75	16354.06
633.104	16387.51
633.459	16336.21
633.813	16342.99
634.167	16338.47
634.521	16264.35
634.875	16250.56
635.229	16252.37
635.583	16177.57
635.937	16188.87
636.291	16192.03
636.645	16173.28
636.999	16061.64
637.352	16268.64
637.706	16104.8
638.06	16170.34
638.413	16127.85
638.767	16047.18
639.121	16166.5
639.474	15990.91
639.828	16011.7
640.181	16011.47
640.534	16084.92
640.888	15952.04
641.241	15935.99
641.594	16022.54
641.947	15992.26
642.301	15917.46
642.654	15938.03
643.007	15910.91
643.36	15959.5
643.713	15865.26
644.066	15874.75
644.419	15805.6
644.771	15703.91
645.124	15573.29
645.477	15522.22
645.83	15464.37
646.182	15480.19
646.535	15389.34
646.888	15351.38
647.24	15228.67
647.593	15350.47
647.945	15290.59
648.298	15217.37
648.65	15226.86
649.002	15267.54
649.355	15404.03
649.707	15234.99
650.059	15384.6
650.411	15575.78
650.763	15532.84
651.115	15703.23
651.467	15658.94
651.819	15691.48
652.171	15602.22
652.523	15612.39
652.875	15601.54
653.227	15640.86
653.578	15634.08
653.93	15645.83
654.282	15527.87
654.633	15530.58
654.985	15715.21
655.337	15529.68
655.688	15606.74
656.039	15715.43
656.391	15594.53
656.742	15557.7
657.094	15612.39
657.445	15724.47
657.796	15656.68
658.147	15629.11
658.498	15585.27
658.849	15607.41
659.2	15676.11
659.551	15623.23
659.902	15629.33
660.253	15669.33
660.604	15696
660.955	15645.15
661.306	15610.13
661.656	15603.8
662.007	15594.31
662.358	15596.12
662.708	15590.92
663.059	15658.94
663.409	15571.94
663.76	15637.02
664.11	15664.59
664.461	15735.09
664.811	15706.85
665.161	15665.04
665.511	15585.72
665.862	15695.55
666.212	15738.03
666.562	15848.31
666.912	15733.96
667.262	15606.96
667.612	15660.07
667.962	15707.75
668.312	15688.32
668.662	15666.17
669.011	15611.93
669.361	15626.85
669.711	15686.28
670.06	15527.42
670.41	15538.04
670.76	15554.53
671.109	15721.54
671.459	15582.1
671.808	15638.83
672.157	15591.6
672.507	15542.11
672.856	15515.21
673.205	15584.14
673.554	15510.69
673.904	15567.42
674.253	15670.69
674.602	15556.34
674.951	15318.61
675.3	15315.22
675.649	15504.37
675.998	15448.32
676.346	15447.19
676.695	15482.22
677.044	15348.89
677.393	15348.66
677.741	15389.57
678.09	15372.62
678.438	15389.34
678.787	15411.94
679.135	15378.95
679.484	15373.07
679.832	15369
680.181	15184.6
680.529	15258.27
680.877	15120.42
681.225	15090.59
681.573	15195
681.922	15148.9
682.27	15117.03
682.618	15093.3
682.966	15065.28
683.314	15096.69
683.661	15035.68
684.009	14878.39
684.357	14863.93
684.705	14883.37
685.053	14886.53
685.4	14836.36
685.748	14781.9
686.095	14783.48
686.443	14692.86
686.79	14726.99
687.138	14799.75
687.485	14660.55
687.832	14617.16
688.18	14522.25
688.527	14531.28
688.874	14451.74
689.221	14455.81
689.568	14474.34
689.915	14448.35
690.262	14352.31
690.609	14388.46
690.956	14290.84
691.303	14237.28
691.65	14152.76
691.997	14235.7
692.344	14138.53
692.69	14030.05
693.037	14078.87
693.383	13940.79
693.73	13988.02
694.077	13843.62
694.423	13864.41
694.769	13798.2
695.116	13797.07
695.462	13696.96
695.808	13593.91
696.155	13723.62
696.501	13612.89
696.847	13541.93
697.193	13461.93
697.539	13520.92
697.885	13403.63
698.231	13342.16
698.577	13397.98
698.923	13291.32
699.269	13176.97
699.614	13203.86
699.96	13192.34
700.306	13143.07
700.651	13016.3
700.997	13043.64
701.342	12984.66
701.688	12908.05
702.033	12917.77
702.379	12776.75
702.724	12852.68
703.069	12780.6
703.415	12668.73
703.76	12662.18
704.105	12615.85
704.45	12682.29
704.795	12597.78
705.14	12539.25
705.485	12573.37
705.83	12514.61
706.175	12393.94
706.52	12417.67
706.865	12312.81
707.209	12259.93
707.554	12302.19
707.899	12251.57
708.243	12252.02
708.588	12127.73
708.932	12113.95
709.277	12056.55
709.621	11990.11
709.966	11978.13
710.31	11968.41
710.654	11913.27
710.998	11858.81
711.342	11925.48
711.687	11803.9
712.031	11865.14
712.375	11840.06
712.719	11764.13
713.063	11769.32
713.407	11791.92
713.75	11670.12
714.094	11722.09
714.438	11605.94
714.782	11660.63
715.125	11579.27
715.469	11598.25
715.812	11485.26
716.156	11476.45
716.499	11547.18
716.843	11513.28
717.186	11444.13
717.53	11548.09
717.873	11536.56
718.216	11419.05
718.559	11476.9
718.902	11328.2
719.246	11394.19
719.589	11293.4
719.932	11228.32
720.275	11301.54
720.617	11287.08
720.96	11266.96
721.303	11286.17
721.646	11228.55
721.989	11130.47
722.331	11259.05
722.674	11179.06
723.016	11194.42
723.359	11230.13
723.701	11196.46
724.044	11147.42
724.386	11057.48
724.729	11145.38
725.071	11098.61
725.413	11116.01
725.755	11088.44
726.097	11102.45
726.439	11007.76
726.782	11041.21
727.124	11091.83
727.465	10976.12
727.807	11027.65
728.149	10961.66
728.491	10965.05
728.833	10987.87
729.175	10973.64
729.516	10876.69
729.858	10968.89
730.199	10923.02
730.541	10917.59
730.882	10951.72
731.224	10944.71
731.565	10914.2
731.906	10902
732.248	10959.4
732.589	10895.67
732.93	10875.11
733.271	10874.43
733.612	10944.26
733.953	10843.92
734.294	10878.73
734.635	10890.02
734.976	10925.5
735.317	10936.8
735.658	10900.19
735.999	10813.19
736.339	10842.34
736.68	10956.01
737.021	10910.81
737.361	10845.51
737.702	10938.16
738.042	10942.45
738.383	10865.84
738.723	10913.75
739.063	10929.35
739.404	10951.27
739.744	10895
740.084	10886.63
740.424	11055.44
740.764	11015.9
741.104	10970.02
741.444	10954.43
741.784	11039.62
742.124	10992.85
742.464	10995.78
742.804	11026.52
743.143	11048.66
743.483	10990.81
743.823	10973.41
744.162	10990.81
744.502	11090.92
744.841	11114.43
745.181	11185.61
745.52	11169.57
745.86	11254.08
746.199	11275.32
746.538	11411.37
746.877	11344.48
747.216	11459.05
747.556	11334.31
747.895	11524.58
748.234	11607.75
748.573	11534.98
748.911	11676.44
749.25	11760.06
749.589	11751.92
749.928	11882.09
750.267	11977.23
750.605	11999.6
750.944	12036.89
751.283	12060.62
751.621	12298.57
751.96	12283.43
752.298	12398.46
752.636	12441.4
752.975	12571.56
753.313	12685.01
753.651	12772.91
753.989	12847.26
754.327	13005.45
754.666	13047.71
755.004	13223.52
755.342	13331.09
755.679	13510.29
756.017	13599.78
756.355	13817.18
756.693	13883.17
757.031	14108.7
757.368	14120.45
757.706	14262.14
758.044	14428.69
758.381	14543.71
758.719	14695.57
759.056	14934.21
759.394	15021.44
759.731	15127.65
760.068	15366.52
760.405	15490.13
760.743	15562.22
761.08	15759.95
761.417	15907.52
761.754	16108.19
762.091	16205.82
762.428	16489.43
762.765	16533.72
763.102	16810.77
763.438	16882.64
763.775	17073.36
764.112	17264.32
764.449	17444.65
764.785	17575.72
765.122	17630.64
765.458	17777.75
765.795	17930.74
766.131	18081.93
766.467	18241.24
766.804	18319.66
767.14	18360.34
767.476	18597.39
767.812	18761.23
768.148	18958.51
768.485	18966.2
768.821	19013.2
769.157	19188.79
769.492	19246.87
769.828	19427.2
770.164	19344.94
770.5	19436.69
770.836	19628.55
771.171	19721.2
771.507	19772.5
771.842	19815.89
772.178	19899.96
772.513	19987.64
772.849	20052.04
773.184	20108.31
773.519	20222.66
773.855	20178.82
774.19	20294.97
774.525	20337.23
774.86	20411.81
775.195	20445.25
775.53	20524.12
775.865	20505.82
776.2	20409.32
776.535	20385.82
776.87	20442.54
777.205	20625.14
777.539	20494.74
777.874	20743.55
778.209	20494.29
778.543	20524.12
778.878	20494.07
779.212	20575.19
779.547	20616.77
779.881	20718.69
780.215	20631.69
780.55	20669.88
780.884	20574.97
781.218	20606.38
781.552	20758.92
781.886	20751.46
782.22	20691.35
782.554	20623.1
782.888	20440.06
783.222	20423.11
783.556	20405.25
783.889	20521.64
784.223	20277.57
784.557	20427.85
784.89	20430.34
785.224	20400.51
785.557	20299.95
785.891	20286.16
786.224	20344.47
786.558	20328.65
786.891	20175.43
787.224	20117.13
787.557	20171.81
787.891	20163.9
788.224	20152.83
788.557	20016.34
788.89	20091.82
789.223	20172.94
789.556	19925.94
789.888	20017.47
790.221	19902.89
790.554	19786.51
790.887	19759.17
791.219	19702.45
791.552	19743.35
791.884	19688.21
792.217	19672.39
792.549	19692.73
792.882	19526.41
793.214	19444.6
793.546	19404.83
793.879	19358.95
794.211	19248.45
794.543	19397.6
794.875	19335.23
795.207	19359.41
795.539	19295
795.871	19265.62
796.203	19114.44
796.535	19000.09
796.867	18959.19
797.198	19040.77
797.53	19011.84
797.862	18874
798.193	18920.1
798.525	18794.45
798.856	18773.66
799.188	18635.13
799.519	18640.78
799.85	18449.83
800.182	18570.95
800.513	18527.11
800.844	18438.53
801.175	18454.12
801.506	18524.4
801.837	18347.68
802.168	18288.25
802.499	18356.49
802.83	18203.5
803.161	18161.47
803.491	18215.71
803.822	18133.68
804.153	18095.48
804.483	17991.98
804.814	17873.57
805.145	17947.92
805.475	17832.89
805.805	17815.27
806.136	17804.87
806.466	17807.36
806.796	17793.12
807.126	17648.26
807.457	17607.36
807.787	17626.12
808.117	17573.92
808.447	17514.93
808.777	17523.75
809.107	17417.99
809.436	17409.4
809.766	17288.95
810.096	17303.19
810.426	17262.29
810.755	17217.09
811.085	17207.15
811.414	17257.99
811.744	17062.74
812.073	17075.17
812.403	16964.44
812.732	16891.9
813.061	16935.74
813.39	16887.61
813.719	16848.74
814.049	16902.3
814.378	16783.2
814.707	16806.25
815.036	16742.98
815.365	16713.6
815.693	16570.33
816.022	16564.9
816.351	16556.99
816.68	16464.57
817.008	16534.62
817.337	16430.44
817.665	16397.68
817.994	16361.74
818.322	16402.2
818.651	16305.02
818.979	16282.88
819.307	16341.86
819.636	16298.24
819.964	16203.56
820.292	16207.85
820.62	16259.6
820.948	16161.75
821.276	16246.95
821.604	16152.48
821.932	16181.41
822.259	16241.3
822.587	16127.63
822.915	16211.24
823.243	16196.33
823.57	16150
823.898	16096.44
824.225	16100.96
824.553	16053.5
824.88	16136.67
825.207	16165.37
825.535	16100.73
825.862	16086.95
826.189	16064.13
826.516	16165.37
826.843	16229.32
827.17	16126.5
827.497	16199.26
827.824	16104.35
828.151	16242.2
828.478	16176.67
828.805	16238.36
829.131	16090.34
829.458	16185.25
829.785	16030.45
830.111	16165.14
830.438	16210.11
830.764	16094.41
831.09	16172.37
831.417	16073.84
831.743	16205.59
832.069	16150.23
832.395	15924.47
832.722	16076.78
833.048	15933.73
833.374	16023.22
833.7	16065.71
834.026	15964.02
834.351	16048.08
834.677	16046.27
835.003	16033.84
835.329	15979.38
835.654	15987.97
835.98	15872.04
836.306	16019.16
836.631	15832.49
836.956	15829.33
837.282	15880.18
837.607	15841.08
837.932	15770.8
838.258	15799.5
838.583	15750.01
838.908	15723.57
839.233	15657.58
839.558	15676.34
839.883	15630.01
840.208	15570.81
840.533	15571.48
840.858	15632.95
841.182	15572.61
841.507	15530.13
841.832	15462.33
842.156	15373.52
842.481	15437.93
842.805	15332.62
843.13	15352.96
843.454	15287.42
843.778	15300.53
844.103	15242
844.427	15167.43
844.751	15218.72
845.075	15139.4
845.399	15054.43
845.723	15003.36
846.047	15064.38
846.371	14827.32
846.695	14940.31
847.019	14818.28
847.343	14726.99
847.666	14576.93
847.99	14588.01
848.313	14595.01
848.637	14584.39
848.96	14482.7
849.284	14436.6
849.607	14414.23
849.931	14313.44
850.254	14140.11
850.577	14115.02
850.9	14108.24
851.223	14032.99
851.546	14003.61
851.869	13886.78
852.192	13950.96
852.515	13869.61
852.838	13778.08
853.161	13839.78
853.483	13620.35
853.806	13583.29
854.129	13623.96
854.451	13546.9
854.774	13515.72
855.096	13452.22
855.419	13422.16
855.741	13357.76
856.063	13299.68
856.385	13349.17
856.708	13291.77
857.03	13233.47
857.352	13228.27
857.674	13155.95
857.996	13087.71
858.318	13048.84
858.64	13065.33
858.961	12933.59
859.283	13035.5
859.605	12889.07
859.926	12930.65
860.248	12854.49
860.57	12926.58
860.891	12802.06
861.212	12750.31
861.534	12758
861.855	12631.45
862.176	12672.35
862.498	12607.27
862.819	12662.63
863.14	12612.01
863.461	12577.66
863.782	12581.51
864.103	12543.31
864.424	12522.07
864.745	12482.75
865.065	12472.36
865.386	12393.94
865.707	12399.14
866.027	12386.71
866.348	12348.97
866.668	12302.64
866.989	12343.55
867.309	12193.49
867.63	12302.64
867.95	12270.33
868.27	12207.05
868.59	12181.06
868.91	12119.37
869.23	12165.92
869.55	12109.88
869.87	12118.24
870.19	12080.05
870.51	12166.38
870.83	12115.75
871.15	12125.47
871.469	12028.75
871.789	12097.22
872.109	12038.69
872.428	11852.71
872.748	11984.46
873.067	11934.97
873.386	11882.54
873.706	12003.22
874.025	11800.28
874.344	11766.16
874.663	11904.01
874.982	11800.06
875.301	11904.46
875.62	11715.99
875.939	11758.93
876.258	11803.67
876.577	11727.52
876.896	11728.87
877.214	11630.12
877.533	11620.17
877.852	11595.99
878.17	11563.45
878.489	11549.44
878.807	11570.01
879.125	11552.38
879.444	11596.45
879.762	11526.39
880.08	11557.13
880.398	11486.39
880.716	11548.09
881.034	11469.22
881.352	11474.87
881.67	11373.63
881.988	11465.38
882.306	11343.12
882.624	11289.79
882.941	11253.63
883.259	11184.93
883.577	11175.21
883.894	11201.88
884.212	11166.85
884.529	11175.67
884.846	11184.93
885.164	11104.71
885.481	11018.38
885.798	11062.22
886.115	10995.33
886.432	10965.73
886.75	10932.06
887.067	10951.04
887.383	10934.32
887.7	10990.13
888.017	10897.26
888.334	10890.02
888.651	10804.83
888.967	10810.93
889.284	10774.77
889.6	10681.67
889.917	10638.28
890.233	10637.6
890.55	10641.9
890.866	10685.74
891.182	10592.41
891.498	10540.43
891.815	10449.36
892.131	10496.81
892.447	10422.47
892.763	10433.09
893.079	10365.07
893.395	10313.32
893.71	10413.88
894.026	10270.61
894.342	10322.81
894.657	10232.87
894.973	10250.27
895.289	10129.59
895.604	10140.89
895.92	10105.64
896.235	10093.44
896.55	10053.89
896.865	9998.52
897.181	9965.75
897.496	9954.23
897.811	9996.26
898.126	9873.78
898.441	9873.55
898.756	9782.48
899.071	9745.65
899.386	9747.68
899.7	9641.02
900.015	9573.45
900.33	9624.97
900.644	9601.92
900.959	9556.5
901.273	9589.95
901.588	9427.01
901.902	9435.37
902.216	9406.67
902.531	9390.4
902.845	9350.4
903.159	9299.33
903.473	9245.77
903.787	9178.66
904.101	9174.36
904.415	9213.68
904.729	9088.26
905.042	9045.55
905.356	9042.39
905.67	9003.29
905.984	9012.56
906.297	8989.51
906.611	8934.6
906.924	8960.81
907.237	8901.38
907.551	8833.13
907.864	8857.54
908.177	8802.85
908.491	8735.28
908.804	8649.86
909.117	8649.18
909.43	8549.07
909.743	8523.76
910.056	8533.48
910.368	8566.24
910.681	8490.77
910.994	8445.34
911.307	8422.52
911.619	8283.77
911.932	8333.48
912.244	8279.7
912.557	8251.22
912.869	8180.72
913.181	8174.39
913.494	8166.71
913.806	8069.31
914.118	8120.61
914.43	8018.24
914.742	8010.55
915.054	8009.42
915.366	7985.69
915.678	7916.09
915.99	7903.66
916.302	7872.93
916.613	7747.73
916.925	7756.32
917.236	7767.17
917.548	7708.41
917.859	7763.1
918.171	7690.33
918.482	7625.7
918.794	7564.46
919.105	7605.82
919.416	7509.55
919.727	7495.09
920.038	7463.9
920.349	7470.23
920.66	7418.48
920.971	7414.64
921.282	7391.36
921.593	7279.5
921.903	7299.38
922.214	7292.15
922.525	7213.51
922.835	7218.93
923.146	7157.69
923.456	7136.9
923.767	7092.84
924.077	7130.35
924.387	7116.34
924.697	7028.21
925.008	7020.97
925.318	6964.48
925.628	6913.63
925.938	6904.37
926.248	6919.73
926.558	6837.7
926.867	6851.03
927.177	6792.28
927.487	6813.75
927.796	6740.75
928.106	6755.44
928.416	6724.26
928.725	6671.6
929.034	6646.07
929.344	6642.68
929.653	6587.09
929.962	6526.3
930.271	6488.78
930.581	6452.4
930.89	6417.37
931.199	6414.66
931.508	6411.27
931.817	6366.53
932.125	6397.71
932.434	6342.35
932.743	6313.65
933.051	6325.85
933.36	6252.63
933.669	6249.02
933.977	6165.4
934.286	6182.58
934.594	6137.38
934.902	6109.59
935.21	6077.27
935.519	6073.2
935.827	6016.71
936.135	6026.88
936.443	5981
936.751	5998.18
937.059	5929.7
937.367	5946.65
937.674	5872.53
937.982	5875.24
938.29	5802.93
938.597	5843.38
938.905	5785.98
939.213	5795.92
939.52	5730.16
939.827	5750.95
940.135	5653.55
940.442	5705.3
940.749	5672.31
941.056	5664.17
941.363	5584.63
941.67	5584.85
941.977	5514.12
942.284	5505.08
942.591	5470.96
942.898	5489.49
943.205	5455.37
943.511	5441.35
943.818	5454.91
944.125	5368.59
944.431	5352.32
944.738	5369.72
945.044	5289.95
945.35	5301.92
945.657	5250.4
945.963	5219.67
946.269	5192.1
946.575	5215.6
946.881	5181.02
947.187	5144.86
947.493	5129.95
947.799	5103.51
948.105	5089.27
948.41	5032.1
948.716	5035.04
949.022	5047.69
949.327	4973.57
949.633	5009.05
949.938	4958.2
950.244	4981.03
950.549	4900.13
950.854	4893.12
951.16	4877.3
951.465	4827.36
951.77	4786.46
952.075	4787.13
952.38	4842.5
952.685	4791.2
952.99	4748.04
953.294	4722.73
953.599	4684.54
953.904	4686.8
954.209	4686.8
954.513	4619.91
954.818	4626.46
955.122	4590.98
955.426	4586.46
955.731	4579
956.035	4520.93
956.339	4502.4
956.643	4500.81
956.948	4416.07
957.252	4480.48
957.556	4398.67
957.86	4400.25
958.163	4440.7
958.467	4392.34
958.771	4402.06
959.075	4347.82
959.378	4326.13
959.682	4327.49
959.985	4315.51
960.289	4272.57
960.592	4295.85
960.896	4270.99
961.199	4224.66
961.502	4205
961.805	4198.45
962.108	4193.93
962.411	4111.22
962.714	4102.18
963.017	4108.06
963.32	4117.1
963.623	4080.49
963.926	4035.52
964.228	4019.47
964.531	4033.48
964.833	4015.85
965.136	3918.23
965.438	4003.65
965.741	3957.78
966.043	3923.88
966.345	3922.3
966.648	3888.63
966.95	3933.37
967.252	3868.97
967.554	3842.53
967.856	3853.15
968.158	3802.53
968.46	3801.4
968.761	3793.94
969.063	3771.57
969.365	3751.91
969.666	3781.28
969.968	3700.38
970.269	3709.87
970.571	3664.9
970.872	3666.03
971.174	3635.3
971.475	3667.16
971.776	3662.42
972.077	3585.13
972.378	3615.19
972.679	3630.55
972.98	3584.68
973.281	3556.21
973.582	3528.18
973.883	3492.03
974.183	3496.55
974.484	3526.6
974.785	3521.86
975.085	3461.75
975.386	3457.23
975.686	3395.08
975.986	3395.98
976.287	3423.78
976.587	3368.87
976.887	3381.3
977.187	3345.82
977.487	3357.79
977.787	3296.33
978.087	3277.8
978.387	3304.91
978.687	3282.77
978.987	3266.04
979.286	3251.81
979.586	3252.03
979.885	3222.43
980.185	3184.01
980.484	3164.8
980.784	3181.98
981.083	3165.48
981.382	3170.68
981.682	3152.15
981.981	3127.06
982.28	3112.6
982.579	3082.77
982.878	3100.17
983.177	3060.85
983.475	3046.61
983.774	3015.88
984.073	3007.75
984.372	3003.45
984.67	2968.42
984.969	2974.53
985.267	2955.09
985.566	2927.07
985.864	2955.77
986.162	2917.58
986.461	2909.67
986.759	2899.95
987.057	2824.47
987.355	2876.68
987.653	2828.99
987.951	2829.9
988.249	2834.87
988.547	2831.71
988.844	2820.63
989.142	2815.66
989.44	2781.31
989.737	2772.72
990.035	2757.13
990.332	2746.51
990.63	2737.47
990.927	2674.65
991.224	2730.01
991.521	2686.4
991.819	2682.1
992.116	2673.29
992.413	2640.75
992.71	2662.22
993.006	2614.08
993.303	2629.45
993.6	2610.24
993.897	2603.46
994.193	2603.91
994.49	2558.72
994.787	2546.74
995.083	2562.33
995.379	2525.95
995.676	2495.67
995.972	2510.13
996.268	2495.89
996.565	2497.48
996.861	2464.26
997.157	2440.76
997.453	2468.55
997.749	2464.94
998.044	2406.41
998.34	2391.26
998.636	2394.43
998.932	2376.58
999.227	2341.32
999.523	2339.97
999.818	2358.95
1000.114	2321.44
1000.409	2336.58
1000.704	2332.06
1001	2295.22
1001.295	2261.1
1001.59	2267.2
1001.885	2280.99
1002.18	2268.1
1002.475	2240.31
1002.77	2217.26
1003.065	2180.87
1003.359	2185.62
1003.654	2186.3
1003.949	2173.64
1004.243	2159.41
1004.538	2137.94
1004.832	2156.47
1005.127	2128.45
1005.421	2127.99
1005.715	2097.94
1006.009	2095.23
1006.304	2069.69
1006.598	2061.56
1006.892	2040.99
1007.186	2061.33
1007.48	2037.6
1007.773	2036.7
1008.067	2004.38
1008.361	1990.82
1008.655	1986.76
1008.948	1960.54
1009.242	1957.6
1009.535	1954.44
1009.829	1946.76
1010.122	1950.15
1010.415	1883.03
1010.708	1880.32
1011.001	1887.1
1011.295	1888
1011.588	1880.54
1011.881	1847.32
1012.173	1850.71
1012.466	1837.16
1012.759	1829.25
1013.052	1825.86
1013.344	1811.17
1013.637	1820.43
1013.93	1793.09
1014.222	1776.59
1014.514	1763.71
1014.807	1772.07
1015.099	1744.05
1015.391	1715.8
1015.683	1746.76
1015.976	1729.59
1016.268	1707.89
1016.56	1680.32
1016.851	1681
1017.143	1678.29
1017.435	1623.83
1017.727	1622.25
1018.018	1652.75
1018.31	1633.09
1018.602	1627.9
1018.893	1631.74
1019.185	1588.35
1019.476	1600.55
1019.767	1569.14
1020.058	1572.76
1020.35	1566.43
1020.641	1561.91
1020.932	1532.53
1021.223	1536.15
1021.514	1511.51
1021.804	1503.83
1022.095	1511.51
1022.386	1472.19
1022.677	1520.33
1022.967	1474.9
1023.258	1448.01
1023.548	1453.44
1023.839	1434.23
1024.129	1425.64
1024.419	1430.84
1024.709	1423.15
1025	1419.09
1025.29	1380.22
1025.58	1394
1025.87	1372.99
1026.16	1331.86
1026.449	1375.7
1026.739	1343.61
1027.029	1330.28
1027.319	1323.5
1027.608	1316.72
1027.898	1304.74
1028.187	1267.68
1028.477	1297.96
1028.766	1270.16
1029.055	1298.41
1029.344	1248.92
1029.634	1265.87
1029.923	1280.56
1030.212	1231.75
1030.501	1215.7
1030.79	1208.7
1031.078	1182.71
1031.367	1201.69
1031.656	1190.62
1031.945	1198.53
1032.233	1172.09
1032.522	1172.54
1032.81	1186.78
1033.099	1173.44
1033.387	1144.74
1033.675	1151.52
1033.963	1133.9
1034.251	1137.96
1034.54	1133.44
1034.828	1116.27
1035.116	1099.55
1035.403	1099.77
1035.691	1091.86
1035.979	1078.76
1036.267	1084.18
1036.554	1064.52
1036.842	1057.29
1037.129	1060
1037.417	1046.67
1037.704	1060.45
1037.992	1032.88
1038.279	1012.54
1038.566	1060.68
1038.853	1060.68
1039.14	1060.68
