Data from hue_290_FLMS001491_00018.txt Node
Date: Tue Feb 07 15:52:23 GMT 2017
User: dcchb
Spectrometer: FLMS00149
Trigger mode: 0
Integration Time (sec): 2.000000E-2
Scans to average: 10
Electric dark correction enabled: true
Nonlinearity correction enabled: false
Boxcar width: 0
XAxis mode: Wavelengths
Number of Pixels in Spectrum: 2048
>>>>>Begin Spectral Data<<<<<
341.393	-19.11
341.776	-19.11
342.16	-19.11
342.543	-59.79
342.927	-73.12
343.31	-69.96
343.693	-62.05
344.077	-58.88
344.46	-59.79
344.843	-29.96
345.226	-50.07
345.61	-7.81
345.993	-2.84
346.376	-23.63
346.759	5.75
347.142	29.93
347.525	30.15
347.908	42.58
348.291	80.77
348.674	78.74
349.057	97.05
349.44	116.25
349.823	154.45
350.206	145.41
350.588	188.12
350.971	197.16
351.354	219.53
351.737	224.05
352.119	241
352.502	239.41
352.884	252.52
353.267	273.09
353.65	270.6
354.032	302.92
354.414	283.93
354.797	305.4
355.179	307.89
355.562	309.47
355.944	342.69
356.326	329.36
356.709	336.14
357.091	327.1
357.473	330.26
357.855	330.26
358.238	310.37
358.62	335.01
359.002	339.98
359.384	318.51
359.766	349.47
360.148	299.53
360.53	327.77
360.912	321.9
361.294	336.36
361.676	339.52
362.057	329.13
362.439	321.22
362.821	321.45
363.203	312.41
363.584	321.45
363.966	306.31
364.348	338.4
364.729	311.73
365.111	296.14
365.493	320.77
365.874	322.8
366.256	303.82
366.637	295.68
367.019	320.77
367.4	337.04
367.781	306.08
368.163	305.18
368.544	305.85
368.925	302.69
369.306	312.41
369.688	295.91
370.069	302.01
370.45	309.24
370.831	312.63
371.212	309.24
371.593	302.46
371.974	303.14
372.355	326.19
372.736	305.4
373.117	320.32
373.498	318.06
373.879	303.82
374.26	300.43
374.641	305.18
375.021	307.66
375.402	310.83
375.783	325.74
376.163	293.42
376.544	329.81
376.925	303.37
377.305	323.48
377.686	338.62
378.066	305.18
378.447	310.83
378.827	314.67
379.208	301.56
379.588	310.15
379.968	315.12
380.349	336.36
380.729	325.29
381.109	326.64
381.489	324.61
381.87	320.09
382.25	335.23
382.63	318.28
383.01	332.52
383.39	338.85
383.77	338.17
384.15	366.42
384.53	347.43
384.91	346.76
385.29	336.59
385.67	326.64
386.049	319.86
386.429	352.18
386.809	355.34
387.189	347.21
387.568	361.67
387.948	349.24
388.328	353.99
388.707	340.43
389.087	346.98
389.466	362.8
389.846	343.59
390.225	360.09
390.605	368.45
390.984	352.63
391.363	368.68
391.743	367.55
392.122	373.42
392.501	382.91
392.881	359.86
393.26	360.32
393.639	369.81
394.018	375.68
394.397	370.48
394.776	394.89
395.155	368.68
395.534	362.8
395.913	376.59
396.292	376.81
396.671	390.6
397.05	372.52
397.429	378.39
397.808	378.17
398.186	385.17
398.565	386.98
398.944	385.85
399.323	367.09
399.701	422.69
400.08	372.07
400.458	401.44
400.837	386.3
401.215	386.98
401.594	396.02
401.972	410.94
402.351	413.2
402.729	429.69
403.107	403.03
403.486	420.2
403.864	414.1
404.242	414.33
404.62	428.56
404.999	425.62
405.377	431.73
405.755	432.86
406.133	433.76
406.511	441.67
406.889	439.41
407.267	447.09
407.645	467.88
408.023	471.05
408.401	479.86
408.779	473.31
409.156	493.42
409.534	482.35
409.912	499.97
410.29	502.46
410.667	500.88
411.045	496.58
411.422	502.46
411.8	518.73
412.178	519.18
412.555	531.16
412.933	520.54
413.31	549.01
413.687	533.64
414.065	570.25
414.442	548.79
414.819	569.58
415.197	589.69
415.574	597.82
415.951	581.33
416.328	608.9
416.705	612.74
417.082	615.22
417.46	626.3
417.837	633.98
418.214	626.98
418.591	668.1
418.967	650.48
419.344	661.55
419.721	650.93
420.098	654.77
420.475	680.76
420.852	652.51
421.228	679.4
421.605	683.47
421.982	709.01
422.358	725.5
422.735	738.38
423.111	737.48
423.488	729.12
423.864	756.92
424.241	775.67
424.617	779.51
424.994	773.86
425.37	771.15
425.746	786.74
426.123	819.06
426.499	808.21
426.875	830.13
427.251	833.3
427.627	843.69
428.003	846.18
428.379	854.54
428.756	873.97
429.132	850.92
429.507	880.3
429.883	887.76
430.259	914.43
430.635	909.45
431.011	950.36
431.387	928.44
431.763	919.85
432.138	957.81
432.514	963.46
432.89	975.67
433.265	1001.88
433.641	1008.43
434.016	1021.99
434.392	1031.03
434.767	1040.07
435.143	1046.4
435.518	1083.69
435.894	1057.92
436.269	1082.33
436.644	1114.65
437.02	1104.25
437.395	1127.98
437.77	1129.56
438.145	1159.16
438.52	1165.49
438.895	1167.75
439.271	1175.89
439.646	1195.1
440.021	1212.72
440.395	1193.97
440.77	1198.49
441.145	1236.9
441.52	1254.08
441.895	1240.97
442.27	1261.31
442.645	1246.39
443.019	1271.48
443.394	1279.16
443.769	1283
444.143	1260.86
444.518	1329.1
444.892	1292.49
445.267	1295.66
445.641	1313.06
446.016	1327.07
446.39	1314.19
446.764	1335.66
447.139	1350.8
447.513	1319.39
447.887	1346.73
448.262	1333.62
448.636	1332.95
449.01	1378.82
449.384	1367.52
449.758	1383.57
450.132	1371.36
450.506	1403
450.88	1390.8
451.254	1404.13
451.628	1422.21
452.002	1416.11
452.376	1424.47
452.75	1401.42
453.123	1441.87
453.497	1453.62
453.871	1438.93
454.244	1484.58
454.618	1482.09
454.992	1520.96
455.365	1513.05
455.739	1556.89
456.112	1529.78
456.486	1548.53
456.859	1545.37
457.232	1590.11
457.606	1576.55
457.979	1568.42
458.352	1617.46
458.725	1667.63
459.099	1631.24
459.472	1689.32
459.845	1649.1
460.218	1685.48
460.591	1672.37
460.964	1697.23
461.337	1692.71
461.71	1713.27
462.083	1746.95
462.456	1764.35
462.829	1744.69
463.201	1770.67
463.574	1793.5
463.947	1814.51
464.32	1813.16
464.692	1852.93
465.065	1856.1
465.438	1836.21
465.81	1859.49
466.183	1891.12
466.555	1928.41
466.928	1942.87
467.3	1900.16
467.672	1947.62
468.045	1975.64
468.417	1981.97
468.789	1986.26
469.161	2018.8
469.534	2047.95
469.906	2098.8
470.278	2066.94
470.65	2120.5
471.022	2125.92
471.394	2160.27
471.766	2179.25
472.138	2196.88
472.51	2218.8
472.882	2214.96
473.253	2263.54
473.625	2279.81
473.997	2315.74
474.369	2309.42
474.74	2312.35
475.112	2373.6
475.484	2368.4
475.855	2416.53
476.227	2418.79
476.598	2474.16
476.97	2474.84
477.341	2533.59
477.713	2540.6
478.084	2559.13
478.455	2612.69
478.827	2602.74
479.198	2683.42
479.569	2697.66
479.94	2731.78
480.311	2748.95
480.682	2825.11
481.053	2854.26
481.424	2870.76
481.795	2864.2
482.166	2904.43
482.537	2908.27
482.908	2987.59
483.279	2993.92
483.65	3047.93
484.021	3119.79
484.391	3109.62
484.762	3143.07
485.133	3177.42
485.503	3194.59
485.874	3236.62
486.244	3257.19
486.615	3254.7
486.985	3325.89
487.356	3377.19
487.726	3366.79
488.097	3433.45
488.467	3454.92
488.837	3465.32
489.207	3515.94
489.578	3538.31
489.948	3540.57
490.318	3631.64
490.688	3633
491.058	3676.84
491.428	3705.31
491.798	3683.62
492.168	3819.89
492.538	3819.21
492.908	3788.7
493.278	3841.13
493.648	3827.34
494.017	3858.98
494.387	3920.67
494.757	3947.11
495.126	3942.37
495.496	3941.01
495.866	4021.24
496.235	4023.04
496.605	4062.36
496.974	4065.08
497.344	4098.75
497.713	4088.35
498.082	4107.79
498.452	4136.94
498.821	4145.3
499.19	4173.32
499.559	4211.51
499.928	4181.23
500.298	4251.51
500.667	4220.1
501.036	4242.47
501.405	4237.28
501.774	4257.16
502.143	4333.32
502.512	4322.25
502.88	4345.75
503.249	4380.32
503.618	4344.39
503.987	4390.04
504.356	4383.49
504.724	4430.49
505.093	4425.75
505.462	4384.84
505.83	4463.48
506.199	4469.81
506.567	4562.01
506.936	4510.26
507.304	4594.78
507.672	4562.24
508.041	4579.64
508.409	4559.53
508.777	4586.19
509.145	4642.46
509.514	4613.08
509.882	4651.73
510.25	4654.44
510.618	4654.89
510.986	4710.48
511.354	4713.65
511.722	4744.83
512.09	4749.35
512.458	4745.74
512.826	4778.05
513.193	4780.54
513.561	4738.05
513.929	4841.1
514.297	4852.17
514.664	4852.85
515.032	4847.2
515.4	4844.94
515.767	4882
516.135	4909.12
516.502	4874.55
516.869	4945.05
517.237	4915.22
517.604	4911.83
517.972	4936.47
518.339	4997.71
518.706	4974.66
519.073	5005.17
519.44	4983.47
519.808	4986.18
520.175	5058.5
520.542	5058.04
520.909	5135.11
521.276	5111.38
521.643	5109.57
522.009	5117.03
522.376	5187.53
522.743	5115.44
523.11	5210.13
523.477	5207.65
523.843	5216.46
524.21	5284.93
524.577	5298.26
524.943	5311.37
525.31	5313.63
525.676	5375.1
526.043	5404.25
526.409	5385.95
526.776	5390.24
527.142	5378.49
527.508	5465.49
527.874	5512.5
528.241	5509.56
528.607	5483.34
528.973	5540.97
529.339	5559.73
529.705	5598.6
530.071	5607.64
530.437	5634.98
530.803	5653.74
531.169	5672.27
531.535	5660.29
531.901	5642.66
532.267	5699.61
532.632	5779.61
532.998	5737.35
533.364	5806.27
533.73	5803.79
534.095	5845.59
534.461	5865.26
534.826	5867.74
535.192	5865.71
535.557	5936.67
535.923	5873.62
536.288	5918.59
536.653	5942.32
537.019	5920.4
537.384	5960.62
537.749	6004.01
538.114	6012.37
538.479	5965.82
538.845	6014.4
539.21	5996.78
539.575	6061.41
539.94	6082.42
540.305	6063.44
540.67	6095.76
541.034	6077
541.399	6073.16
541.764	6100.96
542.129	6187.73
542.494	6157.9
542.858	6162.42
543.223	6204.91
543.587	6225.02
543.952	6200.61
544.316	6267.05
544.681	6260.05
545.045	6239.26
545.41	6302.76
545.774	6274.51
546.138	6294.4
546.503	6362.64
546.867	6360.16
547.231	6387.5
547.595	6354.51
547.959	6370.78
548.324	6461.62
548.688	6452.36
549.052	6423.43
549.416	6442.64
549.779	6499.14
550.143	6455.97
550.507	6533.94
550.871	6495.3
551.235	6511.57
551.599	6540.27
551.962	6531.68
552.326	6559.25
552.689	6558.34
553.053	6552.92
553.417	6551.34
553.78	6618.23
554.143	6573.94
554.507	6674.95
554.87	6650.09
555.234	6672.47
555.597	6689.64
555.96	6662.3
556.323	6692.35
556.686	6732.8
557.05	6781.62
557.413	6763.31
557.776	6763.99
558.139	6795.4
558.502	6771.45
558.865	6871.1
559.228	6896.64
559.59	6859.58
559.953	6937.09
560.316	6963.31
560.679	6952.68
561.041	6937.77
561.404	6997.2
561.767	7042.4
562.129	7003.98
562.492	7132.34
562.854	7052.34
563.217	7070.2
563.579	7063.19
563.941	7116.75
564.304	7147.48
564.666	7177.99
565.028	7153.36
565.39	7156.07
565.753	7192.23
566.115	7272
566.477	7241.49
566.839	7290.3
567.201	7337.76
567.563	7333.24
567.925	7372.11
568.287	7387.7
568.648	7409.17
569.01	7451.88
569.372	7547.47
569.734	7500.24
570.095	7526
570.457	7583.18
570.819	7572.78
571.18	7562.16
571.542	7616.62
571.903	7638.09
572.265	7773
572.626	7743.17
572.987	7793.79
573.349	7792.89
573.71	7828.37
574.071	7851.42
574.432	7907.24
574.794	7989.49
575.155	7991.53
575.516	7980
575.877	7984.52
576.238	8095.48
576.599	8082.15
576.96	8156.95
577.32	8233.33
577.681	8213.44
578.042	8327.11
578.403	8384.96
578.763	8404.17
579.124	8432.42
579.485	8485.3
579.845	8633.32
580.206	8631.96
580.566	8689.14
580.927	8800.55
581.287	8922.35
581.648	8912.18
582.008	9038.73
582.368	9045.28
582.728	9164.83
583.089	9148.78
583.449	9377.03
583.809	9448.89
584.169	9543.35
584.529	9532.96
584.889	9808.88
585.249	9769.33
585.609	9870.35
585.969	10024.47
586.329	10134.75
586.688	10221.3
587.048	10255.65
587.408	10398.02
587.768	10557.11
588.127	10689.76
588.487	10714.85
588.846	10990.09
589.206	11010.2
589.565	11162.52
589.925	11305.11
590.284	11439.35
590.643	11541.94
591.003	11758.21
591.362	11875.94
591.721	12056.51
592.08	12112.77
592.44	12289.04
592.799	12453.33
593.158	12573.33
593.517	12651.74
593.876	12836.37
594.235	12880.89
594.593	13155.23
594.952	13199.53
595.311	13379.41
595.67	13432.51
596.029	13670.47
596.387	13795.44
596.746	13937.81
597.104	14053.06
597.463	14152.27
597.822	14332.83
598.18	14368.76
598.538	14531.47
598.897	14713.61
599.255	14689.88
599.613	15008.29
599.972	15013.72
600.33	15041.51
600.688	15225.46
601.046	15364.21
601.404	15504.55
601.762	15650.99
602.12	15866.57
602.478	15926.01
602.836	16019.34
603.194	16019.11
603.552	16153.12
603.91	16291.2
604.268	16283.29
604.625	16477.41
604.983	16568.93
605.341	16666.55
605.698	16776.61
606.056	16925.98
606.413	16933.44
606.771	17151.51
607.128	17129.37
607.485	17168.91
607.843	17264.73
608.2	17406.65
608.557	17526.19
608.914	17510.37
609.272	17758.5
609.629	17817.26
609.986	17885.5
610.343	17877.82
610.7	18059.29
611.057	18175.21
611.414	18139.96
611.771	18356.9
612.127	18309
612.484	18371.37
612.841	18495.66
613.198	18500.4
613.554	18513.06
613.911	18678.93
614.267	18768.19
614.624	18700.4
614.98	18848.87
615.337	19008.86
615.693	18917.79
616.05	19009.99
616.406	19073.72
616.762	19243.66
617.118	19203.44
617.475	19139.48
617.831	19310.78
618.187	19366.37
618.543	19350.32
618.899	19543.99
619.255	19509.64
619.611	19557.32
619.967	19555.29
620.323	19654.27
620.678	19603.2
621.034	19604.78
621.39	19694.72
621.746	19661.73
622.101	19978.1
622.457	19792.35
622.812	19908.28
623.168	19985.34
623.523	19972.91
623.879	20039.57
624.234	19904.43
624.589	20134.26
624.945	20042.96
625.3	20068.05
625.655	20138.1
626.01	20216.29
626.365	20259.23
626.72	20225.56
627.075	20264.88
627.43	20136.52
627.785	20232.79
628.14	20267.59
628.495	20210.41
628.85	20244.31
629.205	20209.51
629.559	20326.12
629.914	20140.59
630.269	20285.67
630.623	20188.27
630.978	20145.11
631.332	20362.28
631.687	20393.91
632.041	20223.75
632.396	20257.19
632.75	20195.5
633.104	20365.21
633.459	20185.56
633.813	20198.21
634.167	20242.73
634.521	20177.42
634.875	20250.19
635.229	20222.62
635.583	20207.93
635.937	20176.74
636.291	20143.98
636.645	20111.89
636.999	20061.72
637.352	20171.32
637.706	20046.8
638.06	20144.88
638.413	20052.9
638.767	19972.46
639.121	20145.33
639.474	20048.39
639.828	20079.12
640.181	19894.49
640.534	20042.06
640.888	19993.7
641.241	19988.5
641.594	19954.38
641.947	20012.68
642.301	19934.04
642.654	19925.9
643.007	20032.79
643.36	20059.01
643.713	19915.73
644.066	20045.67
644.419	19881.38
644.771	19842.51
645.124	19618.34
645.477	19606.81
645.83	19470.77
646.182	19496.54
646.535	19450.66
646.888	19341.51
647.24	19309.42
647.593	19421.96
647.945	19431.9
648.298	19225.81
648.65	19250.67
649.002	19271.46
649.355	19306.26
649.707	19424.22
650.059	19476.87
650.411	19612.24
650.763	19658.57
651.115	19924.77
651.467	19765.68
651.819	19766.13
652.171	19748.73
652.523	19776.75
652.875	19703.31
653.227	19614.27
653.578	19792.8
653.93	19726.81
654.282	19631.9
654.633	19656.98
654.985	19779.01
655.337	19745.34
655.688	19738.79
656.039	19860.37
656.391	19730.65
656.742	19689.07
657.094	19725.23
657.445	19854.49
657.796	19682.07
658.147	19661.95
658.498	19745.34
658.849	19713.93
659.2	19748.96
659.551	19730.2
659.902	19797.77
660.253	19760.26
660.604	19802.52
660.955	19668.51
661.306	19833.93
661.656	19772.69
662.007	19795.28
662.358	19791.44
662.708	19805.45
663.059	19783.08
663.409	19653.82
663.76	19892.91
664.11	19737.21
664.461	19861.27
664.811	20000.02
665.161	19801.61
665.511	19736.76
665.862	19916.41
666.212	19804.55
666.562	19908.5
666.912	19893.14
667.262	19742.63
667.612	19801.84
667.962	19922.74
668.312	19910.08
668.662	19946.69
669.011	19773.59
669.361	19858.11
669.711	19828.96
670.06	19779.01
670.41	19734.95
670.76	19692.69
671.109	19794.15
671.459	19799.58
671.808	19734.04
672.157	19871.67
672.507	19664.67
672.856	19699.69
673.205	19753.03
673.554	19790.31
673.904	19674.84
674.253	19869.86
674.602	19673.93
674.951	19384
675.3	19312.59
675.649	19574.05
675.998	19503.99
676.346	19673.03
676.695	19686.81
677.044	19487.5
677.393	19593.03
677.741	19554.39
678.09	19440.72
678.438	19344.45
678.787	19477.78
679.135	19504.22
679.484	19317.78
679.832	19468.74
680.181	19199.82
680.529	19357.78
680.877	19240.5
681.225	19249.31
681.573	19346.03
681.922	19212.93
682.27	19146.94
682.618	19207.05
682.966	19103.33
683.314	19183.78
683.661	19053.84
684.009	19080.95
684.357	18948.53
684.705	19024.91
685.053	19023.33
685.4	19001.63
685.748	18894.29
686.095	18727.29
686.443	18807.51
686.79	18716.22
687.138	18759.83
687.485	18670.34
687.832	18676.9
688.18	18640.29
688.527	18527.07
688.874	18609.1
689.221	18519.84
689.568	18443.46
689.915	18459.05
690.262	18303.57
690.609	18341.54
690.956	18306.28
691.303	18167.3
691.65	18154.42
691.997	18110.58
692.344	18048.89
692.69	17974.09
693.037	17937.93
693.383	17826.97
693.73	17877.59
694.077	17804.6
694.423	17760.54
694.769	17817.94
695.116	17718.73
695.462	17635.34
695.808	17667.2
696.155	17614.55
696.501	17364.16
696.847	17579.07
697.193	17330.26
697.539	17305.41
697.885	17172.3
698.231	17124.39
698.577	17145.41
698.923	17070.16
699.269	17033.78
699.614	16963.27
699.96	16928.02
700.306	16871.52
700.651	16731.86
700.997	16597.63
701.342	16667.91
701.688	16644.18
702.033	16621.13
702.379	16558.76
702.724	16522.6
703.069	16462.04
703.415	16331.19
703.76	16299.11
704.105	16274.93
704.45	16283.96
704.795	16073.8
705.14	16063.86
705.485	16076.96
705.83	15939.79
706.175	15933.24
706.52	15928.72
706.865	15925.33
707.209	15867.7
707.554	15776.18
707.899	15797.2
708.243	15668.84
708.588	15685.56
708.932	15540.26
709.277	15642.63
709.621	15656.64
709.966	15493.7
710.31	15542.29
710.654	15441.5
710.998	15462.52
711.342	15462.52
711.687	15400.37
712.031	15326.02
712.375	15203.54
712.719	15264.78
713.063	15194.73
713.407	15202.64
713.75	15160.38
714.094	15066.37
714.438	15092.13
714.782	15131
715.125	14972.13
715.469	14933.72
715.812	14934.4
716.156	14824.79
716.499	14826.6
716.843	14855.3
717.186	14715.64
717.53	14875.64
717.873	14805.13
718.216	14736.43
718.559	14724.68
718.902	14597.91
719.246	14624.8
719.589	14641.97
719.932	14535.76
720.275	14604.46
720.617	14592.03
720.96	14503.67
721.303	14515.88
721.646	14540.73
721.989	14517.91
722.331	14516.78
722.674	14481.75
723.016	14528.3
723.359	14408.31
723.701	14475.65
724.044	14321.53
724.386	14333.73
724.729	14357.91
725.071	14374.18
725.413	14384.81
725.755	14291.7
726.097	14198.6
726.439	14263.45
726.782	14294.86
727.124	14285.37
727.465	14179.39
727.807	14255.09
728.149	14177.58
728.491	14187.3
728.833	14203.12
729.175	14140.97
729.516	14147.75
729.858	14178.26
730.199	14162.21
730.541	14105.04
730.882	14091.48
731.224	14141.42
731.565	14098.49
731.906	14052.16
732.248	14116.11
732.589	14009.45
732.93	14005.61
733.271	14104.36
733.612	14053.29
733.953	14048.32
734.294	14014.19
734.635	14018.71
734.976	14089.67
735.317	14079.28
735.658	13946.62
735.999	13988.21
736.339	13944.59
736.68	14029.11
737.021	14006.74
737.361	13954.53
737.702	14008.32
738.042	13973.74
738.383	13978.04
738.723	14052.16
739.063	14038.83
739.404	14096.45
739.744	14001.54
740.084	13964.48
740.424	14072.05
740.764	14037.7
741.104	14086.96
741.444	14019.39
741.784	13984.14
742.124	14116.11
742.464	14102.1
742.804	14065.27
743.143	14038.83
743.483	14147.75
743.823	14013.29
744.162	14142.78
744.502	14166.51
744.841	14124.93
745.181	14204.92
745.52	14197.24
745.86	14247.86
746.199	14307.07
746.538	14242.89
746.877	14315.2
747.216	14447.63
747.556	14478.14
747.895	14499.6
748.234	14504.12
748.573	14443.11
748.911	14651.24
749.25	14661.63
749.589	14760.61
749.928	14806.49
750.267	14902.08
750.605	14895.07
750.944	15018.91
751.283	14933.49
751.621	15133.71
751.96	15131.23
752.298	15267.04
752.636	15336.42
752.975	15299.58
753.313	15332.58
753.651	15570.76
753.989	15594.27
754.327	15769.18
754.666	15689.18
755.004	15878.33
755.342	15997.42
755.679	16017.76
756.017	16041.03
756.355	16183.4
756.693	16345.21
757.031	16405.32
757.368	16554.47
757.706	16573.67
758.044	16723.95
758.381	16750.84
758.719	16847.34
759.056	16960.1
759.394	17039.42
759.731	17133.66
760.068	17210.27
760.405	17388.79
760.743	17449.13
761.08	17635.57
761.417	17531.39
761.754	17775.9
762.091	17838.73
762.428	17824.49
762.765	17819.29
763.102	18009.57
763.438	18006.41
763.775	18165.27
764.112	18218.6
764.449	18379.28
764.785	18381.08
765.122	18457.24
765.458	18565.94
765.795	18572.94
766.131	18676.9
766.467	18670.57
766.804	18632.6
767.14	18747.4
767.476	18862.2
767.812	18868.76
768.148	18875.99
768.485	18813.62
768.821	18850.9
769.157	18961.41
769.492	18981.07
769.828	18989.2
770.164	18864.24
770.5	18965.93
770.836	19022.2
771.171	19045.7
771.507	19090.9
771.842	18988.53
772.178	19044.34
772.513	19008.41
772.849	19063.55
773.184	19029.88
773.519	19029.66
773.855	19049.77
774.19	18999.83
774.525	19024.23
774.86	19110.56
775.195	19092.25
775.53	18919.6
775.865	18932.71
776.2	18819.72
776.535	18745.37
776.87	18810.23
777.205	18762.09
777.539	18648.65
777.874	18825.59
778.209	18576.33
778.543	18629.89
778.878	18614.07
779.212	18600.51
779.547	18599.84
779.881	18629.44
780.215	18455.66
780.55	18560.06
780.884	18491.82
781.218	18454.98
781.552	18431.93
781.886	18240.98
782.22	18236.23
782.554	18273.29
782.888	18134.99
783.222	18040.08
783.556	18037.59
783.889	18054.99
784.223	17937.25
784.557	17936.12
784.89	17952.17
785.224	17858.16
785.557	17746.52
785.891	17867.43
786.224	17698.62
786.558	17775.22
786.891	17632.86
787.224	17533.2
787.557	17537.04
787.891	17423.82
788.224	17534.33
788.557	17601.22
788.89	17411.84
789.223	17502.92
789.556	17340.21
789.888	17267.89
790.221	17157.84
790.554	17036.49
790.887	17060.67
791.219	17035.58
791.552	17031.29
791.884	16814.8
792.217	16897.51
792.549	16895.02
792.882	16759.66
793.214	16676.95
793.546	16735.48
793.879	16630.4
794.211	16436.28
794.543	16500.91
794.875	16476.95
795.207	16489.38
795.539	16473.11
795.871	16378.43
796.203	16303.17
796.535	16193.8
796.867	16243.51
797.198	16048.26
797.53	16146.79
797.862	16028.6
798.193	16023.41
798.525	15961.94
798.856	16000.81
799.188	15740.7
799.519	15813.69
799.85	15713.81
800.182	15840.13
800.513	15778.22
800.844	15628.16
801.175	15713.13
801.506	15544.77
801.837	15523.76
802.168	15492.8
802.499	15487.83
802.83	15369.86
803.161	15307.27
803.491	15299.13
803.822	15231.34
804.153	15164.22
804.483	15126.93
804.814	15076.31
805.145	15071.57
805.475	15104.79
805.805	14999.03
806.136	15032.25
806.466	14904.79
806.796	14892.81
807.126	14767.17
807.457	14778.47
807.787	14788.64
808.117	14692.37
808.447	14670.45
808.777	14731.69
809.107	14659.15
809.436	14559.94
809.766	14552.48
810.096	14605.59
810.426	14531.47
810.755	14514.75
811.085	14540.96
811.414	14547.29
811.744	14279.05
812.073	14380.29
812.403	14347.29
812.732	14273.62
813.061	14190.91
813.39	14197.69
813.719	14184.81
814.049	14161.53
814.378	14106.17
814.707	14014.87
815.036	14092.16
815.365	13940.75
815.693	13856.91
816.022	13930.13
816.351	13865.27
816.68	13733.3
817.008	13842.67
817.337	13659.17
817.665	13670.7
817.994	13708.89
818.322	13685.16
818.651	13612.4
818.979	13556.13
819.307	13617.59
819.636	13573.75
819.964	13487.2
820.292	13586.18
820.62	13540.99
820.948	13460.76
821.276	13517.94
821.604	13419.63
821.932	13523.36
822.259	13543.02
822.587	13393.19
822.915	13404.27
823.243	13522.68
823.57	13413.98
823.898	13406.98
824.225	13418.73
824.553	13350.71
824.88	13388.9
825.207	13477.71
825.535	13366.75
825.862	13480.42
826.189	13408.56
826.516	13412.4
826.843	13470.25
827.17	13493.3
827.497	13469.8
827.824	13449.91
828.151	13436.36
828.478	13331.73
828.805	13449.01
829.131	13386.64
829.458	13448.11
829.785	13280.88
830.111	13399.29
830.438	13451.95
830.764	13389.13
831.09	13413.98
831.417	13392.74
831.743	13453.3
832.069	13381.44
832.395	13393.42
832.722	13418.28
833.048	13354.55
833.374	13290.6
833.7	13292.4
834.026	13293.53
834.351	13340.54
834.677	13273.42
835.003	13325.85
835.329	13258.51
835.654	13253.31
835.98	13211.95
836.306	13179.41
836.631	13177.38
836.956	13169.02
837.282	13155.46
837.607	13085.18
837.932	13139.41
838.258	13094.22
838.583	13086.31
838.908	12995.01
839.233	12973.77
839.558	13047.21
839.883	12918.4
840.208	12799.08
840.533	12946.43
840.858	12912.08
841.182	12937.16
841.507	12903.49
841.832	12824.62
842.156	12733.1
842.481	12752.98
842.805	12811.74
843.13	12716.6
843.454	12688.58
843.778	12588.24
844.103	12594.57
844.427	12651.07
844.751	12572.88
845.075	12512.54
845.399	12383.73
845.723	12453.78
846.047	12475.03
846.371	12390.06
846.695	12276.61
847.019	12264.86
847.343	12183.51
847.666	12163.85
847.99	12128.14
848.313	12099.89
848.637	11937.41
848.96	11938.09
849.284	11868.94
849.607	11767.93
849.931	11835.49
850.254	11780.35
850.577	11692.67
850.9	11537.65
851.223	11631.43
851.546	11590.75
851.869	11514.82
852.192	11589.62
852.515	11446.35
852.838	11365.9
853.161	11455.62
853.483	11354.83
853.806	11207.49
854.129	11210.65
854.451	11254.94
854.774	11199.13
855.096	11158.45
855.419	11096.3
855.741	11087.26
856.063	10990.32
856.385	11012.69
856.708	10987.83
857.03	10859.47
857.352	10986.48
857.674	10904.9
857.996	10820.15
858.318	10795.97
858.64	10805.46
858.961	10731.34
859.283	10717.78
859.605	10725.47
859.926	10635.07
860.248	10686.6
860.57	10524.79
860.891	10645.02
861.212	10566.6
861.534	10440.05
861.855	10537
862.176	10566.83
862.498	10533.61
862.819	10499.48
863.14	10410.67
863.461	10404.35
863.782	10411.58
864.103	10404.57
864.424	10331.58
864.745	10366.61
865.065	10376.32
865.386	10287.06
865.707	10234.86
866.027	10238.25
866.348	10172.03
866.668	10225.37
866.989	10242.54
867.309	10067.63
867.63	10215.88
867.95	10177.01
868.27	10048.87
868.59	10090.46
868.91	10046.84
869.23	10061.98
869.55	9988.99
869.87	10075.31
870.19	10066.5
870.51	10067.18
870.83	9978.82
871.15	9938.59
871.469	9940.63
871.789	9980.18
872.109	9931.36
872.428	9865.83
872.748	9952.15
873.067	9852.72
873.386	9868.54
873.706	9923.45
874.025	9839.16
874.344	9769.33
874.663	9821.31
874.982	9800.07
875.301	9773.18
875.62	9803.46
875.939	9680.3
876.258	9720.97
876.577	9660.64
876.896	9722.33
877.214	9683.46
877.533	9685.72
877.852	9662.44
878.17	9653.63
878.489	9592.62
878.807	9664.48
879.125	9633.74
879.444	9545.38
879.762	9544.25
880.08	9538.38
880.398	9471.94
880.716	9502.9
881.034	9519.85
881.352	9349.68
881.67	9368.44
881.988	9389
882.306	9370.93
882.624	9401.21
882.941	9244.15
883.259	9247.54
883.577	9291.61
883.894	9314.66
884.212	9273.08
884.529	9243.47
884.846	9246.18
885.164	9174.55
885.481	9151.5
885.798	9146.75
886.115	9138.39
886.432	9141.78
886.75	9058.39
887.067	9116.24
887.383	9042.35
887.7	9090.26
888.017	8990.14
888.334	9019.75
888.651	8966.87
888.967	8940.65
889.284	8878.96
889.6	8875.12
889.917	8782.92
890.233	8854.56
890.55	8801.45
890.866	8825.63
891.182	8685.29
891.498	8756.7
891.815	8683.94
892.131	8706.31
892.447	8630.15
892.763	8638.52
893.079	8653.88
893.395	8575.92
893.71	8531.17
894.026	8529.59
894.342	8519.2
894.657	8462.48
894.973	8442.36
895.289	8460.89
895.604	8434.23
895.92	8309.26
896.235	8317.39
896.55	8270.16
896.865	8322.59
897.181	8315.36
897.496	8251.63
897.811	8180.45
898.126	8126.21
898.441	8170.28
898.756	8086.89
899.071	8081.47
899.386	8102.48
899.7	8004.63
900.015	7969.15
900.33	7920.34
900.644	7939.1
900.959	7851.64
901.273	7887.12
901.588	7855.26
901.902	7806.9
902.216	7795.6
902.531	7763.74
902.845	7722.16
903.159	7761.48
903.473	7665.89
903.787	7675.6
904.101	7642.61
904.415	7592.22
904.729	7588.83
905.042	7517.87
905.356	7504.08
905.67	7501.82
905.984	7515.83
906.297	7473.8
906.611	7380.7
906.924	7353.8
907.237	7364.88
907.551	7297.53
907.864	7255.95
908.177	7289.17
908.491	7284.65
908.804	7238.78
909.117	7163.07
909.43	7112.45
909.743	7056.86
910.056	7060.48
910.368	7056.86
910.681	7049.41
910.994	7035.85
911.307	6952.68
911.619	6898.9
911.932	6899.8
912.244	6811.22
912.557	6871.56
912.869	6789.75
913.181	6799.02
913.494	6741.62
913.806	6692.58
914.118	6676.53
914.43	6681.51
914.742	6645.12
915.054	6590.43
915.366	6577.78
915.678	6584.33
915.99	6539.14
916.302	6458.69
916.613	6497.78
916.925	6463.21
917.236	6438.35
917.548	6374.85
917.859	6378.01
918.171	6339.14
918.482	6332.59
918.794	6314.06
919.105	6358.8
919.416	6251.91
919.727	6245.58
920.038	6226.38
920.349	6168.3
920.66	6117
920.971	6169.43
921.282	6185.7
921.593	6075.87
921.903	6014.63
922.214	6074.74
922.525	6021.86
922.835	5971.24
923.146	5939.15
923.456	5898.93
923.767	5923.11
924.077	5909.55
924.387	5889.21
924.697	5850.11
925.008	5815.77
925.318	5816.67
925.628	5811.25
925.938	5733.96
926.248	5696.9
926.558	5724.47
926.867	5736.9
927.177	5619.39
927.487	5578.48
927.796	5593.17
928.106	5554.53
928.416	5522.21
928.725	5515.21
929.034	5536
929.344	5514.76
929.653	5455.32
929.962	5450.35
930.271	5442.22
930.581	5388.66
930.89	5390.92
931.199	5297.36
931.508	5309.11
931.817	5286.97
932.125	5263.01
932.434	5252.39
932.743	5181.88
933.051	5192.28
933.36	5138.49
933.669	5174.43
933.977	5089.91
934.286	5087.42
934.594	5049.01
934.902	5065.05
935.21	5068.21
935.519	5033.86
935.827	5032.28
936.135	4974.66
936.443	4942.57
936.751	4955.67
937.059	4948.9
937.367	4913.19
937.674	4904.6
937.982	4886.07
938.29	4841.1
938.597	4859.18
938.905	4790.93
939.213	4763.59
939.52	4712.07
939.827	4762.23
940.135	4702.35
940.442	4693.08
940.749	4688.56
941.056	4735.34
941.363	4617.6
941.67	4631.39
941.977	4602.69
942.284	4497.38
942.591	4570.15
942.898	4548.68
943.205	4512.52
943.511	4450.38
943.818	4503.94
944.125	4435.24
944.431	4434.33
944.738	4428.46
945.044	4417.38
945.35	4389.81
945.657	4345.97
945.963	4346.43
946.269	4297.61
946.575	4269.59
946.881	4301.68
947.187	4245.86
947.493	4253.55
947.799	4237.73
948.105	4233.21
948.41	4197.28
948.716	4205.41
949.022	4188.46
949.327	4194.11
949.633	4065.3
949.938	4118.63
950.244	4104.85
950.549	4075.02
950.854	4063.72
951.16	4055.36
951.465	3982.37
951.77	3958.64
952.075	3984.85
952.38	3985.3
952.685	3987.34
952.99	3971.52
953.294	3873.44
953.599	3942.14
953.904	3878.19
954.209	3856.95
954.513	3886.78
954.818	3833.67
955.122	3832.99
955.426	3846.1
955.731	3796.16
956.035	3781.24
956.339	3758.19
956.643	3767.46
956.948	3723.62
957.252	3740.34
957.556	3692.88
957.86	3687.91
958.163	3665.09
958.467	3651.75
958.771	3652.88
959.075	3604.75
959.378	3596.61
959.682	3612.43
959.985	3569.5
960.289	3564.3
960.592	3515.26
960.896	3523.4
961.199	3496.28
961.502	3498.09
961.805	3491.98
962.108	3432.78
962.411	3433.68
962.714	3459.67
963.017	3494.47
963.32	3445.66
963.623	3385.09
963.926	3419.44
964.228	3368.15
964.531	3376.28
964.833	3331.31
965.136	3275.49
965.438	3306.45
965.741	3280.69
966.043	3284.98
966.345	3216.51
966.648	3251.99
966.95	3244.08
967.252	3232.56
967.554	3160.69
967.856	3213.35
968.158	3165.21
968.46	3157.76
968.761	3155.04
969.063	3153.69
969.365	3164.08
969.666	3102.16
969.968	3098.1
970.269	3050.87
970.571	3094.25
970.872	3029.85
971.174	3033.92
971.475	3039.57
971.776	3030.98
972.077	3042.96
972.378	2970.87
972.679	2960.92
972.98	3001.6
973.281	2982.85
973.582	2925.45
973.883	2933.58
974.183	2924.77
974.484	2869.63
974.785	2894.03
975.085	2861.27
975.386	2865.11
975.686	2813.36
975.986	2805
976.287	2821.27
976.587	2763.87
976.887	2791.21
977.187	2847.71
977.487	2764.32
977.787	2775.85
978.087	2716.86
978.387	2754.6
978.687	2730.87
978.987	2719.58
979.286	2714.6
979.586	2722.06
979.885	2631.67
980.185	2658.79
980.484	2657.88
980.784	2609.07
981.083	2629.41
981.382	2614.04
981.682	2612.69
981.981	2582.63
982.28	2595.96
982.579	2559.35
982.878	2584.44
983.177	2556.19
983.475	2533.59
983.774	2511.45
984.073	2524.33
984.372	2488.62
984.67	2478
984.969	2486.14
985.267	2473.48
985.566	2476.42
985.864	2465.8
986.162	2459.02
986.461	2427.83
986.759	2427.83
987.057	2402.3
987.355	2381.96
987.653	2381.96
987.951	2380.6
988.249	2355.74
988.547	2318.46
988.844	2334.05
989.142	2340.83
989.44	2303.77
989.737	2280.26
990.035	2311
990.332	2278.23
990.63	2270.55
990.927	2263.32
991.224	2240.94
991.521	2251.57
991.819	2239.36
992.116	2209.98
992.413	2228.74
992.71	2214.28
993.006	2190.55
993.303	2167.27
993.6	2186.48
993.897	2159.36
994.193	2161.62
994.49	2137.9
994.787	2127.5
995.083	2074.39
995.379	2096.31
995.676	2130.66
995.972	2083.43
996.268	2065.13
996.565	2078.24
996.861	2078.91
997.157	2034.17
997.453	2035.98
997.749	1997.11
998.044	1983.78
998.34	1986.04
998.636	2009.76
998.932	1985.36
999.227	1985.36
999.523	1975.19
999.818	1948.97
1000.114	1960.05
1000.409	1927.28
1000.704	1905.81
1001	1914.85
1001.295	1906.72
1001.59	1900.61
1001.885	1867.62
1002.18	1880.73
1002.475	1857.23
1002.77	1874.85
1003.065	1799.83
1003.359	1816.55
1003.654	1800.05
1003.949	1817.23
1004.243	1809.77
1004.538	1763.44
1004.832	1795.98
1005.127	1771.8
1005.421	1776.55
1005.715	1764.35
1006.009	1758.02
1006.304	1707.85
1006.598	1714.86
1006.892	1724.35
1007.186	1701.07
1007.48	1727.06
1007.773	1698.81
1008.067	1681.64
1008.361	1655.87
1008.655	1664.01
1008.948	1652.94
1009.242	1657
1009.535	1619.49
1009.829	1601.86
1010.122	1604.35
1010.415	1598.02
1010.708	1590.11
1011.001	1619.94
1011.295	1562.09
1011.588	1598.25
1011.881	1581.98
1012.173	1545.82
1012.466	1541.08
1012.759	1497.01
1013.052	1505.37
1013.344	1505.37
1013.637	1522.32
1013.93	1513.73
1014.222	1504.92
1014.514	1479.38
1014.807	1488.2
1015.099	1480.29
1015.391	1489.55
1015.683	1422.66
1015.976	1488.65
1016.268	1444.58
1016.56	1417.24
1016.851	1410.46
1017.143	1415.2
1017.435	1385.6
1017.727	1377.46
1018.018	1409.78
1018.31	1366.84
1018.602	1365.49
1018.893	1386.5
1019.185	1337.46
1019.476	1321.42
1019.767	1342.89
1020.058	1328.88
1020.35	1313.28
1020.641	1332.04
1020.932	1309.44
1021.223	1260.4
1021.514	1296.56
1021.804	1270.35
1022.095	1270.57
1022.386	1259.95
1022.677	1233.74
1022.967	1213.63
1023.258	1214.53
1023.548	1228.99
1023.839	1247.98
1024.129	1214.98
1024.419	1200.97
1024.709	1191.25
1025	1182.67
1025.29	1196.23
1025.58	1186.96
1025.87	1179.05
1026.16	1147.87
1026.449	1148.09
1026.739	1158.03
1027.029	1149
1027.319	1134.98
1027.608	1135.89
1027.898	1085.49
1028.187	1103.12
1028.477	1114.42
1028.766	1097.02
1029.055	1085.72
1029.344	1097.02
1029.634	1067.42
1029.923	1046.17
1030.212	1059.05
1030.501	1039.62
1030.79	1050.92
1031.078	1027.19
1031.367	1005.95
1031.656	1048.43
1031.945	1043.46
1032.233	1004.82
1032.522	998.49
1032.81	978.15
1033.099	996
1033.387	1000.52
1033.675	993.07
1033.963	968.21
1034.251	972.05
1034.54	947.64
1034.828	955.33
1035.116	944.48
1035.403	960.75
1035.691	949.9
1035.979	925.05
1036.267	931.83
1036.554	924.82
1036.842	919.17
1037.129	906.97
1037.417	893.86
1037.704	898.83
1037.992	893.41
1038.279	891.37
1038.566	872.62
1038.853	872.62
1039.14	872.62
