Data from hue_24_FLMS001491_00081.txt Node
Date: Tue Feb 07 17:12:51 GMT 2017
User: dcchb
Spectrometer: FLMS00149
Trigger mode: 0
Integration Time (sec): 2.000000E-2
Scans to average: 10
Electric dark correction enabled: true
Nonlinearity correction enabled: false
Boxcar width: 0
XAxis mode: Wavelengths
Number of Pixels in Spectrum: 2048
>>>>>Begin Spectral Data<<<<<
341.393	-8.33
341.776	-8.33
342.16	-8.33
342.543	-61.89
342.927	-83.13
343.31	-69.8
343.693	-65.28
344.077	-53.53
344.46	-61.67
344.843	-63.02
345.226	-60.99
345.61	-27.77
345.993	-4.49
346.376	-3.81
346.759	0.03
347.142	27.37
347.525	44.32
347.908	52.23
348.291	84.55
348.674	87.26
349.057	114.6
349.44	116.86
349.823	132
350.206	138.78
350.588	198.44
350.971	216.07
351.354	239.57
351.737	244.32
352.119	263.07
352.502	257.65
352.884	288.61
353.267	264.2
353.65	291.55
354.032	310.3
354.414	307.82
354.797	306.01
355.179	322.28
355.562	322.73
355.944	337.19
356.326	301.04
356.709	314.14
357.091	331.09
357.473	335.61
357.855	332.22
358.238	322.05
358.62	348.49
359.002	357.53
359.384	347.82
359.766	329.74
360.148	325.44
360.53	328.83
360.912	335.16
361.294	345.56
361.676	335.39
362.057	332.9
362.439	315.73
362.821	327.7
363.203	327.03
363.584	344.43
363.966	322.96
364.348	323.41
364.729	328.38
365.111	328.83
365.493	323.64
365.874	319.57
366.256	311.66
366.637	325.67
367.019	306.46
367.4	320.7
367.781	330.19
368.163	310.08
368.544	307.14
368.925	298.55
369.306	324.31
369.688	321.83
370.069	323.18
370.45	312.56
370.831	320.25
371.212	292.68
371.593	318.89
371.974	326.8
372.355	329.51
372.736	328.83
373.117	304.2
373.498	311.66
373.879	308.27
374.26	315.95
374.641	317.53
375.021	316.86
375.402	336.06
375.783	325.22
376.163	332.9
376.544	331.54
376.925	333.35
377.305	329.29
377.686	315.05
378.066	324.54
378.447	315.95
378.827	317.53
379.208	331.77
379.588	331.32
379.968	352.79
380.349	336.29
380.729	337.19
381.109	333.35
381.489	353.24
381.87	371.54
382.25	334.03
382.63	336.06
383.01	346.01
383.39	349.17
383.77	332.67
384.15	354.14
384.53	347.59
384.91	342.84
385.29	343.3
385.67	341.49
386.049	360.7
386.429	331.32
386.809	364.31
387.189	355.73
387.568	360.47
387.948	380.36
388.328	364.09
388.707	335.61
389.087	364.54
389.466	354.14
389.846	338.55
390.225	368.61
390.605	363.86
390.984	366.8
391.363	374.26
391.743	377.87
392.122	367.02
392.501	347.36
392.881	370.19
393.26	366.12
393.639	383.97
394.018	382.84
394.397	368.38
394.776	381.94
395.155	387.81
395.534	383.07
395.913	387.36
396.292	400.47
396.671	394.59
397.05	371.32
397.429	382.62
397.808	402.05
398.186	383.3
398.565	406.57
398.944	414.48
399.323	390.53
399.701	409.51
400.08	379.45
400.458	404.09
400.837	378.78
401.215	397.53
401.594	418.32
401.972	399.79
402.351	406.57
402.729	416.51
403.107	403.63
403.486	431.43
403.864	413.58
404.242	435.95
404.62	403.41
404.999	414.03
405.377	425.33
405.755	417.64
406.133	412.22
406.511	427.59
406.889	440.02
407.267	405.89
407.645	421.94
408.023	475.5
408.401	434.82
408.779	457.64
409.156	444.99
409.534	444.54
409.912	455.61
410.29	452.9
410.667	455.38
411.045	455.38
411.422	464.65
411.8	471.65
412.178	475.5
412.555	483.63
412.933	473.91
413.31	467.13
413.687	486.8
414.065	480.02
414.442	501.94
414.819	488.38
415.197	518.88
415.574	504.65
415.951	484.54
416.328	493.12
416.705	511.43
417.082	504.2
417.46	520.24
417.837	532.9
418.214	518.43
418.591	527.92
418.967	535.38
419.344	523.4
419.721	507.36
420.098	545.78
420.475	548.26
420.852	520.01
421.228	569.73
421.605	528.38
421.982	539
422.358	554.14
422.735	576.51
423.111	550.07
423.488	577.87
423.864	550.3
424.241	558.66
424.617	564.31
424.994	571.09
425.37	584.42
425.746	581.48
426.123	573.57
426.499	590.3
426.875	597.3
427.251	614.7
427.627	601.82
428.003	589.84
428.379	609.5
428.756	613.12
429.132	614.48
429.507	620.35
429.883	636.17
430.259	627.58
430.635	635.04
431.011	658.99
431.387	645.89
431.763	674.36
432.138	674.13
432.514	679.11
432.89	667.81
433.265	680.01
433.641	695.83
434.016	701.7
434.392	695.15
434.767	714.36
435.143	702.61
435.518	719.78
435.894	716.39
436.269	715.04
436.644	720.91
437.02	743.74
437.395	720.01
437.77	738.31
438.145	753.23
438.52	744.19
438.895	771.99
439.271	756.17
439.646	776.05
440.021	776.28
440.395	776.51
440.77	768.82
441.145	791.87
441.52	782.15
441.895	769.05
442.27	797.52
442.645	803.62
443.019	791.19
443.394	839.1
443.769	837.07
444.143	830.29
444.518	814.02
444.892	828.03
445.267	813.11
445.641	833.23
446.016	822.15
446.39	844.53
446.764	861.47
447.139	842.49
447.513	842.04
447.887	855.15
448.262	891.3
448.636	905.54
449.01	893.34
449.384	869.16
449.758	889.5
450.132	885.88
450.506	901.25
450.88	912.55
451.254	923.17
451.628	926.78
452.002	944.41
452.376	938.31
452.75	956.39
453.123	935.37
453.497	974.69
453.871	959.1
454.244	988.25
454.618	986.22
454.992	1004.3
455.365	1009.49
455.739	1021.92
456.112	1040.68
456.486	1044.29
456.859	1054.46
457.232	1033.67
457.606	1062.37
457.979	1081.58
458.352	1081.58
458.725	1094.01
459.099	1103.05
459.472	1108.7
459.845	1128.59
460.218	1149.83
460.591	1128.59
460.964	1163.84
461.337	1200.22
461.71	1175.14
462.083	1216.95
462.456	1202.48
462.829	1223.05
463.201	1230.05
463.574	1272.09
463.947	1271.18
464.32	1280.45
464.692	1303.27
465.065	1282.48
465.438	1289.03
465.81	1344.4
466.183	1351.63
466.555	1352.08
466.928	1379.65
467.3	1348.24
467.672	1414.91
468.045	1426.88
468.417	1457.62
468.789	1431.18
469.161	1481.35
469.534	1486.54
469.906	1497.16
470.278	1551.17
470.65	1563.15
471.022	1576.71
471.394	1600.66
471.766	1607.9
472.138	1639.76
472.51	1672.75
472.882	1706.42
473.253	1698.29
473.625	1747.55
473.997	1789.59
474.369	1801.34
474.74	1822.81
475.112	1839.3
475.484	1875.69
475.855	1925.63
476.227	1935.8
476.598	1970.82
476.97	2004.72
477.341	2019.41
477.713	2086.53
478.084	2099.63
478.455	2170.37
478.827	2203.36
479.198	2238.84
479.569	2267.09
479.94	2320.19
480.311	2342.11
480.682	2408.1
481.053	2423.24
481.424	2523.8
481.795	2546.4
482.166	2549.34
482.537	2647.42
482.908	2659.85
483.279	2754.08
483.65	2728.09
484.021	2836.56
484.391	2843.34
484.762	2909.33
485.133	2977.8
485.503	3005.37
485.874	3063.68
486.244	3097.12
486.615	3168.08
486.985	3210.34
487.356	3246.72
487.726	3286.5
488.097	3363.1
488.467	3390.67
488.837	3453.72
489.207	3554.06
489.578	3553.61
489.948	3601.97
490.318	3716.77
490.688	3709.76
491.058	3752.47
491.428	3861.4
491.798	3813.26
492.168	3931.45
492.538	3994.95
492.908	3983.88
493.278	4081.73
493.648	4130.54
494.017	4163.53
494.387	4190.88
494.757	4270.42
495.126	4292.34
495.496	4351.78
495.866	4312.01
496.235	4429.52
496.605	4432.91
496.974	4497.76
497.344	4540.02
497.713	4565.78
498.082	4604.43
498.452	4674.48
498.821	4709.51
499.19	4721.03
499.559	4773.01
499.928	4796.06
500.298	4782.05
500.667	4869.5
501.036	4869.96
501.405	4952.67
501.774	4913.12
502.143	4974.36
502.512	5005.09
502.88	5034.47
503.249	5051.42
503.618	5094.81
503.987	5129.61
504.356	5144.3
504.724	5145.66
505.093	5181.13
505.462	5222.94
505.83	5275.14
506.199	5311.3
506.567	5352.2
506.936	5347.46
507.304	5380
507.672	5452.31
508.041	5506.78
508.409	5465.87
508.777	5482.37
509.145	5579.99
509.514	5577.28
509.882	5607.11
510.25	5610.95
510.618	5681.46
510.986	5660.44
511.354	5715.58
511.722	5739.99
512.09	5747.67
512.458	5734.57
512.826	5819.54
513.193	5848.24
513.561	5821.57
513.929	5907.67
514.297	5980.66
514.664	5972.07
515.032	5982.92
515.4	6017.72
515.767	6057.27
516.135	6071.73
516.502	6031.73
516.869	6133.65
517.237	6179.07
517.604	6145.86
517.972	6243.25
518.339	6210.94
518.706	6213.65
519.073	6279.86
519.44	6276.02
519.808	6369.13
520.175	6274.89
520.542	6405.06
520.909	6423.14
521.276	6457.26
521.643	6537.26
522.009	6536.58
522.376	6526.18
522.743	6565.51
523.11	6611.38
523.477	6729.12
523.843	6691.83
524.21	6760.08
524.577	6835.33
524.943	6876.01
525.31	6877.59
525.676	6942.22
526.043	6934.99
526.409	7042.1
526.776	7058.6
527.142	7045.49
527.508	7085.27
527.874	7154.42
528.241	7181.08
528.607	7215.66
528.973	7224.7
529.339	7277.58
529.705	7314.19
530.071	7407.97
530.437	7425.82
530.803	7373.85
531.169	7524.8
531.535	7511.47
531.901	7478.7
532.267	7562.99
532.632	7624.46
532.998	7594.86
533.364	7726.6
533.73	7731.35
534.095	7796.43
534.461	7810.22
534.826	7849.77
535.192	7864.68
535.557	7921.18
535.923	7943.55
536.288	7918.24
536.653	8025.13
537.019	7984
537.384	7975.86
537.749	7981.06
538.114	8132.24
538.479	8115.75
538.845	8190.32
539.21	8148.97
539.575	8179.7
539.94	8249.53
540.305	8265.57
540.67	8316.42
541.034	8278
541.399	8329.98
541.764	8313.48
542.129	8402.29
542.494	8391.45
542.858	8468.28
543.223	8507.15
543.587	8518.22
543.952	8555.28
544.316	8593.7
544.681	8612.01
545.045	8680.48
545.41	8686.81
545.774	8735.17
546.138	8765.22
546.503	8724.77
546.867	8831.21
547.231	8905.78
547.595	8931.32
547.959	8982.16
548.324	8899.46
548.688	8981.49
549.052	8939.68
549.416	8962.5
549.779	9039.34
550.143	9082.95
550.507	9171.09
550.871	9146.45
551.235	9134.48
551.599	9216.06
551.962	9290.18
552.326	9255.83
552.689	9320.01
553.053	9316.17
553.417	9313.91
553.78	9446.56
554.143	9428.93
554.507	9390.74
554.87	9464.19
555.234	9562.04
555.597	9516.84
555.96	9576.5
556.323	9603.17
556.686	9623.05
557.05	9686.78
557.413	9696.5
557.776	9720.68
558.139	9825.08
558.502	9791.86
558.865	9821.46
559.228	9904.17
559.59	9904.85
559.953	9868.47
560.316	10049.93
560.679	10010.84
561.041	10143.04
561.404	10180.1
561.767	10163.6
562.129	10124.96
562.492	10215.13
562.854	10211.06
563.217	10221.68
563.579	10289.25
563.941	10311.17
564.304	10350.72
564.666	10445.63
565.028	10418.96
565.39	10495.57
565.753	10536.02
566.115	10484.05
566.477	10608.79
566.839	10668.45
567.201	10667.09
567.563	10568.11
567.925	10739.41
568.287	10769.91
568.648	10827.31
569.01	10846.3
569.372	10928.78
569.734	10889.46
570.095	11020.98
570.457	11040.19
570.819	11171.49
571.18	11082.9
571.542	11123.58
571.903	11260.3
572.265	11280.18
572.626	11335.55
572.987	11420.29
573.349	11432.95
573.71	11448.09
574.071	11604.47
574.432	11611.02
574.794	11731.47
575.155	11683.56
575.516	11712.94
575.877	11844.46
576.238	11937.34
576.599	12000.62
576.96	12072.93
577.32	12078.81
577.681	12283.1
578.042	12346.37
578.403	12356.31
578.763	12522.86
579.124	12528.74
579.485	12639.24
579.845	12837.2
580.206	12862.06
580.566	12877.66
580.927	13131.66
581.287	13237.42
581.648	13314.71
582.008	13562.16
582.368	13692.1
582.728	13774.81
583.089	13909.94
583.449	14104.06
583.809	14292.76
584.169	14472.42
584.529	14549.25
584.889	14837.6
585.249	14900.65
585.609	15102.68
585.969	15406.4
586.329	15500.86
586.688	15838.26
587.048	16021.3
587.408	16175.2
587.768	16461.52
588.127	16684.34
588.487	16827.61
588.846	17206.36
589.206	17340.59
589.565	17678.89
589.925	17978.76
590.284	18183.28
590.643	18498.3
591.003	18729.48
591.362	19124.95
591.721	19314.55
592.08	19576.01
592.44	19979.84
592.799	20235.43
593.158	20474.97
593.517	20770.56
593.876	21076.54
594.235	21368.73
594.593	21671.77
594.952	21950.19
595.311	22313.79
595.67	22588.13
596.029	23015.69
596.387	23356.7
596.746	23615.45
597.104	23778.61
597.463	24214.53
597.822	24555.09
598.18	24691.81
598.538	25002.99
598.897	25392.13
599.255	25577.66
599.613	26083.64
599.972	26347.58
600.33	26800.68
600.688	27011.75
601.046	27263.27
601.404	27760.65
601.762	27926.75
602.12	28276.35
602.478	28574.42
602.836	28829.78
603.194	29011.02
603.552	29376.88
603.91	29523.77
604.268	30069.75
604.625	30049.18
604.983	30529.17
605.341	30675.61
605.698	31166.89
606.056	31419.32
606.413	31630.83
606.771	31977.27
607.128	32277.82
607.485	32297.26
607.843	32555.33
608.2	33075.09
608.557	33383.11
608.914	33413.61
609.272	33791
609.629	34133.37
609.986	34364.77
610.343	34440.7
610.7	34921.37
611.057	35075.72
611.414	35259.21
611.771	35414.69
612.127	35682.25
612.484	35798.86
612.841	36197.49
613.198	36082.7
613.554	36465.28
613.911	36903.01
614.267	36855.56
614.624	37017.13
614.98	37285.38
615.337	37597.68
615.693	37800.39
616.05	37825.7
616.406	38233.15
616.762	38236.99
617.118	38292.58
617.475	38522.63
617.831	38698.22
618.187	39004.65
618.543	39015.5
618.899	39363.74
619.255	39348.37
619.611	39573.23
619.967	39702.26
620.323	39830.17
620.678	39813.44
621.034	39938.19
621.39	40113.78
621.746	40243.72
622.101	40614.33
622.457	40404.62
622.812	40652.74
623.168	40892.29
623.523	40924.83
623.879	41190.36
624.234	40941.1
624.589	41215.44
624.945	41224.48
625.3	41317.36
625.655	41420.86
626.01	41477.81
626.365	41593.51
626.72	41574.98
627.075	41562.33
627.43	41821.08
627.785	41741.08
628.14	41889.77
628.495	41953.73
628.85	42032.14
629.205	41849.32
629.559	42138.36
629.914	42040.73
630.269	42166.15
630.623	42050.67
630.978	42207.05
631.332	42521.62
631.687	42470.32
632.041	42357.11
632.396	42484.11
632.75	42284.11
633.104	42501.96
633.459	42284.11
633.813	42381.74
634.167	42324.57
634.521	42637.33
634.875	42673.93
635.229	42579.25
635.583	42267.84
635.937	42429.2
636.291	42364.11
636.645	42413.6
636.999	42281.85
637.352	42615.86
637.706	42325.47
638.06	42414.51
638.413	42381.06
638.767	42352.13
639.121	42406.6
639.474	42211.35
639.828	42419.03
640.181	42350.78
640.534	42330.89
640.888	42213.61
641.241	42174.29
641.594	42355.75
641.947	42335.64
642.301	42204.12
642.654	42260.16
643.007	42392.13
643.36	42316.2
643.713	42324.79
644.066	42352.59
644.419	42174.29
644.771	41947.63
645.124	41559.84
645.477	41603.23
645.83	41316.46
646.182	41253.18
646.535	41010.7
646.888	41305.16
647.24	41128.44
647.593	41270.13
647.945	41259.96
648.298	41012.28
648.65	41077.82
649.002	40894.32
649.355	41011.15
649.707	40982.23
650.059	41210.02
650.411	41565.94
650.763	41718.48
651.115	42153.27
651.467	41997.34
651.819	41824.01
652.171	41818.36
652.523	41860.62
652.875	41670.57
653.227	41557.81
653.578	41959.6
653.93	41802.32
654.282	41693.17
654.633	41509.22
654.985	41745.15
655.337	41665.6
655.688	41829.21
656.039	41846.84
656.391	41574.98
656.742	41674.19
657.094	41668.09
657.445	41744.92
657.796	41569.56
658.147	41736.78
658.498	41608.2
658.849	41684.58
659.2	41612.49
659.551	41484.59
659.902	41588.31
660.253	41556
660.604	41560.97
660.955	41396.91
661.306	41542.21
661.656	41465.6
662.007	41569.56
662.358	41517.58
662.708	41569.1
663.059	41515.55
663.409	41271.94
663.76	41587.86
664.11	41637.35
664.461	41437.36
664.811	41533.4
665.161	41437.36
665.511	41438.94
665.862	41448.2
666.212	41556.9
666.562	41600.29
666.912	41503.34
667.262	41286.63
667.612	41467.64
667.962	41420.18
668.312	41411.59
668.662	41530.24
669.011	41383.35
669.361	41273.29
669.711	41300.41
670.06	41189.91
670.41	41238.94
670.76	41111.26
671.109	41287.98
671.459	41136.57
671.808	41169.12
672.157	41261.99
672.507	41024.49
672.856	41094.54
673.205	41222
673.554	41276.68
673.904	41104.03
674.253	41374.53
674.602	41168.44
674.951	40624.72
675.3	40525.52
675.649	41079.85
675.998	41015
676.346	41192.17
676.695	41220.64
677.044	40826.75
677.393	41043.92
677.741	41003.02
678.09	40957.37
678.438	40836.02
678.787	40906.75
679.135	40810.25
679.484	40723.7
679.832	40755.11
680.181	40558.74
680.529	40823.14
680.877	40548.57
681.225	40510.38
681.573	40676.25
681.922	40322.13
682.27	40362.81
682.618	40359.19
682.966	40191.51
683.314	40262.7
683.661	40089.37
684.009	40067
684.357	40082.14
684.705	39943.38
685.053	40099.09
685.4	39927.57
685.748	39738.42
686.095	39822.48
686.443	39603.73
686.79	39492.78
687.138	39617.97
687.485	39696.61
687.832	39479.22
688.18	39696.39
688.527	39338.43
688.874	39244.42
689.221	39231.31
689.568	39031.09
689.915	39069.74
690.262	39091.88
690.609	39056.4
690.956	38846.46
691.303	38903.64
691.65	38669.29
691.997	38733.47
692.344	38367.16
692.69	38390.66
693.037	38544.78
693.383	38119.25
693.73	38307.04
694.077	37980.5
694.423	37944.79
694.769	37814.63
695.116	37679.94
695.462	37820.28
695.808	37671.81
696.155	37665.48
696.501	37319.72
696.847	37372.83
697.193	37119.28
697.539	37213.97
697.885	37069.79
698.231	36937.14
698.577	36885.16
698.923	36952.73
699.269	36747.99
699.614	36638.39
699.96	36470.71
700.306	36414.44
700.651	36373.31
700.997	36159.98
701.342	36236.59
701.688	36121.56
702.033	35909.82
702.379	35986.43
702.724	35854.68
703.069	36058.74
703.415	35517.06
703.76	35621.46
704.105	35591.41
704.45	35528.13
704.795	35288.59
705.14	35146
705.485	35392.54
705.83	35165.43
706.175	35096.96
706.52	35052.89
706.865	35035.04
707.209	35007.7
707.554	34838.89
707.899	34767.7
708.243	34569.06
708.588	34545.11
708.932	34341.27
709.277	34379.46
709.621	34475.51
709.966	34167.72
710.31	34265.34
710.654	33937.22
710.998	34035.29
711.342	33938.34
711.687	33978.12
712.031	33656.09
712.375	33811.12
712.719	33661.97
713.063	33617.9
713.407	33706.26
713.75	33477.57
714.094	33471.24
714.438	33279.15
714.782	33368.19
715.125	33273.28
715.469	33224.01
715.812	33014.3
716.156	32907.41
716.499	32965.49
716.843	32973.17
717.186	32623.13
717.53	32867.19
717.873	32794.65
718.216	32765.49
718.559	32540.42
718.902	32467.88
719.246	32581.77
719.589	32454.54
719.932	32385.62
720.275	32234.66
720.617	32235.56
720.96	32325.73
721.303	32239.86
721.646	32152.4
721.989	31984.05
722.331	32014.33
722.674	31957.83
723.016	31906.76
723.359	31930.71
723.701	31914.67
724.044	31705.64
724.386	31614.79
724.729	31754.9
725.071	31630.83
725.413	31679.87
725.755	31575.02
726.097	31424.06
726.439	31301.58
726.782	31232.2
727.124	31480.56
727.465	31168.7
727.807	31275.36
728.149	31044.18
728.491	31053.22
728.833	31110.62
729.175	30972.55
729.516	31014.58
729.858	30852.32
730.199	30926.22
730.541	30883.96
730.882	30822.95
731.224	30850.29
731.565	30696.4
731.906	30730.75
732.248	30688.03
732.589	30535.27
732.93	30445.1
733.271	30654.82
733.612	30355.39
733.953	30454.59
734.294	30353.13
734.635	30363.75
734.976	30330.3
735.317	30153.81
735.658	30155.17
735.999	30255.5
736.339	30112.68
736.68	30124.89
737.021	30132.12
737.361	29887.15
737.702	30090.99
738.042	29838.11
738.383	29807.38
738.723	30030.2
739.063	29754.5
739.404	29812.8
739.744	29753.14
740.084	29702.3
740.424	29697.1
740.764	29596.09
741.104	29744.56
741.444	29526.71
741.784	29443.77
742.124	29569.42
742.464	29529.87
742.804	29417.33
743.143	29374.17
743.483	29389.54
743.823	29235.64
744.162	29405.13
744.502	29308.41
744.841	29166.49
745.181	29345.92
745.52	29247.62
745.86	29116.1
746.199	29013.05
746.538	29058.02
746.877	29138.92
747.216	29102.77
747.556	28963.79
747.895	28981.19
748.234	28863.9
748.573	28693.51
748.911	28676.11
749.25	28826.16
749.589	28608.54
749.928	28596.11
750.267	28787.07
750.605	28625.04
750.944	28432.73
751.283	28428.43
751.621	28399.73
751.96	28278.15
752.298	28338.49
752.636	28334.42
752.975	28199.06
753.313	28071.15
753.651	28193.64
753.989	28092.4
754.327	27935.56
754.666	27875.45
755.004	27856.47
755.342	27936.69
755.679	27848.34
756.017	27692.18
756.355	27810.6
756.693	27611.96
757.031	27719.3
757.368	27397.5
757.706	27501.23
758.044	27345.75
758.381	27392.3
758.719	27387.78
759.056	27447.89
759.394	27231.63
759.731	27169.71
760.068	27033.89
760.405	26926.1
760.743	26814.24
761.08	26898.3
761.417	26712.77
761.754	26800.45
762.091	26696.5
762.428	26643.62
762.765	26543.06
763.102	26534.25
763.438	26465.77
763.775	26346.23
764.112	26397.75
764.449	26274.82
764.785	26155.05
765.122	25876.18
765.458	25990.76
765.795	25845.68
766.131	25787.15
766.467	25703.08
766.804	25659.01
767.14	25495.4
767.476	25523.65
767.812	25372.24
768.148	25411.79
768.485	25240.27
768.821	25089.31
769.157	25263.54
769.492	24925.93
769.828	24993.95
770.164	24709.44
770.5	24745.37
770.836	24701.3
771.171	24499.72
771.507	24447.07
771.842	24367.3
772.178	24297.47
772.513	24341.31
772.849	24167.08
773.184	24150.81
773.519	24133.86
773.855	23950.13
774.19	23942.22
774.525	23729.12
774.86	23872.17
775.195	23747.65
775.53	23686.41
775.865	23379.98
776.2	23295.46
776.535	23157.61
776.87	23278.96
777.205	23129.14
777.539	22977.73
777.874	23149.7
778.209	22777.73
778.543	22838.98
778.878	22682.14
779.212	22677.17
779.547	22557.63
779.881	22485.09
780.215	22357.18
780.55	22433.34
780.884	22302.94
781.218	22230.18
781.552	22212.78
781.886	22140.92
782.22	21852.11
782.554	21882.84
782.888	21682.17
783.222	21627.26
783.556	21577.31
783.889	21465.45
784.223	21284.44
784.557	21384.55
784.89	21361.05
785.224	21176.65
785.557	21098.23
785.891	21041.51
786.224	20987.05
786.558	20944.56
786.891	20722.2
787.224	20702.99
787.557	20727.84
787.891	20668.64
788.224	20511.81
788.557	20576.89
788.89	20392.49
789.223	20457.8
789.556	20296.44
789.888	20264.13
790.221	20243.34
790.554	20062.78
790.887	19968.99
791.219	19870.69
791.552	19919.5
791.884	19827.76
792.217	19796.34
792.549	19698.95
792.882	19572.39
793.214	19533.3
793.546	19566.97
793.879	19445.62
794.211	19306.64
794.543	19384.83
794.875	19287.2
795.207	19316.13
795.539	19225.06
795.871	19188
796.203	19022.13
796.535	18863.26
796.867	18861.91
797.198	18797.95
797.53	18675.7
797.862	18601.8
798.193	18667.79
798.525	18501.69
798.856	18582.36
799.188	18385.08
799.519	18291.52
799.85	18238.87
800.182	18245.2
800.513	18237.51
800.844	18023.74
801.175	18132.43
801.506	18027.58
801.837	17995.71
802.168	17963.85
802.499	17925.66
802.83	17734.25
803.161	17701.26
803.491	17755.95
803.822	17714.82
804.153	17648.38
804.483	17545.56
804.814	17484.09
805.145	17355.5
805.475	17312.34
805.805	17331.32
806.136	17348.5
806.466	17208.62
806.796	17263.98
807.126	17072.8
807.457	17016.08
807.787	17136.3
808.117	16971.56
808.447	16868.29
808.777	16948.28
809.107	16824.22
809.436	16749.19
809.766	16761.62
810.096	16730.89
810.426	16656.99
810.755	16646.37
811.085	16600.04
811.414	16598.69
811.744	16454.74
812.073	16479.14
812.403	16406.6
812.732	16225.36
813.061	16299.94
813.39	16202.09
813.719	16203.44
814.049	16185.59
814.378	16142.2
814.707	16120.96
815.036	16136.55
815.365	16052.26
815.693	15870.12
816.022	15910.8
816.351	15803.23
816.68	15723
817.008	15775.66
817.337	15711.25
817.665	15622.89
817.994	15545.61
818.322	15671.03
818.651	15541.99
818.979	15528.89
819.307	15594.19
819.636	15472.39
819.964	15454.99
820.292	15454.09
820.62	15448.66
820.948	15393.52
821.276	15419.96
821.604	15407.08
821.932	15373.18
822.259	15309
822.587	15352.17
822.915	15238.27
823.243	15329.79
823.57	15277.14
823.898	15348.33
824.225	15154.21
824.553	15335.22
824.88	15277.37
825.207	15364.82
825.535	15249.12
825.862	15306.07
826.189	15228.33
826.516	15294.32
826.843	15322.34
827.17	15310.36
827.497	15337.25
827.824	15254.32
828.151	15296.58
828.478	15324.82
828.805	15390.58
829.131	15315.56
829.458	15261.55
829.785	15269.23
830.111	15146.3
830.438	15332.28
830.764	15144.71
831.09	15205.5
831.417	15128.22
831.743	15128.22
832.069	15246.41
832.395	15112.63
832.722	15187.88
833.048	15122.34
833.374	15193.53
833.7	15098.61
834.026	15111.27
834.351	15118.27
834.677	15143.81
835.003	15088.9
835.329	15016.58
835.654	15031.95
835.98	15003.93
836.306	15019.52
836.631	14914.66
836.956	14992.18
837.282	15008.45
837.607	14864.27
837.932	14848.45
838.258	14849.58
838.583	14833.08
838.908	14720.09
839.233	14820.88
839.558	14726.42
839.883	14728
840.208	14634.67
840.533	14657.04
840.858	14659.08
841.182	14691.62
841.507	14629.25
841.832	14548.12
842.156	14490.49
842.481	14512.42
842.805	14475.13
843.13	14384.96
843.454	14436.71
843.778	14294.34
844.103	14304.96
844.427	14311.06
844.751	14381.12
845.075	14231.29
845.399	14207.11
845.723	14063.61
846.047	14153.55
846.371	14034.46
846.695	13959.66
847.019	13837.86
847.343	13856.61
847.666	13801.7
847.99	13705.43
848.313	13697.07
848.637	13580.24
848.96	13682.83
849.284	13549.28
849.607	13477.19
849.931	13376.85
850.254	13378.66
850.577	13190.64
850.9	13248.27
851.223	13205.78
851.546	13011.44
851.869	13093.24
852.192	13016.86
852.515	12932.34
852.838	12911.33
853.161	12949.97
853.483	12800.82
853.806	12770.99
854.129	12781.16
854.451	12662.29
854.774	12641.96
855.096	12542.75
855.419	12560.83
855.741	12552.69
856.063	12476.31
856.385	12397.22
856.708	12424.79
857.03	12378.23
857.352	12351.34
857.674	12356.09
857.996	12304.79
858.318	12190.44
858.64	12183.21
858.961	12200.61
859.283	12084
859.605	12079.94
859.926	12145.7
860.248	11969.66
860.57	11987.74
860.891	11942.31
861.212	11943.67
861.534	11986.15
861.855	11837.01
862.176	11934.18
862.498	11843.78
862.819	11846.5
863.14	11773.5
863.461	11771.24
863.782	11832.71
864.103	11700.29
864.424	11669.33
864.745	11810.11
865.065	11718.59
865.386	11540.29
865.707	11617.8
866.027	11680.63
866.348	11536.9
866.668	11520.18
866.989	11571.25
867.309	11376.23
867.63	11439.95
867.95	11438.6
868.27	11405.83
868.59	11440.63
868.91	11449.44
869.23	11348.2
869.55	11294.42
869.87	11394.3
870.19	11305.49
870.51	11374.64
870.83	11335.78
871.15	11238.83
871.469	11270.69
871.789	11263.69
872.109	11242.67
872.428	11154.54
872.748	11221.43
873.067	11151.6
873.386	11141.88
873.706	11134.88
874.025	11072.51
874.344	11028.89
874.663	11102.56
874.982	11007.2
875.301	10980.08
875.62	11025.73
875.939	10954.09
876.258	10994.99
876.577	10891.95
876.896	10912.51
877.214	10860.31
877.533	10933.07
877.852	10880.19
878.17	10862.12
878.489	10885.84
878.807	10832.74
879.125	10829.12
879.444	10817.6
879.762	10773.08
880.08	10773.98
880.398	10785.96
880.716	10722.91
881.034	10699.63
881.352	10677.94
881.67	10609.01
881.988	10585.96
882.306	10604.27
882.624	10555.46
882.941	10502.35
883.259	10542.35
883.577	10439.75
883.894	10406.31
884.212	10372.41
884.529	10422.58
884.846	10360.43
885.164	10371.96
885.481	10326.99
885.798	10333.54
886.115	10262.13
886.432	10277.5
886.75	10286.99
887.067	10250.38
887.383	10300.1
887.7	10178.52
888.017	10180.1
888.334	10146.43
888.651	10139.65
888.967	10131.74
889.284	10050.61
889.6	9970.39
889.917	9916.38
890.233	9972.87
890.55	9925.87
890.866	9997.96
891.182	9874.34
891.498	9884.29
891.815	9844.29
892.131	9821.46
892.447	9829.37
892.763	9736.72
893.079	9693.56
893.395	9639.55
893.71	9625.76
894.026	9689.49
894.342	9632.09
894.657	9567.01
894.973	9543.28
895.289	9474.36
895.604	9591.87
895.92	9399.78
896.235	9413.34
896.55	9360.69
896.865	9352.1
897.181	9322.49
897.496	9392.32
897.811	9308.26
898.126	9193.23
898.441	9157.98
898.756	9220.8
899.071	9117.75
899.386	9153.23
899.7	9033.69
900.015	9044.08
900.33	9006.57
900.644	8967.02
900.959	8915.27
901.273	8899.23
901.588	8856.07
901.902	8885.22
902.216	8767.93
902.531	8808.16
902.845	8803.41
903.159	8653.59
903.473	8669.18
903.787	8651.1
904.101	8616.52
904.415	8664.43
904.729	8610.65
905.042	8505.34
905.356	8497.43
905.67	8498.79
905.984	8423.08
906.297	8442.29
906.611	8347.61
906.924	8419.47
907.237	8310.77
907.551	8272.35
907.864	8243.65
908.177	8184.22
908.491	8202.3
908.804	8108.74
909.117	8134.05
909.43	8115.3
909.743	8095.41
910.056	8028.52
910.368	8002.53
910.681	7946.26
910.994	7917.79
911.307	7932.48
911.619	7932.02
911.932	7865.36
912.244	7754.4
912.557	7778.35
912.869	7734.29
913.181	7710.79
913.494	7696.1
913.806	7614.07
914.118	7651.58
914.43	7537.01
914.742	7502.88
915.054	7544.91
915.366	7511.47
915.678	7469.21
915.99	7393.05
916.302	7330.01
916.613	7337.69
916.925	7349.89
917.236	7267.63
917.548	7277.8
917.859	7270.57
918.171	7144.47
918.482	7205.71
918.794	7153.51
919.105	7086.62
919.416	7049.56
919.727	7064.48
920.038	7008.66
920.349	6987.64
920.66	6899.96
920.971	6940.18
921.282	6917.59
921.593	6842.11
921.903	6871.03
922.214	6807.98
922.525	6830.13
922.835	6760.75
923.146	6721.66
923.456	6709.23
923.767	6718.95
924.077	6620.65
924.387	6627.65
924.697	6545.39
925.008	6550.82
925.318	6459.52
925.628	6489.12
925.938	6503.13
926.248	6423.36
926.558	6432.18
926.867	6400.31
927.177	6344.04
927.487	6360.31
927.796	6300.43
928.106	6259.98
928.416	6232.86
928.725	6241.45
929.034	6130.49
929.344	6144.95
929.653	6165.52
929.962	6126.65
930.271	6069.02
930.581	6034.67
930.89	6064.5
931.199	5998.51
931.508	5978.85
931.817	5943.37
932.125	5968.91
932.434	5911.74
932.743	5930.27
933.051	5906.54
933.36	5813.89
933.669	5762.14
933.977	5794.68
934.286	5789.48
934.594	5738.41
934.902	5677.39
935.21	5666.09
935.519	5637.85
935.827	5675.81
936.135	5598.07
936.443	5558.07
936.751	5518.98
937.059	5578.41
937.367	5509.04
937.674	5479.21
937.982	5496.61
938.29	5457.51
938.597	5480.34
938.905	5400.56
939.213	5367.57
939.52	5379.1
939.827	5336.61
940.135	5299.32
940.442	5267.46
940.749	5272.21
941.056	5283.73
941.363	5194.47
941.67	5199.89
941.977	5178.88
942.284	5189.95
942.591	5111.76
942.898	5151.08
943.205	5110.85
943.511	5074.92
943.818	5084.64
944.125	5092.32
944.431	5022.04
944.738	4970.07
945.044	4996.28
945.35	4981.14
945.657	4849.62
945.963	4858.43
946.269	4878.77
946.575	4860.92
946.881	4809.17
947.187	4850.3
947.493	4780.47
947.799	4757.42
948.105	4742.95
948.41	4680.81
948.716	4701.15
949.022	4695.27
949.327	4692.11
949.633	4629.51
949.938	4564.2
950.244	4621.38
950.549	4576.86
950.854	4528.95
951.16	4567.37
951.465	4504.77
951.77	4527.37
952.075	4526.46
952.38	4473.58
952.685	4478.78
952.99	4401.27
953.294	4409.63
953.599	4361.27
953.904	4404.66
954.209	4348.16
954.513	4367.37
954.818	4268.39
955.122	4264.77
955.426	4270.2
955.731	4265.68
956.035	4239.69
956.339	4209.64
956.643	4222.97
956.948	4213.7
957.252	4144.1
957.556	4157.89
957.86	4145.46
958.163	4095.74
958.467	4060.49
958.771	4087.15
959.075	4043.09
959.378	4009.41
959.682	4037.66
959.985	4029.3
960.289	3971.22
960.592	3951.11
960.896	3955.4
961.199	3909.53
961.502	3897.33
961.805	3909.98
962.108	3872.69
962.411	3886.25
962.714	3830.44
963.017	3825.24
963.32	3871.11
963.623	3816.88
963.926	3763.32
964.228	3783.66
964.531	3753.83
964.833	3724.45
965.136	3716.09
965.438	3694.17
965.741	3642.87
966.043	3670.67
966.345	3649.65
966.648	3603.55
966.95	3620.72
967.252	3565.13
967.554	3565.13
967.856	3532.59
968.158	3559.03
968.46	3544.34
968.761	3510.9
969.063	3507.28
969.365	3487.62
969.666	3479.48
969.968	3462.99
970.269	3413.05
970.571	3442.88
970.872	3441.29
971.174	3400.16
971.475	3398.13
971.776	3373.95
972.077	3342.99
972.378	3359.49
972.679	3368.98
972.98	3329.21
973.281	3331.24
973.582	3299.83
973.883	3289.21
974.183	3268.87
974.484	3241.75
974.785	3255.54
975.085	3258.47
975.386	3231.36
975.686	3198.14
975.986	3170.57
976.287	3170.11
976.587	3148.19
976.887	3174.86
977.187	3143.67
977.487	3087.63
977.787	3108.2
978.087	3065.94
978.387	3128.76
978.687	3061.19
978.987	3044.92
979.286	2996.79
979.586	3040.85
979.885	2993.4
980.185	3006.28
980.484	2972.15
980.784	2974.64
981.083	2964.47
981.382	2931.02
981.682	2891.93
981.981	2877.92
982.28	2905.04
982.579	2865.04
982.878	2884.92
983.177	2872.72
983.475	2870.01
983.774	2831.14
984.073	2801.54
984.372	2842.89
984.67	2795.21
984.969	2773.97
985.267	2767.64
985.566	2757.92
985.864	2738.71
986.162	2691.26
986.461	2724.25
986.759	2708.88
987.057	2668.21
987.355	2676.57
987.653	2679.28
987.951	2671.37
988.249	2660.98
988.547	2649.9
988.844	2606.97
989.142	2630.47
989.44	2573.97
989.737	2592.5
990.035	2549.79
990.332	2569.68
990.63	2563.58
990.927	2540.75
991.224	2535.55
991.521	2510.47
991.819	2511.15
992.116	2522.9
992.413	2488.78
992.71	2445.84
993.006	2455.1
993.303	2459.4
993.6	2433.18
993.897	2443.81
994.193	2429.79
994.49	2400.64
994.787	2409.91
995.083	2350.93
995.379	2386.41
995.676	2356.58
995.972	2335.11
996.268	2340.53
996.565	2299.63
996.861	2299.63
997.157	2284.49
997.453	2288.1
997.749	2259.4
998.044	2245.84
998.34	2225.05
998.636	2210.37
998.932	2211.27
999.227	2219.63
999.523	2164.72
999.818	2170.59
1000.114	2187.32
1000.409	2167.88
1000.704	2162.23
1001	2147.54
1001.295	2128.56
1001.59	2109.35
1001.885	2132.4
1002.18	2125.4
1002.475	2086.08
1002.77	2107.54
1003.065	2075.23
1003.359	2049.24
1003.654	2040.43
1003.949	2042.91
1004.243	2056.25
1004.538	1980.54
1004.832	1990.03
1005.127	2004.5
1005.421	1961.56
1005.715	1959.98
1006.009	1973.54
1006.304	1971.28
1006.598	1936.7
1006.892	1945.51
1007.186	1906.42
1007.48	1926.53
1007.773	1889.92
1008.067	1893.09
1008.361	1877.04
1008.655	1862.35
1008.948	1856.25
1009.242	1834.78
1009.535	1840.66
1009.829	1779.42
1010.122	1813.77
1010.415	1809.25
1010.708	1775.8
1011.001	1795.24
1011.295	1766.99
1011.588	1765.41
1011.881	1742.13
1012.173	1724.73
1012.466	1730.6
1012.759	1736.03
1013.052	1708.46
1013.344	1715.92
1013.637	1701.68
1013.93	1700.77
1014.222	1705.97
1014.514	1650.15
1014.807	1632.98
1015.099	1645.41
1015.391	1608.57
1015.683	1640.21
1015.976	1586.65
1016.268	1592.53
1016.56	1602.7
1016.851	1591.4
1017.143	1604.73
1017.435	1582.13
1017.727	1548.46
1018.018	1518.41
1018.31	1544.85
1018.602	1507.33
1018.893	1495.81
1019.185	1491.06
1019.476	1498.07
1019.767	1465.3
1020.058	1467.33
1020.35	1452.87
1020.641	1455.13
1020.932	1435.7
1021.223	1385.53
1021.514	1456.49
1021.804	1404.96
1022.095	1418.52
1022.386	1420.33
1022.677	1388.01
1022.967	1404.06
1023.258	1365.87
1023.548	1374.68
1023.839	1336.49
1024.129	1349.37
1024.419	1315.47
1024.709	1294.91
1025	1309.15
1025.29	1335.36
1025.58	1324.06
1025.87	1278.64
1026.16	1283.61
1026.449	1274.57
1026.739	1290.62
1027.029	1264.63
1027.319	1254.01
1027.608	1245.42
1027.898	1248.58
1028.187	1235.93
1028.477	1220.11
1028.766	1208.36
1029.055	1214.01
1029.344	1211.97
1029.634	1191.41
1029.923	1206.32
1030.212	1193.22
1030.501	1179.21
1030.79	1172.65
1031.078	1168.59
1031.367	1131.52
1031.656	1116.61
1031.945	1127.68
1032.233	1124.97
1032.522	1113.67
1032.81	1083.84
1033.099	1075.25
1033.387	1083.62
1033.675	1097.85
1033.963	1055.14
1034.251	1065.76
1034.54	1048.36
1034.828	1065.99
1035.116	1018.53
1035.403	1044.97
1035.691	1022.6
1035.979	1019.66
1036.267	1008.59
1036.554	1030.96
1036.842	1023.96
1037.129	1005.2
1037.417	1003.84
1037.704	991.64
1037.992	995.93
1038.279	988.02
1038.566	959.1
1038.853	959.1
1039.14	959.1
