Data from hue_40_FLMS001491_62.txt Node
Date: Mon Feb 06 15:08:15 GMT 2017
User: dcchb
Spectrometer: FLMS00149
Trigger mode: 0
Integration Time (sec): 2.000000E-2
Scans to average: 10
Electric dark correction enabled: true
Nonlinearity correction enabled: false
Boxcar width: 0
XAxis mode: Wavelengths
Number of Pixels in Spectrum: 2048
>>>>>Begin Spectral Data<<<<<
341.393	-10.55
341.776	-10.55
342.16	-10.55
342.543	-60.27
342.927	-46.26
343.31	-51.23
343.693	-53.49
344.077	-62.53
344.46	-70.44
344.843	-81.74
345.226	-32.7
345.61	-24.34
345.993	-31.79
346.376	8.88
346.759	21.09
347.142	30.8
347.525	33.97
347.908	57.7
348.291	69
348.674	79.39
349.057	107.41
349.44	115.32
349.823	133.4
350.206	163.23
350.588	196
350.971	213.4
351.354	197.35
351.737	230.35
352.119	232.38
352.502	251.36
352.884	268.31
353.267	267.86
353.65	275.32
354.032	295.66
354.414	306.28
354.797	313.73
355.179	311.7
355.562	323.9
355.944	330.23
356.326	327.29
356.709	335.2
357.091	340.17
357.473	354.41
357.855	337.46
358.238	332.04
358.62	344.24
359.002	335.2
359.384	344.92
359.766	353.28
360.148	351.7
360.53	325.94
360.912	337.01
361.294	350.34
361.676	331.14
362.057	326.84
362.439	323.9
362.821	336.78
363.203	343.11
363.584	324.36
363.966	325.03
364.348	318.48
364.729	322.1
365.111	316.45
365.493	323.68
365.874	309.22
366.256	322.32
366.637	310.12
367.019	306.73
367.4	311.93
367.781	290.46
368.163	300.18
368.544	318.03
368.925	329.1
369.306	324.13
369.688	317.8
370.069	315.77
370.45	316.22
370.831	327.07
371.212	310.34
371.593	319.61
371.974	299.27
372.355	297.92
372.736	322.1
373.117	324.58
373.498	326.39
373.879	323.45
374.26	339.72
374.641	313.73
375.021	323.68
375.402	311.25
375.783	317.8
376.163	323.9
376.544	322.1
376.925	320.74
377.305	319.84
377.686	341.3
378.066	324.81
378.447	340.17
378.827	346.95
379.208	328.42
379.588	350.8
379.968	333.85
380.349	330.23
380.729	358.71
381.109	331.14
381.489	334.98
381.87	334.53
382.25	336.78
382.63	337.46
383.01	325.49
383.39	341.53
383.77	332.27
384.15	357.58
384.53	354.64
384.91	354.41
385.29	359.16
385.67	375.2
386.049	358.25
386.429	354.86
386.809	359.38
387.189	352.38
387.568	367.52
387.948	376.33
388.328	362.55
388.707	353.06
389.087	365.48
389.466	375.65
389.846	362.32
390.225	369.1
390.605	375.88
390.984	367.74
391.363	379.72
391.743	384.02
392.122	378.59
392.501	380.63
392.881	375.2
393.26	381.53
393.639	371.36
394.018	384.92
394.397	394.86
394.776	393.51
395.155	392.38
395.534	387.86
395.913	378.82
396.292	397.12
396.671	391.7
397.05	393.28
397.429	410.91
397.808	396.44
398.186	392.15
398.565	404.58
398.944	404.35
399.323	393.73
399.701	397.57
400.08	396.44
400.458	421.3
400.837	405.03
401.215	408.87
401.594	414.3
401.972	401.19
402.351	418.82
402.729	429.66
403.107	403.68
403.486	420.62
403.864	431.47
404.242	433.28
404.62	422.43
404.999	438.7
405.377	449.78
405.755	431.92
406.133	442.32
406.511	445.03
406.889	443.45
407.267	420.17
407.645	478.48
408.023	459.95
408.401	458.14
408.779	440.29
409.156	458.14
409.534	466.27
409.912	452.26
410.29	492.04
410.667	478.7
411.045	475.09
411.422	476.22
411.8	470.57
412.178	508.53
412.555	494.29
412.933	491.36
413.31	507.63
413.687	506.95
414.065	495.42
414.442	501.3
414.819	489.32
415.197	497.46
415.574	497.23
415.951	526.16
416.328	526.38
416.705	524.8
417.082	547.17
417.46	527.51
417.837	538.81
418.214	525.93
418.591	544.24
418.967	555.76
419.344	557.57
419.721	552.82
420.098	555.99
420.475	561.86
420.852	569.1
421.228	553.28
421.605	584.46
421.982	558.7
422.358	572.26
422.735	576.33
423.111	577.68
423.488	631.69
423.864	587.17
424.241	609.09
424.617	584.46
424.994	595.31
425.37	614.52
425.746	596.89
426.123	617.46
426.499	600.73
426.875	598.02
427.251	637.12
427.627	623.78
428.003	631.92
428.379	655.65
428.756	622.2
429.132	632.82
429.507	645.48
429.883	650.9
430.259	650
430.635	649.09
431.011	679.37
431.387	668.08
431.763	696.78
432.138	702.43
432.514	682.76
432.89	706.27
433.265	731.8
433.641	719.15
434.016	716.21
434.392	720.05
434.767	732.03
435.143	777.23
435.518	723.89
435.894	752.59
436.269	747.17
436.644	778.81
437.02	773.61
437.395	795.53
437.77	769.09
438.145	773.16
438.52	774.74
438.895	815.42
439.271	818.13
439.646	813.16
440.021	805.25
440.395	809.09
440.77	827.39
441.145	812.7
441.52	847.51
441.895	837.34
442.27	841.63
442.645	854.29
443.019	840.5
443.394	863.78
443.769	851.35
444.143	868.07
444.518	855.42
444.892	875.75
445.267	895.19
445.641	884.57
446.016	887.05
446.39	874.17
446.764	893.15
447.139	895.64
447.513	899.26
447.887	923.89
448.262	897.45
448.636	920.27
449.01	955.3
449.384	942.64
449.758	948.75
450.132	960.95
450.506	957.33
450.88	938.8
451.254	984.45
451.628	980.84
452.002	992.36
452.376	1007.95
452.75	991.46
453.123	1024.22
453.497	999.37
453.871	1026.26
454.244	1036.88
454.618	1058.35
454.992	1067.16
455.365	1082.08
455.739	1101.28
456.112	1084.79
456.486	1089.76
456.859	1127.5
457.232	1149.64
457.606	1138.57
457.979	1158.46
458.352	1165.92
458.725	1167.72
459.099	1194.16
459.472	1216.76
459.845	1203.65
460.218	1216.54
460.591	1239.36
460.964	1238.68
461.337	1258.57
461.71	1310.32
462.083	1292.24
462.456	1313.93
462.829	1331.79
463.201	1338.11
463.574	1341.5
463.947	1371.79
464.32	1373.59
464.692	1403.42
465.065	1430.99
465.438	1433.93
465.81	1482.97
466.183	1463.76
466.555	1474.83
466.928	1497.21
467.3	1523.65
467.672	1548.73
468.045	1621.5
468.417	1594.38
468.789	1589.63
469.161	1645
469.534	1670.54
469.906	1681.83
470.278	1685.68
470.65	1735.84
471.022	1801.38
471.394	1814.94
471.766	1815.16
472.138	1864.65
472.51	1895.39
472.882	1914.6
473.253	1971.09
473.625	2004.31
473.997	2054.25
474.369	2091.54
474.74	2123.18
475.112	2142.16
475.484	2249.28
475.855	2240.69
476.227	2255.38
476.598	2365.43
476.97	2380.35
477.341	2457.86
477.713	2496.95
478.084	2533.34
478.455	2646.78
478.827	2694.01
479.198	2787.12
479.569	2822.14
479.94	2915.02
480.311	2929.71
480.682	3062.14
481.053	3113.21
481.424	3203.83
481.795	3288.12
482.166	3308.46
482.537	3447.89
482.908	3486.08
483.279	3608.34
483.65	3682.23
484.021	3787.99
484.391	3850.59
484.762	3950.25
485.133	3994.09
485.503	4112.96
485.874	4223.24
486.244	4317.47
486.615	4448.77
486.985	4546.84
487.356	4648.76
487.726	4733.05
488.097	4874.97
488.467	4920.85
488.837	5153.38
489.207	5197.9
489.578	5281.06
489.948	5356.31
490.318	5507.27
490.688	5604.44
491.058	5718.79
491.428	5860.93
491.798	5975.73
492.168	6110.19
492.538	6177.54
492.908	6305.89
493.278	6469.51
493.648	6546.57
494.017	6687.35
494.387	6697.97
494.757	6907.01
495.126	6969.83
495.496	7044.86
495.866	7172.76
496.235	7247.34
496.605	7422.25
496.974	7475.58
497.344	7675.12
497.713	7687.1
498.082	7861.56
498.452	7928.22
498.821	8008.22
499.19	8073.98
499.559	8199.86
499.928	8342.68
500.298	8359.62
500.667	8573.18
501.036	8603.01
501.405	8677.81
501.774	8740.86
502.143	8887.07
502.512	8972.72
502.88	9023.79
503.249	9104.01
503.618	9244.35
503.987	9354.4
504.356	9388.3
504.724	9483.66
505.093	9527.96
505.462	9609.54
505.83	9756.2
506.199	9779.25
506.567	10013.82
506.936	10017.66
507.304	10063.08
507.672	10207.26
508.041	10275.05
508.409	10376.75
508.777	10426.01
509.145	10531.77
509.514	10553.01
509.882	10641.15
510.25	10659.45
510.618	10844.31
510.986	10868.49
511.354	10955.71
511.722	11142.83
512.09	11208.59
512.458	11162.26
512.826	11391.18
513.193	11410.39
513.561	11498.75
513.929	11579.88
514.297	11629.6
514.664	11768.57
515.032	11764.51
515.4	11938.29
515.767	11954.11
516.135	12059.19
516.502	12030.94
516.869	12192.74
517.237	12281.78
517.604	12281.33
517.972	12441.33
518.339	12479.52
518.706	12507.54
519.073	12657.82
519.44	12673.86
519.808	12792.28
520.175	12854.65
520.542	13060.07
520.909	13059.84
521.276	13137.58
521.643	13201.76
522.009	13329.21
522.376	13415.76
522.743	13464.58
523.11	13569.66
523.477	13682.87
523.843	13770.78
524.21	13883.55
524.577	14025.92
524.943	14109.53
525.31	14170.32
525.676	14188.62
526.043	14288.96
526.409	14402.18
526.776	14587.94
527.142	14650.98
527.508	14785.22
527.874	14831.77
528.241	14832.45
528.607	14875.39
528.973	15132.33
529.339	15119.67
529.705	15251.42
530.071	15337.52
530.437	15416.84
530.803	15473.34
531.169	15592.88
531.535	15501.58
531.901	15589.04
532.267	15826.77
532.632	15879.88
532.998	15916.71
533.364	15961.46
533.73	16075.58
534.095	16187.67
534.461	16240.1
534.826	16300.88
535.192	16372.52
535.557	16568.9
535.923	16598.28
536.288	16586.53
536.653	16639.86
537.019	16673.53
537.384	16793.53
537.749	16891.83
538.114	16868.78
538.479	16978.83
538.845	17108.77
539.21	17025.61
539.575	17241.88
539.94	17206.4
540.305	17314.19
540.67	17265.15
541.034	17413.4
541.399	17523.68
541.764	17548.08
542.129	17662.21
542.494	17644.58
542.858	17741.75
543.223	17803.9
543.587	17833.5
543.952	17929.54
544.316	17941.07
544.681	17882.99
545.045	18039.6
545.41	18188.52
545.774	18209.99
546.138	18320.49
546.503	18322.3
546.867	18344.9
547.231	18500.38
547.595	18508.06
547.959	18622.41
548.324	18626.7
548.688	18814.27
549.052	18887.26
549.416	18828.73
549.779	18927.03
550.143	18989.18
550.507	19148.72
550.871	19084.54
551.235	19084.09
551.599	19281.37
551.962	19337.19
552.326	19368.83
552.689	19506.68
553.053	19462.84
553.417	19541.93
553.78	19723.17
554.143	19637.29
554.507	19755.48
554.87	19894.01
555.234	20058.3
555.597	19887.91
555.96	19927.68
556.323	20055.36
556.686	20159.31
557.05	20386.43
557.413	20293.77
557.776	20315.69
558.139	20469.81
558.502	20461.45
558.865	20570.6
559.228	20713.65
559.59	20781.22
559.953	20775.12
560.316	21017.37
560.679	21045.17
561.041	21225.73
561.404	21314.31
561.767	21402.9
562.129	21351.83
562.492	21564.93
562.854	21522.67
563.217	21526.51
563.579	21677.69
563.941	21707.3
564.304	21857.35
564.666	22079.72
565.028	21958.82
565.39	22148.41
565.753	22250.78
566.115	22262.31
566.477	22387.73
566.839	22394.51
567.201	22517.22
567.563	22766.25
567.925	22653.26
568.287	22728.06
568.648	22775.97
569.01	23012.8
569.372	23087.37
569.734	22975.06
570.095	23162.4
570.457	23159.91
570.819	23363.98
571.18	23386.35
571.542	23571.65
571.903	23473.58
572.265	23683.06
572.626	23750.18
572.987	23819.78
573.349	24074.92
573.71	24124.86
574.071	24234.24
574.432	24294.35
574.794	24445.08
575.155	24478.52
575.516	24459.31
575.877	24711.51
576.238	24765.3
576.599	24884.16
576.96	24923.03
577.32	25095.91
577.681	25265.17
578.042	25427.2
578.403	25490.7
578.763	25605.05
579.124	25765.49
579.485	25932.5
579.845	25998.26
580.206	26250.45
580.566	26256.56
580.927	26408.42
581.287	26650.67
581.648	26639.82
582.008	26937.67
582.368	26923.43
582.728	27189.19
583.089	27141.28
583.449	27395.96
583.809	27571.1
584.169	27744.2
584.529	27926.12
584.889	28175.6
585.249	28265.32
585.609	28316.61
585.969	28617.4
586.329	28688.81
586.688	28908.24
587.048	29204.05
587.408	29183.71
587.768	29374.21
588.127	29462.35
588.487	29656.24
588.846	30084.03
589.206	29973.29
589.565	30285.38
589.925	30509.1
590.284	30559.04
590.643	30853.27
591.003	31111.79
591.362	31431.33
591.721	31369.64
592.08	31562.18
592.44	31916.52
592.799	31896.86
593.158	32203.97
593.517	32233.8
593.876	32600.57
594.235	32625.65
594.593	32866.55
594.952	33160.78
595.311	33077.62
595.67	33391.28
596.029	33715.12
596.387	33876.02
596.746	34167.08
597.104	34052.73
597.463	34134.77
597.822	34404.36
598.18	34466.96
598.538	34545.38
598.897	34915.08
599.255	34842.09
599.613	35434.39
599.972	35466.03
600.33	35629.19
600.688	35573.6
601.046	35896.08
601.404	36075.05
601.762	36409.51
602.12	36497.64
602.478	36584.87
602.836	36655.6
603.194	36597.53
603.552	36980.34
603.91	36912.32
604.268	37295.14
604.625	37214.69
604.983	37510.5
605.341	37444.28
605.698	37722.92
606.056	37885.4
606.413	37795.91
606.771	38037.94
607.128	38117.49
607.485	38101.22
607.843	38318.16
608.2	38582.33
608.557	38781.88
608.914	38697.13
609.272	38999.95
609.629	39093.05
609.986	39291.69
610.343	39270
610.7	39601.06
611.057	39465.25
611.414	39620.72
611.771	39712.92
612.127	39887.61
612.484	39880.38
612.841	40223.87
613.198	40168.51
613.554	40207.6
613.911	40476.07
614.267	40516.07
614.624	40510.19
614.98	40622.96
615.337	40896.4
615.693	40944.98
616.05	40725.1
616.406	41292.54
616.762	41087.58
617.118	41106.33
617.475	41195.15
617.831	41379.55
618.187	41473.56
618.543	41537.51
618.899	41773.44
619.255	41749.93
619.611	41816.15
619.967	42065.63
620.323	41982.92
620.678	41884.85
621.034	41851.85
621.39	41957.39
621.746	41970.94
622.101	42340.65
622.457	42197.61
622.812	42274.67
623.168	42463.81
623.523	42521.89
623.879	42619.51
624.234	42317.38
624.589	42600.76
624.945	42528.44
625.3	42710.13
625.655	42647.99
626.01	42700.64
626.365	42738.16
626.72	42661.77
627.075	42768.89
627.43	42695.67
627.785	42686.63
628.14	42815.44
628.495	42717.59
628.85	42789
629.205	42746.74
629.559	43106.96
629.914	42916.23
630.269	42880.07
630.623	42989.67
630.978	42871.94
631.332	43092.5
631.687	42951.71
632.041	42915.1
632.396	42998.49
632.75	42814.09
633.104	42930.92
633.459	42820.87
633.813	42797.59
634.167	42858.15
634.521	42817.7
634.875	42861.77
635.229	42801.66
635.583	42603.24
635.937	42722.11
636.291	42664.94
636.645	42624.71
636.999	42630.81
637.352	42758.95
637.706	42609.8
638.06	42681.43
638.413	42697.48
638.767	42445.51
639.121	42684.15
639.474	42193.76
639.828	42472.85
640.181	42463.13
640.534	42453.42
640.888	42400.76
641.241	42346.08
641.594	42335
641.947	42442.34
642.301	42269.24
642.654	42329.35
643.007	42314.89
643.36	42174.55
643.713	42287.77
644.066	42391.5
644.419	42217.94
644.771	41897.73
645.124	41562.37
645.477	41420.45
645.83	41181.36
646.182	41189.5
646.535	40979.56
646.888	41128.03
647.24	40844.42
647.593	41224.07
647.945	40896.62
648.298	40716.97
648.65	40680.36
649.002	40642.17
649.355	40886.23
649.707	40714.03
650.059	40849.17
650.411	41374.58
650.763	41409.6
651.115	41842.36
651.467	41791.06
651.819	41866.31
652.171	41759.42
652.523	41365.31
652.875	41674.68
653.227	41485.31
653.578	41652.31
653.93	41575.47
654.282	41437.85
654.633	41383.84
654.985	41205.99
655.337	41348.59
655.688	41297.97
656.039	41441.69
656.391	41218.87
656.742	41202.15
657.094	41151.76
657.445	41318.08
657.796	41331.41
658.147	41335.71
658.498	41291.64
658.849	41340.23
659.2	41187.91
659.551	41148.59
659.902	41354.24
660.253	41179.1
660.604	41263.17
660.955	40969.61
661.306	41121.25
661.656	41031.08
662.007	41053.91
662.358	41084.19
662.708	41114.7
663.059	41091.65
663.409	40708.15
663.76	41100.68
664.11	41116.28
664.461	40958.99
664.811	41116.05
665.161	41063.62
665.511	41011.87
665.862	41037.18
666.212	41041.48
666.562	41098.43
666.912	40967.13
667.262	41003.51
667.612	40929.16
667.962	41017.07
668.312	40960.12
668.662	41023.62
669.011	41025.43
669.361	40857.98
669.711	40922.16
670.06	40908.37
670.41	40791.31
670.76	40739.56
671.109	40918.32
671.459	40831.09
671.808	40718.32
672.157	40786.34
672.507	40446.46
672.856	40625.22
673.205	40656.18
673.554	40659.11
673.904	40609.17
674.253	40911.76
674.602	40762.39
674.951	40169.41
675.3	39968.96
675.649	40554.71
675.998	40511.1
676.346	40667.93
676.695	40518.1
677.044	40339.8
677.393	40489.18
677.741	40429.74
678.09	40375.28
678.438	40426.13
678.787	40369.18
679.135	40313.13
679.484	39914.95
679.832	40243.98
680.181	39978.23
680.529	40073.14
680.877	40055.97
681.225	40065.68
681.573	40235.17
681.922	39874.5
682.27	39711.34
682.618	39756.77
682.966	39757.67
683.314	39768.29
683.661	39635.19
684.009	39540.05
684.357	39618.92
684.705	39397
685.053	39366.49
685.4	39400.84
685.748	39167.63
686.095	39140.96
686.443	38962.66
686.79	39005.82
687.138	39066.61
687.485	39085.6
687.832	39040.85
688.18	38944.58
688.527	38677.47
688.874	38721.99
689.221	38660.07
689.568	38515.89
689.915	38440.19
690.262	38627.08
690.609	38297.14
690.956	38234.09
691.303	38195.22
691.65	38049.47
691.997	38089.69
692.344	37845.86
692.69	37793.88
693.037	37774.67
693.383	37536.03
693.73	37515.02
694.077	37413.1
694.423	37402.03
694.769	37310.95
695.116	37171.07
695.462	37151.86
695.808	37073.9
696.155	37221.24
696.501	36844.98
696.847	36798.43
697.193	36664.64
697.539	36630.29
697.885	36348.95
698.231	36455.16
698.577	36339.45
698.923	36321.15
699.269	36130.19
699.614	35942.4
699.96	35854.5
700.306	35998.45
700.651	35744.22
700.997	35658.57
701.342	35680.49
701.688	35522.3
702.033	35534.28
702.379	35506.26
702.724	35445.24
703.069	35360.72
703.415	34899.72
703.76	35078.47
704.105	35072.14
704.45	34942.65
704.795	34756.9
705.14	34838.02
705.485	34615.43
705.83	34475.32
706.175	34557.13
706.52	34543.12
706.865	34236.46
707.209	34333.86
707.554	34172.05
707.899	34267.42
708.243	34022.9
708.588	34044.6
708.932	33758.51
709.277	33831.05
709.621	33829.69
709.966	33585.85
710.31	33630.6
710.654	33374.11
710.998	33399.42
711.342	33410.04
711.687	33319.19
712.031	33254.34
712.375	33089.14
712.719	33159.88
713.063	33175.7
713.407	33140.44
713.75	33079.2
714.094	32893.22
714.438	32829.26
714.782	32805.08
715.125	32609.38
715.469	32651.64
715.812	32610.74
716.156	32279
716.499	32454.81
716.843	32453.68
717.186	32195.16
717.53	32357.19
717.873	32267.92
718.216	32281.71
718.559	32066.35
718.902	31838.78
719.246	32119.23
719.589	31829.74
719.932	31713.14
720.275	31755.85
720.617	31731.21
720.96	31594.95
721.303	31659.13
721.646	31683.76
721.989	31396.08
722.331	31570.99
722.674	31445.57
723.016	31390.43
723.359	31347.04
723.701	31375.97
724.044	31101.4
724.386	30993.83
724.729	31219.36
725.071	31155.86
725.413	31019.37
725.755	31013.72
726.097	30841.07
726.439	30741.64
726.782	30664.35
727.124	30805.81
727.465	30701.18
727.807	30585.93
728.149	30674.52
728.491	30626.38
728.833	30675.87
729.175	30371.7
729.516	30435.88
729.858	30199.05
730.199	30316.11
730.541	30225.94
730.882	30228.65
731.224	30202.21
731.565	30119.28
731.906	30154.53
732.248	30118.83
732.589	29897.82
732.93	29768.55
733.271	29760.19
733.612	29902.34
733.953	29827.76
734.294	29682
734.635	29626.41
734.976	29786.18
735.317	29671.83
735.658	29477.49
735.999	29656.47
736.339	29425.29
736.68	29648.56
737.021	29452.18
737.361	29394.1
737.702	29479.07
738.042	29358.17
738.383	29374.89
738.723	29338.06
739.063	29207.44
739.404	29180.32
739.744	29152.07
740.084	28989.14
740.424	29154.56
740.764	28987.11
741.104	29022.13
741.444	28959.76
741.784	28902.36
742.124	28887.67
742.464	28897.39
742.804	28834.34
743.143	28775.13
743.483	28761.35
743.823	28475.93
744.162	28548.7
744.502	28595.48
744.841	28396.16
745.181	28544.4
745.52	28378.99
745.86	28380.12
746.199	28341.02
746.538	28332.66
746.877	28350.74
747.216	28243.17
747.556	28248.82
747.895	28211.76
748.234	27990.3
748.573	27937.42
748.911	27917.98
749.25	27877.98
749.589	27871.2
749.928	27832.11
750.267	27873.01
750.605	27761.15
750.944	27767.48
751.283	27735.84
751.621	27694.26
751.96	27501.72
752.298	27561.61
752.636	27452.23
752.975	27349.41
753.313	27160.26
753.651	27391.44
753.989	27210.43
754.327	27184.89
754.666	27053.6
755.004	27244.78
755.342	27100.15
755.679	27031.45
756.017	26814.73
756.355	26974.28
756.693	26766.15
757.031	26734.96
757.368	26692.7
757.706	26643.44
758.044	26420.39
758.381	26609.54
758.719	26343.11
759.056	26370
759.394	26265.14
759.731	26174.52
760.068	26213.39
760.405	26049.1
760.743	25970.46
761.08	26005.94
761.417	25897.47
761.754	25861.76
762.091	25733.41
762.428	25603.01
762.765	25419.29
763.102	25600.75
763.438	25482.11
763.775	25228.56
764.112	25295.22
764.449	25233.53
764.785	25106.76
765.122	24986.76
765.458	24973.88
765.795	24871.73
766.131	24736.82
766.467	24864.73
766.804	24707.67
767.14	24449.15
767.476	24457.05
767.812	24362.37
768.148	24498.64
768.485	24373.22
768.821	24172.77
769.157	24110.4
769.492	24101.58
769.828	23996.5
770.164	23721.03
770.5	23719.9
770.836	23742.95
771.171	23594.03
771.507	23554.25
771.842	23472
772.178	23402.62
772.513	23277.88
772.849	23244.88
773.184	23070.65
773.519	23168.73
773.855	23069.52
774.19	22954.04
774.525	22894.61
774.86	22779.13
775.195	22799.47
775.53	22759.92
775.865	22475.19
776.2	22472.02
776.535	22167.62
776.87	22380.05
777.205	22225.47
777.539	22083.33
777.874	22115.42
778.209	21844.92
778.543	21920.85
778.878	21784.13
779.212	21780.51
779.547	21718.14
779.881	21683.34
780.215	21495.32
780.55	21547.75
780.884	21302.34
781.218	21287.65
781.552	21207.2
781.886	21231.83
782.22	20965.17
782.554	20903.48
782.888	20743.48
783.222	20723.82
783.556	20667.78
783.889	20652.41
784.223	20542.13
784.557	20444.96
784.89	20407.44
785.224	20183.72
785.557	20262.59
785.891	20242.48
786.224	20085.87
786.558	20133.1
786.891	19840.23
787.224	19800.23
787.557	19863.96
787.891	19806.56
788.224	19699.44
788.557	19714.13
788.89	19564.53
789.223	19529.95
789.556	19431.2
789.888	19415.61
790.221	19289.28
790.554	19253.35
790.887	19101.26
791.219	19084.09
791.552	19035.05
791.884	18953.7
792.217	18965.9
792.549	18776.07
792.882	18732.91
793.214	18632.8
793.546	18613.14
793.879	18572.01
794.211	18427.16
794.543	18462.41
794.875	18452.24
795.207	18434.61
795.539	18342.19
795.871	18240.72
796.203	18189.65
796.535	18045.7
796.867	17973.84
797.198	17974.06
797.53	17958.69
797.862	17872.37
798.193	17785.59
798.525	17651.13
798.856	17767.29
799.188	17636.9
799.519	17516.22
799.85	17361.87
800.182	17500.4
800.513	17436
800.844	17238.71
801.175	17303.57
801.506	17290.46
801.837	17202.56
802.168	17137.25
802.499	17066.97
802.83	17009.34
803.161	16951.49
803.491	17006.63
803.822	16904.03
804.153	16836.01
804.483	16708.78
804.814	16660.65
805.145	16616.81
805.475	16683.93
805.805	16434.21
806.136	16602.8
806.466	16449.36
806.796	16509.24
807.126	16383.37
807.457	16266.76
807.787	16242.13
808.117	16281
808.447	16144.5
808.777	16160.1
809.107	16133.43
809.436	16063.38
809.766	15904.96
810.096	16028.8
810.426	15910.61
810.755	15894.12
811.085	15925.98
811.414	15845.76
811.744	15677.85
812.073	15751.29
812.403	15791.29
812.732	15637.63
813.061	15622.71
813.39	15529.15
813.719	15505.65
814.049	15557.18
814.378	15460.23
814.707	15431.98
815.036	15394.92
815.365	15349.5
815.693	15086.91
816.022	15211.2
816.351	15130.29
816.68	15078.32
817.008	15143.85
817.337	14948.15
817.665	14889.62
817.994	14972.78
818.322	14976.63
818.651	14864.54
818.979	14853.24
819.307	14935.5
819.636	14817.99
819.964	14822.73
820.292	14821.15
820.62	14676.75
820.948	14754.94
821.276	14837.19
821.604	14631.78
821.932	14739.57
822.259	14721.49
822.587	14716.52
822.915	14659.8
823.243	14789.96
823.57	14711.55
823.898	14794.71
824.225	14593.59
824.553	14543.87
824.88	14646.69
825.207	14626.35
825.535	14620.7
825.862	14647.6
826.189	14592.91
826.516	14629.29
826.843	14625.67
827.17	14596.97
827.497	14719.23
827.824	14629.97
828.151	14666.8
828.478	14602.85
828.805	14635.84
829.131	14499.58
829.458	14540.25
829.785	14525.11
830.111	14563.98
830.438	14592.91
830.764	14607.14
831.09	14577.54
831.417	14431.1
831.743	14531.21
832.069	14498.45
832.395	14473.59
832.722	14458.45
833.048	14484.21
833.374	14444.44
833.7	14378
834.026	14378.22
834.351	14489.63
834.677	14423.65
835.003	14476.75
835.329	14446.92
835.654	14393.59
835.98	14348.17
836.306	14340.48
836.631	14321.73
836.956	14263.2
837.282	14289.64
837.607	14198.34
837.932	14223.2
838.258	14176.87
838.583	14196.31
838.908	14091.9
839.233	14189.08
839.558	14103.2
839.883	14006.48
840.208	14021.62
840.533	14078.57
840.858	14020.04
841.182	14063.2
841.507	13950.44
841.832	13917.9
842.156	13869.08
842.481	13814.62
842.805	13817.79
843.13	13868.86
843.454	13797.9
843.778	13726.72
844.103	13701.86
844.427	13600.84
844.751	13646.27
845.075	13590
845.399	13571.47
845.723	13511.35
846.047	13491.02
846.371	13346.61
846.695	13388.19
847.019	13273.39
847.343	13221.19
847.666	13232.94
847.99	13114.75
848.313	13098.94
848.637	13022.78
848.96	12969.67
849.284	12935.55
849.607	12837.93
849.931	12836.12
850.254	12682.9
850.577	12690.81
850.9	12575.79
851.223	12600.64
851.546	12583.69
851.869	12434.09
852.192	12471.83
852.515	12351.38
852.838	12305.51
853.161	12296.7
853.483	12321.33
853.806	12207.89
854.129	12198.39
854.451	12251.73
854.774	12172.63
855.096	12116.36
855.419	12032.97
855.741	12097.83
856.063	11989.36
856.385	11899.64
856.708	11912.98
857.03	11795.24
857.352	11744.39
857.674	11733.32
857.996	11731.74
858.318	11653.55
858.64	11710.05
858.961	11654.68
859.283	11663.94
859.605	11616.04
859.926	11620.33
860.248	11450.39
860.57	11466.21
860.891	11498.53
861.212	11304.86
861.534	11408.13
861.855	11348.92
862.176	11447.23
862.498	11351.64
862.819	11375.36
863.14	11338.53
863.461	11265.31
863.782	11231.87
864.103	11278.19
864.424	11188.25
864.745	11215.82
865.065	11129.04
865.386	11037.07
865.707	11063.51
866.027	11068.03
866.348	11058.31
866.668	11084.52
866.989	10996.39
867.309	10892.21
867.63	10970.86
867.95	11016.96
868.27	10873.01
868.59	10908.03
868.91	10903.74
869.23	10873.01
869.55	10841.37
869.87	10879.11
870.19	10824.42
870.51	10877.07
870.83	10815.38
871.15	10753.46
871.469	10809.5
871.789	10809.5
872.109	10770.41
872.428	10700.58
872.748	10743.74
873.067	10766.34
873.386	10700.35
873.706	10659.45
874.025	10583.07
874.344	10590.3
874.663	10575.84
874.982	10542.39
875.301	10565.44
875.62	10566.57
875.939	10440.25
876.258	10472.56
876.577	10384.66
876.896	10420.36
877.214	10452.9
877.533	10415.62
877.852	10465.33
878.17	10428.27
878.489	10415.39
878.807	10386.69
879.125	10320.03
879.444	10382.62
879.762	10314.15
880.08	10333.36
880.398	10257.2
880.716	10239.58
881.034	10274.38
881.352	10222.85
881.67	10237.54
881.988	10269.18
882.306	10125.91
882.624	10169.07
882.941	10082.97
883.259	10069.18
883.577	10058.34
883.894	10062.18
884.212	10078.68
884.529	10035.29
884.846	9925.91
885.164	9974.27
885.481	9885.69
885.798	9981.28
886.115	9852.24
886.432	9820.15
886.75	9878
887.067	9806.59
887.383	9758.23
887.7	9719.14
888.017	9672.36
888.334	9658.12
888.651	9653.83
888.967	9654.73
889.284	9604.11
889.6	9616.77
889.917	9538.35
890.233	9545.36
890.55	9472.82
890.866	9516.66
891.182	9433.04
891.498	9421.29
891.815	9377.23
892.131	9273.5
892.447	9350.79
892.763	9283.67
893.079	9259.49
893.395	9301.52
893.71	9223.56
894.026	9254.97
894.342	9190.79
894.657	9179.72
894.973	9085.03
895.289	9054.52
895.604	9086.61
895.92	9026.73
896.235	8974.07
896.55	9038.93
896.865	8939.27
897.181	8967.97
897.496	8918.03
897.811	8859.5
898.126	8791.03
898.441	8759.61
898.756	8801.42
899.071	8730.69
899.386	8708.09
899.7	8635.78
900.015	8635.78
900.33	8585.61
900.644	8592.84
900.959	8595.55
901.273	8567.08
901.588	8489.79
901.902	8518.72
902.216	8504.48
902.531	8365.05
902.845	8398.95
903.159	8390.81
903.473	8293.41
903.787	8306.97
904.101	8214.77
904.415	8188.1
904.729	8158.73
905.042	8114.89
905.356	8157.37
905.67	8100.42
905.984	8046.19
906.297	8020.2
906.611	7963.93
906.924	8013.87
907.237	7968.67
907.551	7969.13
907.864	7905.4
908.177	7887.77
908.491	7797.38
908.804	7800.54
909.117	7786.31
909.43	7722.35
909.743	7684.39
910.056	7665.63
910.368	7598.74
910.681	7575.69
910.994	7556.26
911.307	7477.84
911.619	7490.95
911.932	7511.29
912.244	7384.74
912.557	7417.73
912.869	7367.11
913.181	7337.05
913.494	7315.58
913.806	7263.83
914.118	7222.48
914.43	7254.34
914.742	7224.74
915.054	7176.83
915.366	7169.6
915.678	7167.34
915.99	7074.46
916.302	7028.13
916.613	7002.37
916.925	6968.47
917.236	6964.18
917.548	6938.42
917.859	6917.4
918.171	6887.35
918.482	6861.13
918.794	6848.48
919.105	6868.59
919.416	6794.92
919.727	6775.03
920.038	6716.05
920.349	6662.95
920.66	6647.35
920.971	6660.01
921.282	6556.51
921.593	6550.63
921.903	6507.47
922.214	6519.9
922.525	6504.76
922.835	6450.75
923.146	6430.18
923.456	6403.52
923.767	6377.98
924.077	6316.51
924.387	6368.94
924.697	6308.15
925.008	6308.15
925.318	6268.38
925.628	6261.83
925.938	6228.83
926.248	6199
926.558	6214.82
926.867	6123.98
927.177	6094.37
927.487	6044.43
927.796	6000.82
928.106	6014.6
928.416	5991.33
928.725	5948.16
929.034	5895.51
929.344	5959.91
929.653	5898.45
929.962	5870.42
930.271	5828.17
930.581	5863.42
930.89	5781.39
931.199	5756.98
931.508	5714.95
931.817	5733.93
932.125	5695.51
932.434	5662.97
932.743	5635.85
933.051	5629.53
933.36	5575.07
933.669	5528.06
933.977	5514.73
934.286	5532.13
934.594	5471.79
934.902	5449.19
935.21	5421.62
935.519	5422.53
935.827	5432.47
936.135	5404
936.443	5305.24
936.751	5294.62
937.059	5307.28
937.367	5275.64
937.674	5256.43
937.982	5241.74
938.29	5154.96
938.597	5206.26
938.905	5157.9
939.213	5153.83
939.52	5079.71
939.827	5146.6
940.135	5085.36
940.442	5074.97
940.749	5075.64
941.056	5029.99
941.363	5012.59
941.67	4966.72
941.977	4951.58
942.284	4906.61
942.591	4934.63
942.898	4912.03
943.205	4884.69
943.511	4813.05
943.818	4854.18
944.125	4784.8
944.431	4745.03
944.738	4790.45
945.044	4750.23
945.35	4736.22
945.657	4689.44
945.963	4747.74
946.269	4658.03
946.575	4719.04
946.881	4641.08
947.187	4621.19
947.493	4584.81
947.799	4566.05
948.105	4533.74
948.41	4484.02
948.716	4518.6
949.022	4513.62
949.327	4518.37
949.633	4453.96
949.938	4430.46
950.244	4411.71
950.549	4397.24
950.854	4341.2
951.16	4323.8
951.465	4370.13
951.77	4307.98
952.075	4297.58
952.38	4313.86
952.685	4262.33
952.99	4191.6
953.294	4245.16
953.599	4183.46
953.904	4193.63
954.209	4156.35
954.513	4130.13
954.818	4125.39
955.122	4098.95
955.426	4121.54
955.731	4082.45
956.035	4034.77
956.339	4060.53
956.643	4038.38
956.948	4019.4
957.252	4008.78
957.556	3967.2
957.86	3973.07
958.163	3953.86
958.467	3902.11
958.771	3909.12
959.075	3927.42
959.378	3877.48
959.682	3864.6
959.985	3846.75
960.289	3818.05
960.592	3801.33
960.896	3803.13
961.199	3762.23
961.502	3767.2
961.805	3746.86
962.108	3751.84
962.411	3709.8
962.714	3688.11
963.017	3665.06
963.32	3665.28
963.623	3626.19
963.926	3608.79
964.228	3608.79
964.531	3549.58
964.833	3592.52
965.136	3551.62
965.438	3521.11
965.741	3497.15
966.043	3505.29
966.345	3487.66
966.648	3502.58
966.95	3498.96
967.252	3438.17
967.554	3454.67
967.856	3451.05
968.158	3413.09
968.46	3432.97
968.761	3377.61
969.063	3359.53
969.365	3356.37
969.666	3380.32
969.968	3300.55
970.269	3301.68
970.571	3326.76
970.872	3313.88
971.174	3270.72
971.475	3245.63
971.776	3272.07
972.077	3230.72
972.378	3236.6
972.679	3187.11
972.98	3159.31
973.281	3176.94
973.582	3158.86
973.883	3111.63
974.183	3146.65
974.484	3121.34
974.785	3098.52
975.085	3102.36
975.386	3104.4
975.686	3046.54
975.986	3040.22
976.287	3031.86
976.587	3018.07
976.887	3003.83
977.187	3001.35
977.487	2979.2
977.787	2938.07
978.087	2930.84
978.387	2945.76
978.687	2973.78
978.987	2937.39
979.286	2915.7
979.586	2882.71
979.885	2871.86
980.185	2896.94
980.484	2824.63
980.784	2791.41
981.083	2859.2
981.382	2856.49
981.682	2812.65
981.981	2784.4
982.28	2800.45
982.579	2760.45
982.878	2738.3
983.177	2726.78
983.475	2703.05
983.774	2677.29
984.073	2668.93
984.372	2646.1
984.67	2678.87
984.969	2658.98
985.267	2620.11
985.566	2642.94
985.864	2629.83
986.162	2648.36
986.461	2632.77
986.759	2604.07
987.057	2591.41
987.355	2560
987.653	2549.38
987.951	2555.71
988.249	2519.33
988.547	2532.21
988.844	2487.69
989.142	2511.87
989.44	2480.01
989.737	2508.93
990.035	2486.33
990.332	2445.2
990.63	2445.2
990.927	2414.02
991.224	2445.88
991.521	2413.57
991.819	2412.44
992.116	2397.52
992.413	2406.56
992.71	2374.92
993.006	2373.12
993.303	2326.34
993.6	2337.18
993.897	2309.61
994.193	2341.25
994.49	2335.83
994.787	2298.32
995.083	2307.35
995.379	2277.3
995.676	2246.57
995.972	2262.38
996.268	2241.37
996.565	2233.46
996.861	2206.57
997.157	2218.32
997.453	2220.58
997.749	2187.36
998.044	2179.9
998.34	2163.86
998.636	2131.54
998.932	2177.87
999.227	2146
999.523	2117.08
999.818	2129.51
1000.114	2052.22
1000.409	2049.96
1000.704	2072.33
1001	2058.77
1001.295	2040.69
1001.59	2040.24
1001.885	2046.8
1002.18	2036.85
1002.475	2002.96
1002.77	2034.14
1003.065	1989.17
1003.359	1949.62
1003.654	1974.71
1003.949	1982.62
1004.243	1927.93
1004.538	1934.48
1004.832	1940.58
1005.127	1945.56
1005.421	1914.37
1005.715	1877.76
1006.009	1869.4
1006.304	1859.46
1006.598	1865.11
1006.892	1852.9
1007.186	1849.74
1007.48	1832.11
1007.773	1819.46
1008.067	1809.74
1008.361	1815.84
1008.655	1792.34
1008.948	1770.19
1009.242	1770.42
1009.535	1772.91
1009.829	1724.32
1010.122	1761.15
1010.415	1740.36
1010.708	1720.25
1011.001	1727.93
1011.295	1717.99
1011.588	1688.16
1011.881	1693.36
1012.173	1651.1
1012.466	1677.54
1012.759	1664.43
1013.052	1658.78
1013.344	1624.21
1013.637	1634.15
1013.93	1603.19
1014.222	1612.23
1014.514	1604.32
1014.807	1580.59
1015.099	1568.39
1015.391	1576.75
1015.683	1556.41
1015.976	1575.62
1016.268	1549.63
1016.56	1529.3
1016.851	1503.31
1017.143	1528.62
1017.435	1501.73
1017.727	1522.06
1018.018	1482.52
1018.31	1474.61
1018.602	1458.56
1018.893	1456.53
1019.185	1436.87
1019.476	1424.21
1019.767	1419.69
1020.058	1447.26
1020.35	1412.01
1020.641	1417.21
1020.932	1396.19
1021.223	1407.49
1021.514	1394.38
1021.804	1381.73
1022.095	1346.7
1022.386	1363.65
1022.677	1346.93
1022.967	1330.66
1023.258	1330.66
1023.548	1264.44
1023.839	1295.86
1024.129	1319.13
1024.419	1293.6
1024.709	1308.51
1025	1291.56
1025.29	1273.94
1025.58	1242.3
1025.87	1238
1026.16	1222.86
1026.449	1246.59
1026.739	1251.11
1027.029	1237.33
1027.319	1211.34
1027.608	1225.8
1027.898	1195.75
1028.187	1199.59
1028.477	1177.67
1028.766	1175.63
1029.055	1193.26
1029.344	1164.11
1029.634	1160.27
1029.923	1168.63
1030.212	1140.38
1030.501	1122.98
1030.79	1130.66
1031.078	1091.57
1031.367	1098.8
1031.656	1110.78
1031.945	1075.97
1032.233	1086.82
1032.522	1087.95
1032.81	1101.28
1033.099	1049.08
1033.387	1061.74
1033.675	1053.15
1033.963	1019.25
1034.251	1061.29
1034.54	1050.89
1034.828	1009.08
1035.116	1018.57
1035.403	1011.57
1035.691	988.97
1035.979	989.88
1036.267	988.29
1036.554	992.81
1036.842	985.13
1037.129	958.69
1037.417	965.02
1037.704	964.34
1037.992	948.29
1038.279	936.32
1038.566	932.25
1038.853	932.25
1039.14	932.25
