Data from hue_240_FLMS001491_00001.txt Node
Date: Tue Feb 07 16:34:58 GMT 2017
User: dcchb
Spectrometer: FLMS00149
Trigger mode: 0
Integration Time (sec): 2.000000E-2
Scans to average: 10
Electric dark correction enabled: true
Nonlinearity correction enabled: false
Boxcar width: 0
XAxis mode: Wavelengths
Number of Pixels in Spectrum: 2048
>>>>>Begin Spectral Data<<<<<
341.393	-12.77
341.776	-12.77
342.16	-12.77
342.543	-35.37
342.927	-64.74
343.31	-57.96
343.693	-66.55
344.077	-61.81
344.46	-68.59
344.843	-38.08
345.226	-42.82
345.61	-44.63
345.993	-24.52
346.376	9.15
346.759	2.6
347.142	9.83
347.525	45.54
347.908	64.29
348.291	73.33
348.674	95.25
349.057	104.97
349.44	106.55
349.823	136.61
350.206	163.95
350.588	181.35
350.971	191.97
351.354	219.09
351.737	217.28
352.119	216.38
352.502	245.08
352.884	278.52
353.267	272.87
353.65	275.59
354.032	290.05
354.414	299.54
354.797	315.81
355.179	318.3
355.562	306.32
355.944	312.42
356.326	324.17
356.709	339.54
357.091	307.68
357.473	311.74
357.855	328.69
358.238	329.14
358.62	334.12
359.002	348.13
359.384	331.86
359.766	320.78
360.148	316.49
360.53	332.53
360.912	324.62
361.294	308.35
361.676	324.85
362.057	310.61
362.439	309.26
362.821	317.62
363.203	303.61
363.584	292.53
363.966	306.77
364.348	311.97
364.729	310.84
365.111	291.63
365.493	303.83
365.874	309.26
366.256	321.69
366.637	311.52
367.019	320.1
367.4	309.94
367.781	332.53
368.163	298.86
368.544	308.58
368.925	302.48
369.306	323.72
369.688	313.1
370.069	302.7
370.45	293.66
370.831	300.9
371.212	283.72
371.593	316.49
371.974	314.46
372.355	312.2
372.736	289.82
373.117	298.41
373.498	288.47
373.879	300.44
374.26	315.13
374.641	304.29
375.021	288.24
375.402	313.1
375.783	324.4
376.163	325.53
376.544	304.06
376.925	317.17
377.305	295.7
377.686	342.48
378.066	320.78
378.447	316.94
378.827	305.19
379.208	329.37
379.588	323.49
379.968	325.08
380.349	318.97
380.729	342.48
381.109	305.42
381.489	327.34
381.87	335.47
382.25	335.02
382.63	316.26
383.01	338.41
383.39	346.54
383.77	346.32
384.15	309.71
384.53	323.72
384.91	323.04
385.29	337.96
385.67	323.95
386.049	337.05
386.429	334.79
386.809	342.02
387.189	354.45
387.568	355.58
387.948	341.35
388.328	366.88
388.707	349.71
389.087	349.71
389.466	365.75
389.846	365.3
390.225	358.07
390.605	354.91
390.984	361.23
391.363	352.19
391.743	327.79
392.122	355.36
392.501	374.79
392.881	379.76
393.26	364.4
393.639	371.18
394.018	375.7
394.397	376.37
394.776	383.15
395.155	351.52
395.534	385.64
395.913	374.57
396.292	385.19
396.671	373.44
397.05	364.17
397.429	392.42
397.808	375.7
398.186	376.6
398.565	399.2
398.944	402.14
399.323	411.18
399.701	400.78
400.08	421.57
400.458	400.78
400.837	409.82
401.215	408.92
401.594	398.07
401.972	430.16
402.351	428.8
402.729	406.88
403.107	400.55
403.486	415.02
403.864	442.14
404.242	419.31
404.62	417.73
404.999	446.43
405.377	431.51
405.755	437.39
406.133	451.4
406.511	444.85
406.889	441.91
407.267	441.68
407.645	451.63
408.023	453.89
408.401	468.12
408.779	445.53
409.156	485.75
409.534	479.42
409.912	483.49
410.29	479.87
410.667	483.94
411.045	495.02
411.422	481.46
411.8	509.48
412.178	510.61
412.555	537.05
412.933	511.06
413.31	530.72
413.687	540.89
414.065	525.3
414.442	546.31
414.819	559.19
415.197	546.77
415.574	589.48
415.951	579.76
416.328	598.52
416.705	603.49
417.082	586.76
417.46	597.61
417.837	615.46
418.214	603.26
418.591	613.66
418.967	615.01
419.344	642.81
419.721	643.71
420.098	634.22
420.475	674.9
420.852	676.03
421.228	694.33
421.605	646.42
421.982	703.37
422.358	691.62
422.735	706.54
423.111	688
423.488	733.2
423.864	747.66
424.241	761.22
424.617	749.92
424.994	739.75
425.37	747.66
425.746	788.57
426.123	768.91
426.499	782.01
426.875	802.35
427.251	815.23
427.627	823.14
428.003	827.21
428.379	841.22
428.756	825.18
429.132	824.95
429.507	857.72
429.883	870.82
430.259	886.87
430.635	905.17
431.011	895.68
431.387	933.65
431.763	930.94
432.138	926.87
432.514	959.86
432.89	963.03
433.265	977.26
433.641	986.08
434.016	985.4
434.392	1008
434.767	1018.17
435.143	1025.62
435.518	1073.53
435.894	1051.61
436.269	1073.76
436.644	1109.24
437.02	1113.3
437.395	1120.31
437.77	1137.26
438.145	1188.1
438.52	1169.12
438.895	1203.02
439.271	1167.77
439.646	1209.12
440.021	1240.98
440.395	1262.68
440.77	1241.44
441.145	1271.72
441.52	1317.14
441.895	1303.36
442.27	1319.85
442.645	1302.9
443.019	1313.75
443.394	1365.27
443.769	1349
444.143	1352.17
444.518	1383.13
444.892	1365.73
445.267	1370.02
445.641	1409.12
446.016	1430.81
446.39	1417.48
446.764	1437.59
447.139	1425.16
447.513	1456.57
447.887	1469
448.262	1467.42
448.636	1461.09
449.01	1507.42
449.384	1493.63
449.758	1499.73
450.132	1524.82
450.506	1520.52
450.88	1546.74
451.254	1541.99
451.628	1563.01
452.002	1569.11
452.376	1597.59
452.75	1612.73
453.123	1622.44
453.497	1656.57
453.871	1662.44
454.244	1681.2
454.618	1676.68
454.992	1708.32
455.365	1698.15
455.739	1718.03
456.112	1753.29
456.486	1776.34
456.859	1791.48
457.232	1829.9
457.606	1816.34
457.979	1812.04
458.352	1891.14
458.725	1885.26
459.099	1898.59
459.472	1949.67
459.845	1918.48
460.218	1988.31
460.591	1985.37
460.964	1969.1
461.337	2002.55
461.71	2065.14
462.083	2077.12
462.456	2077.57
462.829	2059.27
463.201	2154.18
463.574	2145.14
463.947	2151.47
464.32	2217.91
464.692	2213.16
465.065	2221.52
465.438	2257.68
465.81	2288.41
466.183	2325.48
466.555	2327.28
466.928	2362.08
467.3	2347.62
467.672	2418.13
468.045	2466.49
468.417	2456.55
468.789	2485.7
469.161	2465.81
469.534	2514.85
469.906	2573.6
470.278	2614.51
470.65	2626.71
471.022	2676.43
471.394	2717.33
471.766	2715.52
472.138	2760.49
472.51	2835.97
472.882	2809.53
473.253	2851.34
473.625	2951.22
473.997	2938.79
474.369	2979.24
474.74	3000.94
475.112	3025.34
475.484	3058.34
475.855	3141.5
476.227	3150.99
476.598	3188.05
476.97	3258.78
477.341	3326.58
477.713	3339.91
478.084	3370.42
478.455	3462.85
478.827	3452.23
479.198	3542.62
479.569	3565.22
479.94	3617.19
480.311	3649.06
480.682	3710.75
481.053	3828.03
481.424	3839.33
481.795	3896.73
482.166	3966.34
482.537	3966.79
482.908	4062.15
483.279	4125.2
483.65	4141.25
484.021	4209.04
484.391	4285.42
484.762	4316.16
485.133	4308.7
485.503	4350.73
485.874	4404.29
486.244	4460.33
486.615	4585.76
486.985	4554.57
487.356	4672.31
487.726	4713.66
488.097	4758.18
488.467	4798.18
488.837	4909.59
489.207	4901.23
489.578	4962.92
489.948	5043.6
490.318	5121.11
490.688	5131.05
491.058	5184.84
491.428	5209.92
491.798	5247.21
492.168	5297.37
492.538	5358.62
492.908	5408.56
493.278	5486.07
493.648	5485.62
494.017	5555.45
494.387	5584.6
494.757	5625.95
495.126	5686.29
495.496	5658.95
495.866	5754.31
496.235	5745.05
496.605	5814.2
496.974	5793.41
497.344	5860.75
497.713	5843.12
498.082	5923.12
498.452	6004.02
498.821	5982.1
499.19	5987.75
499.559	6046.96
499.928	6059.84
500.298	6113.17
500.667	6137.58
501.036	6115.88
501.405	6163.57
501.774	6212.61
502.143	6242.89
502.512	6254.64
502.88	6319.95
503.249	6316.78
503.618	6313.17
503.987	6333.28
504.356	6382.54
504.724	6361.98
505.093	6438.81
505.462	6416.89
505.83	6474.29
506.199	6491.92
506.567	6534.86
506.936	6510.68
507.304	6572.37
507.672	6619.37
508.041	6655.53
508.409	6663.89
508.777	6729.43
509.145	6693.5
509.514	6728.52
509.882	6688.07
510.25	6761.29
510.618	6767.39
510.986	6730.78
511.354	6831.12
511.722	6866.37
512.09	6903.89
512.458	6809.43
512.826	6875.19
513.193	6946.37
513.561	6952.92
513.929	6951.34
514.297	6938.24
514.664	7004.45
515.032	6973.94
515.4	7079.47
515.767	7043.32
516.135	7048.52
516.502	7010.55
516.869	7148.4
517.237	7149.08
517.604	7120.6
517.972	7175.52
518.339	7185.69
518.706	7155.41
519.073	7218.45
519.44	7203.09
519.808	7251.22
520.175	7262.07
520.542	7228.62
520.909	7275.85
521.276	7280.15
521.643	7322.86
522.009	7370.31
522.376	7384.1
522.743	7371.44
523.11	7462.74
523.477	7455.28
523.843	7455.96
524.21	7497.99
524.577	7509.52
524.943	7577.77
525.31	7535.28
525.676	7667.71
526.043	7580.7
526.409	7601.04
526.776	7683.3
527.142	7733.47
527.508	7688.5
527.874	7705.9
528.241	7732.34
528.607	7623.42
528.973	7773.92
529.339	7722.17
529.705	7802.85
530.071	7776.41
530.437	7797.2
530.803	7782.06
531.169	7853.92
531.535	7754.49
531.901	7870.87
532.267	7760.13
532.632	7830.19
532.998	7841.26
533.364	7839.45
533.73	7818.89
534.095	7830.42
534.461	7847.14
534.826	7872
535.192	7855.95
535.557	7877.42
535.923	7827.48
536.288	7834.94
536.653	7855.5
537.019	7811.43
537.384	7800.59
537.749	7839.68
538.114	7824.54
538.479	7877.65
538.845	7865.44
539.21	7811.88
539.575	7805.56
539.94	7872.9
540.305	7798.78
540.67	7822.73
541.034	7761.72
541.399	7794.71
541.764	7735.28
542.129	7821.15
542.494	7777.76
542.858	7749.97
543.223	7821.38
543.587	7811.21
543.952	7753.58
544.316	7785.67
544.681	7726.01
545.045	7750.42
545.41	7752
545.774	7707.71
546.138	7663.87
546.503	7772.11
546.867	7715.84
547.231	7756.07
547.595	7706.13
547.959	7745.45
548.324	7675.62
548.688	7622.29
549.052	7643.98
549.416	7686.01
549.779	7656.41
550.143	7628.39
550.507	7709.29
550.871	7626.58
551.235	7605.79
551.599	7712.23
551.962	7721.27
552.326	7711.77
552.689	7733.69
553.053	7620.93
553.417	7603.08
553.78	7640.59
554.143	7695.28
554.507	7615.28
554.87	7622.74
555.234	7708.61
555.597	7635.39
555.96	7630.19
556.323	7723.98
556.686	7681.27
557.05	7732.79
557.413	7673.36
557.776	7684.43
558.139	7765.78
558.502	7698.44
558.865	7720.81
559.228	7702.28
559.59	7680.81
559.953	7749.51
560.316	7794.26
560.679	7780.25
561.041	7799.46
561.404	7795.16
561.767	7855.05
562.129	7748.16
562.492	7858.21
562.854	7847.14
563.217	7858.89
563.579	7865.22
563.941	7927.14
564.304	7892.56
564.666	7956.51
565.028	7923.29
565.39	8049.84
565.753	7987.02
566.115	7961.26
566.477	8073.57
566.839	8030.18
567.201	8097.53
567.563	8031.77
567.925	8125.55
568.287	8125.1
568.648	8122.16
569.01	8157.64
569.372	8147.02
569.734	8130.52
570.095	8208.71
570.457	8236.28
570.819	8196.51
571.18	8260.46
571.542	8251.65
571.903	8288.03
572.265	8262.95
572.626	8330.06
572.987	8326.67
573.349	8329.61
573.71	8335.26
574.071	8375.71
574.432	8411.19
574.794	8500.23
575.155	8436.05
575.516	8440.12
575.877	8447.12
576.238	8496.84
576.599	8518.08
576.96	8514.92
577.32	8519.21
577.681	8533.67
578.042	8608.93
578.403	8567.57
578.763	8569.15
579.124	8620.45
579.485	8640.11
579.845	8684.63
580.206	8618.64
580.566	8681.47
580.927	8731.63
581.287	8765.08
581.648	8721.24
582.008	8686.89
582.368	8777.28
582.728	8763.05
583.089	8781.35
583.449	8764.4
583.809	8788.58
584.169	8845.98
584.529	8822.93
584.889	8855.25
585.249	8791.29
585.609	8782.25
585.969	8829.03
586.329	8822.25
586.688	8889.82
587.048	8909.71
587.408	8809.37
587.768	8928.24
588.127	8872.87
588.487	8921.01
588.846	8997.16
589.206	8895.47
589.565	8915.36
589.925	8941.12
590.284	8979.54
590.643	9013.66
591.003	9021.12
591.362	9110.83
591.721	9000.55
592.08	8975.47
592.44	9081.46
592.799	8994.23
593.158	9117.84
593.517	9059.08
593.876	9089.82
594.235	9035.36
594.593	9068.12
594.952	9158.29
595.311	9055.69
595.67	9092.98
596.029	9182.7
596.387	9151.74
596.746	9114
597.104	9159.42
597.463	9082.81
597.822	9108.35
598.18	9119.2
598.538	9176.82
598.897	9172.53
599.255	9076.48
599.613	9268.8
599.972	9200.55
600.33	9251.62
600.688	9215.92
601.046	9193.77
601.404	9224.73
601.762	9241
602.12	9338.17
602.478	9283.26
602.836	9251.85
603.194	9236.25
603.552	9197.39
603.91	9254.78
604.268	9299.3
604.625	9198.06
604.983	9239.19
605.341	9265.86
605.698	9267.67
606.056	9308.57
606.413	9324.84
606.771	9301.79
607.128	9322.35
607.485	9347.21
607.843	9340.66
608.2	9384.27
608.557	9385.85
608.914	9356.03
609.272	9351.73
609.629	9424.05
609.986	9438.06
610.343	9375.69
610.7	9434.22
611.057	9423.14
611.414	9438.28
611.771	9358.51
612.127	9442.12
612.484	9432.18
612.841	9496.81
613.198	9483.93
613.554	9503.37
613.911	9496.36
614.267	9526.64
614.624	9436.25
614.98	9522.12
615.337	9540.65
615.693	9512.41
616.05	9581.1
616.406	9541.56
616.762	9546.3
617.118	9626.3
617.475	9536.13
617.831	9560.54
618.187	9543.59
618.543	9592.18
618.899	9647.54
619.255	9620.2
619.611	9535.68
619.967	9711.72
620.323	9615.23
620.678	9616.81
621.034	9607.54
621.39	9642.8
621.746	9558.51
622.101	9710.59
622.457	9608.9
622.812	9690.03
623.168	9647.09
623.523	9647.77
623.879	9681.21
624.234	9595.11
624.589	9701.33
624.945	9620.88
625.3	9633.98
625.655	9620.2
626.01	9732.51
626.365	9629.46
626.72	9636.47
627.075	9670.37
627.43	9613.19
627.785	9535.91
628.14	9538.62
628.495	9619.75
628.85	9589.47
629.205	9516.92
629.559	9593.76
629.914	9506.08
630.269	9594.21
630.623	9539.07
630.978	9497.26
631.332	9610.03
631.687	9612.97
632.041	9587.43
632.396	9574.55
632.75	9495.46
633.104	9574.32
633.459	9499.52
633.813	9518.73
634.167	9462.69
634.521	9480.77
634.875	9461.11
635.229	9405.29
635.583	9351.73
635.937	9376.59
636.291	9492.74
636.645	9429.02
636.999	9424.72
637.352	9378.4
637.706	9304.73
638.06	9341.11
638.413	9395.35
638.767	9314.22
639.121	9343.82
639.474	9253.2
639.828	9318.29
640.181	9252.3
640.534	9309.47
640.888	9189.25
641.241	9242.13
641.594	9282.13
641.947	9254.33
642.301	9241
642.654	9219.31
643.007	9241.23
643.36	9197.16
643.713	9238.06
644.066	9204.84
644.419	9184.28
644.771	9098.18
645.124	8999.42
645.477	9021.57
645.83	8961.01
646.182	8839.2
646.535	8796.49
646.888	8895.47
647.24	8911.07
647.593	8948.35
647.945	8889.37
648.298	8813.44
648.65	8827
649.002	8812.08
649.355	8876.26
649.707	8859.32
650.059	8910.16
650.411	9032.87
650.763	8986.77
651.115	9080.78
651.467	9037.62
651.819	8995.13
652.171	9087.33
652.523	9000.55
652.875	9053.43
653.227	8994.45
653.578	9015.02
653.93	9032.64
654.282	9038.75
654.633	8931.18
654.985	8999.42
655.337	8954.68
655.688	9041.68
656.039	9045.07
656.391	8962.14
656.742	8982.7
657.094	8974.11
657.445	9034
657.796	8990.84
658.147	9034
658.498	9012.53
658.849	8993.77
659.2	8981.12
659.551	8894.34
659.902	8952.65
660.253	9041.01
660.604	9004.4
660.955	8949.48
661.306	8996.71
661.656	9016.15
662.007	8956.94
662.358	9010.5
662.708	9001.01
663.059	8988.13
663.409	8963.95
663.76	9053.21
664.11	8986.54
664.461	8987.45
664.811	9050.95
665.161	8961.91
665.511	9012.53
665.862	9002.81
666.212	8955.81
666.562	9023.15
666.912	9075.81
667.262	8961.69
667.612	8942.93
667.962	9027.67
668.312	8958.07
668.662	8982.25
669.011	9035.58
669.361	9022.93
669.711	9010.05
670.06	8998.75
670.41	8941.8
670.76	8896.38
671.109	8997.16
671.459	9007.79
671.808	8935.92
672.157	8936.15
672.507	8877.85
672.856	8854.12
673.205	8857.73
673.554	8907.9
673.904	8892.53
674.253	8964.4
674.602	8882.59
674.951	8808.69
675.3	8724.4
675.649	8896.15
675.998	8872.42
676.346	8929.82
676.695	8918.75
677.044	8764.63
677.393	8809.37
677.741	8841.46
678.09	8824.29
678.438	8775.93
678.787	8817.51
679.135	8810.05
679.484	8761.01
679.832	8769.37
680.181	8773.67
680.529	8718.75
680.877	8728.47
681.225	8705.87
681.573	8719.21
681.922	8730.05
682.27	8672.65
682.618	8672.43
682.966	8637.85
683.314	8678.98
683.661	8541.13
684.009	8581.58
684.357	8540.68
684.705	8532.32
685.053	8519.21
685.4	8534.8
685.748	8474.69
686.095	8461.59
686.443	8421.81
686.79	8451.42
687.138	8365.77
687.485	8427.91
687.832	8407.58
688.18	8429.27
688.527	8333.91
688.874	8293
689.221	8248.71
689.568	8260.69
689.915	8262.04
690.262	8275.15
690.609	8200.8
690.956	8175.04
691.303	8256.17
691.65	8133.68
691.997	8164.19
692.344	8119.67
692.69	8058.43
693.037	8101.82
693.383	7976.4
693.73	7990.41
694.077	7930.98
694.423	7937.53
694.769	7940.47
695.116	7913.13
695.462	7944.08
695.808	7859.79
696.155	7907.93
696.501	7820.47
696.847	7784.77
697.193	7727.59
697.539	7712.9
697.885	7688.95
698.231	7649.18
698.577	7702.06
698.923	7696.41
699.269	7632
699.614	7557.2
699.96	7527.37
700.306	7531.67
700.651	7539.12
700.997	7474.49
701.342	7482.85
701.688	7438.34
702.033	7441.05
702.379	7394.72
702.724	7336.42
703.069	7369.86
703.415	7309.3
703.76	7314.72
704.105	7309.3
704.45	7265.23
704.795	7180.26
705.14	7169.42
705.485	7220.04
705.83	7244.22
706.175	7186.59
706.52	7192.24
706.865	7135.07
707.209	7062.53
707.554	7059.59
707.899	7103.43
708.243	7046.93
708.588	6989.08
708.932	6962.87
709.277	6982.75
709.621	7022.53
709.966	6877.9
710.31	6946.37
710.654	6874.96
710.998	6934.85
711.342	6892.81
711.687	6818.69
712.031	6820.27
712.375	6816.2
712.719	6845.58
713.063	6834.96
713.407	6854.62
713.75	6728.75
714.094	6747.96
714.438	6741.63
714.782	6743.44
715.125	6705.93
715.469	6683.1
715.812	6758.35
716.156	6619.37
716.499	6599.49
716.843	6643.33
717.186	6639.71
717.53	6706.6
717.873	6658.92
718.216	6652.14
718.559	6642.42
718.902	6558.58
719.246	6584.35
719.589	6584.8
719.932	6564.01
720.275	6540.96
720.617	6564.46
720.96	6519.94
721.303	6543.67
721.646	6523.78
721.989	6527.62
722.331	6520.17
722.674	6533.05
723.016	6521.07
723.359	6507.29
723.701	6520.17
724.044	6480.62
724.386	6496.67
724.729	6489.21
725.071	6460.73
725.413	6495.31
725.755	6442.43
726.097	6405.59
726.439	6378.93
726.782	6365.82
727.124	6405.37
727.465	6391.58
727.807	6385.71
728.149	6372.15
728.491	6337.12
728.833	6386.16
729.175	6391.58
729.516	6366.73
729.858	6317.91
730.199	6362.88
730.541	6341.19
730.882	6323.11
731.224	6375.09
731.565	6413.05
731.906	6297.8
732.248	6356.56
732.589	6357.69
732.93	6299.83
733.271	6368.31
733.612	6321.53
733.953	6359.72
734.294	6355.65
734.635	6322.21
734.976	6359.95
735.317	6310.68
735.658	6331.7
735.999	6314.98
736.339	6315.65
736.68	6332.38
737.021	6337.57
737.361	6397.91
737.702	6310.91
738.042	6329.44
738.383	6351.58
738.723	6377.57
739.063	6353.17
739.404	6376.67
739.744	6340.51
740.084	6329.89
740.424	6382.32
740.764	6386.61
741.104	6398.81
741.444	6366.5
741.784	6342.32
742.124	6418.93
742.464	6424.8
742.804	6476.33
743.143	6410.57
743.483	6439.72
743.823	6435.88
744.162	6442.88
744.502	6461.64
744.841	6465.25
745.181	6514.74
745.52	6509.55
745.86	6545.93
746.199	6537.79
746.538	6539.6
746.877	6614.63
747.216	6621.63
747.556	6621.86
747.895	6703.21
748.234	6723.78
748.573	6724.46
748.911	6761.74
749.25	6801.97
749.589	6802.65
749.928	6839.03
750.267	6920.61
750.605	6961.74
750.944	6989.08
751.283	7024.11
751.621	7088.29
751.96	7089.19
752.298	7199.7
752.636	7266.59
752.975	7296.42
753.313	7296.64
753.651	7418
753.989	7433.59
754.327	7482.63
754.666	7531.67
755.004	7672.91
755.342	7784.54
755.679	7836.52
756.017	7889.85
756.355	7975.5
756.693	8032.67
757.031	8162.38
757.368	8196.28
757.706	8295.94
758.044	8401.93
758.381	8473.34
758.719	8541.58
759.056	8708.81
759.394	8737.51
759.731	8868.58
760.068	8887.56
760.405	9029.48
760.743	9109.48
761.08	9268.34
761.417	9294.78
761.754	9432.18
762.091	9551.05
762.428	9566.87
762.765	9694.1
763.102	9832.17
763.438	9899.74
763.775	9967.31
764.112	10054.76
764.449	10212.05
764.785	10333.85
765.122	10370.91
765.458	10379.28
765.795	10468.76
766.131	10550.34
766.467	10611.13
766.804	10773.16
767.14	10731.58
767.476	10935.42
767.812	10908.98
768.148	11027.85
768.485	11100.84
768.821	11165.24
769.157	11173.38
769.492	11249.53
769.828	11424.67
770.164	11417.21
770.5	11381.73
770.836	11518.45
771.171	11481.84
771.507	11564.1
771.842	11589.19
772.178	11697.66
772.513	11772.46
772.849	11692.23
773.184	11701.95
773.519	11907.82
773.855	11918.67
774.19	11879.57
774.525	11938.1
774.86	11968.61
775.195	11933.36
775.53	12053.58
775.865	11951.66
776.2	11930.42
776.535	12017.2
776.87	11973.81
777.205	12072.34
777.539	12036.41
777.874	12159.79
778.209	11963.19
778.543	12071.89
778.878	12019.68
779.212	12055.39
779.547	12010.64
779.881	12130.19
780.215	12089.51
780.55	12175.61
780.884	12100.59
781.218	12056.52
781.552	12122.51
781.886	12109.85
782.22	12038.21
782.554	12089.06
782.888	12023.75
783.222	11978.56
783.556	11917.99
783.889	11997.54
784.223	11891.1
784.557	11857.65
784.89	11898.11
785.224	11908.5
785.557	11881.83
785.891	11857.88
786.224	11894.72
786.558	11859.01
786.891	11808.16
787.224	11702.86
787.557	11744.44
787.891	11735.62
788.224	11779.24
788.557	11750.99
788.89	11731.33
789.223	11742.63
789.556	11683.42
789.888	11645.68
790.221	11635.06
790.554	11588.73
790.887	11549.64
791.219	11543.54
791.552	11505.35
791.884	11514.39
792.217	11396.65
792.549	11423.99
792.882	11386.93
793.214	11393.94
793.546	11389.64
793.879	11262.64
794.211	11223.09
794.543	11301.06
794.875	11217.45
795.207	11227.39
795.539	11201.85
795.871	11255.41
796.203	11137
796.535	11064
796.867	11109.43
797.198	11109.88
797.53	11042.76
797.862	11008.64
798.193	11010.9
798.525	10957.11
798.856	11036.66
799.188	10908.53
799.519	10868.3
799.85	10862.88
800.182	10861.97
800.513	10810.45
800.844	10724.12
801.175	10792.82
801.506	10772.49
801.837	10724.12
802.168	10706.95
802.499	10652.04
802.83	10701.75
803.161	10622.43
803.491	10603.45
803.822	10648.65
804.153	10574.52
804.483	10487.29
804.814	10457.01
805.145	10475.09
805.475	10505.37
805.805	10475.32
806.136	10453.4
806.466	10356.45
806.796	10403
807.126	10357.35
807.457	10365.26
807.787	10287.07
808.117	10207.53
808.447	10239.17
808.777	10248.66
809.107	10174.53
809.436	10109.45
809.766	10191.94
810.096	10160.3
810.426	10044.37
810.755	10103.8
811.085	10058.61
811.414	10110.81
811.744	10029.91
812.073	9961.21
812.403	9969.34
812.732	9973.41
813.061	9958.27
813.39	9857.71
813.719	9837.59
814.049	9925.95
814.378	9912.17
814.707	9808.67
815.036	9843.02
815.365	9734.55
815.693	9733.42
816.022	9727.09
816.351	9669.24
816.68	9659.75
817.008	9697.03
817.337	9614.32
817.665	9563.03
817.994	9596.92
818.322	9547.66
818.651	9553.53
818.979	9524.83
819.307	9538.85
819.636	9528.68
819.964	9473.08
820.292	9518.96
820.62	9543.14
820.948	9471.05
821.276	9487.32
821.604	9441.22
821.932	9371.84
822.259	9527.09
822.587	9424.27
822.915	9419.53
823.243	9472.41
823.57	9421.33
823.898	9425.63
824.225	9458.85
824.553	9390.6
824.88	9488.45
825.207	9453.88
825.535	9461.11
825.862	9478.06
826.189	9464.27
826.516	9486.42
826.843	9483.93
827.17	9490.48
827.497	9493.87
827.824	9481.67
828.151	9498.17
828.478	9497.94
828.805	9528.45
829.131	9476.47
829.458	9478.06
829.785	9372.07
830.111	9398.74
830.438	9500.2
830.764	9465.63
831.09	9542.46
831.417	9407.55
831.743	9538.62
832.069	9497.94
832.395	9357.83
832.722	9478.06
833.048	9444.61
833.374	9514.67
833.7	9412.52
834.026	9375.01
834.351	9475.34
834.677	9357.16
835.003	9481.67
835.329	9421.11
835.654	9400.77
835.98	9292.98
836.306	9360.09
836.631	9339.3
836.956	9295.91
837.282	9297.27
837.607	9271.96
837.932	9284.16
838.258	9252.53
838.583	9198.29
838.908	9187.67
839.233	9172.3
839.558	9218.18
839.883	9130.49
840.208	9138.63
840.533	9146.31
840.858	9195.13
841.182	9151.28
841.507	9167.56
841.832	9065.64
842.156	9123.26
842.481	9124.17
842.805	9033.55
843.13	8980.67
843.454	9031.51
843.778	8984.51
844.103	8937.73
844.427	8916.26
844.751	8956.49
845.075	8901.35
845.399	8887.79
845.723	8838.07
846.047	8843.27
846.371	8775.93
846.695	8781.13
847.019	8789.03
847.343	8652.54
847.666	8678.08
847.99	8605.76
848.313	8606.67
848.637	8531.19
848.96	8539.1
849.284	8565.54
849.607	8495.48
849.931	8466.56
850.254	8362.83
850.577	8337.29
850.9	8351.08
851.223	8381.14
851.546	8231.99
851.869	8225.21
852.192	8193.34
852.515	8191.31
852.838	8158.77
853.161	8154.47
853.483	8117.41
853.806	8052.1
854.129	8046.23
854.451	8005.55
854.774	7956.74
855.096	7922.62
855.419	7958.77
855.741	7987.02
856.063	7841.26
856.385	7863.64
856.708	7803.52
857.03	7867.02
857.352	7815.05
857.674	7786.35
857.996	7798.33
858.318	7719.68
858.64	7728.05
858.961	7708.38
859.283	7638.33
859.605	7625
859.926	7582.96
860.248	7524.21
860.57	7559.24
860.891	7572.57
861.212	7492.35
861.534	7528.95
861.855	7465.91
862.176	7507.26
862.498	7485.11
862.819	7487.6
863.14	7478.56
863.461	7486.02
863.782	7392.69
864.103	7385.46
864.424	7453.48
864.745	7412.57
865.065	7376.87
865.386	7372.35
865.707	7369.18
866.027	7361.5
866.348	7390.43
866.668	7334.38
866.989	7301.62
867.309	7274.05
867.63	7247.83
867.95	7246.7
868.27	7255.06
868.59	7237.21
868.91	7285.12
869.23	7229.98
869.55	7188.4
869.87	7211.45
870.19	7255.97
870.51	7158.57
870.83	7201.96
871.15	7129.64
871.469	7152.69
871.789	7124.67
872.109	7188.4
872.428	7135.74
872.748	7119.7
873.067	7090.32
873.386	7075.41
873.706	7105.24
874.025	7047.16
874.344	6979.82
874.663	7020.49
874.982	7025.92
875.301	6997.67
875.62	6964.45
875.939	6975.97
876.258	6984.79
876.577	6948.4
876.896	7004.45
877.214	6921.51
877.533	6925.81
877.852	6900.95
878.17	6913.38
878.489	6932.13
878.807	6941.17
879.125	6903.66
879.444	6867.28
879.762	6877.45
880.08	6813.72
880.398	6814.85
880.716	6840.84
881.034	6767.39
881.352	6795.41
881.67	6798.13
881.988	6824.57
882.306	6739.37
882.624	6747.28
882.941	6717.22
883.259	6734.4
883.577	6732.14
883.894	6724.23
884.212	6669.09
884.529	6690.78
884.846	6641.97
885.164	6594.06
885.481	6587.74
885.798	6602.2
886.115	6550.45
886.432	6577.57
886.75	6563.33
887.067	6537.12
887.383	6519.04
887.7	6517.68
888.017	6474.07
888.334	6486.95
888.651	6493.95
888.967	6458.25
889.284	6455.31
889.6	6442.43
889.917	6401.3
890.233	6374.86
890.55	6385.93
890.866	6390
891.182	6340.74
891.498	6297.35
891.815	6277.24
892.131	6298.93
892.447	6294.41
892.763	6164.24
893.079	6240.85
893.395	6208.76
893.71	6209.44
894.026	6137.35
894.342	6145.04
894.657	6132.16
894.973	6083.57
895.289	6094.64
895.604	6098.94
895.92	6008.77
896.235	5996.11
896.55	6047.19
896.865	5957.24
897.181	6018.26
897.496	5938.26
897.811	5958.15
898.126	5914.08
898.441	5940.97
898.756	5873.86
899.071	5872.05
899.386	5833.18
899.7	5862.33
900.015	5790.7
900.33	5778.04
900.644	5731.26
900.959	5767.42
901.273	5702.34
901.588	5673.86
901.902	5611.94
902.216	5670.92
902.531	5620.3
902.845	5603.13
903.159	5582.11
903.473	5581.89
903.787	5518.84
904.101	5539.63
904.415	5479.97
904.729	5495.79
905.042	5457.6
905.356	5433.87
905.67	5472.06
905.984	5417.15
906.297	5442.23
906.611	5395.23
906.924	5327.66
907.237	5305.06
907.551	5350.71
907.864	5351.38
908.177	5332.85
908.491	5268
908.804	5256.25
909.117	5188.23
909.43	5169.24
909.743	5100.09
910.056	5146.19
910.368	5114.33
910.681	5133.09
910.994	5079.53
911.307	5082.01
911.619	5061
911.932	5051.28
912.244	5007.21
912.557	4975.35
912.869	4982.13
913.181	4980.77
913.494	4929.47
913.806	4864.84
914.118	4860.55
914.43	4800.44
914.742	4832.98
915.054	4827.1
915.366	4842.7
915.678	4852.41
915.99	4824.17
916.302	4742.59
916.613	4743.49
916.925	4746.43
917.236	4665.75
917.548	4680.44
917.859	4687
918.171	4629.6
918.482	4644.51
918.794	4591.63
919.105	4623.27
919.416	4578.98
919.727	4607.22
920.038	4595.25
920.349	4496.72
920.66	4512.99
920.971	4510.95
921.282	4486.77
921.593	4502.59
921.903	4464.85
922.214	4427.12
922.525	4393.9
922.835	4399.09
923.146	4366.1
923.456	4336.5
923.767	4363.61
924.077	4321.58
924.387	4296.95
924.697	4250.85
925.008	4278.64
925.318	4230.96
925.628	4247.91
925.938	4228.93
926.248	4146.67
926.558	4186.67
926.867	4159.78
927.177	4136.73
927.487	4125.65
927.796	4122.49
928.106	4100.12
928.416	4044.07
928.725	4068.93
929.034	4025.09
929.344	4029.84
929.653	4047.92
929.962	4017.41
930.271	3954.13
930.581	3992.78
930.89	3927.69
931.199	3944.42
931.508	3935.38
931.817	3913.91
932.125	3921.14
932.434	3918.65
932.743	3856.96
933.051	3838.66
933.36	3860.35
933.669	3822.61
933.977	3840.24
934.286	3772.44
934.594	3836.85
934.902	3749.84
935.21	3767.7
935.519	3747.36
935.827	3745.78
936.135	3716.17
936.443	3677.76
936.751	3637.76
937.059	3630.3
937.367	3658.1
937.674	3643.86
937.982	3624.88
938.29	3624.2
938.597	3623.07
938.905	3562.96
939.213	3535.61
939.52	3562.28
939.827	3530.87
940.135	3534.71
940.442	3495.39
940.749	3502.39
941.056	3473.02
941.363	3447.71
941.67	3442.06
941.977	3427.37
942.284	3398.67
942.591	3399.57
942.898	3361.15
943.205	3395.96
943.511	3354.38
943.818	3337.65
944.125	3317.54
944.431	3318.44
944.738	3299.24
945.044	3292
945.35	3259.46
945.657	3280.7
945.963	3243.64
946.269	3250.65
946.575	3205.68
946.881	3199.35
947.187	3197.09
947.493	3198.9
947.799	3183.76
948.105	3177.88
948.41	3141.27
948.716	3113.48
949.022	3109.64
949.327	3103.08
949.633	3069.41
949.938	3056.98
950.244	3078.68
950.549	3083.2
950.854	3024.67
951.16	2993.93
951.465	3009.07
951.77	3054.04
952.075	2985.35
952.38	2972.01
952.685	2947.15
952.99	2902.18
953.294	2958.91
953.599	2931.34
953.904	2921.62
954.209	2880.72
954.513	2877.78
954.818	2884.1
955.122	2862.41
955.426	2854.73
955.731	2878
956.035	2851.11
956.339	2831.68
956.643	2812.69
956.948	2810.66
957.252	2786.03
957.556	2762.53
957.86	2769.31
958.163	2760.49
958.467	2760.04
958.771	2767.27
959.075	2717.56
959.378	2693.83
959.682	2707.61
959.985	2685.01
960.289	2672.81
960.592	2641.63
960.896	2660.16
961.199	2641.4
961.502	2650.21
961.805	2602.08
962.108	2598.69
962.411	2578.58
962.714	2598.24
963.017	2572.02
963.32	2594.85
963.623	2530.67
963.926	2520.5
964.228	2540.84
964.531	2536.09
964.833	2516.66
965.136	2498.58
965.438	2493.15
965.741	2447.73
966.043	2472.82
966.345	2478.92
966.648	2464
966.95	2410.9
967.252	2424.23
967.554	2436.89
967.856	2400.05
968.158	2402.54
968.46	2415.87
968.761	2359.82
969.063	2374.29
969.365	2391.46
969.666	2372.25
969.968	2388.07
970.269	2357.57
970.571	2356.44
970.872	2325.48
971.174	2319.37
971.475	2283.89
971.776	2270.79
972.077	2304.01
972.378	2254.97
972.679	2320.28
972.98	2238.25
973.281	2232.14
973.582	2234.4
973.883	2213.16
974.183	2210
974.484	2203.22
974.785	2161.19
975.085	2192.15
975.386	2196.44
975.686	2158.7
975.986	2173.39
976.287	2146.5
976.587	2126.16
976.887	2136.78
977.187	2107.4
977.487	2138.81
977.787	2121.19
978.087	2101.3
978.387	2082.09
978.687	2090.23
978.987	2073.05
979.286	2069.21
979.586	2024.47
979.885	2031.7
980.185	2039.16
980.484	1988.31
980.784	2023.34
981.083	2043.68
981.382	2023.79
981.682	1972.04
981.981	1980.85
982.28	1945.37
982.579	1990.57
982.878	1991.93
983.177	1970
983.475	1954.64
983.774	1934.98
984.073	1945.6
984.372	1906.96
984.67	1887.52
984.969	1893.4
985.267	1879.84
985.566	1891.59
985.864	1897.92
986.162	1895.2
986.461	1897.01
986.759	1873.06
987.057	1820.4
987.355	1834.64
987.653	1827.64
987.951	1843.68
988.249	1810.23
988.547	1811.36
988.844	1816.11
989.142	1817.69
989.44	1773.17
989.737	1807.52
990.035	1778.6
990.332	1753.97
990.63	1765.26
990.927	1781.31
991.224	1753.97
991.521	1741.99
991.819	1714.64
992.116	1725.04
992.413	1725.04
992.71	1724.59
993.006	1681.2
993.303	1686.62
993.6	1665.61
993.897	1673.06
994.193	1666.51
994.49	1683.23
994.787	1648.66
995.083	1668.09
995.379	1656.34
995.676	1636.68
995.972	1657.02
996.268	1606.17
996.565	1612.27
996.861	1623.12
997.157	1582.9
997.453	1607.08
997.749	1616.12
998.044	1552.61
998.34	1566.63
998.636	1558.26
998.932	1542.67
999.227	1564.14
999.523	1551.03
999.818	1551.03
1000.114	1543.12
1000.409	1523.46
1000.704	1527.3
1001	1505.38
1001.295	1488.21
1001.59	1479.85
1001.885	1473.97
1002.18	1489.34
1002.475	1496.12
1002.77	1469.68
1003.065	1466.52
1003.359	1447.53
1003.654	1431.49
1003.949	1438.72
1004.243	1431.94
1004.538	1436.69
1004.832	1433.3
1005.127	1402.34
1005.421	1395.1
1005.715	1389
1006.009	1386.97
1006.304	1374.54
1006.598	1360.08
1006.892	1333.64
1007.186	1356.91
1007.48	1323.02
1007.773	1339.06
1008.067	1347.65
1008.361	1324.82
1008.655	1310.81
1008.948	1295.22
1009.242	1311.26
1009.535	1298.16
1009.829	1317.14
1010.122	1282.79
1010.415	1304.49
1010.708	1244.83
1011.001	1285.05
1011.295	1266.29
1011.588	1248.44
1011.881	1231.49
1012.173	1257.26
1012.466	1192.17
1012.759	1241.21
1013.052	1209.35
1013.344	1213.41
1013.637	1214.77
1013.93	1222
1014.222	1191.27
1014.514	1183.36
1014.807	1170.93
1015.099	1179.29
1015.391	1184.94
1015.683	1166.86
1015.976	1170.48
1016.268	1160.31
1016.56	1159.63
1016.851	1128.9
1017.143	1131.61
1017.435	1118.05
1017.727	1102
1018.018	1114.43
1018.31	1077.6
1018.602	1114.43
1018.893	1111.04
1019.185	1078.95
1019.476	1095
1019.767	1067.88
1020.058	1079.86
1020.35	1080.08
1020.641	1059.75
1020.932	1049.58
1021.223	1039.41
1021.514	1037.37
1021.804	1034.21
1022.095	1038.5
1022.386	1026.07
1022.677	1033.76
1022.967	1027.66
1023.258	990.6
1023.548	992.18
1023.839	1005.51
1024.129	978.62
1024.419	978.39
1024.709	1000.31
1025	960.09
1025.29	956.02
1025.58	922.35
1025.87	944.95
1026.16	949.24
1026.449	955.79
1026.739	938.62
1027.029	930.03
1027.319	916.93
1027.608	927.77
1027.898	907.66
1028.187	921.9
1028.477	906.08
1028.766	882.58
1029.055	887.55
1029.344	916.93
1029.634	893.2
1029.923	878.51
1030.212	885.74
1030.501	892.74
1030.79	856.59
1031.078	846.64
1031.367	838.28
1031.656	860.2
1031.945	846.64
1032.233	838.96
1032.522	814.33
1032.81	830.6
1033.099	825.18
1033.387	801.45
1033.675	793.99
1033.963	837.38
1034.251	810.04
1034.54	805.29
1034.828	786.76
1035.116	777.49
1035.403	798.06
1035.691	767.32
1035.979	777.04
1036.267	757.83
1036.554	748.79
1036.842	751.96
1037.129	777.49
1037.417	763.48
1037.704	761.22
1037.992	766.87
1038.279	742.01
1038.566	731.85
1038.853	731.85
1039.14	731.85
