Data from hue_60_FLMS001491_33.txt Node
Date: Mon Feb 06 15:17:17 GMT 2017
User: dcchb
Spectrometer: FLMS00149
Trigger mode: 0
Integration Time (sec): 2.000000E-2
Scans to average: 10
Electric dark correction enabled: true
Nonlinearity correction enabled: false
Boxcar width: 0
XAxis mode: Wavelengths
Number of Pixels in Spectrum: 2048
>>>>>Begin Spectral Data<<<<<
341.393	-33.52
341.776	-33.52
342.16	-33.52
342.543	-45.95
342.927	-78.71
343.31	-72.61
343.693	-46.4
344.077	-52.95
344.46	-63.8
344.843	-60.86
345.226	-29.67
345.61	-38.94
345.993	-28.77
346.376	-2.1
346.759	8.74
347.142	15.75
347.525	48.29
347.908	48.29
348.291	73.15
348.674	83.09
349.057	118.8
349.44	114.95
349.823	165.12
350.206	169.87
350.588	195.86
350.971	215.52
351.354	247.38
351.737	251.67
352.119	254.61
352.502	251.45
352.884	295.51
353.267	280.83
353.65	305.01
354.032	301.16
354.414	302.07
354.797	296.19
355.179	331.22
355.562	313.59
355.944	316.76
356.326	321.73
356.709	336.87
357.091	350.43
357.473	341.84
357.855	357.89
358.238	349.75
358.62	355.85
359.002	336.42
359.384	348.39
359.766	357.43
360.148	352.46
360.53	342.07
360.912	333.71
361.294	325.12
361.676	311.11
362.057	326.7
362.439	343.88
362.821	359.02
363.203	318.11
363.584	320.82
363.966	342.97
364.348	314.5
364.729	328.73
365.111	328.06
365.493	329.86
365.874	328.06
366.256	319.47
366.637	338
367.019	327.38
367.4	314.5
367.781	306.59
368.163	299.13
368.544	318.11
368.925	308.4
369.306	318.11
369.688	312.24
370.069	305.01
370.45	316.31
370.831	312.24
371.212	320.6
371.593	327.38
371.974	317.89
372.355	328.96
372.736	303.88
373.117	324.89
373.498	332.8
373.879	319.69
374.26	317.66
374.641	310.2
375.021	333.71
375.402	342.07
375.783	332.8
376.163	313.14
376.544	332.58
376.925	335.97
377.305	321.95
377.686	330.54
378.066	325.57
378.447	327.15
378.827	330.99
379.208	330.99
379.588	338.45
379.968	349.75
380.349	329.41
380.729	337.55
381.109	363.08
381.489	338
381.87	343.42
382.25	325.57
382.63	331.45
383.01	335.51
383.39	349.07
383.77	325.57
384.15	341.84
384.53	333.93
384.91	330.99
385.29	333.25
385.67	338
386.049	356.98
386.429	344.1
386.809	356.53
387.189	355.85
387.568	358.56
387.948	351.33
388.328	359.69
388.707	350.2
389.087	339.58
389.466	351.56
389.846	358.11
390.225	345.01
390.605	371.67
390.984	359.24
391.363	352.46
391.743	366.25
392.122	372.57
392.501	345.46
392.881	367.38
393.26	367.15
393.639	368.96
394.018	350.43
394.397	363.31
394.776	362.18
395.155	368.96
395.534	376.42
395.913	369.41
396.292	392.69
396.671	379.58
397.05	386.36
397.429	395.17
397.808	371.22
398.186	370.99
398.565	373.93
398.944	393.14
399.323	388.62
399.701	368.28
400.08	395.17
400.458	376.42
400.837	377.77
401.215	384.1
401.594	397.43
401.972	383.42
402.351	403.53
402.729	407.15
403.107	408.28
403.486	393.37
403.864	373.03
404.242	396.08
404.62	380.94
404.999	391.11
405.377	404.89
405.755	392.24
406.133	398.11
406.511	406.02
406.889	417.77
407.267	418
407.645	405.12
408.023	422.07
408.401	443.31
408.779	429.52
409.156	418.22
409.534	426.58
409.912	431.56
410.29	444.66
410.667	426.36
411.045	413.93
411.422	449.41
411.8	449.64
412.178	441.95
412.555	449.86
412.933	436.08
413.31	446.7
413.687	458.22
414.065	442.63
414.442	440.6
414.819	474.04
415.197	433.82
415.574	447.15
415.951	483.76
416.328	486.24
416.705	472.91
417.082	489.63
417.46	483.53
417.837	485.57
418.214	502.52
418.591	489.41
418.967	500.26
419.344	488.28
419.721	489.41
420.098	485.34
420.475	491.89
420.852	503.64
421.228	512.68
421.605	493.93
421.982	504.32
422.358	504.77
422.735	529.18
423.111	511.78
423.488	519.69
423.864	514.72
424.241	530.08
424.617	537.54
424.994	542.51
425.37	531.67
425.746	559.24
426.123	549.75
426.499	530.54
426.875	544.77
427.251	570.31
427.627	555.85
428.003	561.04
428.379	563.76
428.756	567.82
429.132	556.75
429.507	558.56
429.883	565.79
430.259	568.05
430.635	581.16
431.011	596.75
431.387	594.26
431.763	599.46
432.138	596.3
432.514	607.37
432.89	605.11
433.265	629.97
433.641	616.86
434.016	634.71
434.392	614.38
434.767	619.57
435.143	587.26
435.518	644.43
435.894	648.73
436.269	631.55
436.644	637.65
437.02	640.82
437.395	644.43
437.77	671.55
438.145	662.96
438.52	687.59
438.895	682.62
439.271	666.13
439.646	703.41
440.021	676.52
440.395	699.35
440.77	683.53
441.145	705.9
441.52	702.74
441.895	704.32
442.27	711.78
442.645	714.49
443.019	721.94
443.394	722.85
443.769	717.65
444.143	745.67
444.518	746.35
444.892	744.99
445.267	752
445.641	733.02
446.016	743.19
446.39	736.41
446.764	757.42
447.139	762.4
447.513	749.97
447.887	762.62
448.262	746.58
448.636	767.37
449.01	795.16
449.384	787.93
449.758	770.98
450.132	787.93
450.506	815.5
450.88	788.38
451.254	801.04
451.628	814.37
452.002	795.61
452.376	804.43
452.75	816.86
453.123	833.35
453.497	839
453.871	857.31
454.244	873.8
454.618	872.22
454.992	874.71
455.365	879.91
455.739	914.03
456.112	895.73
456.486	893.69
456.859	914.26
457.232	955.16
457.606	934.59
457.979	919
458.352	939.34
458.725	958.32
459.099	942.73
459.472	955.16
459.845	1009.62
460.218	999.45
460.591	1022.73
460.964	1024.54
461.337	1042.61
461.71	1050.75
462.083	1036.29
462.456	1045.33
462.829	1079.68
463.201	1111.31
463.574	1094.59
463.947	1127.58
464.32	1129.39
464.692	1126.68
465.065	1145.66
465.438	1189.5
465.81	1166
466.183	1213.91
466.555	1248.94
466.928	1220.24
467.3	1244.64
467.672	1273.34
468.045	1275.83
468.417	1301.59
468.789	1293.45
469.161	1333
469.534	1380.23
469.906	1387.24
470.278	1420.23
470.65	1446.45
471.022	1492.55
471.394	1512.43
471.766	1536.84
472.138	1543.17
472.51	1596.5
472.882	1640.34
473.253	1616.38
473.625	1703.61
473.997	1731.18
474.369	1742.48
474.74	1784.29
475.112	1837.85
475.484	1906.55
475.855	1938.18
476.227	1959.88
476.598	2027.67
476.97	2071.29
477.341	2104.28
477.713	2195.8
478.084	2255.24
478.455	2308.34
478.827	2358.29
479.198	2427.66
479.569	2475.57
479.94	2582.23
480.311	2636.47
480.682	2704.72
481.053	2796.92
481.424	2897.71
481.795	2949.68
482.166	3040.08
482.537	3104.71
482.908	3228.77
483.279	3294.08
483.65	3415.66
484.021	3499.5
484.391	3633.05
484.762	3682.32
485.133	3795.54
485.503	3884.12
485.874	4003.67
486.244	4114.4
486.615	4253.83
486.985	4377.67
487.356	4509.19
487.726	4585.8
488.097	4788.05
488.467	4876.41
488.837	5028.72
489.207	5142.17
489.578	5305.33
489.948	5391.2
490.318	5526.34
490.688	5656.96
491.058	5781.47
491.428	6004.97
491.798	6143.72
492.168	6310.95
492.538	6419.87
492.908	6554.56
493.278	6694.22
493.648	6835.91
494.017	7001.55
494.387	7146.86
494.757	7279.96
495.126	7436.57
495.496	7479.51
495.866	7714.08
496.235	7850.8
496.605	8056.21
496.974	8138.7
497.344	8354.06
497.713	8410.78
498.082	8581.62
498.452	8744.33
498.821	8913.37
499.19	9040.14
499.559	9150.65
499.928	9300.7
500.298	9412.56
500.667	9576.85
501.036	9674.93
501.405	9923.51
501.774	9953.11
502.143	10174.8
502.512	10233.33
502.88	10387
503.249	10538.41
503.618	10643.49
503.987	10875.12
504.356	10981.34
504.724	11011.39
505.093	11169.81
505.462	11284.6
505.83	11453.19
506.199	11529.8
506.567	11782.67
506.936	11845.27
507.304	12010.91
507.672	12134.07
508.041	12353.73
508.409	12417.46
508.777	12640.73
509.145	12746.49
509.514	12838.91
509.882	12979.48
510.25	12945.8
510.618	13183.31
510.986	13312.8
511.354	13403.87
511.722	13632.57
512.09	13727.25
512.458	13747.14
512.826	13917.53
513.193	14049.5
513.561	14160.69
513.929	14394.13
514.297	14517.06
514.664	14645.65
515.032	14646.32
515.4	14800.9
515.767	15072.98
516.135	15076.82
516.502	15101.91
516.869	15449.69
517.237	15445.62
517.604	15503.25
517.972	15760.42
518.339	15811.27
518.706	15960.41
519.073	15980.07
519.44	16177.58
519.808	16413.28
520.175	16358.14
520.542	16563.56
520.909	16728.08
521.276	16818.7
521.643	16898.24
522.009	17191.34
522.376	17341.39
522.743	17455.97
523.11	17653.02
523.477	17796.3
523.843	17901.38
524.21	18140.47
524.577	18258.66
524.943	18252.1
525.31	18463.85
525.676	18616.62
526.043	18761.02
526.409	18768.93
526.776	19089.6
527.142	19066.32
527.508	19212.08
527.874	19381.34
528.241	19504.95
528.607	19607.78
528.973	19813.65
529.339	19871.72
529.705	20049.57
530.071	20155.11
530.437	20260.64
530.803	20387.87
531.169	20526.85
531.535	20545.38
531.901	20639.84
532.267	20747.86
532.632	20869.21
532.998	20988.08
533.364	21071.47
533.73	21124.57
534.095	21341.52
534.461	21393.94
534.826	21646.82
535.192	21633.71
535.557	21771.56
535.923	21839.81
536.288	21933.82
536.653	22053.13
537.019	22000.25
537.384	22115.96
537.749	22245.67
538.114	22237.99
538.479	22359.57
538.845	22452.22
539.21	22442.73
539.575	22592.1
539.94	22703.97
540.305	22873.68
540.67	22762.72
541.034	22971.98
541.399	22984.86
541.764	23055.82
542.129	23062.6
542.494	23136.95
542.858	23290.62
543.223	23265.31
543.587	23556.82
543.952	23558.86
544.316	23653.32
544.681	23497.84
545.045	23766.76
545.41	23897.38
545.774	23878.4
546.138	24009.47
546.503	23920.88
546.867	24063.25
547.231	24299.63
547.595	24279.07
547.959	24333.53
548.324	24365.84
548.688	24505.05
549.052	24502.11
549.416	24477.25
549.779	24605.84
550.143	24731.93
550.507	24807.41
550.871	24897.35
551.235	24891.48
551.599	25136.22
551.962	25165.82
552.326	25263.9
552.689	25379.6
553.053	25286.27
553.417	25458.02
553.78	25840.83
554.143	25746.82
554.507	25861.17
554.87	25900.94
555.234	26235.4
555.597	26110.88
555.96	26093.93
556.323	26279.01
556.686	26294.15
557.05	26515.16
557.413	26657.76
557.776	26579.8
558.139	27016.62
558.502	26855.72
558.865	27133
559.228	27247.8
559.59	27281.47
559.953	27363.96
560.316	27615.25
560.679	27544.52
561.041	27708.58
561.404	27838.29
561.767	28025.41
562.129	27939.31
562.492	28282.35
562.854	28260.2
563.217	28238.51
563.579	28449.35
563.941	28462.68
564.304	28678.95
564.666	28960.52
565.028	28925.5
565.39	29085.94
565.753	29172.27
566.115	29367.74
566.477	29489.55
566.839	29540.17
567.201	29751.92
567.563	29731.35
567.925	29969.08
568.287	29949.65
568.648	30097.9
569.01	30240.04
569.372	30413.59
569.734	30380.83
570.095	30564.55
570.457	30732.68
570.819	30803.64
571.18	30808.38
571.542	30952.34
571.903	31023.97
572.265	31085.21
572.626	31137.42
572.987	31293.34
573.349	31427.8
573.71	31578.31
574.071	31606.78
574.432	31729.04
574.794	31909.37
575.155	31958.64
575.516	31802.26
575.877	32011.97
576.238	32133.77
576.599	32246.99
576.96	32108.46
577.32	32220.1
577.681	32448.12
578.042	32530.37
578.403	32545.29
578.763	32533.76
579.124	32635.91
579.485	32675.91
579.845	32938.72
580.206	32797.71
580.566	32675.68
580.927	32843.13
581.287	32973.3
581.648	32813.08
582.008	33003.36
582.368	32901.21
582.728	33146.18
583.089	33152.96
583.449	33018.95
583.809	33112.05
584.169	33014.65
584.529	32962
584.889	33447.19
585.249	33175.78
585.609	33058.72
585.969	33235.67
586.329	33160.64
586.688	33274.53
587.048	33178.27
587.408	33290.13
587.768	33168.55
588.127	33307.3
588.487	33273.63
588.846	33448.09
589.206	33172.84
589.565	33259.85
589.925	33390.24
590.284	33333.74
590.643	33371.48
591.003	33427.98
591.362	33645.15
591.721	33409.67
592.08	33484.92
592.44	33673.39
592.799	33644.24
593.158	33564.7
593.517	33505.26
593.876	33801.3
594.235	33665.94
594.593	33562.89
594.952	33648.08
595.311	33660.97
595.67	33797.91
596.029	33984.57
596.387	33966.95
596.746	33917.23
597.104	33857.12
597.463	33801.07
597.822	33957.23
598.18	33881.3
598.538	33901.18
598.897	34069.99
599.255	34012.37
599.613	34420.27
599.972	34119.48
600.33	34256.66
600.688	34142.99
601.046	34346.14
601.404	34469.31
601.762	34389.53
602.12	34523.99
602.478	34556.76
602.836	34503.2
603.194	34445.8
603.552	34447.16
603.91	34332.59
604.268	34673.14
604.625	34636.53
604.983	34692.58
605.341	34536.65
605.698	34736.19
606.056	34712.69
606.413	34716.3
606.771	34898.9
607.128	34889.63
607.485	34740.26
607.843	34877.66
608.2	35081.94
608.557	35119.91
608.914	35100.93
609.272	35323.29
609.629	35372.11
609.986	35476.06
610.343	35426.34
610.7	35673.57
611.057	35585.21
611.414	35559.22
611.771	35584.98
612.127	35800.8
612.484	35790.4
612.841	35893.67
613.198	35766.45
613.554	35957.4
613.911	36017.97
614.267	36026.55
614.624	35990.62
614.98	36224.51
615.337	36413.21
615.693	36252.31
616.05	36201.46
616.406	36580.89
616.762	36285.3
617.118	36366.2
617.475	36392.87
617.831	36505.86
618.187	36556.03
618.543	36656.82
618.899	36852.75
619.255	36823.14
619.611	36772.97
619.967	37026.98
620.323	36895.23
620.678	36720.55
621.034	36815.46
621.39	36888.9
621.746	36763.48
622.101	37305.16
622.457	36967.54
622.812	37074.89
623.168	37184.94
623.523	37085.73
623.879	37335.67
624.234	37215.45
624.589	37202.34
624.945	37325.05
625.3	37388.1
625.655	37289.12
626.01	37421.54
626.365	37370.02
626.72	37354.88
627.075	37255.22
627.43	37435.1
627.785	37234.66
628.14	37415.89
628.495	37383.58
628.85	37420.19
629.205	37260.64
629.559	37456.35
629.914	37367.53
630.269	37397.59
630.623	37227.2
630.978	37180.65
631.332	37342.68
631.687	37299.51
632.041	37205.73
632.396	37348.78
632.75	37131.61
633.104	37356.46
633.459	37124.6
633.813	37113.08
634.167	37068.56
634.521	37215.22
634.875	37102.46
635.229	37200.08
635.583	36982.69
635.937	37169.57
636.291	36998.96
636.645	36971.16
636.999	36877.6
637.352	36938.85
637.706	36779.08
638.06	37084.38
638.413	36947.88
638.767	36782.69
639.121	36998.73
639.474	36585.41
639.828	36678.74
640.181	36906.98
640.534	36832.41
640.888	36784.95
641.241	36598.97
641.594	36575.01
641.947	36862.46
642.301	36608.68
642.654	36577.05
643.007	36663.15
643.36	36583.83
643.713	36544.05
644.066	36742.69
644.419	36360.1
644.771	36206.21
645.124	35877.63
645.477	35792.21
645.83	35633.34
646.182	35508.37
646.535	35387.7
646.888	35496.4
647.24	35106.58
647.593	35486.68
647.945	35406.23
648.298	35104.09
648.65	35043.75
649.002	34994.26
649.355	35258.21
649.707	35163.3
650.059	35420.92
650.411	35718.31
650.763	35723.51
651.115	36082.37
651.467	35970.73
651.819	35990.62
652.171	35745.66
652.523	35800.57
652.875	35874.01
653.227	35638.77
653.578	35904.97
653.93	35803.96
654.282	35576.17
654.633	35627.69
654.985	35723.96
655.337	35640.8
655.688	35716.05
656.039	35819.55
656.391	35443.29
656.742	35575.04
657.094	35680.12
657.445	35775.26
657.796	35529.16
658.147	35617.3
658.498	35575.49
658.849	35655.04
659.2	35551.54
659.551	35540.46
659.902	35537.3
660.253	35588.15
660.604	35642.16
660.955	35328.27
661.306	35532.33
661.656	35488.49
662.007	35575.04
662.358	35427.25
662.708	35421.6
663.059	35510.63
663.409	35227.93
663.76	35345.89
664.11	35252.56
664.461	35390.86
664.811	35474.25
665.161	35347.25
665.511	35372.56
665.862	35325.78
666.212	35357.87
666.562	35344.54
666.912	35490.97
667.262	35281.26
667.612	35228.83
667.962	35314.93
668.312	35218.21
668.662	35358.1
669.011	35180.02
669.361	35236.74
669.711	35227.7
670.06	35205.78
670.41	35151.77
670.76	34990.65
671.109	35358.77
671.459	35230.64
671.808	35017.99
672.157	35209.4
672.507	34974.6
672.856	35027.26
673.205	34911.1
673.554	35070.19
673.904	34922.85
674.253	35217.76
674.602	35079.68
674.951	34495.29
675.3	34407.39
675.649	34954.04
675.998	34896.64
676.346	34868.39
676.695	35012.79
677.044	34771.67
677.393	34832.46
677.741	34914.49
678.09	34772.57
678.438	34632.69
678.787	34648.06
679.135	34722.63
679.484	34749.3
679.832	34606.48
680.181	34494.84
680.529	34512.47
680.877	34452.58
681.225	34441.06
681.573	34699.81
681.922	34230.89
682.27	34189.09
682.618	34330.55
682.966	34161.07
683.314	34341.85
683.661	34102.31
684.009	33986.61
684.357	33873.61
684.705	33945.25
685.053	33874.29
685.4	33840.85
685.748	33720.85
686.095	33660.29
686.443	33481.53
686.79	33572.83
687.138	33599.72
687.485	33523.79
687.832	33472.72
688.18	33479.5
688.527	33246.96
688.874	33198.38
689.221	33172.39
689.568	32989.8
689.915	33152.5
690.262	33005.39
690.609	33016.01
690.956	32874.32
691.303	32767.2
691.65	32665.96
691.997	32741.44
692.344	32496.25
692.69	32569.92
693.037	32505.29
693.383	32315.92
693.73	32309.59
694.077	32109.14
694.423	32023.04
694.769	32104.17
695.116	31900.56
695.462	31962.03
695.808	31751.18
696.155	31946.66
696.501	31630.96
696.847	31561.13
697.193	31582.6
697.539	31494.69
697.885	31208.15
698.231	31144.2
698.577	31209.5
698.923	31158.21
699.269	30959.12
699.614	30948.04
699.96	30902.17
700.306	30824.88
700.651	30860.59
700.997	30788.05
701.342	30549.86
701.688	30548.73
702.033	30460.82
702.379	30387.38
702.724	30358.91
703.069	30365.46
703.415	30121.4
703.76	30110.55
704.105	30004.56
704.45	30061.96
704.795	29951.68
705.14	29750.11
705.485	29730
705.83	29646.38
706.175	29709.66
706.52	29497.91
706.865	29439.61
707.209	29319.84
707.554	29267.86
707.899	29354.86
708.243	29152.61
708.588	29058.15
708.932	28939.28
709.277	28830.13
709.621	28974.76
709.966	28724.15
710.31	28854.99
710.654	28483.93
710.998	28639.18
711.342	28715.56
711.687	28488.67
712.031	28386.08
712.375	28349.01
712.719	28393.08
713.063	28294.78
713.407	28386.98
713.75	28175.91
714.094	28241.9
714.438	28036.71
714.782	28091.39
715.125	27924.84
715.469	28109.47
715.812	27806.88
716.156	27569.15
716.499	27694.57
716.843	27847.33
717.186	27581.13
717.53	27624.29
717.873	27782.93
718.216	27627.45
718.559	27535.7
718.902	27344.3
719.246	27415.25
719.589	27325.99
719.932	27076.51
720.275	27288.7
720.617	27175.03
720.96	27071.08
721.303	26933.01
721.646	27175.49
721.989	26867.7
722.331	27036.73
722.674	26820.92
723.016	26986.11
723.359	26871.99
723.701	26938.66
724.044	26720.81
724.386	26580.93
724.729	26758.1
725.071	26594.48
725.413	26732.33
725.755	26667.25
726.097	26473.58
726.439	26349.97
726.782	26292.12
727.124	26451.44
727.465	26311.55
727.807	26254.83
728.149	26287.37
728.491	26154.95
728.833	26186.59
729.175	26038.34
729.516	26098.9
729.858	26086.48
730.199	26015.52
730.541	25951.56
730.882	25851.91
731.224	26076.53
731.565	25826.82
731.906	25905.46
732.248	25832.92
732.589	25703.21
732.93	25551.57
733.271	25578.69
733.612	25571.23
733.953	25687.16
734.294	25528.07
734.635	25346.83
734.976	25552.93
735.317	25274.29
735.658	25354.52
735.999	25253.5
736.339	25267.74
736.68	25289.89
737.021	25260.06
737.361	25113.85
737.702	25302.31
738.042	25235.65
738.383	25130.79
738.723	25095.99
739.063	25086.5
739.404	25069.55
739.744	25015.54
740.084	24816.9
740.424	24949.1
740.764	24805.6
741.104	24938.71
741.444	24827.07
741.784	24681.99
742.124	24717.02
742.464	24770.58
742.804	24723.8
743.143	24601.09
743.483	24571.03
743.823	24459.4
744.162	24404.94
744.502	24491.49
744.841	24473.41
745.181	24377.14
745.52	24241.33
745.86	24409.23
746.199	24340.08
746.538	24189.8
746.877	24373.07
747.216	24282.45
747.556	24225.28
747.895	24133.53
748.234	24059.41
748.573	23994.78
748.911	23896.93
749.25	23888.57
749.589	23898.06
749.928	23881.56
750.267	23968.11
750.605	23905.74
750.944	23722.24
751.283	23715.24
751.621	23696.26
751.96	23609.93
752.298	23659.19
752.636	23637.73
752.975	23438.86
753.313	23430.05
753.651	23433.21
753.989	23368.13
754.327	23271.41
754.666	23202.03
755.004	23209.26
755.342	23208.13
755.679	23111.19
756.017	22999.32
756.355	23072.32
756.693	22951.87
757.031	22975.82
757.368	22857.41
757.706	22672.55
758.044	22646.79
758.381	22697.19
758.719	22614.93
759.056	22636.17
759.394	22591.43
759.731	22421.71
760.068	22451.32
760.405	22252.45
760.743	22274.37
761.08	22287.7
761.417	22037.77
761.754	22003.19
762.091	21979.01
762.428	21892.24
762.765	21762.75
763.102	21797.1
763.438	21771.11
763.775	21540.15
764.112	21701.96
764.449	21647.04
764.785	21566.82
765.122	21389.88
765.458	21262.42
765.795	21298.8
766.131	21277.56
766.467	21158.7
766.804	21047.74
767.14	21037.57
767.476	20992.6
767.812	20969.55
768.148	20866.95
768.485	20726.39
768.821	20692.04
769.157	20635.54
769.492	20621.08
769.828	20602.55
770.164	20477.36
770.5	20390.35
770.836	20395.55
771.171	20244.37
771.507	20191.04
771.842	20064.49
772.178	20092.28
772.513	19984.49
772.849	19917.82
773.184	19837.83
773.519	19819.97
773.855	19736.81
774.19	19606.65
774.525	19618.17
774.86	19513.99
775.195	19484.39
775.53	19414.56
775.865	19220.44
776.2	19176.6
776.535	19042.82
776.87	19091.18
777.205	18953.78
777.539	18924.4
777.874	18840.56
778.209	18764.41
778.543	18717.18
778.878	18634.24
779.212	18510.63
779.547	18460.01
779.881	18582.72
780.215	18351.09
780.55	18397.86
780.884	18294.36
781.218	18206.46
781.552	18200.58
781.886	18158.55
782.22	18045.78
782.554	17895.5
782.888	17848.95
783.222	17757.65
783.556	17712.23
783.889	17605.34
784.223	17488.06
784.557	17435.18
784.89	17523.31
785.224	17381.62
785.557	17319.47
785.891	17284.45
786.224	17297.55
786.558	17173.72
786.891	16996.77
787.224	17063.66
787.557	16972.82
787.891	16912.03
788.224	16843.1
788.557	16869.32
788.89	16743.44
789.223	16753.84
789.556	16607.85
789.888	16488.31
790.221	16536.22
790.554	16418.03
790.887	16453.28
791.219	16396.56
791.552	16350.23
791.884	16243.8
792.217	16152.27
792.549	16076.34
792.882	15932.39
793.214	15974.2
793.546	16012.39
793.879	15829.12
794.211	15729.23
794.543	15867.53
794.875	15709.8
795.207	15761.77
795.539	15734.88
795.871	15683.81
796.203	15493.99
796.535	15435
796.867	15400.2
797.198	15350.49
797.53	15348.23
797.862	15228.68
798.193	15274.56
798.525	15163.15
798.856	15207.44
799.188	15021.46
799.519	14984.39
799.85	14908.24
800.182	14881.12
800.513	14963.38
800.844	14847.9
801.175	14847.9
801.506	14781.69
801.837	14729.94
802.168	14693.1
802.499	14654.69
802.83	14527.46
803.161	14554.12
803.491	14536.95
803.822	14572.2
804.153	14413.56
804.483	14360.68
804.814	14226.67
805.145	14321.81
805.475	14198.65
805.805	14224.64
806.136	14243.4
806.466	14116.85
806.796	14179.9
807.126	13993.01
807.457	13966.57
807.787	13927.25
808.117	13956.17
808.447	13822.39
808.777	13869.17
809.107	13818.55
809.436	13776.29
809.766	13814.03
810.096	13764.77
810.426	13683.64
810.755	13647.03
811.085	13590.31
811.414	13583.08
811.744	13476.86
812.073	13412.01
812.403	13431.21
812.732	13321.61
813.061	13371.78
813.39	13388.5
813.719	13197.1
814.049	13315.96
814.378	13258.56
814.707	13174.72
815.036	13128.4
815.365	13080.26
815.693	13079.13
816.022	13049.53
816.351	12964.56
816.68	12979.7
817.008	12917.78
817.337	12787.16
817.665	12786.26
817.994	12798.69
818.322	12783.55
818.651	12769.31
818.979	12668.52
819.307	12736.32
819.636	12731.57
819.964	12684.79
820.292	12653.83
820.62	12664.46
820.948	12598.92
821.276	12621.07
821.604	12619.71
821.932	12604.8
822.259	12595.08
822.587	12527.51
822.915	12510.79
823.243	12513.5
823.57	12549.43
823.898	12555.76
824.225	12499.04
824.553	12522.09
824.88	12464.01
825.207	12590.78
825.535	12502.43
825.862	12559.15
826.189	12462.2
826.516	12532.03
826.843	12556.89
827.17	12550.33
827.497	12487.28
827.824	12533.39
828.151	12507.4
828.478	12490.45
828.805	12565.7
829.131	12389.43
829.458	12509.43
829.785	12398.02
830.111	12454.52
830.438	12475.99
830.764	12412.26
831.09	12474.63
831.417	12366.38
831.743	12461.97
832.069	12424.24
832.395	12376.33
832.722	12464.69
833.048	12441.64
833.374	12433.95
833.7	12245.94
834.026	12328.42
834.351	12383.56
834.677	12347.85
835.003	12277.8
835.329	12322.09
835.654	12333.84
835.98	12279.38
836.306	12268.31
836.631	12201.87
836.956	12338.81
837.282	12314.41
837.607	12235.31
837.932	12071.93
838.258	12185.37
838.583	12118.03
838.908	12033.29
839.233	12151.02
839.558	12111.93
839.883	12031.03
840.208	12053.85
840.533	12021.76
840.858	11954.64
841.182	12019.5
841.507	11905.61
841.832	11853.63
842.156	11937.47
842.481	11802.33
842.805	11872.84
843.13	11784.03
843.454	11735.44
843.778	11720.07
844.103	11674.2
844.427	11696.12
844.751	11691.15
845.075	11619.51
845.399	11553.07
845.723	11572.51
846.047	11603.69
846.371	11408.67
846.695	11462.23
847.019	11384.71
847.343	11266.75
847.666	11305.85
847.99	11198.96
848.313	11211.61
848.637	11113.99
848.96	11179.75
849.284	11042.35
849.607	11050.49
849.931	10983.14
850.254	10910.38
850.577	10891.62
850.9	10765.52
851.223	10823.37
851.546	10698.18
851.869	10679.65
852.192	10713.09
852.515	10568.69
852.838	10561.01
853.161	10554.45
853.483	10491.4
853.806	10470.39
854.129	10414.12
854.451	10423.84
854.774	10381.35
855.096	10367.34
855.419	10300.45
855.741	10269.04
856.063	10197.63
856.385	10193.56
856.708	10161.47
857.03	10110.17
857.352	10119.21
857.674	10053.9
857.996	10107.69
858.318	9985.2
858.64	10008.93
858.961	9996.73
859.283	9902.72
859.605	9850.52
859.926	9952.21
860.248	9866.11
860.57	9806
860.891	9874.02
861.212	9799.9
861.534	9719
861.855	9746.79
862.176	9708.15
862.498	9720.58
862.819	9744.31
863.14	9676.51
863.461	9658.43
863.782	9661.82
864.103	9656.17
864.424	9495.27
864.745	9605.78
865.065	9572.56
865.386	9571.66
865.707	9521.03
866.027	9550.86
866.348	9511.09
866.668	9480.36
866.989	9486.69
867.309	9367.14
867.63	9467.7
867.95	9381.15
868.27	9323.07
868.59	9337.09
868.91	9332.11
869.23	9302.51
869.55	9231.33
869.87	9315.39
870.19	9285.33
870.51	9254.83
870.83	9306.35
871.15	9242.4
871.469	9253.25
871.789	9296.63
872.109	9220.7
872.428	9168.73
872.748	9194.26
873.067	9221.61
873.386	9241.04
873.706	9168.73
874.025	9147.03
874.344	9100.71
874.663	9060.26
874.982	9051.44
875.301	9078.56
875.62	9017.77
875.939	8991.33
876.258	9036.98
876.577	8968.51
876.896	9001.5
877.214	8954.95
877.533	8897.55
877.852	8915.63
878.17	8923.31
878.489	8910.88
878.807	8943.42
879.125	8829.75
879.444	8848.28
879.762	8786.14
880.08	8855.06
880.398	8846.93
880.716	8753.6
881.034	8712.69
881.352	8779.36
881.67	8740.72
881.988	8693.03
882.306	8678.8
882.624	8669.31
882.941	8725.8
883.259	8576.65
883.577	8632.24
883.894	8542.08
884.212	8482.42
884.529	8578.46
884.846	8551.34
885.164	8493.04
885.481	8444.45
885.798	8492.36
886.115	8393.16
886.432	8443.1
886.75	8392.7
887.067	8408.07
887.383	8299.6
887.7	8353.38
888.017	8317.22
888.334	8322.42
888.651	8287.62
888.967	8263.67
889.284	8276.77
889.6	8303.21
889.917	8202.65
890.233	8168.53
890.55	8130.11
890.866	8107.29
891.182	8157.91
891.498	8068.64
891.815	8085.59
892.131	8066.61
892.447	7995.2
892.763	8019.61
893.079	8008.98
893.395	7976.89
893.71	7928.31
894.026	7919.5
894.342	7930.12
894.657	7859.38
894.973	7833.17
895.289	7832.49
895.604	7804.02
895.92	7757.92
896.235	7676.34
896.55	7761.99
896.865	7721.99
897.181	7653.97
897.496	7604.93
897.811	7576
898.126	7576.23
898.441	7502.33
898.756	7500.07
899.071	7525.38
899.386	7477.7
899.7	7403.35
900.015	7394.09
900.33	7272.05
900.644	7315.22
900.959	7345.95
901.273	7335.33
901.588	7251.26
901.902	7222.11
902.216	7245.61
902.531	7246.74
902.845	7159.52
903.159	7159.06
903.473	7148.44
903.787	7037.94
904.101	7021.67
904.415	7032.96
904.729	7098.27
905.042	7016.47
905.356	6937.37
905.67	6950.48
905.984	6980.99
906.297	6879.75
906.611	6870.48
906.924	6858.51
907.237	6807.21
907.551	6825.74
907.864	6788
908.177	6759.3
908.491	6693.54
908.804	6661.68
909.117	6656.93
909.43	6642.69
909.743	6618.96
910.056	6599.98
910.368	6598.17
910.681	6517.5
910.994	6547.33
911.307	6430.04
911.619	6419.65
911.932	6436.82
912.244	6411.06
912.557	6440.21
912.869	6359.54
913.181	6314.79
913.494	6287.9
913.806	6325.86
914.118	6253.32
914.43	6183.95
914.742	6205.19
915.054	6159.99
915.366	6111.41
915.678	6105.98
915.99	6063.05
916.302	6087.9
916.613	6005.2
916.925	5991.41
917.236	6000.68
917.548	5955.48
917.859	5972.2
918.171	5909.15
918.482	5944.18
918.794	5814.01
919.105	5876.61
919.416	5885.42
919.727	5798.87
920.038	5789.38
920.349	5749.16
920.66	5700.57
920.971	5689.95
921.282	5689.05
921.593	5673.68
921.903	5632.78
922.214	5663.51
922.525	5644.07
922.835	5602.95
923.146	5535.38
923.456	5523.63
923.767	5512.55
924.077	5493.34
924.387	5461.71
924.697	5456.06
925.008	5448.37
925.318	5423.29
925.628	5389.39
925.938	5324.31
926.248	5354.14
926.558	5306.91
926.867	5266.01
927.177	5247.25
927.487	5239.11
927.796	5171.54
928.106	5202.28
928.416	5167.25
928.725	5168.16
929.034	5183.07
929.344	5155.5
929.653	5066.24
929.962	5066.91
930.271	5028.05
930.581	5010.19
930.89	4941.04
931.199	4991.66
931.508	4941.04
931.817	4981.95
932.125	4925.22
932.434	4884.77
932.743	4870.31
933.051	4867.82
933.36	4843.64
933.669	4790.54
933.977	4783.98
934.286	4759.8
934.594	4767.04
934.902	4736.08
935.21	4698.34
935.519	4713.93
935.827	4685.46
936.135	4622.41
936.443	4589.19
936.751	4591.22
937.059	4584.44
937.367	4537.89
937.674	4556.19
937.982	4554.39
938.29	4563.2
938.597	4523.65
938.905	4465.57
939.213	4428.74
939.52	4405.92
939.827	4449.3
940.135	4410.43
940.442	4418.8
940.749	4319.82
941.056	4368.63
941.363	4279.36
941.67	4310.55
941.977	4269.87
942.284	4254.28
942.591	4269.42
942.898	4258.57
943.205	4193.04
943.511	4174.28
943.818	4193.94
944.125	4167.5
944.431	4137.67
944.738	4096.54
945.044	4116.21
945.35	4108.52
945.657	4056.77
945.963	4073.49
946.269	3983.1
946.575	3996.43
946.881	3968.19
947.187	3977.68
947.493	3961.41
947.799	3920.73
948.105	3908.08
948.41	3907.62
948.716	3901.75
949.022	3853.84
949.327	3892.03
949.633	3860.39
949.938	3824.46
950.244	3816.78
950.549	3818.36
950.854	3769.32
951.16	3755.08
951.465	3743.11
951.77	3752.15
952.075	3702.43
952.38	3734.29
952.685	3714.18
952.99	3685.26
953.294	3703.33
953.599	3654.75
953.904	3628.53
954.209	3587.63
954.513	3618.14
954.818	3593.73
955.122	3534.53
955.426	3527.75
955.731	3515.09
956.035	3530.68
956.339	3477.8
956.643	3511.48
956.948	3471.02
957.252	3478.48
957.556	3431.93
957.86	3433.51
958.163	3422.21
958.467	3409.78
958.771	3389.22
959.075	3404.13
959.378	3348.77
959.682	3396.22
959.985	3313.74
960.289	3324.14
960.592	3309.67
960.896	3305.83
961.199	3294.53
961.502	3229
961.805	3271.71
962.108	3253.86
962.411	3233.52
962.714	3182.22
963.017	3174.54
963.32	3176.57
963.623	3148.1
963.926	3131.15
964.228	3158.94
964.531	3125.04
964.833	3116.23
965.136	3061.77
965.438	3089.34
965.741	3067.19
966.043	3044.6
966.345	3065.16
966.648	3063.13
966.95	3035.78
967.252	3010.47
967.554	3006.86
967.856	2981.55
968.158	2973.86
968.46	2925.95
968.761	2943.35
969.063	2968.66
969.365	2920.3
969.666	2890.25
969.968	2885.96
970.269	2883.02
970.571	2867.88
970.872	2898.61
971.174	2877.82
971.475	2837.59
971.776	2828.1
972.077	2829.46
972.378	2811.61
972.679	2803.7
972.98	2790.82
973.281	2768.44
973.582	2770.93
973.883	2730.93
974.183	2727.99
974.484	2723.25
974.785	2725.06
975.085	2692.51
975.386	2672.85
975.686	2653.87
975.986	2662.46
976.287	2635.79
976.587	2663.59
976.887	2611.39
977.187	2619.07
977.487	2591.27
977.787	2602.35
978.087	2560.54
978.387	2563.25
978.687	2566.42
978.987	2545.85
979.286	2529.81
979.586	2531.39
979.885	2525.96
980.185	2475.8
980.484	2451.84
980.784	2502.46
981.083	2464.5
981.382	2450.26
981.682	2465.85
981.981	2436.48
982.28	2455.46
982.579	2422.01
982.878	2416.81
983.177	2407.55
983.475	2401
983.774	2352.64
984.073	2310.6
984.372	2353.09
984.67	2338.85
984.969	2322.35
985.267	2301.34
985.566	2306.31
985.864	2317.38
986.162	2277.84
986.461	2268.57
986.759	2263.82
987.057	2225.63
987.355	2240.1
987.653	2250.04
987.951	2227.67
988.249	2201.23
988.547	2181.79
988.844	2184.73
989.142	2199.42
989.44	2164.84
989.737	2188.57
990.035	2161.23
990.332	2156.03
990.63	2172.08
990.927	2155.58
991.224	2141.79
991.521	2135.69
991.819	2099.76
992.116	2116.71
992.413	2105.86
992.71	2086.43
993.006	2067.22
993.303	2097.05
993.6	2045.98
993.897	2058.86
994.193	2080.78
994.49	1989.48
994.787	2033.55
995.083	2024.96
995.379	1989.26
995.676	1957.62
995.972	1985.87
996.268	1969.6
996.565	1972.76
996.861	1964.17
997.157	1929.37
997.453	1914.46
997.749	1908.13
998.044	1895.02
998.34	1897.73
998.636	1907.68
998.932	1907
999.227	1842.59
999.523	1869.26
999.818	1838.53
1000.114	1829.03
1000.409	1810.5
1000.704	1836.94
1001	1820.22
1001.295	1808.47
1001.59	1805.98
1001.885	1785.19
1002.18	1779.54
1002.475	1796.04
1002.77	1754.46
1003.065	1756.27
1003.359	1742.03
1003.654	1752.88
1003.949	1731.64
1004.243	1699.09
1004.538	1698.64
1004.832	1697.74
1005.127	1710.84
1005.421	1657.74
1005.715	1685.99
1006.009	1669.72
1006.304	1661.81
1006.598	1657.96
1006.892	1667
1007.186	1628.81
1007.48	1635.14
1007.773	1598.08
1008.067	1634.24
1008.361	1598.53
1008.655	1566.22
1008.948	1573.45
1009.242	1581.13
1009.535	1564.63
1009.829	1567.35
1010.122	1527.57
1010.415	1563.28
1010.708	1535.93
1011.001	1523.73
1011.295	1534.58
1011.588	1489.83
1011.881	1479.21
1012.173	1464.07
1012.466	1478.08
1012.759	1492.09
1013.052	1462.72
1013.344	1471.3
1013.637	1456.84
1013.93	1464.75
1014.222	1422.72
1014.514	1427.01
1014.807	1399.89
1015.099	1401.47
1015.391	1418.2
1015.683	1379.33
1015.976	1372.55
1016.268	1364.41
1016.56	1381.14
1016.851	1353.79
1017.143	1351.31
1017.435	1330.06
1017.727	1332.32
1018.018	1314.47
1018.31	1331.42
1018.602	1323.06
1018.893	1314.92
1019.185	1313.79
1019.476	1292.78
1019.767	1265.66
1020.058	1256.17
1020.35	1279.44
1020.641	1234.7
1020.932	1262.95
1021.223	1239.22
1021.514	1222.27
1021.804	1217.98
1022.095	1222.04
1022.386	1224.98
1022.677	1234.93
1022.967	1168.03
1023.258	1181.82
1023.548	1171.65
1023.839	1178.88
1024.129	1169.62
1024.419	1161.48
1024.709	1145.89
1025	1134.81
1025.29	1144.08
1025.58	1139.56
1025.87	1135.04
1026.16	1099.79
1026.449	1125.78
1026.739	1097.3
1027.029	1105.44
1027.319	1091.2
1027.608	1088.94
1027.898	1089.62
1028.187	1058.88
1028.477	1068.15
1028.766	1066.34
1029.055	1043.52
1029.344	1033.12
1029.634	1014.14
1029.923	1047.36
1030.212	1026.57
1030.501	1011.65
1030.79	1007.36
1031.078	988.15
1031.367	986.8
1031.656	1003.74
1031.945	1002.16
1032.233	996.06
1032.522	977.76
1032.81	992.9
1033.099	951.32
1033.387	952.67
1033.675	938.66
1033.963	929.62
1034.251	959.68
1034.54	947.7
1034.828	910.87
1035.116	923.75
1035.403	918.55
1035.691	925.55
1035.979	931.88
1036.267	892.56
1036.554	892.11
1036.842	902.96
1037.129	895.27
1037.417	857.53
1037.704	867.93
1037.992	863.86
1038.279	841.72
1038.566	852.79
1038.853	852.79
1039.14	852.79
