Data from hue_32_FLMS001491_00081.txt Node
Date: Tue Feb 07 17:24:01 GMT 2017
User: dcchb
Spectrometer: FLMS00149
Trigger mode: 0
Integration Time (sec): 2.000000E-2
Scans to average: 10
Electric dark correction enabled: true
Nonlinearity correction enabled: false
Boxcar width: 0
XAxis mode: Wavelengths
Number of Pixels in Spectrum: 2048
>>>>>Begin Spectral Data<<<<<
341.393	-5.17
341.776	-5.17
342.16	-5.17
342.543	-73.42
342.927	-50.59
343.31	-53.08
343.693	-70.48
344.077	-60.76
344.46	-56.24
344.843	-59.41
345.226	-57.6
345.61	-21.21
345.993	-5.4
346.376	-7.66
346.759	6.81
347.142	25.79
347.525	32.12
347.908	50.42
348.291	76.18
348.674	93.81
349.057	106.69
349.44	123.41
349.823	134.49
350.206	160.02
350.588	204.99
350.971	220.14
351.354	230.53
351.737	232.11
352.119	255.16
352.502	261.49
352.884	261.72
353.267	270.98
353.65	301.04
354.032	313.01
354.414	319.34
354.797	327.03
355.179	305.1
355.562	322.28
355.944	320.92
356.326	338.78
356.709	334.71
357.091	338.78
357.473	335.61
357.855	356.86
358.238	325.9
358.62	326.35
359.002	347.36
359.384	351.43
359.766	338.1
360.148	335.39
360.53	348.27
360.912	341.49
361.294	360.47
361.676	335.84
362.057	341.04
362.439	314.82
362.821	345.33
363.203	307.59
363.584	332.9
363.966	325.22
364.348	323.86
364.729	324.31
365.111	332.45
365.493	308.04
365.874	324.54
366.256	317.31
366.637	328.83
367.019	319.34
367.4	314.14
367.781	321.6
368.163	325.44
368.544	314.37
368.925	296.52
369.306	357.76
369.688	307.59
370.069	306.23
370.45	327.7
370.831	325.9
371.212	336.29
371.593	309.17
371.974	319.57
372.355	323.41
372.736	312.34
373.117	310.53
373.498	329.06
373.879	313.24
374.26	318.89
374.641	323.41
375.021	338.55
375.402	308.95
375.783	330.42
376.163	317.31
376.544	322.51
376.925	324.77
377.305	341.04
377.686	312.56
378.066	329.51
378.447	334.71
378.827	335.61
379.208	325.22
379.588	344.65
379.968	326.35
380.349	329.06
380.729	334.71
381.109	364.31
381.489	333.13
381.87	347.82
382.25	338.1
382.63	338.32
383.01	329.74
383.39	347.59
383.77	341.71
384.15	353.69
384.53	354.82
384.91	348.04
385.29	349.17
385.67	362.73
386.049	338.55
386.429	354.14
386.809	364.31
387.189	343.97
387.568	367.25
387.948	364.76
388.328	327.93
388.707	367.7
389.087	351.66
389.466	371.09
389.846	357.98
390.225	386.46
390.605	358.89
390.984	385.78
391.363	362.96
391.743	378.32
392.122	388.04
392.501	383.75
392.881	380.58
393.26	378.32
393.639	392.33
394.018	361.83
394.397	385.55
394.776	392.33
395.155	383.97
395.534	403.18
395.913	414.48
396.292	394.59
396.671	394.37
397.05	385.55
397.429	379.68
397.808	408.83
398.186	386.23
398.565	387.81
398.944	385.55
399.323	409.73
399.701	406.8
400.08	391.43
400.458	383.3
400.837	385.55
401.215	417.64
401.594	393.46
401.972	399.57
402.351	428.72
402.729	428.04
403.107	395.95
403.486	403.63
403.864	426.68
404.242	409.06
404.62	417.87
404.999	416.97
405.377	419
405.755	435.72
406.133	442.05
406.511	444.08
406.889	438.89
407.267	426.01
407.645	434.37
408.023	466.46
408.401	415.38
408.779	466.68
409.156	442.05
409.534	449.73
409.912	453.58
410.29	457.42
410.667	466.68
411.045	451.32
411.422	471.43
411.8	461.71
412.178	477.3
412.555	486.8
412.933	503.29
413.31	470.3
413.687	485.44
414.065	492.9
414.442	489.73
414.819	474.82
415.197	489.96
415.574	513.24
415.951	505.1
416.328	494.48
416.705	510.07
417.082	509.62
417.46	513.01
417.837	516.62
418.214	518.88
418.591	511.2
418.967	534.48
419.344	532.9
419.721	536.96
420.098	569.05
420.475	550.75
420.852	550.97
421.228	549.17
421.605	566.12
421.982	550.52
422.358	560.47
422.735	546.45
423.111	564.31
423.488	585.55
423.864	567.7
424.241	560.92
424.617	586.68
424.994	588.04
425.37	585.78
425.746	576.74
426.123	600.46
426.499	595.49
426.875	597.53
427.251	616.74
427.627	600.24
428.003	615.61
428.379	614.02
428.756	622.16
429.132	624.64
429.507	587.58
429.883	642.72
430.259	652.67
430.635	646.79
431.011	654.25
431.387	651.08
431.763	638.43
432.138	669.84
432.514	680.46
432.89	671.42
433.265	706.45
433.641	695.15
434.016	696.51
434.392	707.13
434.767	725.21
435.143	717.3
435.518	740.8
435.894	726.11
436.269	750.29
436.644	762.49
437.02	752.32
437.395	756.62
437.77	764.53
438.145	760.01
438.52	762.04
438.895	776.51
439.271	748.26
439.646	792.1
440.021	792.55
440.395	817.41
440.77	790.97
441.145	811.76
441.52	808.59
441.895	788.93
442.27	812.89
442.645	821.93
443.019	825.09
443.394	823.51
443.769	850.85
444.143	840.23
444.518	833.9
444.892	834.81
445.267	823.96
445.641	857.41
446.016	874.81
446.39	859.21
446.764	881.36
447.139	874.81
447.513	883.17
447.887	873.45
448.262	904.64
448.636	886.33
449.01	892.89
449.384	909.61
449.758	900.57
450.132	931.3
450.506	932.66
450.88	923.17
451.254	904.86
451.628	961.58
452.002	965.88
452.376	955.26
452.75	974.01
453.123	967.01
453.497	949.16
453.871	984.41
454.244	1007.23
454.618	1030.06
454.992	1000.23
455.365	1017.85
455.739	1061.24
456.112	1057.85
456.486	1059.89
456.859	1076.61
457.232	1076.61
457.606	1071.19
457.979	1116.61
458.352	1103.73
458.725	1134.46
459.099	1126.33
459.472	1145.99
459.845	1165.65
460.218	1194.8
460.591	1187.57
460.964	1197.06
461.337	1217.4
461.71	1251.75
462.083	1218.98
462.456	1246.1
462.829	1259.66
463.201	1268.24
463.574	1288.36
463.947	1283.61
464.32	1318.19
464.692	1327.45
465.065	1342.37
465.438	1380.1
465.81	1378.98
466.183	1413.1
466.555	1459.88
466.928	1453.1
467.3	1429.37
467.672	1472.76
468.045	1500.55
468.417	1507.11
468.789	1531.29
469.161	1558.63
469.534	1553.89
469.906	1575.58
470.278	1600.21
470.65	1639.53
471.022	1663.49
471.394	1722.92
471.766	1738.97
472.138	1761.79
472.51	1784.16
472.882	1811.28
473.253	1852.18
473.625	1849.02
473.997	1908.23
474.369	1942.8
474.74	1983.48
475.112	2007.66
475.484	2076.36
475.855	2091.05
476.227	2134.66
476.598	2182.57
476.97	2219.86
477.341	2270.48
477.713	2343.7
478.084	2321.78
478.455	2439.74
478.827	2458.95
479.198	2549.34
479.569	2584.59
479.94	2661.2
480.311	2704.36
480.682	2783.46
481.053	2846.96
481.424	2873.17
481.795	2940.74
482.166	3019.38
482.537	3086.73
482.908	3165.82
483.279	3266.84
483.65	3335.76
484.021	3378.92
484.391	3485.13
484.762	3533.04
485.133	3572.82
485.503	3660.27
485.874	3755.64
486.244	3837.89
486.615	3921.06
486.985	3994.95
487.356	4123.08
487.726	4156.08
488.097	4255.96
488.467	4380.03
488.837	4461.38
489.207	4523.75
489.578	4612.56
489.948	4694.14
490.318	4830.41
490.688	4860.69
491.058	5010.07
491.428	5078.99
491.798	5161.93
492.168	5297.74
492.538	5372.99
492.908	5420.68
493.278	5541.58
493.648	5608.24
494.017	5689.6
494.387	5762.36
494.757	5838.52
495.126	5972.98
495.496	6031.51
495.866	6047.33
496.235	6126.19
496.605	6273.08
496.974	6352.18
497.344	6426.75
497.713	6445.73
498.082	6567.54
498.452	6600.31
498.821	6676.91
499.19	6727.08
499.559	6843.69
499.928	6922.56
500.298	6940.18
500.667	7039.17
501.036	7129.11
501.405	7151.7
501.774	7184.7
502.143	7290.23
502.512	7359.16
502.88	7475.76
503.249	7414.07
503.618	7489.77
503.987	7563.67
504.356	7668.08
504.724	7723.44
505.093	7719.37
505.462	7800.95
505.83	7839.37
506.199	7954.4
506.567	8083.43
506.936	8019.48
507.304	8195.97
507.672	8193.03
508.041	8294.73
508.409	8359.36
508.777	8353.48
509.145	8462.63
509.514	8464.89
509.882	8547.15
510.25	8618.33
510.618	8680.48
510.986	8675.51
511.354	8811.1
511.722	8889.74
512.09	8914.82
512.458	8948.49
512.826	8995.05
513.193	9020.13
513.561	9083.63
513.929	9110.07
514.297	9243.63
514.664	9236.4
515.032	9337.86
515.4	9293.12
515.767	9444.53
516.135	9426.22
516.502	9473.45
516.869	9583.96
517.237	9589.15
517.604	9606.78
517.972	9674.12
518.339	9828.24
518.706	9772.88
519.073	9825.76
519.44	9841.8
519.808	10016.49
520.175	9953.89
520.542	10071.63
520.909	10176.48
521.276	10191.4
521.643	10288.57
522.009	10300.1
522.376	10386.87
522.743	10369.47
523.11	10410.6
523.477	10578.51
523.843	10605.63
524.21	10734.44
524.577	10823.7
524.943	10739.41
525.31	10898.5
525.676	10937.14
526.043	11021.89
526.409	11033.41
526.776	11236.12
527.142	11185.95
527.508	11239.05
527.874	11423.46
528.241	11480.18
528.607	11448.99
528.973	11607.86
529.339	11559.27
529.705	11670.68
530.071	11736.89
530.437	11795.2
530.803	11874.97
531.169	11888.76
531.535	11965.82
531.901	11901.86
532.267	12001.75
532.632	12076.32
532.998	12151.57
533.364	12213.49
533.73	12236.54
534.095	12371.23
534.461	12419.36
534.826	12511.11
535.192	12462.53
535.557	12601.73
535.923	12507.95
536.288	12683.54
536.653	12721.28
537.019	12780.26
537.384	12763.08
537.749	12804.44
538.114	12901.16
538.479	12953.36
538.845	12955.62
539.21	12918.11
539.575	13105.45
539.94	13039.91
540.305	13226.35
540.67	13142.51
541.034	13271.77
541.399	13276.74
541.764	13338.66
542.129	13416.62
542.494	13421.82
542.858	13478.77
543.223	13464.08
543.587	13739.55
543.952	13619.11
544.316	13562.61
544.681	13701.14
545.045	13772.1
545.41	13938.64
545.774	13982.94
546.138	13931.19
546.503	13966.21
546.867	13980.9
547.231	14142.26
547.595	14173.44
547.959	14224.51
548.324	14213.89
548.688	14238.3
549.052	14396.49
549.416	14365.98
549.779	14395.13
550.143	14518.74
550.507	14522.13
550.871	14542.02
551.235	14512.64
551.599	14677.16
551.962	14710.38
552.326	14749.92
552.689	14816.36
553.053	14817.49
553.417	14827.66
553.78	14982.46
554.143	14994.44
554.507	15061.33
554.87	15148.78
555.234	15236.24
555.597	15171.83
555.96	15266.97
556.323	15317.37
556.686	15318.72
557.05	15426.74
557.413	15432.62
557.776	15491.15
558.139	15621.09
558.502	15552.39
558.865	15629.9
559.228	15793.74
559.59	15732.04
559.953	15797.35
560.316	15942.66
560.679	15890.23
561.041	16123.45
561.404	16084.13
561.767	16141.75
562.129	16233.95
562.492	16250
562.854	16273.95
563.217	16313.72
563.579	16357.79
563.941	16350.11
564.304	16522.31
564.666	16629.65
565.028	16750.55
565.39	16677.1
565.753	16890.66
566.115	16873.71
566.477	16844.33
566.839	16920.26
567.201	17026.02
567.563	17032.57
567.925	17254.04
568.287	17257.65
568.648	17228.5
569.01	17339.46
569.372	17521.38
569.734	17447.48
570.095	17484.54
570.457	17724.76
570.819	17687.47
571.18	17743.52
571.542	17788.26
571.903	17904.87
572.265	17929.27
572.626	18056.73
572.987	18082.72
573.349	18152.09
573.71	18221.7
574.071	18269.6
574.432	18445.19
574.794	18606.77
575.155	18600.67
575.516	18708.01
575.877	18910.94
576.238	18888.8
576.599	19083.14
576.96	19107.32
577.32	19245.4
577.681	19401.78
578.042	19548.44
578.403	19708.89
578.763	19804.71
579.124	19858.49
579.485	20047.64
579.845	20255.77
580.206	20379.15
580.566	20498.02
580.927	20593.61
581.287	20724.91
581.648	20927.84
582.008	21283.31
582.368	21355.17
582.728	21562.4
583.089	21695.95
583.449	21940.92
583.809	22098.43
584.169	22316.05
584.529	22498.42
584.889	22876.49
585.249	22959.88
585.609	23061.12
585.969	23428.56
586.329	23566.64
586.688	23851.83
587.048	24062.22
587.408	24264.47
587.768	24479.38
588.127	24684.12
588.487	24868.3
588.846	25329.76
589.206	25331.79
589.565	25669.86
589.925	25988.95
590.284	26179.45
590.643	26430.07
591.003	26731.08
591.362	27000.9
591.721	27215.13
592.08	27460.55
592.44	27823.7
592.799	27982.34
593.158	28377.36
593.517	28533.06
593.876	28873.17
594.235	29027.74
594.593	29188.19
594.952	29581.17
595.311	29748.4
595.67	30030.2
596.029	30608.49
596.387	30699.79
596.746	31000.12
597.104	31130.96
597.463	31360.33
597.822	31675.35
598.18	31790.6
598.538	31952.18
598.897	32495.9
599.255	32310.82
599.613	33086.16
599.972	33156.22
600.33	33364.8
600.688	33479.6
601.046	33715.98
601.404	34078.91
601.762	34369.75
602.12	34648.16
602.478	34751.43
602.836	35005.44
603.194	34995.49
603.552	35364.52
603.91	35339.21
604.268	35803.83
604.625	35931.74
604.983	36302.8
605.341	36225.74
605.698	36559.07
606.056	36781.21
606.413	36916.35
606.771	37136.9
607.128	37265.94
607.485	37286.28
607.843	37467.97
608.2	37949.31
608.557	38139.36
608.914	38011.01
609.272	38429.75
609.629	38674.94
609.986	38861.61
610.343	38760.14
610.7	39305.89
611.057	39352.89
611.414	39333.46
611.771	39521.93
612.127	39749.27
612.484	39875.59
612.841	40057.73
613.198	40015.02
613.554	40052.76
613.911	40538.85
614.267	40573.42
614.624	40621.56
614.98	40849.8
615.337	41102.9
615.693	41230.81
616.05	41154.2
616.406	41478.03
616.762	41428.32
617.118	41574.98
617.475	41628.31
617.831	41940.62
618.187	41882.77
618.543	42136.77
618.899	42260.61
619.255	42250.89
619.611	42421.06
619.967	42549.42
620.323	42743.54
620.678	42657.21
621.034	42502.87
621.39	42638
621.746	42724.55
622.101	43199.12
622.457	42965
622.812	43032.57
623.168	43301.26
623.523	43357.53
623.879	43491.54
624.234	43159.57
624.589	43508.94
624.945	43522.95
625.3	43699.44
625.655	43646.11
626.01	43837.07
626.365	43791.42
626.72	43793.23
627.075	43874.35
627.43	43728.14
627.785	43709.16
628.14	43949.16
628.495	43865.32
628.85	43840.68
629.205	43824.64
629.559	44022.83
629.914	43909.61
630.269	44101.24
630.623	44033.45
630.978	43993.9
631.332	44147.79
631.687	44250.39
632.041	44048.36
632.396	44163.84
632.75	44005.88
633.104	44213.78
633.459	43996.39
633.813	44031.86
634.167	44141.01
634.521	44079.1
634.875	44210.62
635.229	44194.12
635.583	43934.24
635.937	43928.59
636.291	43854.92
636.645	43894.92
636.999	43938.08
637.352	43948.93
637.706	43844.53
638.06	43998.87
638.413	43837.29
638.767	43785.77
639.121	43885.43
639.474	43661.71
639.828	43754.58
640.181	43830.51
640.534	43735.38
640.888	43623.74
641.241	43752.78
641.594	43637.98
641.947	43773.34
642.301	43473.24
642.654	43696.28
643.007	43638.43
643.36	43685.43
643.713	43744.41
644.066	43805.66
644.419	43626.9
644.771	43305.56
645.124	42890.65
645.477	42913.02
645.83	42626.03
646.182	42558.91
646.535	42453.15
646.888	42489.76
647.24	42283.44
647.593	42404.34
647.945	42454.28
648.298	42307.62
648.65	42070.56
649.002	42098.36
649.355	42269.88
649.707	42158.02
650.059	42468.29
650.411	42958.45
650.763	42928.39
651.115	43322.5
651.467	43049.52
651.819	43167.25
652.171	42959.58
652.523	42984.66
652.875	42874.61
653.227	42803.2
653.578	43142.17
653.93	43152.34
654.282	43007.94
654.633	42866.92
654.985	42897.21
655.337	42892.91
655.688	42976.3
656.039	43034.15
656.391	42768.85
656.742	42852.01
657.094	42914.83
657.445	42933.81
657.796	42766.14
658.147	42762.52
658.498	42683.88
658.849	42906.02
659.2	42618.34
659.551	42772.46
659.902	42795.74
660.253	42701.96
660.604	42800.03
660.955	42622.64
661.306	42712.35
661.656	42706.48
662.007	42766.36
662.358	42629.87
662.708	42736.31
663.059	42507.16
663.409	42320.72
663.76	42618.12
664.11	42708.28
664.461	42758.68
664.811	42758.23
665.161	42598.68
665.511	42429.65
665.862	42552.13
666.212	42656.08
666.562	42624.67
666.912	42526.37
667.262	42467.61
667.612	42489.76
667.962	42597.33
668.312	42401.63
668.662	42766.81
669.011	42574.28
669.361	42447.73
669.711	42414.28
670.06	42414.96
670.41	42426.94
670.76	42243.66
671.109	42531.79
671.459	42497.67
671.808	42412.47
672.157	42435.07
672.507	42199.6
672.856	42192.14
673.205	42301.29
673.554	42282.31
673.904	42103.78
674.253	42346.71
674.602	42226.26
674.951	41702.89
675.3	41526.39
675.649	42106.04
675.998	42016.1
676.346	42077.11
676.695	42156.66
677.044	41766.61
677.393	41974.97
677.741	42038.02
678.09	41962.77
678.438	41928.64
678.787	42033.05
679.135	41912.82
679.484	41737.46
679.832	41859.72
680.181	41533.17
680.529	41750.12
680.877	41556.9
681.225	41532.95
681.573	41782.21
681.922	41452.72
682.27	41366.17
682.618	41272.62
682.966	41286.63
683.314	41338.15
683.661	41331.37
684.009	41155.78
684.357	41117.14
684.705	40997.37
685.053	41042.56
685.4	40969.12
685.748	40840.54
686.095	40772.97
686.443	40692.74
686.79	40601.22
687.138	40620.88
687.485	40716.92
687.832	40510.6
688.18	40436.48
688.527	40419.3
688.874	40364.84
689.221	40127.33
689.568	40077.84
689.915	40055.92
690.262	39967.56
690.609	39825.2
690.956	39796.04
691.303	39813.67
691.65	39615.94
691.997	39631.98
692.344	39328.71
692.69	39332.55
693.037	39353.34
693.383	39069.28
693.73	39207.81
694.077	38916.75
694.423	39002.62
694.769	38853.92
695.116	38763.98
695.462	38664.1
695.808	38563.99
696.155	38753.13
696.501	38399.7
696.847	38382.3
697.193	38032.25
697.539	38294.84
697.885	38066.6
698.231	37967.39
698.577	38019.82
698.923	37833.84
699.269	37692.14
699.614	37562.43
699.96	37568.31
700.306	37531.24
700.651	37410.8
700.997	37115.89
701.342	37213.06
701.688	37121.76
702.033	36902.79
702.379	36964.93
702.724	36822.56
703.069	36898.95
703.415	36447.21
703.76	36574.43
704.105	36498.5
704.45	36326.3
704.795	36224.61
705.14	36210.15
705.485	36166.99
705.83	35940.55
706.175	35978.52
706.52	35924.96
706.865	35832.76
707.209	35725.64
707.554	35623.72
707.899	35724.29
708.243	35439.32
708.588	35365.88
708.932	35257.86
709.277	35154.58
709.621	35174.02
709.966	35042.27
710.31	35135.83
710.654	34661.94
710.998	34855.83
711.342	34811.32
711.687	34664.88
712.031	34530.42
712.375	34517.99
712.719	34620.13
713.063	34536.3
713.407	34571.55
713.75	34326.58
714.094	34346.47
714.438	34289.52
714.782	34105.57
715.125	33984.45
715.469	34104.89
715.812	33790.55
716.156	33819.93
716.499	33773.6
716.843	33777.67
717.186	33443.89
717.53	33733.38
717.873	33630.56
718.216	33518.69
718.559	33503.1
718.902	33162.09
719.246	33231.02
719.589	33160.29
719.932	33029.67
720.275	33123.23
720.617	33171.13
720.96	32968.43
721.303	32946.73
721.646	33021.98
721.989	32684.37
722.331	32984.92
722.674	32836.68
723.016	32791.71
723.359	32691.6
723.701	32624.71
724.044	32561.43
724.386	32408.89
724.729	32617.93
725.071	32387.88
725.413	32436.92
725.755	32393.53
726.097	32230.37
726.439	32019.3
726.782	32162.57
727.124	32276.92
727.465	32043.03
727.807	31995.8
728.149	31960.32
728.491	31916.25
728.833	31953.31
729.175	31829.25
729.516	31841.22
729.858	31767.1
730.199	31654.34
730.541	31631.96
730.882	31630.83
731.224	31650.27
731.565	31521.23
731.906	31513.1
732.248	31417.96
732.589	31267.91
732.93	31192.88
733.271	31140.23
733.612	31180.9
733.953	31270.62
734.294	31090.28
734.635	31037.4
734.976	31120.79
735.317	30818.2
735.658	30982.04
735.999	30931.42
736.339	30917.18
736.68	30947.01
737.021	30878.76
737.361	30676.74
737.702	30817.3
738.042	30729.16
738.383	30577.98
738.723	30648.71
739.063	30555.16
739.404	30621.82
739.744	30374.37
740.084	30398.1
740.424	30371.89
740.764	30318.1
741.104	30295.5
741.444	30338.21
741.784	30159.91
742.124	30192.45
742.464	30086.24
742.804	30184.09
743.143	29992.69
743.483	30023.19
743.823	29766.93
744.162	29961.5
744.502	30024.32
744.841	29857.32
745.181	29852.8
745.52	29718.57
745.86	29843.99
746.199	29691
746.538	29740.72
746.877	29719.02
747.216	29657.55
747.556	29631.57
747.895	29531.91
748.234	29462.08
748.573	29520.16
748.911	29359.03
749.25	29422.98
749.589	29267.51
749.928	29319.26
750.267	29386.15
750.605	29267.96
750.944	29255.53
751.283	28983.22
751.621	29109.32
751.96	28890.34
752.298	29074.52
752.636	28935.09
752.975	28858.25
753.313	28724.02
753.651	28846.28
753.989	28679.05
754.327	28606.06
754.666	28492.84
755.004	28479.96
755.342	28487.87
755.679	28438.38
756.017	28362.45
756.355	28492.16
756.693	28215.56
757.031	28326.06
757.368	28172.85
757.706	28240.87
758.044	27928.79
758.381	28046.75
758.719	27900.99
759.056	27950.93
759.394	27799.52
759.731	27646.76
760.068	27706.64
760.405	27436.59
760.743	27322.02
761.08	27552.98
761.417	27237.96
761.754	27310.5
762.091	27204.74
762.428	27047.23
762.765	26898.08
763.102	27045.42
763.438	26860.79
763.775	26793.67
764.112	26842.71
764.449	26788.25
764.785	26699.67
765.122	26391.2
765.458	26291.77
765.795	26454.47
766.131	26249.28
766.467	26247.02
766.804	25999.8
767.14	26017.2
767.476	26021.26
767.812	26009.29
768.148	25823.3
768.485	25725
768.821	25633.48
769.157	25547.15
769.492	25516.42
769.828	25438.46
770.164	25229.42
770.5	25158.01
770.836	25161.63
771.171	25015.87
771.507	24966.38
771.842	24897.23
772.178	24786.72
772.513	24708.08
772.849	24640.51
773.184	24622.88
773.519	24539.04
773.855	24443.68
774.19	24273.29
774.525	24144.7
774.86	24229.67
775.195	24181.99
775.53	24026.06
775.865	23955.78
776.2	23736.58
776.535	23613.87
776.87	23596.92
777.205	23473.54
777.539	23402.8
777.874	23348.11
778.209	23161.68
778.543	23137.27
778.878	23104.05
779.212	23064.28
779.547	22838.3
779.881	22857.96
780.215	22891.63
780.55	22889.6
780.884	22639.43
781.218	22594.01
781.552	22597.17
781.886	22377.07
782.22	22360.34
782.554	22179.33
782.888	21995.16
783.222	22000.35
783.556	21816.63
783.889	21903.63
784.223	21721.94
784.557	21711.55
784.89	21879.68
785.224	21558.56
785.557	21441.72
785.891	21441.05
786.224	21390.65
786.558	21380.93
786.891	21088.97
787.224	21089.87
787.557	21060.27
787.891	20993.15
788.224	20900.95
788.557	20970.1
788.89	20796.77
789.223	20799.71
789.556	20670.22
789.888	20645.14
790.221	20488.53
790.554	20300.74
790.887	20374.41
791.219	20266.39
791.552	20221.87
791.884	20168.76
792.217	20079.5
792.549	19909.34
792.882	19845.38
793.214	19794.99
793.546	19877.25
793.879	19723.58
794.211	19524.03
794.543	19670.25
794.875	19494.88
795.207	19493.3
795.539	19440.42
795.871	19428.44
796.203	19278.39
796.535	19132.18
796.867	19132.86
797.198	19051.05
797.53	19046.53
797.862	18901.45
798.193	18997.95
798.525	18740.55
798.856	18864.84
799.188	18664.4
799.519	18672.76
799.85	18501.46
800.182	18548.02
800.513	18470.73
800.844	18352.99
801.175	18385.76
801.506	18395.25
801.837	18254.92
802.168	18233.67
802.499	18222.37
802.83	18171.08
803.161	18038.42
803.491	18006.56
803.822	17991.87
804.153	17816.06
804.483	17850.86
804.814	17687.47
805.145	17733.8
805.475	17635.04
805.805	17643.86
806.136	17583.75
806.466	17590.98
806.796	17459
807.126	17432.34
807.457	17371.55
807.787	17379.01
808.117	17252.23
808.447	17260.59
808.777	17194.15
809.107	17100.6
809.436	17088.62
809.766	17064.66
810.096	17011.78
810.426	16928.85
810.755	16964.78
811.085	16887.49
811.414	16852.01
811.744	16688.63
812.073	16637.56
812.403	16636.88
812.732	16560.72
813.061	16505.13
813.39	16520.72
813.719	16416.09
814.049	16503.1
814.378	16461.06
814.707	16241.18
815.036	16320.05
815.365	16212.26
815.693	16126.38
816.022	16174.07
816.351	16082.54
816.68	15965.94
817.008	15938.37
817.337	15913.51
817.665	15929.33
817.994	15957.12
818.322	15863.57
818.651	15854.07
818.979	15809.78
819.307	15812.95
819.636	15785.83
819.964	15672.38
820.292	15717.58
820.62	15675.55
820.948	15663.35
821.276	15687.98
821.604	15630.8
821.932	15659.28
822.259	15603.23
822.587	15629.22
822.915	15520.07
823.243	15647.53
823.57	15560.3
823.898	15606.85
824.225	15511.71
824.553	15533.63
824.88	15510.13
825.207	15501.77
825.535	15534.31
825.862	15631.03
826.189	15488.89
826.516	15517.81
826.843	15537.7
827.17	15597.36
827.497	15538.6
827.824	15498.83
828.151	15549.45
828.478	15523.01
828.805	15586.96
829.131	15458.15
829.458	15467.42
829.785	15353.52
830.111	15549.9
830.438	15456.8
830.764	15519.39
831.09	15568.43
831.417	15470.13
831.743	15388.1
832.069	15458.6
832.395	15333.86
832.722	15408.21
833.048	15318.27
833.374	15459.73
833.7	15304.26
834.026	15344.03
834.351	15335.22
834.677	15297.25
835.003	15345.61
835.329	15261.1
835.654	15403.24
835.98	15210.02
836.306	15181.1
836.631	15236.69
836.956	15244.6
837.282	15215.9
837.607	15109.46
837.932	15100.65
838.258	15091.16
838.583	15168.22
838.908	14994.21
839.233	15045.06
839.558	14937.26
839.883	14909.24
840.208	14942.23
840.533	14892.07
840.858	14799.19
841.182	14864.72
841.507	14852.75
841.832	14739.3
842.156	14694.56
842.481	14726.42
842.805	14704.95
843.13	14612.98
843.454	14714.67
843.778	14550.83
844.103	14480.78
844.427	14437.61
844.751	14468.12
845.075	14460.44
845.399	14439.87
845.723	14330.5
846.047	14346.54
846.371	14265.87
846.695	14236.04
847.019	14096.38
847.343	14097.96
847.666	13895.26
847.99	13852.55
848.313	13937.06
848.637	13965.76
848.96	13779.78
849.284	13782.49
849.607	13683.96
849.931	13632.66
850.254	13503.18
850.577	13426.12
850.9	13350.19
851.223	13395.16
851.546	13323.07
851.869	13227.25
852.192	13271.54
852.515	13150.42
852.838	13098.67
853.161	13176.63
853.483	13056.41
853.806	13040.14
854.129	12990.65
854.451	12882.18
854.774	12870.2
855.096	12821.16
855.419	12793.36
855.741	12783.87
856.063	12664.1
856.385	12679.92
856.708	12664.78
857.03	12573.93
857.352	12575.06
857.674	12546.82
857.996	12456.65
858.318	12448.51
858.64	12419.59
858.961	12399.25
859.283	12265.24
859.605	12230.22
859.926	12278.35
860.248	12241.51
860.57	12197.67
860.891	12223.21
861.212	12176.21
861.534	12076.32
861.855	12060.28
862.176	12061.18
862.498	12020.28
862.819	12027.73
863.14	11942.54
863.461	11881.75
863.782	11890.11
864.103	11991.35
864.424	11952.71
864.745	11929.66
865.065	11844.46
865.386	11813.5
865.707	11820.51
866.027	11743.9
866.348	11784.8
866.668	11738.02
866.989	11651.93
867.309	11670
867.63	11743.45
867.95	11714.97
868.27	11601.76
868.59	11596.33
868.91	11564.24
869.23	11503.68
869.55	11509.78
869.87	11536.9
870.19	11587.75
870.51	11561.98
870.83	11561.98
871.15	11442.44
871.469	11427.07
871.789	11504.13
872.109	11411.25
872.428	11367.41
872.748	11355.44
873.067	11321.99
873.386	11386.17
873.706	11280.86
874.025	11250.58
874.344	11252.61
874.663	11197.93
874.982	11202.22
875.301	11261.65
875.62	11186.4
875.939	11121.77
876.258	11202.9
876.577	11118.61
876.896	11153.86
877.214	11069.12
877.533	11066.63
877.852	11017.37
878.17	11020.53
878.489	11030.47
878.807	11019.4
879.125	10973.3
879.444	10947.99
879.762	10947.54
880.08	10950.93
880.398	10897.14
880.716	10863.47
881.034	10820.53
881.352	10837.03
881.67	10805.39
881.988	10722.01
882.306	10779.86
882.624	10759.75
882.941	10660.99
883.259	10683.14
883.577	10684.04
883.894	10676.81
884.212	10514.55
884.529	10588.68
884.846	10548
885.164	10564.04
885.481	10515.91
885.798	10549.13
886.115	10501.67
886.432	10547.32
886.75	10370.38
887.067	10413.99
887.383	10344.39
887.7	10331.06
888.017	10268.91
888.334	10380.32
888.651	10278.4
888.967	10324.73
889.284	10231.4
889.6	10160.67
889.917	10152.98
890.233	10200.44
890.55	10005.87
890.866	10003.38
891.182	10058.07
891.498	9992.99
891.815	9989.37
892.131	9972.42
892.447	9932.42
892.763	9856.72
893.079	9845.65
893.395	9791.64
893.71	9800.67
894.026	9767.91
894.342	9745.31
894.657	9736.27
894.973	9637.29
895.289	9631.64
895.604	9665.54
895.92	9669.6
896.235	9564.3
896.55	9566.1
896.865	9515.71
897.181	9477.07
897.496	9455.37
897.811	9435.71
898.126	9452.89
898.441	9352.78
898.756	9315.49
899.071	9237.07
899.386	9293.8
899.7	9222.16
900.015	9102.84
900.33	9126.34
900.644	9070.52
900.959	9104.42
901.273	9019.68
901.588	9007.02
901.902	8913.24
902.216	8964.99
902.531	8960.02
902.845	8902.17
903.159	8796.18
903.473	8758.22
903.787	8734.94
904.101	8706.69
904.415	8702.17
904.729	8675.05
905.042	8630.99
905.356	8598.22
905.67	8604.55
905.984	8606.58
906.297	8590.31
906.611	8481.84
906.924	8449.07
907.237	8552.8
907.551	8413.14
907.864	8350.32
908.177	8395.29
908.491	8349.41
908.804	8285.01
909.117	8273.71
909.43	8220.38
909.743	8218.34
910.056	8128.85
910.368	8083.66
910.681	8093.37
910.994	8031.91
911.307	8019.7
911.619	7958.46
911.932	7957.56
912.244	7839.82
912.557	7871.91
912.869	7826.26
913.181	7813.83
913.494	7797.56
913.806	7765.47
914.118	7719.15
914.43	7658.13
914.742	7665.14
915.054	7586.95
915.366	7661.3
915.678	7541.3
915.99	7553.28
916.302	7451.81
916.613	7451.36
916.925	7435.09
917.236	7417.91
917.548	7351.93
917.859	7373.17
918.171	7332.04
918.482	7240.29
918.794	7255.2
919.105	7165.04
919.416	7147.64
919.727	7172.04
920.038	7145.83
920.349	7056.34
920.66	7053.63
920.971	7046.85
921.282	6999.39
921.593	6937.25
921.903	6893.63
922.214	6916.91
922.525	6859.51
922.835	6815.44
923.146	6814.99
923.456	6793.97
923.767	6730.47
924.077	6753.3
924.387	6704.94
924.697	6631.72
925.008	6669.68
925.318	6568.44
925.628	6656.12
925.938	6567.31
926.248	6562.12
926.558	6502.46
926.867	6457.49
927.177	6497.03
927.487	6436.02
927.796	6418.39
928.106	6321.67
928.416	6381.1
928.725	6302.24
929.034	6216.14
929.344	6297.26
929.653	6281.45
929.962	6169.58
930.271	6163.03
930.581	6124.61
930.89	6125.29
931.199	6115.12
931.508	6111.73
931.817	6058.17
932.125	6016.59
932.434	5996.25
932.743	5954
933.051	5936.14
933.36	5912.19
933.669	5843.04
933.977	5867.44
934.286	5895.01
934.594	5821.57
934.902	5791.97
935.21	5781.8
935.519	5768.01
935.827	5783.15
936.135	5716.71
936.443	5708.8
936.751	5697.05
937.059	5644.63
937.367	5616.6
937.674	5635.59
937.982	5543.84
938.29	5521.01
938.597	5540
938.905	5424.52
939.213	5428.81
939.52	5397.17
939.827	5404.18
940.135	5390.17
940.442	5375.48
940.749	5368.47
941.056	5346.78
941.363	5284.18
941.67	5237.4
941.977	5236.73
942.284	5212.77
942.591	5243.51
942.898	5190.4
943.205	5179.1
943.511	5123.74
943.818	5085.77
944.125	5086.45
944.431	5036.28
944.738	5066.56
945.044	5004.87
945.35	4974.59
945.657	4949.05
945.963	4956.28
946.269	4932.33
946.575	4901.14
946.881	4883.74
947.187	4886.23
947.493	4873.12
947.799	4846.45
948.105	4831.54
948.41	4771.43
948.716	4765.78
949.022	4748.83
949.327	4717.42
949.633	4704.31
949.938	4693.46
950.244	4662.05
950.549	4636.06
950.854	4608.27
951.16	4608.04
951.465	4565.56
951.77	4618.89
952.075	4495.05
952.38	4514.26
952.685	4537.08
952.99	4477.88
953.294	4417.99
953.599	4406.01
953.904	4427.03
954.209	4370.08
954.513	4381.61
954.818	4338.9
955.122	4393.59
955.426	4349.07
955.731	4359.69
956.035	4330.99
956.339	4267.94
956.643	4266.81
956.948	4232.46
957.252	4257.54
957.556	4211.67
957.86	4179.58
958.163	4168.51
958.467	4135.29
958.771	4120.6
959.075	4118.56
959.378	4089.86
959.682	4114.27
959.985	4036.53
960.289	4041.05
960.592	4031.79
960.896	4008.96
961.199	4048.74
961.502	3976.87
961.805	3991.34
962.108	3917.21
962.411	3884.67
962.714	3937.33
963.017	3875.41
963.32	3889.42
963.623	3849.42
963.926	3864.33
964.228	3809.19
964.531	3842.64
964.833	3783.43
965.136	3801.06
965.438	3789.99
965.741	3724
966.043	3699.59
966.345	3684.45
966.648	3710.44
966.95	3679.03
967.252	3652.59
967.554	3637.9
967.856	3585.02
968.158	3598.35
968.46	3596.77
968.761	3589.54
969.063	3547.96
969.365	3516.09
969.666	3523.33
969.968	3506.15
970.269	3506.15
970.571	3550.44
970.872	3490.78
971.174	3425.93
971.475	3446.72
971.776	3449.88
972.077	3375.98
972.378	3376.89
972.679	3392.26
972.98	3359.71
973.281	3379.37
973.582	3329.88
973.883	3323.56
974.183	3293.27
974.484	3295.76
974.785	3270.9
975.085	3266.38
975.386	3207.63
975.686	3216.44
975.986	3196.1
976.287	3211.02
976.587	3174.41
976.887	3178.7
977.187	3157.46
977.487	3196.78
977.787	3140.96
978.087	3069.1
978.387	3109.78
978.687	3140.51
978.987	3120.62
979.286	3068.65
979.586	3087.4
979.885	3026.62
980.185	3003.34
980.484	3020.06
980.784	2979.16
981.083	2987.29
981.382	2994.07
981.682	2989.55
981.981	2958.14
982.28	2926.28
982.579	2919.95
982.878	2954.75
983.177	2908.88
983.475	2860.74
983.774	2858.94
984.073	2825.94
984.372	2856.22
984.67	2854.42
984.969	2851.25
985.267	2823.91
985.566	2776.45
985.864	2770.58
986.162	2774.87
986.461	2739.84
986.759	2701.65
987.057	2705.49
987.355	2717.24
987.653	2689
987.951	2710.24
988.249	2658.49
988.547	2657.81
988.844	2670.24
989.142	2649.9
989.44	2632.5
989.737	2575.1
990.035	2581.66
990.332	2609.23
990.63	2572.84
990.927	2564.03
991.224	2569.45
991.521	2563.12
991.819	2551.6
992.116	2553.41
992.413	2521.77
992.71	2504.14
993.006	2477.7
993.303	2452.17
993.6	2437.7
993.897	2452.85
994.193	2461.43
994.49	2430.92
994.787	2403.13
995.083	2404.48
995.379	2392.06
995.676	2361.55
995.972	2373.75
996.268	2366.75
996.565	2334.88
996.861	2325.16
997.157	2370.59
997.453	2334.43
997.749	2314.09
998.044	2277.71
998.34	2299.85
998.636	2259.63
998.932	2280.87
999.227	2237.71
999.523	2246.07
999.818	2244.94
1000.114	2234.55
1000.409	2187.99
1000.704	2162.46
1001	2219.63
1001.295	2150.93
1001.59	2139.63
1001.885	2154.1
1002.18	2123.36
1002.475	2103.48
1002.77	2117.03
1003.065	2067.77
1003.359	2091.05
1003.654	2053.53
1003.949	2050.14
1004.243	2065.74
1004.538	2019.64
1004.832	2032.29
1005.127	2025.96
1005.421	2001.78
1005.715	2022.35
1006.009	1978.28
1006.304	1987.09
1006.598	1968.34
1006.892	1937.38
1007.186	1956.81
1007.48	1941.67
1007.773	1939.41
1008.067	1913.42
1008.361	1879.3
1008.655	1897.83
1008.948	1901
1009.242	1864.39
1009.535	1827.32
1009.829	1849.7
1010.122	1846.08
1010.415	1838.17
1010.708	1821.9
1011.001	1784.84
1011.295	1801.34
1011.588	1790.26
1011.881	1749.81
1012.173	1780.77
1012.466	1740.77
1012.759	1746.2
1013.052	1733.99
1013.344	1734.45
1013.637	1697.61
1013.93	1693.54
1014.222	1702.36
1014.514	1673.66
1014.807	1646.09
1015.099	1648.8
1015.391	1656.26
1015.683	1647.44
1015.976	1632.98
1016.268	1618.29
1016.56	1593.88
1016.851	1618.06
1017.143	1607.44
1017.435	1563.15
1017.727	1577.16
1018.018	1556.6
1018.31	1526.99
1018.602	1528.8
1018.893	1527.45
1019.185	1516.82
1019.476	1503.49
1019.767	1538.07
1020.058	1512.98
1020.35	1484.06
1020.641	1451.74
1020.932	1444.96
1021.223	1458.52
1021.514	1440.22
1021.804	1419.43
1022.095	1430.5
1022.386	1408.35
1022.677	1383.95
1022.967	1379.2
1023.258	1408.8
1023.548	1351.86
1023.839	1402.93
1024.129	1347.11
1024.419	1365.19
1024.709	1352.31
1025	1325.64
1025.29	1325.87
1025.58	1328.58
1025.87	1308.47
1026.16	1268.92
1026.449	1294.23
1026.739	1294.01
1027.029	1292.65
1027.319	1266.66
1027.608	1259.43
1027.898	1240.9
1028.187	1241.8
1028.477	1225.76
1028.766	1237.74
1029.055	1201.13
1029.344	1214.69
1029.634	1196.38
1029.923	1187.34
1030.212	1192.99
1030.501	1165.87
1030.79	1132.88
1031.078	1123.61
1031.367	1158.64
1031.656	1126.33
1031.945	1147.34
1032.233	1122.26
1032.522	1136.27
1032.81	1128.13
1033.099	1125.42
1033.387	1111.19
1033.675	1102.37
1033.963	1080.45
1034.251	1091.3
1034.54	1049.49
1034.828	1065.99
1035.116	1044.52
1035.403	1065.31
1035.691	1057.4
1035.979	1038.42
1036.267	1013.56
1036.554	1029.15
1036.842	1041.13
1037.129	989.61
1037.417	1019.44
1037.704	998.87
1037.992	1018.08
1038.279	990.96
1038.566	976.5
1038.853	976.5
1039.14	976.5
