Data from hue_38_FLMS001491_00012.txt Node
Date: Tue Feb 07 17:31:06 GMT 2017
User: dcchb
Spectrometer: FLMS00149
Trigger mode: 0
Integration Time (sec): 2.000000E-2
Scans to average: 10
Electric dark correction enabled: true
Nonlinearity correction enabled: false
Boxcar width: 0
XAxis mode: Wavelengths
Number of Pixels in Spectrum: 2048
>>>>>Begin Spectral Data<<<<<
341.393	-7.57
341.776	-7.57
342.16	-7.57
342.543	-81.01
342.927	-81.24
343.31	-66.55
343.693	-67.91
344.077	-58.42
344.46	-54.57
344.843	-48.47
345.226	-45.08
345.61	-44.18
345.993	-28.81
346.376	-10.28
346.759	15.25
347.142	46.21
347.525	54.57
347.908	45.08
348.291	69.04
348.674	91.86
349.057	102.26
349.44	128.7
349.823	148.36
350.206	173.22
350.588	194.01
350.971	198.75
351.354	226.77
351.737	230.39
352.119	213.44
352.502	248.47
352.884	271.97
353.267	276.72
353.65	302.25
354.032	316.04
354.414	293.66
354.797	302.48
355.179	317.62
355.562	302.93
355.944	338.86
356.326	315.58
356.709	340.67
357.091	333.44
357.473	320.33
357.855	351.29
358.238	330.05
358.62	342.7
359.002	327.11
359.384	341.57
359.766	321.69
360.148	341.12
360.53	355.13
360.912	319.65
361.294	334.12
361.676	337.28
362.057	325.08
362.439	318.97
362.821	321.23
363.203	325.3
363.584	316.71
363.966	300.44
364.348	298.18
364.729	305.87
365.111	304.96
365.493	335.47
365.874	309.94
366.256	303.16
366.637	298.18
367.019	312.65
367.4	322.14
367.781	304.96
368.163	314.91
368.544	299.77
368.925	319.2
369.306	310.84
369.688	314
370.069	301.8
370.45	312.87
370.831	320.33
371.212	323.49
371.593	310.84
371.974	294.34
372.355	288.47
372.736	324.17
373.117	327.34
373.498	275.81
373.879	297.73
374.26	293.44
374.641	313.33
375.021	310.39
375.402	314.68
375.783	322.82
376.163	304.74
376.544	308.81
376.925	327.56
377.305	324.4
377.686	327.34
378.066	326.66
378.447	323.04
378.827	329.37
379.208	320.56
379.588	303.38
379.968	349.71
380.349	337.96
380.729	341.12
381.109	320.33
381.489	354.45
381.87	315.58
382.25	323.49
382.63	343.15
383.01	345.41
383.39	322.82
383.77	339.99
384.15	339.09
384.53	346.54
384.91	349.48
385.29	357.39
385.67	359.65
386.049	359.88
386.429	362.14
386.809	353.55
387.189	365.98
387.568	361.46
387.948	326.21
388.328	354.91
388.707	338.86
389.087	378.18
389.466	366.66
389.846	352.42
390.225	346.09
390.605	353.1
390.984	353.1
391.363	375.24
391.743	361.91
392.122	370.27
392.501	375.24
392.881	388.58
393.26	361.23
393.639	373.66
394.018	376.6
394.397	351.29
394.776	366.43
395.155	369.59
395.534	371.4
395.913	366.43
396.292	382.25
396.671	374.57
397.05	386.09
397.429	369.37
397.808	378.86
398.186	388.8
398.565	376.15
398.944	408.24
399.323	392.65
399.701	382.25
400.08	403.49
400.458	404.17
400.837	385.19
401.215	396.49
401.594	387.9
401.972	385.87
402.351	415.24
402.729	407.79
403.107	406.88
403.486	404.85
403.864	421.12
404.242	405.07
404.62	396.49
404.999	403.72
405.377	427.9
405.755	421.12
406.133	411.63
406.511	421.34
406.889	426.32
407.267	416.83
407.645	422.93
408.023	416.6
408.401	444.62
408.779	432.42
409.156	434.68
409.534	427.45
409.912	428.12
410.29	453.66
410.667	458.18
411.045	447.56
411.422	466.32
411.8	437.16
412.178	432.87
412.555	459.76
412.933	455.02
413.31	461.34
413.687	469.48
414.065	450.04
414.442	449.59
414.819	449.14
415.197	484.39
415.574	473.55
415.951	485.3
416.328	457.28
416.705	469.03
417.082	487.33
417.46	489.59
417.837	504.96
418.214	507.9
418.591	502.7
418.967	495.92
419.344	493.66
419.721	489.59
420.098	513.77
420.475	511.96
420.852	510.61
421.228	518.74
421.605	514.9
421.982	511.06
422.358	560.55
422.735	526.2
423.111	512.19
423.488	542.92
423.864	554.67
424.241	551.51
424.617	536.6
424.994	535.24
425.37	551.74
425.746	558.06
426.123	552.19
426.499	571.62
426.875	570.49
427.251	546.99
427.627	581.11
428.003	591.74
428.379	597.84
428.756	607.33
429.132	596.48
429.507	607.55
429.883	594.67
430.259	588.12
430.635	606.42
431.011	597.61
431.387	629.02
431.763	625.63
432.138	628.8
432.514	636.48
432.89	613.43
433.265	626.99
433.641	659.76
434.016	624.05
434.392	677.38
434.767	650.94
435.143	656.14
435.518	666.54
435.894	688.91
436.269	696.14
436.644	701.34
437.02	663.15
437.395	695.01
437.77	716.25
438.145	721.45
438.52	719.42
438.895	712.64
439.271	739.3
439.646	739.3
440.021	739.75
440.395	735.01
440.77	744.27
441.145	740.88
441.52	759.42
441.895	733.88
442.27	783.14
442.645	775.01
443.019	793.54
443.394	766.65
443.769	766.19
444.143	777.04
444.518	793.54
444.892	774.78
445.267	795.57
445.641	803.03
446.016	784.73
446.39	817.27
446.764	788.79
447.139	803.71
447.513	824.27
447.887	808.68
448.262	823.59
448.636	812.07
449.01	824.05
449.384	829.7
449.758	864.27
450.132	857.04
450.506	866.76
450.88	866.3
451.254	849.36
451.628	872.18
452.002	885.29
452.376	885.74
452.75	901.56
453.123	896.36
453.497	885.97
453.871	926.19
454.244	932.07
454.618	951.95
454.992	929.13
455.365	948.79
455.739	970.26
456.112	961.44
456.486	953.76
456.859	1008
457.232	1008.9
457.606	1046.19
457.979	987.88
458.352	1017.94
458.725	1045.06
459.099	1036.24
459.472	1047.77
459.845	1092.06
460.218	1096.58
460.591	1089.12
460.964	1075.34
461.337	1141.55
461.71	1127.54
462.083	1151.04
462.456	1129.12
462.829	1139.52
463.201	1187.65
463.574	1195.56
463.947	1210.25
464.32	1213.41
464.692	1249.8
465.065	1273.07
465.438	1259.74
465.81	1295.22
466.183	1300.64
466.555	1323.47
466.928	1344.03
467.3	1357.82
467.672	1372.73
468.045	1397.59
468.417	1408.21
468.789	1441.66
469.161	1411.6
469.534	1443.46
469.906	1477.59
470.278	1517.59
470.65	1559.62
471.022	1584.48
471.394	1596
471.766	1600.07
472.138	1659.96
472.51	1711.71
472.882	1677.81
473.253	1765.49
473.625	1763.46
473.997	1817.24
474.369	1802.55
474.74	1889.78
475.112	1925.49
475.484	1940.17
475.855	1967.07
476.227	2006.61
476.598	2092.04
476.97	2106.05
477.341	2197.12
477.713	2241.86
478.084	2316.66
478.455	2365.47
478.827	2365.25
479.198	2443.66
479.569	2509.2
479.94	2568.86
480.311	2632.36
480.682	2720.49
481.053	2787.38
481.424	2845.46
481.795	2900.15
482.166	2972.92
482.537	3055.85
482.908	3110.31
483.279	3212.91
483.65	3269.86
484.021	3432.79
484.391	3437.08
484.762	3530.42
485.133	3595.72
485.503	3640.47
485.874	3853.8
486.244	3839.11
486.615	3911.2
486.985	3985.09
487.356	4136.95
487.726	4254.01
488.097	4356.83
488.467	4466.66
488.837	4559.77
489.207	4667.33
489.578	4789.82
489.948	4831.4
490.318	4958.85
490.688	4957.5
491.058	5138.51
491.428	5293.08
491.798	5362.01
492.168	5512.06
492.538	5582.79
492.908	5667.99
493.278	5768.32
493.648	5874.76
494.017	6006.06
494.387	6128.09
494.757	6217.35
495.126	6330.12
495.496	6418.93
495.866	6510.9
496.235	6584.57
496.605	6708.86
496.974	6763.1
497.344	6883.55
497.713	6968.52
498.082	7102.3
498.452	7192.24
498.821	7283.09
499.19	7359.69
499.559	7418.9
499.928	7524.89
500.298	7682.4
500.667	7724.2
501.036	7770.3
501.405	7878.32
501.774	7958.32
502.143	8086.23
502.512	8126
502.88	8254.81
503.249	8295.49
503.618	8334.13
503.987	8432.21
504.356	8511.08
504.724	8633.78
505.093	8722.14
505.462	8736.38
505.83	8753.56
506.199	8887.34
506.567	9084.62
506.936	9038.97
507.304	9187.44
507.672	9317.61
508.041	9296.14
508.409	9352.64
508.777	9476.7
509.145	9586.75
509.514	9558.96
509.882	9656.81
510.25	9745.39
510.618	9834.88
510.986	9855.67
511.354	10033.3
511.722	10010.47
512.09	10215.66
512.458	10184.25
512.826	10252.95
513.193	10319.62
513.561	10326.4
513.929	10440.52
514.297	10580.85
514.664	10701.98
515.032	10705.59
515.4	10766.84
515.767	10795.99
516.135	10897.45
516.502	10865.59
516.869	10983.78
517.237	11056.55
517.604	11124.57
517.972	11166.15
518.339	11304.22
518.706	11306.26
519.073	11356.2
519.44	11387.84
519.808	11568.4
520.175	11568.85
520.542	11745.79
520.909	11825.11
521.276	11790.54
521.643	11887.94
522.009	12093.81
522.376	12063.98
522.743	12118.21
523.11	12272.11
523.477	12396.85
523.843	12448.6
524.21	12564.08
524.577	12662.15
524.943	12735.37
525.31	12802.49
525.676	12816.95
526.043	12939.66
526.409	13027.12
526.776	13071.41
527.142	13093.33
527.508	13243.61
527.874	13303.72
528.241	13329.25
528.607	13464.62
528.973	13566.31
529.339	13531.73
529.705	13712.07
530.071	13829.13
530.437	13899.41
530.803	14020.31
531.169	14009.46
531.535	13976.92
531.901	14129.91
532.267	14218.04
532.632	14265.95
532.998	14272.96
533.364	14265.73
533.73	14433.41
534.095	14499.17
534.461	14557.47
534.826	14659.16
535.192	14683.57
535.557	14801.98
535.923	14845.37
536.288	14876.11
536.653	14958.36
537.019	14906.39
537.384	14980.06
537.749	15077.91
538.114	15138.47
538.479	15185.48
538.845	15259.37
539.21	15245.81
539.575	15355.87
539.94	15469.31
540.305	15542.08
540.67	15551.57
541.034	15559.7
541.399	15660.04
541.764	15703.88
542.129	15782.52
542.494	15702.98
542.858	15906.36
543.223	15876.31
543.587	15999.24
543.952	16014.61
544.316	16065.23
544.681	16063.87
545.045	16188.61
545.41	16284.88
545.774	16287.82
546.138	16352
546.503	16424.31
546.867	16532.79
547.231	16582.5
547.595	16684.87
547.959	16761.03
548.324	16726.23
548.688	16835.83
549.052	16821.82
549.416	16875.15
549.779	16928.48
550.143	17064.52
550.507	17113.34
550.871	17154.92
551.235	17082.38
551.599	17292.99
551.962	17237.85
552.326	17361.92
552.689	17516.04
553.053	17393.1
553.417	17554
553.78	17725.52
554.143	17621.12
554.507	17631.51
554.87	17775.01
555.234	17976.14
555.597	17841.68
555.96	17873.99
556.323	18017.72
556.686	18054.78
557.05	18262.01
557.413	18243.93
557.776	18250.03
558.139	18394.21
558.502	18394.21
558.865	18411.83
559.228	18622.67
559.59	18634.43
559.953	18626.74
560.316	18785.38
560.679	18705.38
561.041	18901.99
561.404	18874.19
561.767	18989.22
562.129	19044.81
562.492	19241.41
562.854	19249.55
563.217	19236.9
563.579	19357.8
563.941	19437.34
564.304	19486.61
564.666	19519.37
565.028	19648.18
565.39	19681.18
565.753	19812.02
566.115	19827.61
566.477	19912.58
566.839	19958.91
567.201	20112.35
567.563	20223.54
567.925	20298.11
568.287	20380.14
568.648	20517.09
569.01	20558.22
569.372	20592.34
569.734	20617.42
570.095	20856.51
570.457	20745.56
570.819	20793.69
571.18	20940.13
571.542	21113.46
571.903	21135.6
572.265	21188.03
572.626	21333.11
572.987	21364.3
573.349	21373.34
573.71	21544.63
574.071	21604.06
574.432	21661.01
574.794	21887.9
575.155	22051.51
575.516	21899.2
575.877	22076.59
576.238	22221.68
576.599	22302.13
576.96	22407.43
577.32	22383.03
577.681	22727.65
578.042	22764.26
578.403	22889.91
578.763	23001.09
579.124	23059.39
579.485	23340.97
579.845	23462.77
580.206	23559.04
580.566	23647.85
580.927	23749.09
581.287	24019.82
581.648	24010.33
582.008	24289.42
582.368	24444.44
582.728	24634.27
583.089	24692.35
583.449	24866.35
583.809	25050.08
584.169	25245.32
584.529	25375.04
584.889	25678.53
585.249	25741.36
585.609	25848.7
585.969	26128.92
586.329	26287.11
586.688	26507.44
587.048	26674.67
587.408	26850.03
587.768	27027.88
588.127	27085.73
588.487	27374.76
588.846	27764.13
589.206	27813.84
589.565	27970.45
589.925	28227.39
590.284	28409.99
590.643	28743.54
591.003	28918.45
591.362	29169.74
591.721	29284.31
592.08	29445.89
592.44	29706.22
592.799	29915.48
593.158	30184.4
593.517	30361.35
593.876	30625.97
594.235	30664.39
594.593	30974.89
594.952	31228.9
595.311	31216.69
595.67	31586.85
596.029	31825.49
596.387	32166.95
596.746	32179.15
597.104	32191.81
597.463	32427.73
597.822	32770.78
598.18	32838.12
598.538	33048.06
598.897	33329.86
599.255	33267.94
599.613	33844.87
599.972	33811.2
600.33	34136.16
600.688	34138.2
601.046	34388.36
601.404	34582.03
601.762	34617.06
602.12	34949.25
602.478	35019.53
602.836	35362.35
603.194	35336.13
603.552	35324.38
603.91	35528.22
604.268	35863.35
604.625	35950.13
604.983	36207.75
605.341	36099.05
605.698	36319.16
606.056	36670.34
606.413	36624.91
606.771	36873.27
607.128	37133.6
607.485	37019.25
607.843	37196.88
608.2	37485.23
608.557	37636.19
608.914	37746.92
609.272	37835.73
609.629	38049.51
609.986	38244.98
610.343	38167.25
610.7	38418.54
611.057	38439.78
611.414	38666.89
611.771	38710.51
612.127	39123.83
612.484	39124.73
612.841	39272.98
613.198	39223.71
613.554	39262.58
613.911	39562.69
614.267	39587.55
614.624	39737.37
614.98	39812.85
615.337	40127.19
615.693	40102.56
616.05	40133.75
616.406	40361.54
616.762	40280.64
617.118	40368.54
617.475	40561.08
617.831	40597.46
618.187	40696.22
618.543	40805.59
618.899	40935.99
619.255	40973.72
619.611	41001.07
619.967	41197.9
620.323	41279.03
620.678	41132.36
621.034	41193.15
621.39	41147.96
621.746	41316.99
622.101	41672.24
622.457	41543.2
622.812	41673.82
623.168	41782.07
623.523	41812.8
623.879	41942.96
624.234	41766.92
624.589	41972.34
624.945	42095.05
625.3	42179.57
625.655	42113.36
626.01	42266.57
626.365	42114.26
626.72	42225.9
627.075	42182.96
627.43	42230.19
627.785	42208.04
628.14	42317.42
628.495	42330.98
628.85	42326.46
629.205	42218.21
629.559	42439.45
629.914	42290.53
630.269	42395.61
630.623	42200.81
630.978	42178.89
631.332	42442.61
631.687	42505.44
632.041	42266.8
632.396	42364.2
632.75	42433.57
633.104	42366
633.459	42272.9
633.813	42315.61
634.167	42249.17
634.521	42328.94
634.875	42351.09
635.229	42472.44
635.583	42372.11
635.937	42295.72
636.291	42291.43
636.645	42316.29
636.999	42297.53
637.352	42342.95
637.706	42151.1
638.06	42255.05
638.413	42295.5
638.767	41916.3
639.121	42258.89
639.474	41979.57
639.828	41960.82
640.181	42126.69
640.534	41978.67
640.888	41902.97
641.241	41813.7
641.594	41930.31
641.947	42021.38
642.301	41931.67
642.654	42000.14
643.007	42025.22
643.36	41908.39
643.713	41802.18
644.066	41969.4
644.419	41768.28
644.771	41560.6
645.124	41131.23
645.477	41167.62
645.83	41050.33
646.182	40837.01
646.535	40731.02
646.888	40726.05
647.24	40639.5
647.593	40809.21
647.945	40732.38
648.298	40573.06
648.65	40527.86
649.002	40403.8
649.355	40635.43
649.707	40516.11
650.059	40750.23
650.411	41299.14
650.763	41117.45
651.115	41559.47
651.467	41433.6
651.819	41434.28
652.171	41303.43
652.523	41256.2
652.875	41279.25
653.227	41088.3
653.578	41397.89
653.93	41323.32
654.282	41103.66
654.633	40970.56
654.985	41093.72
655.337	41164.23
655.688	41314.28
656.039	41250.1
656.391	40905.48
656.742	40981.63
657.094	41126.26
657.445	41263.66
657.796	41000.39
658.147	41056.89
658.498	41032.03
658.849	41096.21
659.2	41056.43
659.551	40961.75
659.902	41043.33
660.253	40886.95
660.604	41070.22
660.955	40897.12
661.306	40997.68
661.656	40994.52
662.007	40962.65
662.358	40940.73
662.708	40942.31
663.059	40934.18
663.409	40668.2
663.76	41045.36
664.11	41016.21
664.461	40999.71
664.811	40795.42
665.161	40730.12
665.511	40835.88
665.862	40766.27
666.212	40947.96
666.562	40965.36
666.912	40813.05
667.262	40731.02
667.612	40877.68
667.962	40879.94
668.312	40730.79
668.662	40923.1
669.011	40827.51
669.361	40684.02
669.711	40691.47
670.06	40668.42
670.41	40687.63
670.76	40597.01
671.109	40698.7
671.459	40555.88
671.808	40465.26
672.157	40649.21
672.507	40396.79
672.856	40446.51
673.205	40408.32
673.554	40565.6
673.904	40485.38
674.253	40731.02
674.602	40556.11
674.951	40019.85
675.3	39906.86
675.649	40476.34
675.998	40432.27
676.346	40445.38
676.695	40645.37
677.044	40276.34
677.393	40252.39
677.741	40460.97
678.09	40357.47
678.438	40166.74
678.787	40289.68
679.135	40228.43
679.484	39991.15
679.832	40165.16
680.181	39944.37
680.529	39975.79
680.877	40021.66
681.225	39948.22
681.573	40168.55
681.922	39883.36
682.27	39820.99
682.618	39808.78
682.966	39667.09
683.314	39680.65
683.661	39596.13
684.009	39388.23
684.357	39237.95
684.705	39379.42
685.053	39368.12
685.4	39334.22
685.748	39187.11
686.095	39235.47
686.443	39114.11
686.79	39053.78
687.138	38941.24
687.485	39068.69
687.832	38897.4
688.18	39020.56
688.527	38778.98
688.874	38724.29
689.221	38562.04
689.568	38531.53
689.915	38509.16
690.262	38484.07
690.609	38491.08
690.956	38175.61
691.303	38278.2
691.65	37990.07
691.997	38078.43
692.344	37887.7
692.69	37768.84
693.037	37869.85
693.383	37508.96
693.73	37750.76
694.077	37529.97
694.423	37336.98
694.769	37322.52
695.116	37179.93
695.462	37268.74
695.808	37133.37
696.155	37207.72
696.501	36930.67
696.847	36981.51
697.193	36580.62
697.539	36778.35
697.885	36399.83
698.231	36361.42
698.577	36483.67
698.923	36350.57
699.269	36127.3
699.614	35982.44
699.96	35988.32
700.306	35919.39
700.651	35766.18
700.997	35783.13
701.342	35652.51
701.688	35653.41
702.033	35447.09
702.379	35605.28
702.724	35373.42
703.069	35497.94
703.415	35066.99
703.76	35109.02
704.105	35110.15
704.45	34991.74
704.795	34848.24
705.14	34579.54
705.485	34603.04
705.83	34568.7
706.175	34598.98
706.52	34521.24
706.865	34317.4
707.209	34428.59
707.554	34210.51
707.899	34267.69
708.243	34056.39
708.588	33962.16
708.932	33764.42
709.277	33693.92
709.621	33900.46
709.966	33581.38
710.31	33656.86
710.654	33454.37
710.998	33454.15
711.342	33422.96
711.687	33269.75
712.031	33212.12
712.375	33192.46
712.719	33101.62
713.063	32989.08
713.407	33123.54
713.75	32849.87
714.094	32978.68
714.438	32764
714.782	32796.99
715.125	32605.58
715.469	32689.87
715.812	32661.18
716.156	32390.9
716.499	32472.71
716.843	32355.87
717.186	32290.56
717.53	32380.73
717.873	32371.69
718.216	32180.96
718.559	32200.62
718.902	31978.26
719.246	32031.14
719.589	31928.54
719.932	31800.86
720.275	31937.35
720.617	31798.82
720.96	31753.18
721.303	31709.56
721.646	31742.56
721.989	31433.18
722.331	31614.2
722.674	31491.94
723.016	31311.83
723.359	31398.38
723.701	31384.6
724.044	31231.61
724.386	31163.81
724.729	31197.48
725.071	31146.64
725.413	31020.31
725.755	31048.56
726.097	30954.55
726.439	30750.26
726.782	30837.04
727.124	30832.3
727.465	30738.97
727.807	30742.13
728.149	30725.18
728.491	30515.69
728.833	30703.49
729.175	30520.21
729.516	30557.5
729.858	30362.7
730.199	30538.75
730.541	30393.21
730.882	30309.6
731.224	30456.94
731.565	30263.95
731.906	30220.34
732.248	30187.34
732.589	30039.1
732.93	29920.91
733.271	29941.7
733.612	29956.84
733.953	30107.12
734.294	29839.78
734.635	29988.25
734.976	29833.45
735.317	29753.91
735.658	29775.6
735.999	29714.13
736.339	29590.52
736.68	29716.17
737.021	29619
737.361	29455.16
737.702	29559.11
738.042	29464.42
738.383	29356.4
738.723	29441.6
739.063	29419
739.404	29429.17
739.744	29330.64
740.084	29220.36
740.424	29199.12
740.764	29109.18
741.104	29314.6
741.444	29139.69
741.784	28963.19
742.124	29101.04
742.464	28950.09
742.804	28934.95
743.143	28762.52
743.483	28783.99
743.823	28700.15
744.162	28584.45
744.502	28732.24
744.841	28647.27
745.181	28686.59
745.52	28567.05
745.86	28602.07
746.199	28573.82
746.538	28506.26
746.877	28581.06
747.216	28407.28
747.556	28352.59
747.895	28428.29
748.234	28272.36
748.573	28253.16
748.911	28213.83
749.25	28174.29
749.589	28061.97
749.928	28124.35
750.267	28074.63
750.605	27976.78
750.944	27889.32
751.283	27826.5
751.621	27859.72
751.96	27685.94
752.298	27741.3
752.636	27796.44
752.975	27554.42
753.313	27447.98
753.651	27732.04
753.989	27379.51
754.327	27338.83
754.666	27373.63
755.004	27363.01
755.342	27410.92
755.679	27238.94
756.017	27167.31
756.355	27150.81
756.693	27033.07
757.031	27005.96
757.368	26817.03
757.706	26918.5
758.044	26749.92
758.381	26887.54
758.719	26736.13
759.056	26762.8
759.394	26608.68
759.731	26471.96
760.068	26310.38
760.405	26305.86
760.743	26294.56
761.08	26264.51
761.417	26064.96
761.754	26159.65
762.091	26032.42
762.428	25936.38
762.765	25785.42
763.102	25870.62
763.438	25685.77
763.775	25627.69
764.112	25645.77
764.449	25717.85
764.785	25508.82
765.122	25293.69
765.458	25207.36
765.795	25178.66
766.131	25273.35
766.467	25168.49
766.804	24976.18
767.14	24829.97
767.476	24936.41
767.812	24656.19
768.148	24752.23
768.485	24540.26
768.821	24516.53
769.157	24396.08
769.492	24368.51
769.828	24411
770.164	24164.45
770.5	24106.6
770.836	23996.54
771.171	23951.12
771.507	23946.83
771.842	23728.3
772.178	23648.3
772.513	23730.56
772.849	23598.81
773.184	23418.93
773.519	23543.45
773.855	23334.64
774.19	23190.46
774.525	23137.58
774.86	23028.43
775.195	23046.29
775.53	22815.78
775.865	22783.92
776.2	22634.09
776.535	22513.87
776.87	22480.88
777.205	22397.94
777.539	22375.34
777.874	22322.92
778.209	22101.23
778.543	22163.6
778.878	22022.36
779.212	22062.13
779.547	21809.71
779.881	21921.57
780.215	21707.79
780.55	21876.37
780.884	21606.32
781.218	21564.52
781.552	21540.11
781.886	21440.91
782.22	21358.87
782.554	21217.63
782.888	21068.49
783.222	20985.32
783.556	20918.88
783.889	20867.36
784.223	20761.38
784.557	20575.17
784.89	20739.68
785.224	20587.37
785.557	20341.05
785.891	20444.1
786.224	20355.74
786.558	20377.66
786.891	20166.36
787.224	20108.51
787.557	20047.95
787.891	20102.86
788.224	20063.99
788.557	19906.48
788.89	19928.63
789.223	19896.09
789.556	19833.72
789.888	19668.52
790.221	19668.75
790.554	19485.93
790.887	19534.97
791.219	19442.77
791.552	19187.18
791.884	19301.53
792.217	19223.34
792.549	19172.94
792.882	19058.14
793.214	18967.3
793.546	19029.9
793.879	18866.96
794.211	18795.33
794.543	18828.09
794.875	18697.7
795.207	18646.18
795.539	18647.53
795.871	18560.53
796.203	18303.59
796.535	18289.58
796.867	18229.24
797.198	18226.3
797.53	18208.9
797.862	18154.89
798.193	18154.44
798.525	18011.39
798.856	17953.54
799.188	17758.97
799.519	17796.93
799.85	17752.19
800.182	17640.55
800.513	17756.26
800.844	17460.67
801.175	17597.84
801.506	17595.81
801.837	17543.83
802.168	17403.72
802.499	17373.22
802.83	17302.03
803.161	17136.61
803.491	17176.16
803.822	17230.39
804.153	17017.07
804.483	17003.51
804.814	16957.63
805.145	16944.07
805.475	16901.36
805.805	16869.27
806.136	16822.04
806.466	16823.63
806.796	16788.6
807.126	16603.74
807.457	16553.35
807.787	16645.1
808.117	16462.05
808.447	16438.32
808.777	16482.39
809.107	16370.3
809.436	16284.2
809.766	16335.28
810.096	16257.31
810.426	16173.25
810.755	16237.88
811.085	16146.81
811.414	16080.37
811.744	15982.52
812.073	15985.46
812.403	15931.67
812.732	15866.81
813.061	15815.06
813.39	15775.97
813.719	15691.45
814.049	15829.08
814.378	15671.57
814.707	15661.62
815.036	15594.05
815.365	15598.57
815.693	15491.46
816.022	15405.81
816.351	15432.02
816.68	15343.89
817.008	15332.82
817.337	15207.85
817.665	15183.22
817.994	15199.49
818.322	15211.24
818.651	15168.75
818.979	15009.44
819.307	15052.37
819.636	15156.32
819.964	14930.34
820.292	15061.86
820.62	14968.08
820.948	15010.79
821.276	14994.52
821.604	14879.72
821.932	14860.29
822.259	14983.67
822.587	14922.88
822.915	14911.13
823.243	14941.87
823.57	14838.82
823.898	14898.03
824.225	14846.05
824.553	14833.17
824.88	14877.69
825.207	14829.1
825.535	14823
825.862	14925.37
826.189	14815.77
826.516	14858.71
826.843	14913.85
827.17	14911.36
827.497	14852.6
827.824	14920.62
828.151	14929.89
828.478	14779.39
828.805	14867.74
829.131	14849.44
829.458	14809.22
829.785	14764.24
830.111	14750.23
830.438	14858.71
830.764	14882.89
831.09	14836.79
831.417	14824.58
831.743	14865.03
832.069	14846.73
832.395	14695.55
832.722	14813.96
833.048	14614.19
833.374	14780.97
833.7	14550.24
834.026	14632.27
834.351	14727.18
834.677	14625.04
835.003	14623.01
835.329	14654.19
835.654	14574.65
835.98	14514.99
836.306	14484.25
836.631	14454.87
836.956	14500.52
837.282	14464.14
837.607	14412.16
837.932	14380.98
838.258	14399.96
838.583	14413.52
838.908	14324.03
839.233	14459.85
839.558	14335.33
839.883	14307.53
840.208	14219.63
840.533	14203.58
840.858	14264.82
841.182	14212.62
841.507	14134.88
841.832	14101.66
842.156	14048.33
842.481	14104.37
842.805	14020.76
843.13	13970.37
843.454	14057.14
843.778	13855.12
844.103	13834.33
844.427	13850.82
844.751	13866.19
845.075	13763.14
845.399	13772.41
845.723	13736.25
846.047	13763.37
846.371	13554.33
846.695	13640.88
847.019	13518.63
847.343	13412.87
847.666	13389.82
847.99	13313.44
848.313	13360.89
848.637	13212.42
848.96	13148.69
849.284	13169.26
849.607	13076.15
849.931	13014.46
850.254	12990.28
850.577	12841.58
850.9	12845.2
851.223	12746.44
851.546	12733.56
851.869	12719.55
852.192	12787.35
852.515	12566.79
852.838	12489.05
853.161	12557.75
853.483	12464.19
853.806	12433.23
854.129	12417.19
854.451	12230.3
854.774	12274.82
855.096	12198.66
855.419	12190.98
855.741	12218.32
856.063	12117.53
856.385	12157.08
856.708	12050.64
857.03	12021.94
857.352	11917.54
857.674	11954.15
857.996	11919.12
858.318	11754.61
858.64	11914.38
858.961	11823.53
859.283	11764.1
859.605	11663.54
859.926	11753.02
860.248	11761.61
860.57	11648.17
860.891	11660.15
861.212	11569.53
861.534	11559.36
861.855	11566.59
862.176	11553.48
862.498	11511.22
862.819	11518.91
863.14	11426.93
863.461	11462.41
863.782	11400.04
864.103	11429.64
864.424	11382.41
864.745	11412.02
865.065	11336.09
865.386	11233.94
865.707	11290.66
866.027	11276.88
866.348	11257.22
866.668	11227.84
866.989	11273.04
867.309	11094.28
867.63	11112.59
867.95	11086.6
868.27	11123.89
868.59	11056.77
868.91	11050.22
869.23	11089.31
869.55	10976.77
869.87	11028.3
870.19	11037.56
870.51	11023.55
870.83	10991.91
871.15	11026.72
871.469	10948.53
871.789	10974.97
872.109	10941.75
872.428	10775.2
872.748	10868.3
873.067	10835.53
873.386	10865.14
873.706	10832.82
874.025	10711.02
874.344	10745.82
874.663	10684.58
874.982	10684.8
875.301	10783.78
875.62	10613.85
875.939	10670.79
876.258	10654.07
876.577	10632.15
876.896	10614.75
877.214	10524.36
877.533	10569.1
877.852	10518.93
878.17	10590.57
878.489	10563
878.807	10541.53
879.125	10440.52
879.444	10466.96
879.762	10451.82
880.08	10469.44
880.398	10335.21
880.716	10419.5
881.034	10427.64
881.352	10420.18
881.67	10319.84
881.988	10350.58
882.306	10248.88
882.624	10270.35
882.941	10277.36
883.259	10236.68
883.577	10188.55
883.894	10130.47
884.212	10109.68
884.529	10113.97
884.846	10145.83
885.164	10060.64
885.481	10071.94
885.798	10051.37
886.115	10003.92
886.432	10012.28
886.75	9919.17
887.067	10010.25
887.383	9910.59
887.7	9952.62
888.017	9820.65
888.334	9853.41
888.651	9862.68
888.967	9759.18
889.284	9804.15
889.6	9752.4
889.917	9706.98
890.233	9669.92
890.55	9627.43
890.866	9640.99
891.182	9627.43
891.498	9653.19
891.815	9575
892.131	9566.64
892.447	9514.44
892.763	9542.46
893.079	9416.14
893.395	9433.99
893.71	9412.97
894.026	9361.67
894.342	9433.54
894.657	9273.54
894.973	9248.46
895.289	9240.32
895.604	9227.44
895.92	9244.62
896.235	9145.18
896.55	9083.26
896.865	9107.9
897.181	9034
897.496	9074.9
897.811	8980.67
898.126	8953.55
898.441	8952.19
898.756	8897.05
899.071	8917.17
899.386	8849.6
899.7	8879.43
900.015	8832.88
900.33	8737.51
900.644	8689.38
900.959	8687.12
901.273	8683.73
901.588	8678.53
901.902	8533.9
902.216	8603.05
902.531	8517.86
902.845	8536.16
903.159	8500.45
903.473	8413.9
903.787	8371.19
904.101	8368.25
904.415	8369.38
904.729	8296.62
905.042	8308.14
905.356	8285.32
905.67	8244.42
905.984	8272.21
906.297	8205.09
906.611	8151.31
906.924	8183.63
907.237	8111.99
907.551	8025.89
907.864	8003.29
908.177	8027.47
908.491	8022.5
908.804	7975.04
909.117	7867.25
909.43	7873.13
909.743	7836.74
910.056	7762.17
910.368	7758.55
910.681	7678.1
910.994	7676.97
911.307	7639.46
911.619	7575.96
911.932	7605.79
912.244	7523.98
912.557	7543.64
912.869	7467.71
913.181	7491.22
913.494	7391.11
913.806	7380.71
914.118	7383.87
914.43	7290.54
914.742	7334.61
915.054	7200.38
915.366	7318.56
915.678	7213.71
915.99	7180.26
916.302	7218.68
916.613	7148.85
916.925	7104.33
917.236	7074.96
917.548	6988.4
917.859	7041.51
918.171	7026.14
918.482	6956.31
918.794	6930.78
919.105	6942.53
919.416	6886.03
919.727	6813.72
920.038	6821.4
920.349	6773.04
920.66	6735.98
920.971	6805.13
921.282	6746.83
921.593	6693.27
921.903	6652.59
922.214	6672.48
922.525	6628.41
922.835	6592.26
923.146	6505.25
923.456	6498.25
923.767	6468.19
924.077	6489.43
924.387	6413.05
924.697	6427.06
925.008	6399.49
925.318	6310.46
925.628	6298.7
925.938	6260.74
926.248	6241.98
926.558	6258.93
926.867	6192.04
927.177	6180.29
927.487	6171.7
927.796	6131.03
928.106	6102.1
928.416	6095.55
928.725	6081.08
929.034	5990.69
929.344	6052.16
929.653	5991.59
929.962	5955.21
930.271	5917.7
930.581	5872.27
930.89	5816.01
931.199	5822.11
931.508	5785.27
931.817	5849
932.125	5718.38
932.434	5723.8
932.743	5728.32
933.051	5671.15
933.36	5667.31
933.669	5609.91
933.977	5616.46
934.286	5595.45
934.594	5593.64
934.902	5505.5
935.21	5472.29
935.519	5512.51
935.827	5479.06
936.135	5446.75
936.443	5392.97
936.751	5378.73
937.059	5372.85
937.367	5380.31
937.674	5346.41
937.982	5360.2
938.29	5312.74
938.597	5308.9
938.905	5235
939.213	5205.4
939.52	5207.66
939.827	5192.97
940.135	5174.67
940.442	5168.34
940.749	5148.45
941.056	5124.5
941.363	5064.39
941.67	5091.28
941.977	5065.52
942.284	4958.4
942.591	5010.38
942.898	4966.54
943.205	4921.79
943.511	4878.63
943.818	4924.96
944.125	4865.07
944.431	4865.75
944.738	4862.81
945.044	4821.46
945.35	4784.17
945.657	4735.81
945.963	4764.06
946.269	4705.98
946.575	4722.7
946.881	4698.29
947.187	4682.93
947.493	4625.75
947.799	4646.77
948.105	4644.96
948.41	4614.91
948.716	4559.77
949.022	4549.37
949.327	4553.21
949.633	4525.64
949.938	4517.51
950.244	4450.84
950.549	4444.74
950.854	4459.88
951.16	4450.39
951.465	4410.62
951.77	4369.49
952.075	4306.21
952.38	4373.78
952.685	4357.96
952.99	4304.63
953.294	4293.33
953.599	4293.56
953.904	4268.02
954.209	4204.97
954.513	4202.04
954.818	4212.43
955.122	4161.36
955.426	4188.25
955.731	4125.88
956.035	4123.62
956.339	4119.1
956.643	4096.5
956.948	4051.76
957.252	4072.77
957.556	4032.32
957.86	3995.04
958.163	3983.51
958.467	3992.32
958.771	3959.33
959.075	3984.42
959.378	3941.93
959.682	3957.3
959.985	3948.03
960.289	3856.51
960.592	3858.54
960.896	3796.85
961.199	3819.45
961.502	3799.79
961.805	3802.27
962.108	3745.33
962.411	3783.74
962.714	3759.79
963.017	3706.23
963.32	3729.73
963.623	3697.19
963.926	3733.12
964.228	3675.95
964.531	3661.26
964.833	3621.94
965.136	3610.19
965.438	3566.57
965.741	3560.7
966.043	3579
966.345	3554.14
966.648	3533.35
966.95	3513.69
967.252	3490.87
967.554	3465.11
967.856	3482.06
968.158	3457.65
968.46	3460.81
968.761	3426.92
969.063	3434.82
969.365	3416.07
969.666	3410.42
969.968	3351.66
970.269	3357.54
970.571	3337.65
970.872	3338.78
971.174	3294.72
971.475	3296.3
971.776	3330.42
972.077	3243.19
972.378	3249.52
972.679	3247.94
972.98	3220.14
973.281	3224.66
973.582	3223.76
973.883	3189.18
974.183	3205.9
974.484	3181.05
974.785	3122.97
975.085	3168.17
975.386	3137.66
975.686	3073.7
975.986	3043.2
976.287	3066.93
976.587	3003.42
976.887	3043.87
977.187	3054.95
977.487	3040.71
977.787	2982.63
978.087	3006.36
978.387	2990.99
978.687	2976.31
978.987	2936.31
979.286	2948.96
979.586	2930.21
979.885	2926.59
980.185	2896.53
980.484	2902.41
980.784	2903.77
981.083	2901.51
981.382	2859.92
981.682	2852.69
981.981	2834.39
982.28	2816.31
982.579	2809.76
982.878	2823.32
983.177	2778.57
983.475	2795.29
983.774	2754.62
984.073	2747.39
984.372	2719.82
984.67	2731.11
984.969	2699.7
985.267	2734.5
985.566	2715.97
985.864	2689.31
986.162	2673.49
986.461	2642.53
986.759	2674.39
987.057	2584.68
987.355	2588.29
987.653	2598.91
987.951	2557.79
988.249	2596.65
988.547	2558.92
988.844	2532.25
989.142	2538.35
989.44	2511.01
989.737	2516.43
990.035	2512.14
990.332	2499.48
990.63	2488.18
990.927	2466.04
991.224	2457.45
991.521	2414.29
991.819	2459.48
992.116	2445.92
992.413	2456.55
992.71	2429.88
993.006	2379.49
993.303	2377.9
993.6	2364.57
993.897	2374.74
994.193	2353.95
994.49	2339.26
994.787	2328.87
995.083	2297.68
995.379	2291.8
995.676	2331.35
995.972	2288.41
996.268	2281.18
996.565	2256.32
996.861	2260.17
997.157	2222.65
997.453	2204.8
997.749	2207.06
998.044	2202.31
998.34	2194.18
998.636	2157.57
998.932	2148.98
999.227	2172.94
999.523	2129.32
999.818	2148.31
1000.114	2109.21
1000.409	2115.09
1000.704	2073.28
1001	2060.62
1001.295	2100.17
1001.59	2051.36
1001.885	2046.61
1002.18	2053.17
1002.475	2032.38
1002.77	2003
1003.065	1991.02
1003.359	2011.13
1003.654	1996.22
1003.949	1984.69
1004.243	1965.49
1004.538	1927.29
1004.832	1946.05
1005.127	1929.78
1005.421	1931.36
1005.715	1891.59
1006.009	1901.76
1006.304	1875.54
1006.598	1896.11
1006.892	1870.12
1007.186	1848.2
1007.48	1868.76
1007.773	1868.09
1008.067	1804.13
1008.361	1817.92
1008.655	1818.82
1008.948	1809.78
1009.242	1805.49
1009.535	1812.72
1009.829	1760.07
1010.122	1769.56
1010.415	1741.08
1010.708	1730.24
1011.001	1730.01
1011.295	1711.48
1011.588	1723.01
1011.881	1713.06
1012.173	1704.7
1012.466	1698.6
1012.759	1701.09
1013.052	1672.84
1013.344	1637.13
1013.637	1640.52
1013.93	1625.61
1014.222	1610.24
1014.514	1628.77
1014.807	1612.5
1015.099	1614.99
1015.391	1591.26
1015.683	1607.98
1015.976	1556.91
1016.268	1576.57
1016.56	1540.19
1016.851	1527.98
1017.143	1534.54
1017.435	1522.11
1017.727	1510.81
1018.018	1515.55
1018.31	1525.72
1018.602	1508.77
1018.893	1438.27
1019.185	1478.27
1019.476	1443.46
1019.767	1446.4
1020.058	1456.35
1020.35	1447.53
1020.641	1429.45
1020.932	1424.71
1021.223	1389.45
1021.514	1388.33
1021.804	1403.01
1022.095	1372.73
1022.386	1381.09
1022.677	1366.63
1022.967	1356.01
1023.258	1327.08
1023.548	1316.24
1023.839	1320.76
1024.129	1306.29
1024.419	1306.75
1024.709	1298.61
1025	1273.07
1025.29	1287.31
1025.58	1266.97
1025.87	1259.51
1026.16	1238.05
1026.449	1251.83
1026.739	1238.05
1027.029	1210.7
1027.319	1234.88
1027.608	1219.74
1027.898	1210.48
1028.187	1219.06
1028.477	1214.54
1028.766	1183.36
1029.055	1191.72
1029.344	1147.65
1029.634	1172.29
1029.923	1157.37
1030.212	1139.52
1030.501	1148.11
1030.79	1144.49
1031.078	1117.37
1031.367	1117.15
1031.656	1130.93
1031.945	1129.12
1032.233	1104.26
1032.522	1061.33
1032.81	1078.73
1033.099	1087.32
1033.387	1067.43
1033.675	1070.14
1033.963	1070.14
1034.251	1074.21
1034.54	1044.61
1034.828	1030.82
1035.116	1024.27
1035.403	1033.08
1035.691	998.96
1035.979	1020.43
1036.267	1007.54
1036.554	980.88
1036.842	982.46
1037.129	991.05
1037.417	970.03
1037.704	988.34
1037.992	958.28
1038.279	954.21
1038.566	935
1038.853	935
1039.14	935
