Data from hue_240_FLMS001491_00095.txt Node
Date: Tue Feb 07 16:36:12 GMT 2017
User: dcchb
Spectrometer: FLMS00149
Trigger mode: 0
Integration Time (sec): 2.000000E-2
Scans to average: 10
Electric dark correction enabled: true
Nonlinearity correction enabled: false
Boxcar width: 0
XAxis mode: Wavelengths
Number of Pixels in Spectrum: 2048
>>>>>Begin Spectral Data<<<<<
341.393	-1.88
341.776	-1.88
342.16	-1.88
342.543	-65.61
342.927	-73.74
343.31	-79.39
343.693	-67.64
344.077	-55.44
344.46	-72.16
344.843	-47.98
345.226	-57.92
345.61	-27.19
345.993	-5.95
346.376	8.06
346.759	13.94
347.142	1.96
347.525	53.71
347.908	70.21
348.291	65.24
348.674	88.51
349.057	112.02
349.44	104.11
349.823	152.24
350.206	156.08
350.588	188.4
350.971	185.24
351.354	193.14
351.737	212.58
352.119	225.23
352.502	246.93
352.884	272.46
353.267	269.98
353.65	308.4
354.032	270.43
354.414	282.41
354.797	302.75
355.179	297.32
355.562	297.1
355.944	324.44
356.326	326.47
356.709	318.11
357.091	321.28
357.473	324.21
357.855	312.24
358.238	323.08
358.62	297.55
359.002	331.45
359.384	333.48
359.766	320.37
360.148	318.79
360.53	322.41
360.912	336.64
361.294	335.06
361.676	318.57
362.057	311.79
362.439	344.55
362.821	330.99
363.203	323.76
363.584	313.82
363.966	303.42
364.348	336.19
364.729	315.63
365.111	311.56
365.493	317.66
365.874	312.69
366.256	295.51
366.637	304.1
367.019	315.85
367.4	304.78
367.781	296.87
368.163	313.37
368.544	301.84
368.925	292.13
369.306	307.27
369.688	305.01
370.069	294.84
370.45	292.35
370.831	304.55
371.212	302.97
371.593	315.63
371.974	287.38
372.355	321.28
372.736	285.8
373.117	312.24
373.498	314.5
373.879	320.37
374.26	298
374.641	324.21
375.021	308.62
375.402	296.42
375.783	297.55
376.163	317.21
376.544	313.82
376.925	317.89
377.305	312.01
377.686	294.84
378.066	319.47
378.447	306.81
378.827	307.27
379.208	322.18
379.588	308.62
379.968	323.76
380.349	319.02
380.729	317.89
381.109	332.12
381.489	346.59
381.87	327.15
382.25	321.95
382.63	340.94
383.01	352.69
383.39	345.68
383.77	332.8
384.15	317.21
384.53	327.6
384.91	339.13
385.29	356.08
385.67	328.28
386.049	354.27
386.429	319.24
386.809	314.27
387.189	366.25
387.568	328.96
387.948	341.62
388.328	345.01
388.707	348.39
389.087	321.05
389.466	356.3
389.846	341.16
390.225	375.29
390.605	363.54
390.984	358.11
391.363	358.56
391.743	365.34
392.122	359.24
392.501	371.67
392.881	364.67
393.26	380.48
393.639	376.87
394.018	397.89
394.397	385.23
394.776	356.76
395.155	385
395.534	402.86
395.913	365.34
396.292	394.27
396.671	394.04
397.05	392.69
397.429	387.04
397.808	375.06
398.186	399.92
398.565	399.01
398.944	386.81
399.323	382.52
399.701	401.73
400.08	425.23
400.458	409.64
400.837	390.88
401.215	419.13
401.594	402.63
401.972	415.96
402.351	409.18
402.729	415.96
403.107	406.92
403.486	461.16
403.864	417.09
404.242	419.35
404.62	426.81
404.999	427.71
405.377	439.47
405.755	436.53
406.133	423.42
406.511	431.56
406.889	453.93
407.267	448.28
407.645	458.45
408.023	461.39
408.401	478.56
408.779	454.61
409.156	486.24
409.534	492.8
409.912	498.22
410.29	495.51
410.667	498.45
411.045	481.95
411.422	500.71
411.8	523.76
412.178	516.3
412.555	539.35
412.933	544.1
413.31	516.3
413.687	538.45
414.065	537.99
414.442	559.24
414.819	562.4
415.197	556.07
415.574	582.06
415.951	585
416.328	606.24
416.705	595.62
417.082	604.89
417.46	602.4
417.837	607.15
418.214	613.02
418.591	627.48
418.967	653.7
419.344	629.97
419.721	636.52
420.098	636.3
420.475	641.72
420.852	674.04
421.228	662.06
421.605	693.24
421.982	675.17
422.358	681.27
422.735	695.96
423.111	722.62
423.488	722.17
423.864	738.22
424.241	735.73
424.617	751.55
424.994	766.46
425.37	772.79
425.746	756.75
426.123	781.15
426.499	799
426.875	792
427.251	808.95
427.627	835.84
428.003	834.71
428.379	820.92
428.756	861.83
429.132	856.86
429.507	862.28
429.883	873.58
430.259	874.26
430.635	873.8
431.011	910.19
431.387	924.2
431.763	921.71
432.138	935.27
432.514	949.51
432.89	963.07
433.265	990.86
433.641	998.32
434.016	972.79
434.392	1030.64
434.767	1043.52
435.143	1042.61
435.518	1059.11
435.894	1052.78
436.269	1092.56
436.644	1108.83
437.02	1153.12
437.395	1133.46
437.77	1173.01
438.145	1159.67
438.52	1195.6
438.895	1199.67
439.271	1181.37
439.646	1231.31
440.021	1249.16
440.395	1250.29
440.77	1231.54
441.145	1206
441.52	1296.62
441.895	1294.81
442.27	1328.48
442.645	1304.75
443.019	1317.41
443.394	1313.12
443.769	1347.69
444.143	1346.11
444.518	1401.7
444.892	1356.28
445.267	1382.49
445.641	1377.75
446.016	1418.65
446.39	1429.72
446.764	1436.95
447.139	1440.8
447.513	1469.72
447.887	1448.93
448.262	1445.54
448.636	1447.35
449.01	1476.73
449.384	1514.69
449.758	1544.97
450.132	1518.08
450.506	1519.89
450.88	1523.05
451.254	1542.49
451.628	1599.44
452.002	1600.34
452.376	1592.88
452.75	1594.92
453.123	1633.33
453.497	1641.69
453.871	1617.06
454.244	1667.68
454.618	1669.72
454.992	1728.7
455.365	1744.97
455.739	1770.05
456.112	1766.44
456.486	1804.4
456.859	1791.75
457.232	1800.79
457.606	1813.67
457.979	1824.06
458.352	1901.12
458.725	1905.19
459.099	1923.72
459.472	1926.66
459.845	1982.7
460.218	2000.33
460.591	1998.29
460.964	2002.59
461.337	2065.41
461.71	2080.33
462.083	2129.14
462.456	2121.46
462.829	2096.15
463.201	2148.57
463.574	2189.25
463.947	2192.41
464.32	2213.88
464.692	2238.29
465.065	2273.77
465.438	2295.91
465.81	2278.06
466.183	2335.46
466.555	2372.3
466.928	2367.55
467.3	2401
467.672	2413.2
468.045	2480.09
468.417	2476.02
468.789	2483.25
469.161	2535.91
469.534	2572.07
469.906	2619.75
470.278	2649.35
470.65	2668.79
471.022	2703.14
471.394	2775
471.766	2747.88
472.138	2786.75
472.51	2850.25
472.882	2892.73
473.253	2934.09
473.625	2936.58
473.997	3008.66
474.369	3037.36
474.74	3046.18
475.112	3101.77
475.484	3151.03
475.855	3198.72
476.227	3223.35
476.598	3269
476.97	3310.12
477.341	3368.65
477.713	3464.47
478.084	3424.02
478.455	3529.33
478.827	3530.23
479.198	3664.24
479.569	3692.04
479.94	3715.09
480.311	3739.49
480.682	3816.55
481.053	3873.5
481.424	3928.87
481.795	3978.58
482.166	4061.97
482.537	4087.28
482.908	4210.67
483.279	4202.3
483.65	4253.6
484.021	4377.89
484.391	4367.27
484.762	4389.87
485.133	4446.14
485.503	4468.29
485.874	4598.9
486.244	4601.84
486.615	4679.81
486.985	4735.85
487.356	4853.81
487.726	4863.08
488.097	4948.05
488.467	4901.72
488.837	5034.6
489.207	5105.11
489.578	5183.97
489.948	5169.74
490.318	5263.07
490.688	5253.35
491.058	5344.65
491.428	5423.29
491.798	5414.93
492.168	5535.6
492.538	5582.16
492.908	5576.51
493.278	5671.19
493.648	5698.54
494.017	5755.03
494.387	5806.56
494.757	5783.73
495.126	5857.85
495.496	5862.6
495.866	5923.16
496.235	5943.95
496.605	6007.46
496.974	6015.36
497.344	6092.2
497.713	6159.99
498.082	6165.19
498.452	6226.88
498.821	6191.63
499.19	6265.53
499.559	6269.37
499.928	6405.86
500.298	6353.89
500.667	6383.72
501.036	6358.86
501.405	6454
501.774	6426.2
502.143	6482.92
502.512	6487.22
502.88	6590.72
503.249	6570.83
503.618	6560.21
503.987	6630.04
504.356	6653.09
504.724	6625.97
505.093	6649.25
505.462	6734.67
505.83	6748.9
506.199	6860.99
506.567	6868.45
506.936	6869.35
507.304	6892.4
507.672	6974.21
508.041	6990.03
508.409	6987.54
508.777	7027.09
509.145	7046.52
509.514	7038.61
509.882	7109.8
510.25	7066.64
510.618	7086.07
510.986	7083.58
511.354	7217.59
511.722	7271.83
512.09	7245.84
512.458	7307.31
512.826	7252.85
513.193	7343.24
513.561	7308.89
513.929	7383.69
514.297	7396.57
514.664	7471.82
515.032	7449.45
515.4	7509.11
515.767	7455.1
516.135	7520.64
516.502	7440.86
516.869	7627.75
517.237	7581.65
517.604	7546.85
517.972	7682.44
518.339	7660.07
518.706	7646.73
519.073	7744.81
519.44	7699.61
519.808	7794.07
520.175	7709.11
520.542	7796.56
520.909	7817.58
521.276	7832.72
521.643	7804.7
522.009	7868.42
522.376	7855.54
522.743	7881.08
523.11	7925.82
523.477	8017.35
523.843	7997.91
524.21	8025.26
524.577	8123.56
524.943	8052.6
525.31	8089.66
525.676	8208.75
526.043	8213.5
526.409	8231.8
526.776	8294.4
527.142	8212.59
527.508	8338.47
527.874	8247.4
528.241	8357.68
528.607	8290.11
528.973	8342.31
529.339	8319.94
529.705	8396.09
530.071	8471.35
530.437	8384.57
530.803	8401.97
531.169	8459.37
531.535	8462.53
531.901	8432.48
532.267	8435.87
532.632	8453.94
532.998	8448.52
533.364	8535.52
533.73	8531
534.095	8475.19
534.461	8517.45
534.826	8526.48
535.192	8543.89
535.557	8558.35
535.923	8528.52
536.288	8497.79
536.653	8580.49
537.019	8530.33
537.384	8538.69
537.749	8499.37
538.114	8580.72
538.479	8557.44
538.845	8553.83
539.21	8562.64
539.575	8521.06
539.94	8495.75
540.305	8556.09
540.67	8467.5
541.034	8516.99
541.399	8593.83
541.764	8529.2
542.129	8571.91
542.494	8512.7
542.858	8518.12
543.223	8517.67
543.587	8601.06
543.952	8535.52
544.316	8581.85
544.681	8556.99
545.045	8544.79
545.41	8628.18
545.774	8595.64
546.138	8529.65
546.503	8551.34
546.867	8511.12
547.231	8523.1
547.595	8554.96
547.959	8506.6
548.324	8527.39
548.688	8560.38
549.052	8544.34
549.416	8497.56
549.779	8506.15
550.143	8518.8
550.507	8558.57
550.871	8557.22
551.235	8462.08
551.599	8539.14
551.962	8515.64
552.326	8534.39
552.689	8535.52
553.053	8529.65
553.417	8466.83
553.78	8599.25
554.143	8474.06
554.507	8542.53
554.87	8550.67
555.234	8598.8
555.597	8553.83
555.96	8510.44
556.323	8575.75
556.686	8510.44
557.05	8626.37
557.413	8586.82
557.776	8589.99
558.139	8601.96
558.502	8620.27
558.865	8642.87
559.228	8728.97
559.59	8687.16
559.953	8614.84
560.316	8773.03
560.679	8730.1
561.041	8778
561.404	8718.57
561.767	8827.72
562.129	8787.04
562.492	8830.66
562.854	8780.49
563.217	8827.72
563.579	8881.5
563.941	8875.18
564.304	8932.12
564.666	8970.99
565.028	8963.54
565.39	8963.99
565.753	8973.7
566.115	9019.81
566.477	9032.01
566.839	9013.48
567.201	9067.26
567.563	9090.31
567.925	9209.18
568.287	9146.13
568.648	9175.28
569.01	9219.57
569.372	9217.54
569.734	9154.49
570.095	9290.08
570.457	9257.09
570.819	9299.8
571.18	9358.78
571.542	9383.41
571.903	9385.67
572.265	9358.33
572.626	9483.97
572.987	9423.18
573.349	9380.25
573.71	9513.35
574.071	9489.62
574.432	9522.16
574.794	9577.53
575.155	9489.85
575.516	9511.54
575.877	9577.53
576.238	9605.78
576.599	9630.86
576.96	9657.08
577.32	9668.38
577.681	9707.7
578.042	9652.56
578.403	9703.86
578.763	9721.93
579.124	9757.86
579.485	9803.74
579.845	9814.81
580.206	9724.87
580.566	9848.94
580.927	9781.37
581.287	9874.7
581.648	9835.15
582.008	9792.21
582.368	9883.06
582.728	9902.04
583.089	9866.56
583.449	9939.33
583.809	9930.97
584.169	9909.5
584.529	9920.12
584.889	10034.92
585.249	9955.15
585.609	9938.2
585.969	10077.86
586.329	10029.27
586.688	9960.12
587.048	10051.19
587.408	9916.5
587.768	9980.01
588.127	10057.97
588.487	9996.5
588.846	10096.84
589.206	10029.27
589.565	10099.78
589.925	10043.06
590.284	10069.5
590.643	10055.26
591.003	10069.95
591.362	10114.24
591.721	10104.52
592.08	10142.94
592.44	10094.81
592.799	10129.83
593.158	10126.67
593.517	10146.56
593.876	10134.8
594.235	10132.54
594.593	10188.36
594.952	10189.94
595.311	10160.79
595.67	10196.27
596.029	10210.73
596.387	10175.48
596.746	10210.51
597.104	10213.67
597.463	10237.63
597.822	10249.6
598.18	10198.98
598.538	10130.96
598.897	10224.52
599.255	10217.51
599.613	10319.21
599.972	10233.11
600.33	10313.33
600.688	10217.06
601.046	10311.07
601.404	10355.14
601.762	10345.87
602.12	10318.75
602.478	10365.08
602.836	10364.4
603.194	10251.19
603.552	10336.61
603.91	10213.45
604.268	10340.67
604.625	10304.52
604.983	10375.93
605.341	10243.95
605.698	10389.94
606.056	10419.32
606.413	10390.62
606.771	10383.16
607.128	10383.39
607.485	10391.29
607.843	10410.05
608.2	10461.12
608.557	10421.8
608.914	10441.46
609.272	10408.92
609.629	10418.64
609.986	10457.96
610.343	10450.28
610.7	10482.37
611.057	10561.69
611.414	10532.08
611.771	10497.73
612.127	10472.87
612.484	10512.2
612.841	10601.91
613.198	10561.91
613.554	10561.46
613.911	10574.57
614.267	10599.65
614.624	10583.61
614.98	10572.98
615.337	10673.32
615.693	10563.04
616.05	10636.03
616.406	10680.1
616.762	10632.64
617.118	10657.05
617.475	10642.36
617.831	10684.62
618.187	10728.01
618.543	10700.66
618.899	10713.55
619.255	10716.03
619.611	10636.94
619.967	10738.86
620.323	10760.78
620.678	10705.41
621.034	10686.65
621.39	10730.49
621.746	10751.06
622.101	10882.58
622.457	10688.01
622.812	10781.79
623.168	10754
623.523	10781.79
623.879	10794.45
624.234	10743.15
624.589	10781.57
624.945	10789.93
625.3	10791.74
625.655	10683.49
626.01	10727.33
626.365	10683.04
626.72	10765.3
627.075	10634
627.43	10691.17
627.785	10699.76
628.14	10777.05
628.495	10703.6
628.85	10709.03
629.205	10621.57
629.559	10678.52
629.914	10676.48
630.269	10664.06
630.623	10622.93
630.978	10624.96
631.332	10657.5
631.687	10617.96
632.041	10639.65
632.396	10668.35
632.75	10629.71
633.104	10578.41
633.459	10563.72
633.813	10526.88
634.167	10562.14
634.521	10555.13
634.875	10588.35
635.229	10505.42
635.583	10413.21
635.937	10448.24
636.291	10409.83
636.645	10525.98
636.999	10508.58
637.352	10471.29
637.706	10451.18
638.06	10377.06
638.413	10442.59
638.767	10330.51
639.121	10364.63
639.474	10314.69
639.828	10386.77
640.181	10326.89
640.534	10408.24
640.888	10336.61
641.241	10307.23
641.594	10282.37
641.947	10335.02
642.301	10275.82
642.654	10319.66
643.007	10285.08
643.36	10296.61
643.713	10221.58
644.066	10277.4
644.419	10187.01
644.771	10161.7
645.124	10036.28
645.477	10058.2
645.83	9993.34
646.182	9946.11
646.535	9875.38
646.888	9877.86
647.24	9817.52
647.593	9876.05
647.945	9827.69
648.298	9823.85
648.65	9745.66
649.002	9773.46
649.355	9852.55
649.707	9814.13
650.059	9838.99
650.411	9987.69
650.763	10052.77
651.115	10043.51
651.467	10047.12
651.819	10014.58
652.171	10042.83
652.523	9973.68
652.875	9949.27
653.227	9916.5
653.578	10055.48
653.93	10027.46
654.282	9906.34
654.633	10031.08
654.985	9971.42
655.337	10000.8
655.688	10030.85
656.039	10048.93
656.391	9966.45
656.742	9987.92
657.094	9944.75
657.445	10057.29
657.796	9960.35
658.147	9992.44
658.498	9972.1
658.849	10044.19
659.2	9918.54
659.551	9936.17
659.902	10006.22
660.253	9980.01
660.604	9998.08
660.955	9890.06
661.306	10013.68
661.656	9941.81
662.007	9963.28
662.358	10005.09
662.708	10008.71
663.059	9929.16
663.409	9891.87
663.76	9953.79
664.11	10005.09
664.461	10003.28
664.811	9976.39
665.161	9945.88
665.511	9845.55
665.862	9910.86
666.212	9941.59
666.562	9992.21
666.912	9876.96
667.262	9992.66
667.612	9882.61
667.962	10008.71
668.312	9959.89
668.662	9978.42
669.011	9903.62
669.361	9964.19
669.711	9934.58
670.06	9896.17
670.41	9846
670.76	9892.32
671.109	9921.7
671.459	9919.89
671.808	9883.06
672.157	9864.75
672.507	9852.33
672.856	9813.46
673.205	9799.45
673.554	9865.88
673.904	9814.13
674.253	9923.51
674.602	9811.65
674.951	9771.88
675.3	9685.32
675.649	9834.93
675.998	9857.98
676.346	9769.62
676.695	9805.1
677.044	9747.24
677.393	9799.9
677.741	9778.88
678.09	9762.16
678.438	9721.93
678.787	9726.45
679.135	9690.75
679.484	9652.78
679.832	9735.27
680.181	9641.48
680.529	9663.86
680.877	9645.1
681.225	9632.22
681.573	9692.1
681.922	9593.12
682.27	9570.75
682.618	9622.95
682.966	9514.71
683.314	9591.32
683.661	9550.64
684.009	9497.31
684.357	9470.87
684.705	9490.75
685.053	9474.48
685.4	9401.72
685.748	9428.83
686.095	9367.59
686.443	9429.74
686.79	9343.86
687.138	9324.43
687.485	9370.76
687.832	9269.29
688.18	9317.42
688.527	9274.49
688.874	9186.81
689.221	9203.98
689.568	9128.73
689.915	9200.14
690.262	9142.74
690.609	9116.3
690.956	9085.11
691.303	9056.87
691.65	9016.87
691.997	8989.3
692.344	8934.61
692.69	8937.77
693.037	8900.03
693.383	8858.91
693.73	8914.72
694.077	8796.08
694.423	8745.01
694.769	8757.89
695.116	8700.94
695.462	8726.93
695.808	8722.64
696.155	8802.86
696.501	8672.02
696.847	8718.34
697.193	8616.43
697.539	8510.67
697.885	8627.73
698.231	8533.26
698.577	8477.22
698.923	8464.79
699.269	8454.85
699.614	8383.44
699.96	8375.98
700.306	8345.47
700.651	8348.41
700.997	8254.85
701.342	8333.27
701.688	8218.02
702.033	8216.66
702.379	8214.4
702.724	8132.82
703.069	8180.51
703.415	8087.85
703.76	8078.59
704.105	8073.16
704.45	8032.94
704.795	8032.49
705.14	7967.18
705.485	7965.6
705.83	7945.48
706.175	7970.34
706.52	7925.37
706.865	7944.35
707.209	7899.61
707.554	7834.07
707.899	7881.3
708.243	7793.85
708.588	7833.4
708.932	7731.25
709.277	7764.92
709.621	7771.25
709.966	7749.78
710.31	7668.2
710.654	7643.12
710.998	7646.73
711.342	7677.92
711.687	7596.34
712.031	7581.88
712.375	7517.92
712.719	7487.87
713.063	7533.29
713.407	7617.58
713.75	7482.22
714.094	7475.44
714.438	7440.86
714.782	7526.29
715.125	7460.98
715.469	7411.03
715.812	7412.62
716.156	7393.86
716.499	7371.04
716.843	7366.52
717.186	7342.34
717.53	7381.43
717.873	7377.81
718.216	7396.57
718.559	7314.09
718.902	7256.46
719.246	7308.89
719.589	7288.55
719.932	7291.49
720.275	7333.97
720.617	7251.49
720.96	7218.5
721.303	7192.73
721.646	7216.01
721.989	7202.9
722.331	7221.21
722.674	7222.34
723.016	7249.46
723.359	7182.34
723.701	7200.42
724.044	7152.06
724.386	7139.18
724.729	7129.23
725.071	7097.6
725.413	7077.26
725.755	7150.02
726.097	7117.48
726.439	7010.14
726.782	7030.25
727.124	7049.46
727.465	7039.07
727.807	7001.55
728.149	7009.91
728.491	7044.04
728.833	7039.97
729.175	7015.11
729.516	7016.92
729.858	6985.51
730.199	6959.75
730.541	6965.62
730.882	6978.28
731.224	6994.32
731.565	7018.73
731.906	6975.79
732.248	7028.22
732.589	6959.97
732.93	6929.46
733.271	6918.17
733.612	6900.09
733.953	7001.1
734.294	6954.77
734.635	6917.04
734.976	6889.69
735.317	6931.95
735.658	6947.32
735.999	6931.27
736.339	6910.48
736.68	7022.8
737.021	6980.54
737.361	6902.12
737.702	6992.51
738.042	6949.58
738.383	6898.73
738.723	6995.68
739.063	6970.37
739.404	6960.88
739.744	6954.32
740.084	6909.58
740.424	6936.92
740.764	6928.79
741.104	6893.99
741.444	6912.52
741.784	6910.93
742.124	6974.89
742.464	6953.19
742.804	6966.3
743.143	6983.25
743.483	7030.25
743.823	6929.24
744.162	7032.96
744.502	7023.02
744.841	7032.74
745.181	7026.19
745.52	7099.63
745.86	7125.84
746.199	7096.24
746.538	7124.26
746.877	7169.23
747.216	7184.15
747.556	7202.68
747.895	7240.42
748.234	7245.61
748.573	7273.18
748.911	7267.53
749.25	7319.28
749.589	7326.74
749.928	7450.58
750.267	7442.67
750.605	7529.45
750.944	7511.82
751.283	7546.4
751.621	7608.32
751.96	7636.34
752.298	7700.97
752.636	7782.32
752.975	7789.78
753.313	7855.54
753.651	7903.9
753.989	8020.28
754.327	8045.37
754.666	8041.07
755.004	8162.65
755.342	8226.83
755.679	8274.06
756.017	8383.89
756.355	8451.23
756.693	8478.8
757.031	8569.42
757.368	8676.31
757.706	8702.53
758.044	8816.19
758.381	8868.62
758.719	8967.15
759.056	9110.42
759.394	9123.98
759.731	9230.87
760.068	9319.46
760.405	9306.13
760.743	9476.29
761.08	9498.89
761.417	9557.19
761.754	9789.95
762.091	9835.83
762.428	9841.93
762.765	9960.57
763.102	10132.32
763.438	10171.19
763.775	10251.64
764.112	10271.75
764.449	10430.62
764.785	10465.19
765.122	10517.62
765.458	10570.05
765.795	10707.67
766.131	10765.97
766.467	10801
766.804	10862.47
767.14	10924.16
767.476	10991.5
767.812	11049.13
768.148	11114.67
768.485	11151.27
768.821	11225.62
769.157	11264.72
769.492	11261.78
769.828	11389.91
770.164	11320.99
770.5	11428.78
770.836	11549.68
771.171	11401.66
771.507	11584.48
771.842	11545.39
772.178	11596.23
772.513	11664.26
772.849	11668.55
773.184	11739.96
773.519	11795.55
773.855	11716.23
774.19	11726.85
774.525	11798.04
774.86	11866.96
775.195	11848.21
775.53	11868.32
775.865	11931.14
776.2	11844.82
776.535	11789.9
776.87	11885.94
777.205	11861.99
777.539	11870.13
777.874	11915.32
778.209	11881.42
778.543	11888.2
778.878	11885.94
779.212	11920.75
779.547	11938.82
779.881	11938.82
780.215	11867.87
780.55	11976.11
780.884	11911.25
781.218	11827.64
781.552	11963.91
781.886	11852.05
782.22	11725.95
782.554	11817.25
782.888	11843.91
783.222	11795.78
783.556	11765.27
783.889	11767.53
784.223	11719.4
784.557	11668.32
784.89	11730.02
785.224	11708.55
785.557	11625.84
785.891	11660.64
786.224	11647.98
786.558	11633.07
786.891	11590.59
787.224	11456.8
787.557	11550.36
787.891	11481.44
788.224	11487.54
788.557	11514.65
788.89	11528.21
789.223	11495.22
789.556	11470.36
789.888	11406.86
790.221	11416.13
790.554	11316.02
790.887	11332.51
791.219	11294.55
791.552	11286.86
791.884	11234.21
792.217	11230.82
792.549	11291.38
792.882	11168.45
793.214	11222.91
793.546	11249.8
793.879	11097.94
794.211	11079.41
794.543	11173.42
794.875	11124.61
795.207	11133.42
795.539	11054.1
795.871	11021.56
796.203	10967.1
796.535	10983.6
796.867	10893.2
797.198	10852.75
797.53	10880.55
797.862	10868.12
798.193	10840.1
798.525	10809.59
798.856	10775.47
799.188	10626.32
799.519	10636.03
799.85	10668.58
800.182	10630.38
800.513	10593.78
800.844	10545.64
801.175	10581.35
801.506	10600.55
801.837	10463.84
802.168	10495.47
802.499	10455.93
802.83	10447.11
803.161	10403.27
803.491	10344.97
803.822	10375.7
804.153	10322.37
804.483	10314.23
804.814	10167.8
805.145	10227.23
805.475	10224.29
805.805	10184.52
806.136	10224.29
806.466	10135.71
806.796	10188.59
807.126	10139.55
807.457	10127.12
807.787	10092.09
808.117	10054.35
808.447	10000.34
808.777	10035.82
809.107	9987.01
809.436	10040.34
809.766	10001.02
810.096	9915.15
810.426	9935.04
810.755	9863.4
811.085	9864.98
811.414	9884.42
811.744	9773.23
812.073	9714.48
812.403	9698.43
812.732	9695.95
813.061	9706.34
813.39	9636.51
813.719	9645.33
814.049	9679.22
814.378	9670.41
814.707	9612.78
815.036	9609.85
815.365	9559.23
815.693	9467.93
816.022	9479.68
816.351	9555.84
816.68	9495.95
817.008	9438.33
817.337	9353.81
817.665	9346.58
817.994	9469.74
818.322	9417.53
818.651	9316.29
818.979	9270.87
819.307	9373.69
819.636	9299.35
819.964	9309.97
820.292	9273.81
820.62	9324.43
820.948	9315.39
821.276	9339.8
821.604	9302.74
821.932	9232.68
822.259	9300.7
822.587	9225.9
822.915	9192.23
823.243	9308.61
823.57	9165.11
823.898	9278.78
824.225	9227.94
824.553	9243.98
824.88	9303.41
825.207	9253.7
825.535	9264.32
825.862	9274.71
826.189	9234.94
826.516	9304.09
826.843	9268.61
827.17	9286.69
827.497	9303.64
827.824	9262.28
828.151	9366.01
828.478	9313.58
828.805	9292.34
829.131	9243.53
829.458	9230.65
829.785	9182.96
830.111	9266.35
830.438	9333.7
830.764	9226.58
831.09	9250.08
831.417	9130.76
831.743	9241.95
832.069	9276.3
832.395	9234.94
832.722	9237.65
833.048	9205.79
833.374	9199.01
833.7	9180.25
834.026	9211.21
834.351	9176.41
834.677	9239.46
835.003	9185.68
835.329	9214.83
835.654	9159.91
835.98	9109.52
836.306	9168.05
836.631	9169.63
836.956	9146.81
837.282	9146.13
837.607	9046.47
837.932	9119.92
838.258	9058.22
838.583	9059.58
838.908	8998.56
839.233	9102.97
839.558	9047.15
839.883	9011.9
840.208	8908.17
840.533	8927.38
840.858	8930.77
841.182	8949.3
841.507	8900.03
841.832	8931.67
842.156	8896.19
842.481	8876.98
842.805	8898.68
843.13	8887.61
843.454	8832.92
843.778	8824.78
844.103	8780.04
844.427	8770.55
844.751	8743.43
845.075	8731.68
845.399	8697.78
845.723	8606.26
846.047	8672.92
846.371	8599.48
846.695	8572.13
847.019	8522.42
847.343	8506.82
847.666	8423.21
847.99	8463.21
848.313	8387.96
848.637	8320.39
848.96	8369.43
849.284	8335.76
849.607	8320.61
849.931	8234.29
850.254	8259.15
850.577	8187.96
850.9	8113.39
851.223	8141.64
851.546	8115.87
851.869	8003.79
852.192	8078.81
852.515	7977.57
852.838	7929.44
853.161	7954.07
853.483	7927.18
853.806	7889.67
854.129	7969.89
854.451	7830.68
854.774	7806.96
855.096	7772.38
855.419	7768.31
855.741	7800.18
856.063	7715.66
856.385	7674.98
856.708	7703
857.03	7620.52
857.352	7600.86
857.674	7589.11
857.996	7587.75
858.318	7509.34
858.64	7607.64
858.961	7557.47
859.283	7466.85
859.605	7517.92
859.926	7547.98
860.248	7461.43
860.57	7331.04
860.891	7410.81
861.212	7384.14
861.534	7334.2
861.855	7343.92
862.176	7372.84
862.498	7312.73
862.819	7318.16
863.14	7272.73
863.461	7313.41
863.782	7307.31
864.103	7280.87
864.424	7229.57
864.745	7258.04
865.065	7258.72
865.386	7162.45
865.707	7241.77
866.027	7227.31
866.348	7196.58
866.668	7132.17
866.989	7160.42
867.309	7077.71
867.63	7152.96
867.95	7069.35
868.27	7046.98
868.59	7100.31
868.91	7022.12
869.23	7077.26
869.55	7049.46
869.87	7082.23
870.19	7086.97
870.51	7087.88
870.83	7021.21
871.15	7027.09
871.469	7031.83
871.789	7054.21
872.109	7019.86
872.428	6968.11
872.748	6989.58
873.067	6934.66
873.386	7000.2
873.706	6955.9
874.025	6906.87
874.344	6931.27
874.663	6885.62
874.982	6831.61
875.301	6951.61
875.62	6864.16
875.939	6845.63
876.258	6877.04
876.577	6807.21
876.896	6817.83
877.214	6733.99
877.533	6781.67
877.852	6788.45
878.17	6777.83
878.489	6769.92
878.807	6758.17
879.125	6775.8
879.444	6723.82
879.762	6714.33
880.08	6721.79
880.398	6659.19
880.716	6760.2
881.034	6704.16
881.352	6660.77
881.67	6632.3
881.988	6664.39
882.306	6633.88
882.624	6628.68
882.941	6568.8
883.259	6586.87
883.577	6560.21
883.894	6526.09
884.212	6541
884.529	6551.4
884.846	6513.66
885.164	6500.1
885.481	6469.82
885.798	6444.51
886.115	6459.65
886.432	6431.4
886.75	6429.59
887.067	6434.79
887.383	6366.77
887.7	6378.29
888.017	6378.52
888.334	6419.87
888.651	6327.45
888.967	6323.38
889.284	6340.33
889.6	6289.93
889.917	6210.61
890.233	6271.4
890.55	6199.77
890.866	6207
891.182	6171.29
891.498	6182.14
891.815	6118.41
892.131	6126.55
892.447	6082.71
892.763	6073.89
893.079	6073.22
893.395	6124.97
893.71	6032.77
894.026	6000.68
894.342	6014.23
894.657	6023.95
894.973	5902.83
895.289	5968.36
895.604	5990.96
895.92	5908.02
896.235	5896.72
896.55	5920.68
896.865	5881.13
897.181	5831.87
897.496	5856.72
897.811	5857.85
898.126	5788.48
898.441	5777.4
898.756	5774.69
899.071	5722.26
899.386	5742.15
899.7	5708.03
900.015	5696.05
900.33	5584.19
900.644	5644.07
900.959	5629.39
901.273	5609.27
901.588	5564.3
901.902	5534.93
902.216	5490.18
902.531	5521.14
902.845	5523.17
903.159	5489.73
903.473	5460.8
903.787	5477.53
904.101	5410.63
904.415	5431.88
904.729	5392.1
905.042	5398.21
905.356	5365.44
905.67	5345.78
905.984	5311.65
906.297	5305.55
906.611	5289.96
906.924	5290.19
907.237	5257.42
907.551	5219.91
907.864	5190.08
908.177	5223.52
908.491	5151.66
908.804	5128.83
909.117	5137.2
909.43	5117.31
909.743	5066.91
910.056	5048.84
910.368	5046.35
910.681	5024.43
910.994	5033.47
911.307	4972.91
911.619	4946.69
911.932	4967.71
912.244	4934.94
912.557	4969.52
912.869	4933.81
913.181	4910.76
913.494	4831.67
913.806	4826.7
914.118	4805
914.43	4779.46
914.742	4828.05
915.054	4777.2
915.366	4747.83
915.678	4721.39
915.99	4699.47
916.302	4681.39
916.613	4666.02
916.925	4687.04
917.236	4656.53
917.548	4656.98
917.859	4593.25
918.171	4607.49
918.482	4547.61
918.794	4564.1
919.105	4530.43
919.416	4515.29
919.727	4474.84
920.038	4437.1
920.349	4435.97
920.66	4418.34
920.971	4421.06
921.282	4366.14
921.593	4367.27
921.903	4360.27
922.214	4339.7
922.525	4313.94
922.835	4323.88
923.146	4320.72
923.456	4248.63
923.767	4242.3
924.077	4260.16
924.387	4240.27
924.697	4204.34
925.008	4188.97
925.318	4234.39
925.628	4166.83
925.938	4170.44
926.248	4102.65
926.558	4119.82
926.867	4118.92
927.177	4085.47
927.487	4069.43
927.796	4067.85
928.106	4035.3
928.416	3981.29
928.725	4009.09
929.034	3992.82
929.344	3992.59
929.653	3986.04
929.962	3921.63
930.271	3913.72
930.581	3857.68
930.89	3918.47
931.199	3901.52
931.508	3876.44
931.817	3788.98
932.125	3842.99
932.434	3831.69
932.743	3814.52
933.051	3800.28
933.36	3736.33
933.669	3698.82
933.977	3749.44
934.286	3743.33
934.594	3700.17
934.902	3715.09
935.21	3668.99
935.519	3696.56
935.827	3654.52
936.135	3640.51
936.443	3592.6
936.751	3556.67
937.059	3612.72
937.367	3583.11
937.674	3621.08
937.982	3566.84
938.29	3530.91
938.597	3541.31
938.905	3502.44
939.213	3504.47
939.52	3464.02
939.827	3481.65
940.135	3489.56
940.442	3464.25
940.749	3459.05
941.056	3392.16
941.363	3401.42
941.67	3420.4
941.977	3363.68
942.284	3338.15
942.591	3335.89
942.898	3358.49
943.205	3343.57
943.511	3300.41
943.818	3288.66
944.125	3259.5
944.431	3246.62
944.738	3237.13
945.044	3228.09
945.35	3238.94
945.657	3196
945.963	3203.69
946.269	3175.44
946.575	3147.87
946.881	3128.89
947.187	3149.45
947.493	3128.43
947.799	3141.77
948.105	3121.66
948.41	3097.93
948.716	3078.27
949.022	3055.22
949.327	3080.07
949.633	3040.08
949.938	3043.47
950.244	3036.46
950.549	2966.41
950.854	2980.19
951.16	2998.27
951.465	2966.63
951.77	2959.17
952.075	2939.97
952.38	2897.03
952.685	2916.01
952.99	2897.71
953.294	2894.54
953.599	2894.09
953.904	2861.55
954.209	2822.45
954.513	2842.57
954.818	2834.43
955.122	2861.1
955.426	2801.44
955.731	2794.88
956.035	2800.99
956.339	2801.89
956.643	2770.03
956.948	2758.05
957.252	2732.06
957.556	2769.12
957.86	2723.7
958.163	2726.41
958.467	2716.02
958.771	2691.38
959.075	2696.36
959.378	2665.85
959.682	2659.07
959.985	2657.26
960.289	2630.59
960.592	2642.57
960.896	2638.28
961.199	2625.4
961.502	2591.05
961.805	2589.47
962.108	2562.57
962.411	2570.03
962.714	2563.48
963.017	2521.45
963.32	2527.32
963.623	2512.86
963.926	2524.38
964.228	2499.3
964.531	2488.45
964.833	2496.36
965.136	2471.95
965.438	2444.38
965.741	2432.63
966.043	2444.16
966.345	2431.73
966.648	2397.38
966.95	2422.46
967.252	2406.87
967.554	2393.09
967.856	2368.45
968.158	2346.99
968.46	2354.22
968.761	2343.82
969.063	2344.95
969.365	2330.49
969.666	2307.67
969.968	2311.51
970.269	2309.47
970.571	2313.77
970.872	2295.91
971.174	2250.27
971.475	2262.02
971.776	2261.34
972.077	2267.21
972.378	2230.38
972.679	2273.09
972.98	2271.06
973.281	2191.06
973.582	2195.13
973.883	2202.36
974.183	2200.32
974.484	2205.75
974.785	2172.3
975.085	2173.43
975.386	2132.98
975.686	2133.88
975.986	2128.46
976.287	2109.25
976.587	2108.8
976.887	2110.38
977.187	2102.25
977.487	2084.62
977.787	2044.17
978.087	2070.16
978.387	2093.21
978.687	2089.59
978.987	2044.17
979.286	2010.72
979.586	2009.14
979.885	2020.22
980.185	1982.48
980.484	2014.34
980.784	1999.2
981.083	1996.49
981.382	1983.38
981.682	1981.57
981.981	2005.3
982.28	1960.56
982.579	1947.22
982.878	1935.92
983.177	1918.75
983.475	1918.52
983.774	1915.59
984.073	1915.13
984.372	1906.55
984.67	1923.04
984.969	1846.21
985.267	1896.6
985.566	1881.24
985.864	1862.25
986.162	1860.22
986.461	1832.65
986.759	1841.91
987.057	1824.29
987.355	1817.96
987.653	1823.61
987.951	1802.59
988.249	1796.04
988.547	1811.18
988.844	1728.47
989.142	1785.65
989.44	1777.74
989.737	1781.8
990.035	1750.17
990.332	1744.06
990.63	1734.12
990.927	1742.48
991.224	1721.69
991.521	1734.8
991.819	1673.11
992.116	1688.7
992.413	1669.26
992.71	1690.05
993.006	1652.54
993.303	1668.13
993.6	1641.69
993.897	1666.1
994.193	1646.21
994.49	1617.06
994.787	1638.08
995.083	1624.07
995.379	1650.06
995.676	1618.42
995.972	1617.06
996.268	1621.58
996.565	1582.49
996.861	1556.72
997.157	1587.91
997.453	1590.85
997.749	1589.27
998.044	1568.02
998.34	1554.92
998.636	1546.1
998.932	1540.23
999.227	1510.17
999.523	1505.43
999.818	1512.88
1000.114	1492.77
1000.409	1484.64
1000.704	1482.6
1001	1466.33
1001.295	1486.9
1001.59	1456.16
1001.885	1470.63
1002.18	1477.63
1002.475	1426.56
1002.77	1435.82
1003.065	1428.37
1003.359	1446.9
1003.654	1425.2
1003.949	1399.44
1004.243	1435.82
1004.538	1396.05
1004.832	1356.5
1005.127	1372.32
1005.421	1379.1
1005.715	1398.31
1006.009	1378.42
1006.304	1351.53
1006.598	1350.18
1006.892	1342.72
1007.186	1337.3
1007.48	1327.13
1007.773	1312.89
1008.067	1333.45
1008.361	1284.19
1008.655	1265.66
1008.948	1323.51
1009.242	1311.53
1009.535	1283.51
1009.829	1269.95
1010.122	1273.34
1010.415	1254.13
1010.708	1248.48
1011.001	1247.58
1011.295	1221.14
1011.588	1228.6
1011.881	1238.54
1012.173	1218.65
1012.466	1216.39
1012.759	1209.84
1013.052	1196.96
1013.344	1188.6
1013.637	1179.79
1013.93	1176.4
1014.222	1180.92
1014.514	1197.41
1014.807	1168.26
1015.099	1181.14
1015.391	1143.85
1015.683	1165.32
1015.976	1138.66
1016.268	1145.44
1016.56	1109.73
1016.851	1086
1017.143	1098.43
1017.435	1106.79
1017.727	1103.63
1018.018	1110.86
1018.31	1106.34
1018.602	1061.37
1018.893	1085.1
1019.185	1082.61
1019.476	1062.5
1019.767	1050.98
1020.058	1073.12
1020.35	1054.14
1020.641	1020.02
1020.932	1020.47
1021.223	993.35
1021.514	1037.42
1021.804	1014.37
1022.095	1001.71
1022.386	988.38
1022.677	984.08
1022.967	1005.1
1023.258	974.14
1023.548	987.93
1023.839	975.5
1024.129	967.59
1024.419	974.59
1024.709	954.93
1025	930.3
1025.29	933.24
1025.58	949.73
1025.87	963.75
1026.16	908.61
1026.449	903.86
1026.739	923.97
1027.029	935.27
1027.319	904.54
1027.608	906.8
1027.898	895.5
1028.187	893.69
1028.477	894.14
1028.766	892.79
1029.055	878.55
1029.344	869.74
1029.634	882.39
1029.923	862.05
1030.212	894.14
1030.501	833.13
1030.79	839.46
1031.078	843.52
1031.367	847.59
1031.656	864.77
1031.945	838.1
1032.233	821.6
1032.522	813.24
1032.81	807.37
1033.099	816.63
1033.387	781.83
1033.675	800.13
1033.963	777.31
1034.251	797.65
1034.54	775.95
1034.828	782.73
1035.116	782.73
1035.403	773.92
1035.691	793.58
1035.979	758.78
1036.267	761.27
1036.554	775.5
1036.842	754.71
1037.129	775.5
1037.417	730.76
1037.704	749.29
1037.992	742.51
1038.279	713.58
1038.566	716.97
1038.853	716.97
1039.14	716.97
