Data from hue_290_FLMS001491_00089.txt Node
Date: Tue Feb 07 15:53:24 GMT 2017
User: dcchb
Spectrometer: FLMS00149
Trigger mode: 0
Integration Time (sec): 2.000000E-2
Scans to average: 10
Electric dark correction enabled: true
Nonlinearity correction enabled: false
Boxcar width: 0
XAxis mode: Wavelengths
Number of Pixels in Spectrum: 2048
>>>>>Begin Spectral Data<<<<<
341.393	-16.57
341.776	-16.57
342.16	-16.57
342.543	-49.33
342.927	-66.28
343.31	-59.5
343.693	-70.35
344.077	-75.77
344.46	-81.2
344.843	-54.53
345.226	-30.8
345.61	-35.55
345.993	-32.16
346.376	5.8
346.759	10.78
347.142	51.23
347.525	40.61
347.908	46.48
348.291	61.17
348.674	103.88
349.057	119.93
349.44	111.56
349.823	133.03
350.206	177.33
350.588	199.02
350.971	199.47
351.354	203.54
351.737	225.69
352.119	247.38
352.502	280.6
352.884	267.49
353.267	266.14
353.65	286.7
354.032	275.63
354.414	297.55
354.797	300.94
355.179	301.16
355.562	320.6
355.944	330.32
356.326	306.36
356.709	311.33
357.091	324.44
357.473	329.64
357.855	347.72
358.238	330.99
358.62	350.65
359.002	342.75
359.384	323.08
359.766	330.77
360.148	328.96
360.53	314.05
360.912	326.02
361.294	315.63
361.676	323.76
362.057	312.92
362.439	319.92
362.821	318.34
363.203	325.57
363.584	317.89
363.966	293.26
364.348	319.47
364.729	328.73
365.111	288.06
365.493	291
365.874	321.95
366.256	314.27
366.637	293.48
367.019	303.42
367.4	304.1
367.781	305.23
368.163	299.13
368.544	296.64
368.925	300.49
369.306	299.81
369.688	309.3
370.069	301.62
370.45	303.65
370.831	292.58
371.212	301.39
371.593	299.13
371.974	305.23
372.355	312.92
372.736	310.2
373.117	321.73
373.498	297.55
373.879	290.09
374.26	292.35
374.641	302.75
375.021	319.24
375.402	309.07
375.783	321.95
376.163	319.92
376.544	317.89
376.925	286.25
377.305	328.73
377.686	346.81
378.066	305.46
378.447	321.5
378.827	311.56
379.208	328.51
379.588	337.77
379.968	339.81
380.349	325.8
380.729	322.86
381.109	321.05
381.489	342.75
381.87	345.23
382.25	328.73
382.63	348.39
383.01	330.54
383.39	347.72
383.77	339.81
384.15	334.16
384.53	318.34
384.91	340.03
385.29	352.46
385.67	343.65
386.049	338
386.429	361.73
386.809	361.05
387.189	336.19
387.568	361.5
387.948	343.88
388.328	352.24
388.707	338
389.087	380.48
389.466	336.42
389.846	368.51
390.225	349.07
390.605	356.53
390.984	355.85
391.363	371.22
391.743	375.06
392.122	363.76
392.501	370.99
392.881	369.64
393.26	370.32
393.639	403.76
394.018	384.1
394.397	394.72
394.776	373.48
395.155	389.3
395.534	383.65
395.913	396.08
396.292	380.94
396.671	403.76
397.05	396.3
397.429	384.55
397.808	394.5
398.186	387.04
398.565	382.52
398.944	388.85
399.323	413.48
399.701	365.57
400.08	381.84
400.458	411.9
400.837	422.29
401.215	439.24
401.594	421.84
401.972	421.39
402.351	423.87
402.729	404.44
403.107	418
403.486	410.09
403.864	410.09
404.242	457.77
404.62	439.47
404.999	418.22
405.377	444.89
405.755	444.21
406.133	453.02
406.511	470.65
406.889	458.9
407.267	475.17
407.645	488.28
408.023	473.36
408.401	471.56
408.779	514.94
409.156	501.39
409.534	498.45
409.912	516.07
410.29	522.4
410.667	519.69
411.045	549.29
411.422	555.62
411.8	539.35
412.178	559.69
412.555	554.49
412.933	546.81
413.31	553.59
413.687	581.38
414.065	574.15
414.442	587.48
414.819	580.71
415.197	593.13
415.574	606.47
415.951	622.29
416.328	615.96
416.705	629.52
417.082	625
417.46	631.78
417.837	650.53
418.214	684.88
418.591	668.16
418.967	671.1
419.344	692.11
419.721	706.58
420.098	699.35
420.475	687.37
420.852	731.89
421.228	734.15
421.605	715.16
421.982	754.49
422.358	743.19
422.735	762.4
423.111	759.91
423.488	794.03
423.864	771.89
424.241	795.39
424.617	797.87
424.994	798.55
425.37	808.04
425.746	810.3
426.123	835.39
426.499	824.99
426.875	851.66
427.251	890.98
427.627	898.89
428.003	894.37
428.379	904.99
428.756	910.87
429.132	914.26
429.507	940.02
429.883	974.59
430.259	946.8
430.635	945.44
431.011	969.62
431.387	995.61
431.763	989.06
432.138	1007.81
432.514	1005.33
432.89	1057.75
433.265	1068.83
433.641	1079.68
434.016	1056.85
434.392	1093.91
434.767	1071.77
435.143	1086.68
435.518	1113.57
435.894	1122.39
436.269	1149.5
436.644	1168.26
437.02	1177.98
437.395	1185.43
437.77	1175.72
438.145	1221.59
438.52	1225.66
438.895	1234.25
439.271	1242.38
439.646	1270.4
440.021	1293.23
440.395	1279.22
440.77	1294.13
441.145	1288.03
441.52	1303.85
441.895	1288.26
442.27	1325.54
442.645	1329.39
443.019	1337.97
443.394	1354.02
443.769	1365.54
444.143	1352.66
444.518	1368.48
444.892	1358.09
445.267	1376.62
445.641	1396.28
446.016	1393.11
446.39	1420.68
446.764	1401.47
447.139	1409.84
447.513	1424.98
447.887	1435.37
448.262	1419.78
448.636	1441.93
449.01	1429.72
449.384	1464.98
449.758	1449.16
450.132	1474.24
450.506	1473.79
450.88	1480.34
451.254	1525.76
451.628	1503.17
452.002	1518.53
452.376	1518.31
452.75	1524.86
453.123	1563.5
453.497	1525.76
453.871	1565.76
454.244	1577.52
454.618	1583.39
454.992	1617.29
455.365	1614.35
455.739	1662.48
456.112	1644.63
456.486	1679.89
456.859	1681.92
457.232	1711.3
457.606	1710.17
457.979	1688.02
458.352	1720.34
458.725	1724.4
459.099	1741.35
459.472	1814.12
459.845	1781.13
460.218	1784.97
460.591	1803.95
460.964	1783.39
461.337	1870.39
461.71	1855.93
462.083	1874
462.456	1902.7
462.829	1863.16
463.201	1937.51
463.574	1906.09
463.947	1921.23
464.32	1971.63
464.692	1996.71
465.065	2005.3
465.438	2038.97
465.81	2016.6
466.183	2060.67
466.555	2091.17
466.928	2091.85
467.3	2071.29
467.672	2093.21
468.045	2162.81
468.417	2151.06
468.789	2176.82
469.161	2168.46
469.534	2189.25
469.906	2224.5
470.278	2261.34
470.65	2238.29
471.022	2312.18
471.394	2330.49
471.766	2350.38
472.138	2361.68
472.51	2368.91
472.882	2411.39
473.253	2462.69
473.625	2451.39
473.997	2517.83
474.369	2519.41
474.74	2538.39
475.112	2539.3
475.484	2593.53
475.855	2659.52
476.227	2639.41
476.598	2733.64
476.97	2707.65
477.341	2763.92
477.713	2807.31
478.084	2780.2
478.455	2822.68
478.827	2829.01
479.198	2949.91
479.569	2944.48
479.94	2986.07
480.311	3014.77
480.682	3085.05
481.053	3132.5
481.424	3151.26
481.795	3149.45
482.166	3230.35
482.537	3238.94
482.908	3290.92
483.279	3327.07
483.65	3354.87
484.021	3414.53
484.391	3418.82
484.762	3442.55
485.133	3464.92
485.503	3499.27
485.874	3565.94
486.244	3587.86
486.615	3687.52
486.985	3657.23
487.356	3690.91
487.726	3711.7
488.097	3779.94
488.467	3780.39
488.837	3857.46
489.207	3853.39
489.578	3905.82
489.948	3961.18
490.318	3975.19
490.688	3997.56
491.058	4069.88
491.428	4089.77
491.798	4101.74
492.168	4166.37
492.538	4171.12
492.908	4216.32
493.278	4271.68
493.648	4255.64
494.017	4340.15
494.387	4355.07
494.757	4334.96
495.126	4385.8
495.496	4434.16
495.866	4426.25
496.235	4471.45
496.605	4504.67
496.974	4501.28
497.344	4558.68
497.713	4575.4
498.082	4565.91
498.452	4625.57
498.821	4588.28
499.19	4625.57
499.559	4668.96
499.928	4683.42
500.298	4720.03
500.667	4779.46
501.036	4751.22
501.405	4801.61
501.774	4774.49
502.143	4793.02
502.512	4816.75
502.88	4858.33
503.249	4859.01
503.618	4854.04
503.987	4935.39
504.356	4913.02
504.724	4926.35
505.093	4929.52
505.462	4958.9
505.83	5006.58
506.199	5022.62
506.567	5056.52
506.936	5024.66
507.304	5112.56
507.672	5104.88
508.041	5125.44
508.409	5148.27
508.777	5206.8
509.145	5206.57
509.514	5155.73
509.882	5176.74
510.25	5225.78
510.618	5209.96
510.986	5234.37
511.354	5263.07
511.722	5263.29
512.09	5339.68
512.458	5313.01
512.826	5351.2
513.193	5367.47
513.561	5349.62
513.929	5394.82
514.297	5425.78
514.664	5484.53
515.032	5400.01
515.4	5512.55
515.767	5476.85
516.135	5520.69
516.502	5422.16
516.869	5552.55
517.237	5539.9
517.604	5551.2
517.972	5564.75
518.339	5601.36
518.706	5591.65
519.073	5611.31
519.44	5631.65
519.808	5673.45
520.175	5677.97
520.542	5742.38
520.909	5732.89
521.276	5700.34
521.643	5757.52
522.009	5826.89
522.376	5776.5
522.743	5803.39
523.11	5899.21
523.477	5931.52
523.843	5890.4
524.21	5985.76
524.577	5975.37
524.943	5990.96
525.31	6068.24
525.676	6019.88
526.043	6104.18
526.409	6164.29
526.776	6180.78
527.142	6133.55
527.508	6161.12
527.874	6190.5
528.241	6245.41
528.607	6236.6
528.973	6326.32
529.339	6318.63
529.705	6351.17
530.071	6387.56
530.437	6418.97
530.803	6401.34
531.169	6486.54
531.535	6448.57
531.901	6475.47
532.267	6472.75
532.632	6516.37
532.998	6508.91
533.364	6599.76
533.73	6624.16
534.095	6655.35
534.461	6621.45
534.826	6675.46
535.192	6694.44
535.557	6727.89
535.923	6733.99
536.288	6696.02
536.653	6771.73
537.019	6757.49
537.384	6849.01
537.749	6790.94
538.114	6833.87
538.479	6830.48
538.845	6927.2
539.21	6831.84
539.575	6883.59
539.94	6911.84
540.305	6926.98
540.67	6949.8
541.034	6889.69
541.399	7041.1
541.764	7059.4
542.129	6983.25
542.494	7075
542.858	7092.85
543.223	7033.19
543.587	7160.65
543.952	7077.94
544.316	7116.35
544.681	7136.46
545.045	7169.91
545.41	7199.06
545.774	7277.25
546.138	7222.34
546.503	7338.95
546.867	7260.98
547.231	7339.62
547.595	7323.35
547.959	7300.98
548.324	7372.62
548.688	7362.67
549.052	7379.62
549.416	7359.51
549.779	7441.32
550.143	7424.82
550.507	7501.2
550.871	7449.23
551.235	7468.89
551.599	7518.6
551.962	7500.75
552.326	7494.87
552.689	7624.81
553.053	7543.91
553.417	7514.76
553.78	7641.08
554.143	7649.9
554.507	7641.54
554.87	7639.5
555.234	7698.03
555.597	7678.6
555.96	7656.9
556.323	7760.63
556.686	7754.3
557.05	7815.32
557.413	7850.12
557.776	7805.37
558.139	7821.19
558.502	7832.72
558.865	7825.49
559.228	7878.82
559.59	7895.09
559.953	7962.21
560.316	7998.14
560.679	7997.46
561.041	8006.72
561.404	8072.94
561.767	8118.13
562.129	8075.42
562.492	8113.39
562.854	8123.33
563.217	8090.79
563.579	8161.97
563.941	8145.93
564.304	8276.55
564.666	8275.19
565.028	8288.75
565.39	8240.62
565.753	8349.54
566.115	8337.34
566.477	8386.83
566.839	8368.75
567.201	8440.16
567.563	8424.11
567.925	8488.07
568.287	8491.01
568.648	8495.3
569.01	8586.6
569.372	8585.69
569.734	8559.25
570.095	8667.27
570.457	8723.09
570.819	8766.93
571.18	8700.72
571.542	8718.57
571.903	8832.69
572.265	8837.66
572.626	8868.62
572.987	8906.81
573.349	8909.3
573.71	8996.98
574.071	9035.85
574.432	9107.71
574.794	9202.63
575.155	9093.7
575.516	9163.76
575.877	9226.35
576.238	9230.2
576.599	9312
576.96	9329.4
577.32	9449.4
577.681	9488.72
578.042	9560.13
578.403	9582.5
578.763	9617.08
579.124	9709.5
579.485	9768.71
579.845	9858.88
580.206	9826.56
580.566	9961.7
580.927	9994.69
581.287	10111.53
581.648	10146.56
582.008	10214.12
582.368	10302.94
582.728	10338.19
583.089	10467.9
583.449	10564.17
583.809	10682.81
584.169	10721.46
584.529	10862.92
584.889	10963.26
585.249	11008
585.609	11055.46
585.969	11233.31
586.329	11336.35
586.688	11524.15
587.048	11590.81
587.408	11719.85
587.768	11874.42
588.127	11959.84
588.487	12110.8
588.846	12225.82
589.206	12287.29
589.565	12419.94
589.925	12505.14
590.284	12746.03
590.643	12754.4
591.003	13032.13
591.362	13144.89
591.721	13155.06
592.08	13411.55
592.44	13435.51
592.799	13614.71
593.158	13763.64
593.517	13987.36
593.876	14118.65
594.235	14112.33
594.593	14349.83
594.952	14421.25
595.311	14580.11
595.67	14757.51
596.029	14848.13
596.387	15048.57
596.746	15103.04
597.104	15201.56
597.463	15325.63
597.822	15556.58
598.18	15542.57
598.538	15688.1
598.897	15915.44
599.255	15884.03
599.613	16265.49
599.972	16201.31
600.33	16392.27
600.688	16404.02
601.046	16558.59
601.404	16775.08
601.762	16825.7
602.12	17020.27
602.478	17062.53
602.836	17145.02
603.194	17089.2
603.552	17241.06
603.91	17286.48
604.268	17476.31
604.625	17483.09
604.983	17712.01
605.341	17749.07
605.698	17880.36
606.056	17960.81
606.413	17965.56
606.771	18189.73
607.128	18224.31
607.485	18347.24
607.843	18317.87
608.2	18500.46
608.557	18693
608.914	18669.95
609.272	18859.55
609.629	18925.99
609.986	19056.83
610.343	18961.24
610.7	19139.09
611.057	19267.9
611.414	19190.84
611.771	19273.09
612.127	19440.1
612.484	19438.74
612.841	19515.57
613.198	19498.4
613.554	19652.75
613.911	19698.62
614.267	19673.99
614.624	19778.17
614.98	19837.15
615.337	19937.71
615.693	19921.44
616.05	20134.54
616.406	20191.04
616.762	20049.12
617.118	20209.79
617.475	20206.63
617.831	20401.65
618.187	20408.88
618.543	20457.02
618.899	20572.95
619.255	20605.49
619.611	20509.9
619.967	20656.56
620.323	20673.51
620.678	20680.29
621.034	20764.13
621.39	20804.58
621.746	20707.18
622.101	20961.86
622.457	20844.35
622.812	20909.89
623.168	20989.43
623.523	20920.96
623.879	21015.42
624.234	20879.15
624.589	21019.72
624.945	21139.03
625.3	21018.81
625.655	21031.24
626.01	21099.26
626.365	21167.73
626.72	21161.86
627.075	21145.59
627.43	21177.68
627.785	21105.36
628.14	21159.82
628.495	21269.88
628.85	21252.25
629.205	21151.46
629.559	21269.65
629.914	21178.81
630.269	21165.93
630.623	21243.44
630.978	21160.95
631.332	21194.63
631.687	21340.16
632.041	21201.18
632.396	21301.29
632.75	21155.31
633.104	21127.51
633.459	21169.32
633.813	21129.77
634.167	21131.8
634.521	21151.01
634.875	21183.78
635.229	21152.37
635.583	21032.6
635.937	21111.92
636.291	21026.27
636.645	21099.04
636.999	21028.3
637.352	21133.61
637.706	20932.49
638.06	21119.83
638.413	20972.03
638.767	20931.58
639.121	20949.66
639.474	20814.3
639.828	20930.9
640.181	20916.44
640.534	20935.88
640.888	20936.78
641.241	20788.08
641.594	20855.65
641.947	20878.25
642.301	20826.73
642.654	20941.53
643.007	20916.67
643.36	20980.17
643.713	20793.05
644.066	20915.09
644.419	20850.91
644.771	20640.74
645.124	20518.49
645.477	20485.49
645.83	20336.34
646.182	20430.8
646.535	20286.4
646.888	20328.66
647.24	20130.93
647.593	20357.13
647.945	20223.8
648.298	20206.86
648.65	20146.29
649.002	20233.52
649.355	20197.14
649.707	20271.71
650.059	20287.98
650.411	20471.26
650.763	20516
651.115	20749.89
651.467	20683.45
651.819	20707.86
652.171	20722.1
652.523	20713.96
652.875	20630.57
653.227	20551.93
653.578	20791.47
653.93	20626.28
654.282	20615.21
654.633	20622.66
654.985	20692.49
655.337	20643.23
655.688	20656.56
656.039	20776.33
656.391	20457.02
656.742	20626.96
657.094	20691.14
657.445	20644.58
657.796	20727.75
658.147	20778.37
658.498	20714.19
658.849	20728.88
659.2	20624.7
659.551	20582.21
659.902	20708.76
660.253	20656.79
660.604	20644.81
660.955	20662.66
661.306	20802.32
661.656	20595.77
662.007	20686.39
662.358	20734.07
662.708	20668.99
663.059	20704.92
663.409	20567.52
663.76	20706.96
664.11	20678.71
664.461	20780.63
664.811	20828.08
665.161	20840.51
665.511	20615.43
665.862	20766.84
666.212	20835.54
666.562	20829.89
666.912	20721.64
667.262	20688.2
667.612	20711.48
667.962	20675.54
668.312	20793.28
668.662	20884.35
669.011	20782.21
669.361	20715.09
669.711	20697.01
670.06	20830.57
670.41	20779.95
670.76	20633.96
671.109	20729.55
671.459	20773.62
671.808	20627.18
672.157	20654.53
672.507	20548.54
672.856	20519.16
673.205	20622.89
673.554	20616.11
673.904	20588.31
674.253	20707.86
674.602	20511.03
674.951	20192.84
675.3	20129.12
675.649	20575.66
675.998	20434.42
676.346	20429.9
676.695	20486.17
677.044	20359.17
677.393	20497.7
677.741	20477.58
678.09	20429.9
678.438	20317.81
678.787	20358.04
679.135	20371.82
679.484	20268.32
679.832	20261.54
680.181	20240.75
680.529	20303.58
680.877	20201.43
681.225	20262.67
681.573	20241.66
681.922	20148.55
682.27	20095.45
682.618	20083.47
682.966	20005.51
683.314	20038.72
683.661	19936.81
684.009	19852.29
684.357	19865.62
684.705	19810.71
685.053	19833.53
685.4	19758.96
685.748	19708.11
686.095	19727.77
686.443	19541.34
686.79	19477.61
687.138	19618.17
687.485	19571.62
687.832	19415.46
688.18	19553.31
688.527	19367.56
688.874	19361.45
689.221	19314.68
689.568	19362.58
689.915	19236.03
690.262	19240.55
690.609	19150.84
690.956	19097.05
691.303	18932.09
691.65	18999.2
691.997	19015.93
692.344	18817.51
692.69	18750.4
693.037	18746.56
693.383	18564.86
693.73	18614.13
694.077	18445.32
694.423	18492.55
694.769	18404.19
695.116	18351.54
695.462	18415.94
695.808	18275.38
696.155	18302.95
696.501	18140.24
696.847	18140.02
697.193	17956.97
697.539	17992
697.885	17909.51
698.231	17801.27
698.577	17920.14
698.923	17838.78
699.269	17751.1
699.614	17664.32
699.96	17639.92
700.306	17616.42
700.651	17459.36
700.997	17449.87
701.342	17343.88
701.688	17298.68
702.033	17321.96
702.379	17205.13
702.724	17233.6
703.069	17113.83
703.415	17021.85
703.76	17002.65
704.105	17040.39
704.45	16971.91
704.795	16866.6
705.14	16861.86
705.485	16856.89
705.83	16745.48
706.175	16799.04
706.52	16713.39
706.865	16578.48
707.209	16523.79
707.554	16501.64
707.899	16502.55
708.243	16433.17
708.588	16432.27
708.932	16227.3
709.277	16224.81
709.621	16234.08
709.966	16086.29
710.31	16151.37
710.654	15930.58
710.998	16030.47
711.342	16010.81
711.687	15926.97
712.031	15922.45
712.375	15906.4
712.719	15891.49
713.063	15825.73
713.407	15794.77
713.75	15809.68
714.094	15840.64
714.438	15651.27
714.782	15689.46
715.125	15582.57
715.469	15656.01
715.812	15523.81
716.156	15439.3
716.499	15366.76
716.843	15471.61
717.186	15404.04
717.53	15445.4
717.873	15451.5
718.216	15455.57
718.559	15356.14
718.902	15176.03
719.246	15319.3
719.589	15225.29
719.932	15141.68
720.275	15239.08
720.617	15240.66
720.96	15158.85
721.303	15138.51
721.646	15142.13
721.989	15100.32
722.331	15162.47
722.674	15085.63
723.016	15138.29
723.359	15097.61
723.701	15093.32
724.044	14940.55
724.386	14891.06
724.729	14893.1
725.071	14966.77
725.413	14875.7
725.755	14912.98
726.097	14908.69
726.439	14835.47
726.782	14772.2
727.124	14922.25
727.465	14882.7
727.807	14798.41
728.149	14790.95
728.491	14777.39
728.833	14725.64
729.175	14742.14
729.516	14716.6
729.858	14822.14
730.199	14804.51
730.541	14669.83
730.882	14774
731.224	14809.48
731.565	14634.35
731.906	14713.21
732.248	14740.33
732.589	14609.26
732.93	14580.79
733.271	14538.3
733.612	14635.25
733.953	14631.41
734.294	14600
734.635	14507.12
734.976	14715.7
735.317	14622.37
735.658	14556.61
735.999	14641.35
736.339	14566.78
736.68	14541.47
737.021	14613.56
737.361	14519.1
737.702	14601.58
738.042	14574.24
738.383	14586.44
738.723	14646.32
739.063	14607.68
739.404	14648.36
739.744	14536.5
740.084	14509.6
740.424	14592.99
740.764	14612.43
741.104	14661.46
741.444	14599.32
741.784	14579.66
742.124	14750.95
742.464	14687.23
742.804	14684.97
743.143	14658.75
743.483	14635.25
743.823	14708.7
744.162	14668.24
744.502	14788.92
744.841	14867.56
745.181	14851.06
745.52	14843.38
745.86	14924.73
746.199	14881.35
746.538	14919.31
746.877	14997.05
747.216	15033.66
747.556	15123.6
747.895	15128.8
748.234	15129.02
748.573	15175.58
748.911	15310.71
749.25	15258.96
749.589	15356.36
749.928	15487.21
750.267	15544.38
750.605	15514.1
750.944	15613.98
751.283	15682.91
751.621	15681.78
751.96	15748.22
752.298	15837.48
752.636	15898.49
752.975	16014.65
753.313	16094.2
753.651	16225.04
753.989	16263.91
754.327	16298.71
754.666	16414.41
755.004	16473.62
755.342	16643.79
755.679	16760.62
756.017	16818.47
756.355	16955.64
756.693	16966.49
757.031	17194.05
757.368	17126.94
757.706	17271.57
758.044	17291.68
758.381	17480.83
758.719	17526.93
759.056	17765.79
759.394	17787.94
759.731	17793.36
760.068	17937.76
760.405	18063.86
760.743	18111.54
761.08	18172.33
761.417	18251.43
761.754	18402.84
762.091	18579.33
762.428	18563.51
762.765	18613.9
763.102	18887.12
763.438	18842.37
763.775	18781.81
764.112	18969.15
764.449	19124.4
764.785	19094.57
765.122	19076.49
765.458	19176.83
765.795	19319.2
766.131	19316.48
766.467	19368.91
766.804	19408.46
767.14	19409.81
767.476	19513.77
767.812	19463.15
768.148	19668.11
768.485	19631.5
768.821	19565.97
769.157	19687.77
769.492	19737.04
769.828	19810.26
770.164	19686.64
770.5	19811.84
770.836	19771.16
771.171	19748.34
771.507	19734.78
771.842	19750.37
772.178	19801.44
772.513	19770.48
772.849	19764.38
773.184	19804.15
773.519	19914.89
773.855	19751.27
774.19	19744.27
774.525	19808.45
774.86	19768.68
775.195	19750.37
775.53	19808
775.865	19637.61
776.2	19596.93
776.535	19524.16
776.87	19543.14
777.205	19577.95
777.539	19530.49
777.874	19596.48
778.209	19473.09
778.543	19507.89
778.878	19361
779.212	19421.79
779.547	19305.41
779.881	19339.53
780.215	19163.72
780.55	19382.47
780.884	19153.1
781.218	19285.3
781.552	19258.41
781.886	19126.88
782.22	19063.16
782.554	19073.1
782.888	18943.61
783.222	18785.42
783.556	18749.04
783.889	18742.49
784.223	18630.4
784.557	18661.59
784.89	18737.06
785.224	18533.68
785.557	18527.8
785.891	18521.02
786.224	18329.84
786.558	18410.52
786.891	18456.85
787.224	18291.65
787.557	18263.4
787.891	18257.3
788.224	18181.37
788.557	18186.12
788.89	18209.39
789.223	18167.59
789.556	18029.51
789.888	17974.15
790.221	17907.48
790.554	17805.34
790.887	17813.25
791.219	17728.73
791.552	17662.74
791.884	17699.13
792.217	17695.28
792.549	17572.35
792.882	17466.59
793.214	17360.83
793.546	17414.61
793.879	17356.99
794.211	17244.67
794.543	17348.4
794.875	17265.69
795.207	17253.04
795.539	17168.29
795.871	17067.96
796.203	17028.18
796.535	16904.57
796.867	16754.52
797.198	16797.45
797.53	16833.16
797.862	16789.54
798.193	16804.91
798.525	16670.9
798.856	16698.47
799.188	16451.7
799.519	16430.23
799.85	16392.72
800.182	16481.08
800.513	16338.03
800.844	16226.85
801.175	16286.28
801.506	16296
801.837	16170.13
802.168	16178.49
802.499	16151.6
802.83	16099.62
803.161	15977.59
803.491	16026.4
803.822	15965.84
804.153	15878.16
804.483	15816.24
804.814	15752.28
805.145	15727.2
805.475	15723.13
805.805	15651.04
806.136	15576.24
806.466	15610.59
806.796	15556.36
807.126	15395.91
807.457	15455.79
807.787	15407.89
808.117	15383.48
808.447	15334.22
808.777	15328.34
809.107	15300.09
809.436	15202.47
809.766	15196.59
810.096	15148.01
810.426	15068.69
810.755	15098.29
811.085	15078.4
811.414	15060.78
811.744	14949.59
812.073	14876.15
812.403	14918.86
812.732	14790.5
813.061	14866.43
813.39	14798.18
813.719	14746.66
814.049	14836.38
814.378	14711.86
814.707	14748.24
815.036	14650.62
815.365	14655.59
815.693	14483.62
816.022	14509.38
816.351	14410.17
816.68	14389.83
817.008	14364.98
817.337	14233.45
817.665	14166.34
817.994	14343.73
818.322	14348.48
818.651	14226.22
818.979	14151.42
819.307	14291.76
819.636	14156.39
819.964	14089.05
820.292	14148.03
820.62	14122.95
820.948	14129.73
821.276	14077.53
821.604	14054.25
821.932	14124.98
822.259	14104.87
822.587	13975.83
822.915	13975.83
823.243	14007.02
823.57	13977.87
823.898	13997.53
824.225	13912.11
824.553	14057.41
824.88	14021.93
825.207	13993.23
825.535	13966.79
825.862	13932.44
826.189	13940.58
826.516	14038.2
826.843	14006.57
827.17	13920.02
827.497	14059.67
827.824	13980.58
828.151	14033.01
828.478	14001.82
828.805	14099.45
829.131	13996.17
829.458	13956.85
829.785	13892.22
830.111	13925.44
830.438	14002.5
830.764	14026.45
831.09	13980.13
831.417	13904.65
831.743	13894.25
832.069	13916.85
832.395	13874.59
832.722	13912.56
833.048	13915.95
833.374	13917.08
833.7	13809.74
834.026	13809.74
834.351	13812.67
834.677	13809.96
835.003	13875.5
835.329	13840.47
835.654	13815.61
835.98	13686.35
836.306	13781.04
836.631	13701.49
836.956	13762.51
837.282	13745.78
837.607	13667.82
837.932	13675.95
838.258	13693.58
838.583	13636.86
838.908	13519.8
839.233	13645.67
839.558	13494.49
839.883	13432.12
840.208	13419.69
840.533	13427.82
840.858	13469.63
841.182	13379.01
841.507	13375.4
841.832	13354.83
842.156	13305.57
842.481	13263.08
842.805	13256.3
843.13	13356.64
843.454	13256.76
843.778	13160.94
844.103	13103.54
844.427	13061.73
844.751	13123.88
845.075	13058.34
845.399	12966.14
845.723	12980.15
846.047	12942.19
846.371	12871.46
846.695	12886.82
847.019	12798.24
847.343	12739.93
847.666	12680.05
847.99	12610.22
848.313	12538.81
848.637	12486.38
848.96	12494.97
849.284	12516.89
849.607	12371.36
849.931	12255.43
850.254	12295.65
850.577	12264.01
850.9	12095.88
851.223	12103.11
851.546	12086.17
851.869	11963.46
852.192	12000.07
852.515	11876.45
852.838	11868.09
853.161	11845.95
853.483	11800.98
853.806	11752.61
854.129	11787.42
854.451	11669.23
854.774	11591.26
855.096	11632.62
855.419	11592.39
855.741	11522.56
856.063	11471.27
856.385	11499.51
856.708	11491.83
857.03	11407.54
857.352	11418.61
857.674	11351.72
857.996	11262.46
858.318	11283.7
858.64	11175.45
858.961	11161.67
859.283	11132.74
859.605	11108.79
859.926	11173.42
860.248	11100.2
860.57	11043.71
860.891	11091.39
861.212	11001.45
861.534	10943.6
861.855	10884.16
862.176	10935.01
862.498	10874.67
862.819	10930.26
863.14	10846.2
863.461	10888
863.782	10799.65
864.103	10862.92
864.424	10739.99
864.745	10795.13
865.065	10739.53
865.386	10735.24
865.707	10740.44
866.027	10647.33
866.348	10664.96
866.668	10631.74
866.989	10640.1
867.309	10514.91
867.63	10622.47
867.95	10506.55
868.27	10511.52
868.59	10515.59
868.91	10508.81
869.23	10468.35
869.55	10427
869.87	10476.04
870.19	10366.89
870.51	10502.48
870.83	10435.81
871.15	10355.36
871.469	10382.71
871.789	10400.56
872.109	10302.03
872.428	10300.45
872.748	10359.88
873.067	10264.52
873.386	10279.21
873.706	10243.95
874.025	10227.46
874.344	10221.58
874.663	10202.37
874.982	10215.03
875.301	10196.05
875.62	10175.26
875.939	10130.74
876.258	10146.33
876.577	10059.33
876.896	10041.47
877.214	10039.21
877.533	10088.7
877.852	10089.61
878.17	10079.89
878.489	10000.12
878.807	10101.81
879.125	10005.99
879.444	9958.99
879.762	9944.07
880.08	9920.57
880.398	9866.79
880.716	9878.77
881.034	9890.29
881.352	9881.93
881.67	9867.69
881.988	9805.1
882.306	9766.68
882.624	9733.46
882.941	9738.66
883.259	9671.09
883.577	9604.42
883.894	9679.9
884.212	9689.17
884.529	9667.47
884.846	9607.59
885.164	9568.04
885.481	9569.4
885.798	9570.3
886.115	9440.36
886.432	9471.32
886.75	9441.94
887.067	9425.67
887.383	9388.16
887.7	9390.19
888.017	9419.79
888.334	9360.81
888.651	9319.23
888.967	9326.46
889.284	9294.15
889.6	9248.5
889.917	9138.22
890.233	9206.24
890.55	9112.68
890.866	9168.95
891.182	9095.28
891.498	9070.65
891.815	9008.96
892.131	9019.81
892.447	9008.05
892.763	8950.43
893.079	8988.39
893.395	8919.47
893.71	8946.13
894.026	8884.89
894.342	8834.05
894.657	8836.08
894.973	8731.9
895.289	8816.19
895.604	8816.42
895.92	8700.04
896.235	8648.97
896.55	8617.33
896.865	8635.86
897.181	8562.64
897.496	8609.19
897.811	8510.44
898.126	8524.23
898.441	8434.51
898.756	8471.12
899.071	8404.23
899.386	8428.41
899.7	8306.83
900.015	8290.56
900.33	8292.14
900.644	8254.4
900.959	8222.99
901.273	8200.84
901.588	8190.67
901.902	8140.96
902.216	8110.22
902.531	8059.15
902.845	8055.54
903.159	8019.15
903.473	7909.55
903.787	7934.64
904.101	7921.53
904.415	7937.35
904.729	7886.95
905.042	7783.68
905.356	7814.64
905.67	7760.63
905.984	7770.8
906.297	7693.06
906.611	7706.62
906.924	7709.78
907.237	7672.72
907.551	7652.61
907.864	7592.72
908.177	7540.07
908.491	7558.6
908.804	7517.25
909.117	7459.85
909.43	7414.88
909.743	7436.57
910.056	7345.95
910.368	7287.42
910.681	7289
910.994	7283.81
911.307	7232.96
911.619	7195.9
911.932	7206.07
912.244	7115
912.557	7085.17
912.869	7120.42
913.181	7037.94
913.494	6996.13
913.806	6985.06
914.118	6950.26
914.43	6896.25
914.742	6888.34
915.054	6846.08
915.366	6872.97
915.678	6882.46
915.99	6850.6
916.302	6797.49
916.613	6705.52
916.925	6747.77
917.236	6734.67
917.548	6632.3
917.859	6688.34
918.171	6633.65
918.482	6595.01
918.794	6530.38
919.105	6541.68
919.416	6501.91
919.727	6482.24
920.038	6436.14
920.349	6423.26
920.66	6432.53
920.971	6413.32
921.282	6388.46
921.593	6301.68
921.903	6280.67
922.214	6284.28
922.525	6237.96
922.835	6180.11
923.146	6164.74
923.456	6188.02
923.767	6144.17
924.077	6204.96
924.387	6107.79
924.697	6101.24
925.008	6077.74
925.318	6021.69
925.628	6025.76
925.938	6009.94
926.248	5950.06
926.558	5915.93
926.867	5912.32
927.177	5890.4
927.487	5840.23
927.796	5780.34
928.106	5764.3
928.416	5761.36
928.725	5749.16
929.034	5757.29
929.344	5701.47
929.653	5681.81
929.962	5614.02
930.271	5612.66
930.581	5533.12
930.89	5576.73
931.199	5518.2
931.508	5513
931.817	5475.27
932.125	5504.64
932.434	5492.21
932.743	5425.32
933.051	5380.8
933.36	5394.59
933.669	5308.26
933.977	5327.25
934.286	5327.47
934.594	5321.82
934.902	5252.67
935.21	5238.44
935.519	5238.66
935.827	5256.06
936.135	5188.72
936.443	5176.74
936.751	5144.2
937.059	5118.21
937.367	5057.88
937.674	5123.64
937.982	5046.58
938.29	5008.84
938.597	5027.37
938.905	4965.67
939.213	4967.93
939.52	4936.97
939.827	4977.88
940.135	4962.06
940.442	4885.22
940.749	4879.58
941.056	4916.64
941.363	4871.21
941.67	4801.16
941.977	4760.48
942.284	4783.08
942.591	4751.22
942.898	4683.2
943.205	4699.01
943.511	4713.7
943.818	4644.33
944.125	4680.94
944.431	4648.17
944.738	4602.07
945.044	4629.64
945.35	4550.32
945.657	4564.78
945.963	4546.48
946.269	4490.21
946.575	4490.66
946.881	4461.73
947.187	4417.21
947.493	4391.45
947.799	4428.97
948.105	4338.35
948.41	4372.92
948.716	4331.79
949.022	4388.06
949.327	4307.84
949.633	4259.25
949.938	4272.81
950.244	4273.72
950.549	4217.22
950.854	4214.96
951.16	4216.77
951.465	4179.93
951.77	4157.33
952.075	4127.05
952.38	4123.89
952.685	4124.57
952.99	4069.88
953.294	4073.49
953.599	4058.81
953.904	4024.46
954.209	4002.76
954.513	3995.98
954.818	3965.25
955.122	3995.3
955.426	3939.26
955.731	3938.81
956.035	3931.13
956.339	3870.34
956.643	3865.14
956.948	3854.97
957.252	3815.42
957.556	3850.22
957.86	3836.66
958.163	3818.36
958.467	3797.57
958.771	3784.46
959.075	3755.76
959.378	3691.36
959.682	3715.76
959.985	3703.11
960.289	3680.06
960.592	3677.8
960.896	3671.47
961.199	3663.11
961.502	3602.09
961.805	3634.86
962.108	3578.82
962.411	3581.98
962.714	3546.05
963.017	3543.57
963.32	3591.25
963.623	3513.74
963.926	3542.66
964.228	3461.08
964.531	3445.94
964.833	3489.78
965.136	3417.47
965.438	3445.94
965.741	3409.33
966.043	3374.3
966.345	3369.33
966.648	3338.82
966.95	3345.38
967.252	3340.86
967.554	3324.14
967.856	3327.98
968.158	3290.01
968.46	3288.88
968.761	3273.74
969.063	3247.53
969.365	3215.89
969.666	3221.09
969.968	3205.04
970.269	3207.75
970.571	3231.48
970.872	3153.29
971.174	3129.79
971.475	3139.28
971.776	3140.86
972.077	3112.16
972.378	3110.81
972.679	3135.44
972.98	3123.69
973.281	3096.8
973.582	3028.1
973.883	3039.4
974.183	3047.76
974.484	3002.56
974.785	2973.64
975.085	2941.32
975.386	2996.01
975.686	2958.04
975.986	2918.95
976.287	2945.16
976.587	2910.14
976.887	2911.94
977.187	2906.07
977.487	2885.96
977.787	2887.31
978.087	2808.44
978.387	2815.45
978.687	2851.38
978.987	2845.05
979.286	2792.17
979.586	2791.95
979.885	2801.21
980.185	2746.75
980.484	2765.28
980.784	2708.78
981.083	2705.17
981.382	2704.72
981.682	2692.97
981.981	2687.54
982.28	2680.76
982.579	2674.89
982.878	2656.36
983.177	2635.34
983.475	2673.08
983.774	2634.66
984.073	2602.12
984.372	2592.18
984.67	2564.38
984.969	2577.04
985.267	2587.21
985.566	2548.11
985.864	2546.98
986.162	2515.34
986.461	2500.65
986.759	2489.58
987.057	2487.55
987.355	2471.5
987.653	2465.85
987.951	2467.21
988.249	2459.07
988.547	2458.17
988.844	2409.81
989.142	2436.93
989.44	2380.88
989.737	2371.17
990.035	2384.05
990.332	2379.08
990.63	2351.73
990.927	2352.41
991.224	2331.85
991.521	2327.33
991.819	2299.53
992.116	2297.27
992.413	2297.5
992.71	2254.33
993.006	2244.39
993.303	2266.99
993.6	2251.85
993.897	2217.95
994.193	2232.41
994.49	2196.03
994.787	2238.29
995.083	2219.53
995.379	2166.65
995.676	2203.26
995.972	2144.96
996.268	2165.97
996.565	2137.73
996.861	2128.69
997.157	2134.11
997.453	2108.35
997.749	2072.87
998.044	2090.72
998.34	2105.18
998.636	2070.61
998.932	2062.7
999.227	2035.58
999.523	2022.93
999.818	2045.3
1000.114	1987
1000.409	1983.83
1000.704	1990.16
1001	1976.6
1001.295	1949.71
1001.59	1991.52
1001.885	1959.2
1002.18	1961.23
1002.475	1938.86
1002.77	1903.38
1003.065	1906.32
1003.359	1897.73
1003.654	1892.99
1003.949	1884.63
1004.243	1888.47
1004.538	1847.56
1004.832	1838.98
1005.127	1823.16
1005.421	1830.84
1005.715	1843.04
1006.009	1813.89
1006.304	1793.55
1006.598	1781.35
1006.892	1783.16
1007.186	1782.48
1007.48	1759.43
1007.773	1754.23
1008.067	1731.86
1008.361	1722.14
1008.655	1715.82
1008.948	1706.33
1009.242	1704.07
1009.535	1688.25
1009.829	1708.36
1010.122	1692.54
1010.415	1636.5
1010.708	1655.25
1011.001	1662.03
1011.295	1643.28
1011.588	1646.21
1011.881	1608.93
1012.173	1622.49
1012.466	1578.42
1012.759	1582.94
1013.052	1575.71
1013.344	1599.44
1013.637	1573.9
1013.93	1576.16
1014.222	1553.79
1014.514	1521.25
1014.807	1509.72
1015.099	1508.14
1015.391	1474.92
1015.683	1485.99
1015.976	1498.2
1016.268	1468.59
1016.56	1479.89
1016.851	1460.91
1017.143	1444.19
1017.435	1439.21
1017.727	1435.82
1018.018	1411.87
1018.31	1434.24
1018.602	1414.13
1018.893	1381.59
1019.185	1402.6
1019.476	1410.74
1019.767	1394.02
1020.058	1380.23
1020.35	1371.19
1020.641	1331.87
1020.932	1347.92
1021.223	1335.04
1021.514	1288.94
1021.804	1281.48
1022.095	1286
1022.386	1284.87
1022.677	1265.88
1022.967	1287.35
1023.258	1257.07
1023.548	1264.08
1023.839	1268.6
1024.129	1242.16
1024.419	1232.67
1024.709	1226.56
1025	1208.49
1025.29	1224.76
1025.58	1204.42
1025.87	1199.67
1026.16	1187.02
1026.449	1190.18
1026.739	1182.5
1027.029	1160.35
1027.319	1164.42
1027.608	1163.74
1027.898	1139.79
1028.187	1131.65
1028.477	1150.41
1028.766	1112.67
1029.055	1113.8
1029.344	1110.86
1029.634	1087.58
1029.923	1106.34
1030.212	1116.06
1030.501	1074.25
1030.79	1112.44
1031.078	1070.18
1031.367	1062.73
1031.656	1057.75
1031.945	1053.91
1032.233	1038.77
1032.522	1036.06
1032.81	1025.21
1033.099	998.32
1033.387	1022.73
1033.675	1020.92
1033.963	1017.08
1034.251	990.41
1034.54	996.74
1034.828	989.51
1035.116	968.04
1035.403	988.15
1035.691	982.73
1035.979	953.8
1036.267	952.9
1036.554	931.66
1036.842	944.31
1037.129	968.27
1037.417	932.56
1037.704	933.46
1037.992	930.53
1038.279	932.79
1038.566	918.78
1038.853	918.78
1039.14	918.78
