Data from hue_30_FLMS001491_47.txt Node
Date: Mon Feb 06 15:05:23 GMT 2017
User: dcchb
Spectrometer: FLMS00149
Trigger mode: 0
Integration Time (sec): 2.000000E-2
Scans to average: 10
Electric dark correction enabled: true
Nonlinearity correction enabled: false
Boxcar width: 0
XAxis mode: Wavelengths
Number of Pixels in Spectrum: 2048
>>>>>Begin Spectral Data<<<<<
341.393	-16.37
341.776	-16.37
342.16	-16.37
342.543	-78.74
342.927	-92.53
343.31	-50.27
343.693	-64.05
344.077	-70.38
344.46	-66.54
344.843	-37.84
345.226	-52.75
345.61	-10.49
345.993	-29.48
346.376	-4.84
346.759	5.32
347.142	6.23
347.525	33.35
347.908	59.33
348.291	68.37
348.674	102.05
349.057	111.99
349.44	104.53
349.823	131.88
350.206	171.87
350.588	208.71
350.971	211.2
351.354	220.46
351.737	261.59
352.119	247.58
352.502	239.22
352.884	267.69
353.267	258.65
353.65	281.25
354.032	279.44
354.414	298.65
354.797	297.97
355.179	349.5
355.562	303.85
355.944	317.18
356.326	331.19
356.709	315.37
357.091	318.31
357.473	345.65
357.855	342.72
358.238	349.5
358.62	335.26
359.002	326.67
359.384	332.55
359.766	332.55
360.148	344.52
360.53	335.71
360.912	333
361.294	328.93
361.676	326.67
362.057	344.07
362.439	320.57
362.821	332.1
363.203	336.39
363.584	312.89
363.966	317.18
364.348	303.17
364.729	343.39
365.111	320.8
365.493	311.31
365.874	322.83
366.256	329.38
366.637	315.15
367.019	310.18
367.4	320.8
367.781	311.31
368.163	302.94
368.544	308.14
368.925	310.18
369.306	311.53
369.688	305.43
370.069	304.3
370.45	318.54
370.831	307.69
371.212	307.46
371.593	288.48
371.974	325.09
372.355	305.66
372.736	326.67
373.117	328.93
373.498	318.31
373.879	313.79
374.26	304.07
374.641	307.46
375.021	314.92
375.402	301.59
375.783	310.63
376.163	322.6
376.544	348.14
376.925	311.98
377.305	320.8
377.686	304.3
378.066	334.13
378.447	316.95
378.827	324.41
379.208	327.35
379.588	333.23
379.968	336.16
380.349	331.19
380.729	317.41
381.109	330.29
381.489	323.96
381.87	330.06
382.25	340.68
382.63	329.16
383.01	351.3
383.39	335.71
383.77	355.6
384.15	356.28
384.53	338.65
384.91	331.87
385.29	361.25
385.67	328.25
386.049	350.85
386.429	341.81
386.809	344.3
387.189	346.56
387.568	379.33
387.948	335.03
388.328	368.03
388.707	350.63
389.087	346.33
389.466	354.47
389.846	358.08
390.225	382.94
390.605	349.04
390.984	361.93
391.363	343.62
391.743	341.81
392.122	366.45
392.501	347.69
392.881	373.22
393.26	360.57
393.639	364.41
394.018	355.37
394.397	373.45
394.776	342.72
395.155	366.45
395.534	384.98
395.913	368.48
396.292	380
396.671	366.45
397.05	367.35
397.429	396.5
397.808	387.91
398.186	365.99
398.565	377.97
398.944	374.81
399.323	404.41
399.701	390.63
400.08	391.08
400.458	380.68
400.837	378.42
401.215	394.02
401.594	384.75
401.972	390.17
402.351	382.26
402.729	396.73
403.107	403.73
403.486	416.61
403.864	421.13
404.242	412.77
404.62	393.79
404.999	403.28
405.377	376.84
405.755	397.18
406.133	420.68
406.511	404.64
406.889	434.01
407.267	406.44
407.645	413.22
408.023	432.21
408.401	421.36
408.779	430.62
409.156	423.62
409.534	424.75
409.912	439.89
410.29	435.82
410.667	445.77
411.045	427.46
411.422	452.09
411.8	449.83
412.178	427.23
412.555	471.08
412.933	445.99
413.31	468.14
413.687	465.43
414.065	455.93
414.442	433.34
414.819	459.55
415.197	469.49
415.574	459.1
415.951	474.24
416.328	466.1
416.705	478.31
417.082	491.19
417.46	504.97
417.837	472.21
418.214	493.45
418.591	479.21
418.967	469.04
419.344	502.49
419.721	501.81
420.098	479.21
420.475	510.17
420.852	487.8
421.228	517.4
421.605	507.91
421.982	527.34
422.358	525.76
422.735	494.13
423.111	504.52
423.488	532.54
423.864	510.85
424.241	547.68
424.617	529.15
424.994	533.22
425.37	559.89
425.746	550.62
426.123	563.5
426.499	554.24
426.875	555.14
427.251	547.91
427.627	549.27
428.003	547.91
428.379	568.47
428.756	576.84
429.132	587.23
429.507	577.97
429.883	587.23
430.259	604.18
430.635	582.03
431.011	589.26
431.387	608.7
431.763	603.5
432.138	593.56
432.514	605.08
432.89	617.29
433.265	623.61
433.641	625.2
434.016	621.35
434.392	626.1
434.767	647.12
435.143	621.13
435.518	648.47
435.894	645.53
436.269	659.54
436.644	649.83
437.02	679.43
437.395	668.13
437.77	693.89
438.145	683.05
438.52	667.45
438.895	694.8
439.271	696.83
439.646	702.48
440.021	712.2
440.395	696.83
440.77	705.65
441.145	692.76
441.52	738.86
441.895	709.49
442.27	717.85
442.645	744.74
443.019	741.58
443.394	732.54
443.769	756.94
444.143	729.83
444.518	765.76
444.892	776.6
445.267	739.54
445.641	790.16
446.016	741.12
446.39	769.37
446.764	799.43
447.139	761.69
447.513	776.83
447.887	764.17
448.262	777.73
448.636	815.92
449.01	792.42
449.384	829.94
449.758	827.68
450.132	819.31
450.506	838.3
450.88	842.14
451.254	829.94
451.628	842.82
452.002	851.18
452.376	840.33
452.75	850.05
453.123	848.24
453.497	873.1
453.871	877.39
454.244	888.92
454.618	885.08
454.992	877.62
455.365	866.32
455.739	932.31
456.112	942.93
456.486	949.48
456.859	935.47
457.232	926.88
457.606	950.84
457.979	984.96
458.352	991.51
458.725	993.77
459.099	1013.89
459.472	1003.72
459.845	1040.55
460.218	1036.94
460.591	1036.03
460.964	1042.81
461.337	1051.62
461.71	1054.34
462.083	1052.98
462.456	1081.68
462.829	1102.25
463.201	1097.27
463.574	1106.09
463.947	1131.62
464.32	1132.07
464.692	1150.38
465.065	1150.83
465.438	1180.89
465.81	1194.67
466.183	1204.39
466.555	1204.16
466.928	1234.9
467.3	1244.84
467.672	1233.99
468.045	1251.85
468.417	1285.52
468.789	1306.99
469.161	1340.2
469.534	1337.27
469.906	1380.2
470.278	1365.74
470.65	1377.49
471.022	1440.54
471.394	1443.25
471.766	1446.42
472.138	1459.98
472.51	1488
472.882	1541.78
473.253	1531.61
473.625	1590.59
473.997	1636.69
474.369	1638.28
474.74	1661.78
475.112	1673.76
475.484	1689.8
475.855	1741.55
476.227	1777.93
476.598	1816.12
476.97	1830.36
477.341	1882.34
477.713	1910.36
478.084	1934.99
478.455	1956.91
478.827	1988.78
479.198	2040.07
479.569	2059.51
479.94	2163.01
480.311	2146.51
480.682	2205.27
481.053	2263.57
481.424	2305.38
481.795	2376.11
482.166	2400.06
482.537	2454.3
482.908	2506.5
483.279	2523.45
483.65	2594.86
484.021	2666.5
484.391	2705.37
484.762	2734.74
485.133	2773.16
485.503	2847.96
485.874	2919.15
486.244	2979.71
486.615	2990.78
486.985	3060.16
487.356	3127.95
487.726	3169.31
488.097	3243.66
488.467	3243.21
488.837	3361.17
489.207	3413.6
489.578	3488.17
489.948	3499.7
490.318	3578.34
490.688	3632.35
491.058	3665.79
491.428	3779.46
491.798	3836.86
492.168	3894.71
492.538	3910.76
492.908	3992.11
493.278	4080.02
493.648	4086.12
494.017	4130.64
494.387	4160.02
494.757	4244.99
495.126	4301.93
495.496	4383.29
495.866	4390.07
496.235	4420.35
496.605	4497.18
496.974	4553
497.344	4564.53
497.713	4663.06
498.082	4652.43
498.452	4750.06
498.821	4757.97
499.19	4776.27
499.559	4884.52
499.928	4886.55
500.298	4930.39
500.667	4987.79
501.036	4981.92
501.405	5056.27
501.774	5114.57
502.143	5152.31
502.512	5143.49
502.88	5205.64
503.249	5218.07
503.618	5307.56
503.987	5303.94
504.356	5334.22
504.724	5392.08
505.093	5418.97
505.462	5414.22
505.83	5479.31
506.199	5558.4
506.567	5592.07
506.936	5595.91
507.304	5674.1
507.672	5662.58
508.041	5743.48
508.409	5740.09
508.777	5787.77
509.145	5882.46
509.514	5827.09
509.882	5856.47
510.25	5922.23
510.618	5901.44
510.986	6017.37
511.354	6010.14
511.722	6062.79
512.09	6124.49
512.458	6122
512.826	6176.24
513.193	6158.84
513.561	6169.46
513.929	6237.25
514.297	6303.01
514.664	6315.67
515.032	6267.98
515.4	6368.32
515.767	6380.52
516.135	6405.61
516.502	6414.42
516.869	6546.4
517.237	6521.31
517.604	6466.17
517.972	6554.08
518.339	6624.59
518.706	6636.11
519.073	6573.51
519.44	6674.98
519.808	6762.44
520.175	6704.13
520.542	6780.29
520.909	6837.01
521.276	6777.8
521.643	6913.84
522.009	6917.01
522.376	6930.11
522.743	6944.35
523.11	7062.99
523.477	7099.83
523.843	7081.75
524.21	7167.17
524.577	7217.56
524.943	7260.5
525.31	7307.51
525.676	7341.63
526.043	7372.59
526.409	7412.59
526.776	7428.18
527.142	7538.46
527.508	7529.19
527.874	7564.9
528.241	7652.81
528.607	7660.94
528.973	7699.36
529.339	7745.46
529.705	7797.21
530.071	7820.94
530.437	7885.12
530.803	7882.18
531.169	7992.23
531.535	7951.78
531.901	7984.55
532.267	8027.26
532.632	8123.53
532.998	8142.06
533.364	8159.69
533.73	8186.35
534.095	8269.74
534.461	8280.36
534.826	8287.14
535.192	8327.59
535.557	8400.36
535.923	8403.75
536.288	8450.07
536.653	8491.88
537.019	8422.28
537.384	8520.58
537.749	8540.69
538.114	8595.16
538.479	8656.62
538.845	8696.85
539.21	8687.36
539.575	8694.36
539.94	8704.76
540.305	8764.42
540.67	8775.49
541.034	8856.17
541.399	8836.5
541.764	8947.24
542.129	8913.11
542.494	8961.7
542.858	9025.88
543.223	9006.44
543.587	9072.2
543.952	9145.2
544.316	9144.75
544.681	9118.76
545.045	9231.07
545.41	9264.52
545.774	9269.49
546.138	9359.66
546.503	9401.46
546.867	9337.51
547.231	9405.98
547.595	9455.47
547.959	9519.2
548.324	9486.21
548.688	9568.92
549.052	9648.24
549.416	9625.86
549.779	9626.54
550.143	9655.01
550.507	9768.91
550.871	9764.39
551.235	9725.75
551.599	9833.31
551.962	9915.35
552.326	9932.07
552.689	9940.2
553.053	9942.46
553.417	9955.57
553.78	9996.47
554.143	10021.33
554.507	10035.57
554.87	10095
555.234	10191.27
555.597	10142.46
555.96	10172.97
556.323	10168.67
556.686	10181.1
557.05	10235.11
557.413	10283.7
557.776	10360.31
558.139	10444.15
558.502	10406.41
558.865	10446.41
559.228	10551.49
559.59	10499.51
559.953	10567.08
560.316	10646.4
560.679	10617.02
561.041	10727.98
561.404	10816.57
561.767	10855.21
562.129	10762.1
562.492	10861.76
562.854	10864.93
563.217	10879.39
563.579	10941.08
563.941	10948.31
564.304	10999.61
564.666	11034.64
565.028	11145.82
565.39	11112.83
565.753	11152.15
566.115	11257.01
566.477	11297.23
566.839	11264.24
567.201	11348.76
567.563	11301.52
567.925	11420.39
568.287	11457.45
568.648	11469.2
569.01	11520.73
569.372	11613.61
569.734	11552.82
570.095	11649.31
570.457	11781.06
570.819	11831
571.18	11766.82
571.542	11826.03
571.903	11887.05
572.265	11964.56
572.626	12026.93
572.987	12144.89
573.349	12118
573.71	12176.53
574.071	12285
574.432	12341.5
574.794	12400.25
575.155	12466.69
575.516	12550.53
575.877	12625.11
576.238	12659.46
576.599	12778.55
576.96	12800.24
577.32	12915.72
577.681	13024.87
578.042	12979.9
578.403	13155.71
578.763	13284.52
579.124	13370.17
579.485	13478.87
579.845	13672.54
580.206	13755.47
580.566	13797.96
580.927	13938.52
581.287	14101.23
581.648	14256.02
582.008	14324.72
582.368	14583.92
582.728	14715.67
583.089	14782.11
583.449	14992.5
583.809	15205.83
584.169	15381.19
584.529	15453.05
584.889	15778.02
585.249	15841.07
585.609	15998.8
585.969	16317.66
586.329	16409.64
586.688	16603.31
587.048	16863.64
587.408	17031.54
587.768	17241.03
588.127	17455.26
588.487	17600.57
588.846	17881.01
589.206	18080.56
589.565	18281.91
589.925	18576.14
590.284	18784.27
590.643	19112.84
591.003	19326.62
591.362	19652.94
591.721	19834.86
592.08	20036.89
592.44	20292.93
592.799	20485.46
593.158	20738.79
593.517	21043.42
593.876	21240.7
594.235	21423.74
594.593	21813.11
594.952	22087.23
595.311	22150.96
595.67	22434.79
596.029	22920.2
596.387	23165.62
596.746	23375.33
597.104	23383.69
597.463	23723.57
597.822	24103.45
598.18	24235.42
598.538	24448.98
598.897	24825.46
599.255	24925.12
599.613	25414.83
599.972	25449.63
600.33	25862.5
600.688	25904.3
601.046	26178.42
601.404	26516.72
601.762	26605.08
602.12	27003.48
602.478	27232.41
602.836	27426.75
603.194	27563.7
603.552	27710.36
603.91	27904.93
604.268	28185.15
604.625	28364.58
604.983	28515.31
605.341	28631.01
605.698	29090.44
606.056	29134.95
606.413	29441.61
606.771	29635.28
607.128	29827.14
607.485	29799.12
607.843	29995.72
608.2	30483.85
608.557	30722.48
608.914	30748.02
609.272	30945.53
609.629	31150.72
609.986	31337.83
610.343	31363.6
610.7	31679.29
611.057	31861.66
611.414	31885.16
611.771	32160.64
612.127	32332.84
612.484	32526.96
612.841	32611.92
613.198	32661.19
613.554	32958.81
613.911	33220.5
614.267	33179.59
614.624	33346.37
614.98	33447.61
615.337	33639.47
615.693	33714.72
616.05	33730.31
616.406	34198.55
616.762	33972.79
617.118	34154.48
617.475	34256.63
617.831	34469.28
618.187	34575.49
618.543	34743.85
618.899	34927.57
619.255	35078.98
619.611	34999.88
619.967	35126.66
620.323	35354.68
620.678	35345.86
621.034	35221.57
621.39	35316.94
621.746	35376.6
622.101	35815.23
622.457	35600.77
622.812	35859.75
623.168	36020.2
623.523	36056.58
623.879	36173.41
624.234	35916.47
624.589	36214.32
624.945	36226.29
625.3	36327.08
625.655	36388.1
626.01	36549.45
626.365	36599.39
626.72	36365.27
627.075	36560.52
627.43	36646.62
627.785	36561.2
628.14	36692.04
628.495	36722.55
628.85	36790.12
629.205	36640.75
629.559	36992.15
629.914	36829.22
630.269	36810.46
630.623	36876.45
630.978	36773.62
631.332	37011.81
631.687	36928.42
632.041	36958.48
632.396	36948.76
632.75	36804.13
633.104	36928.2
633.459	36795.77
633.813	36820.85
634.167	37017.68
634.521	36964.8
634.875	37081.41
635.229	36882.55
635.583	36941.3
635.937	36875.99
636.291	36915.77
636.645	36871.25
636.999	36889.33
637.352	37036.67
637.706	36698.6
638.06	37049.77
638.413	36937.91
638.767	36758.93
639.121	36939.49
639.474	36683
639.828	36767.97
640.181	36811.14
640.534	36792.38
640.888	36668.09
641.241	36626.28
641.594	36719.61
641.947	36859.27
642.301	36688.88
642.654	36770.46
643.007	36643.23
643.36	36621.54
643.713	36697.69
644.066	36744.25
644.419	36435.33
644.771	36395.33
645.124	36100.65
645.477	35869.47
645.83	35812.07
646.182	35571.85
646.535	35495.46
646.888	35561.23
647.24	35354.68
647.593	35692.75
647.945	35500.66
648.298	35408.91
648.65	35295.02
649.002	35325.3
649.355	35495.69
649.707	35551.28
650.059	35539.76
650.411	35996.69
650.763	36110.36
651.115	36305.16
651.467	36384.26
651.819	36342.45
652.171	36270.36
652.523	36144.26
652.875	36073.3
653.227	36052.96
653.578	36361.88
653.93	36236.91
654.282	36130.02
654.633	36016.81
654.985	36128.67
655.337	35957.37
655.688	36096.35
656.039	36304.26
656.391	35849.58
656.742	36017.71
657.094	36049.8
657.445	36095.45
657.796	36102.91
658.147	35935.68
658.498	35892.52
658.849	35979.07
659.2	35956.47
659.551	35754.89
659.902	35965.74
660.253	35885.29
660.604	35922.12
660.955	35705.85
661.306	35937.04
661.656	35836.47
662.007	35845.29
662.358	35866.08
662.708	35877.38
663.059	35845.96
663.409	35742.92
663.76	35863.82
664.11	35915.79
664.461	35856.36
664.811	35722.13
665.161	35805.74
665.511	35654.56
665.862	35746.31
666.212	35816.59
666.562	35878.51
666.912	35757.83
667.262	35830.37
667.612	35690.71
667.962	35866.98
668.312	35776.36
668.662	35914.66
669.011	35721
669.361	35708.34
669.711	35758.06
670.06	35571.17
670.41	35649.13
670.76	35612.52
671.109	35930.26
671.459	35548.57
671.808	35494.56
672.157	35591.51
672.507	35508.57
672.856	35407.78
673.205	35627.89
673.554	35610.72
673.904	35515.58
674.253	35542.47
674.602	35499.08
674.951	34949.94
675.3	34905.65
675.649	35396.03
675.998	35249.6
676.346	35247.34
676.695	35459.99
677.044	35143.84
677.393	35416.82
677.741	35278.97
678.09	35148.13
678.438	35149.49
678.787	35275.36
679.135	35233.78
679.484	34968.25
679.832	35095.93
680.181	34971.18
680.529	35098.87
680.877	34930.96
681.225	34882.83
681.573	35077.4
681.922	34905.42
682.27	34783.39
682.618	34927.34
682.966	34691.64
683.314	34651.87
683.661	34689.84
684.009	34512.67
684.357	34421.14
684.705	34368.49
685.053	34457.53
685.4	34201.49
685.748	34124.2
686.095	34201.04
686.443	34119.91
686.79	34036.07
687.138	34064.77
687.485	34208.95
687.832	34013.7
688.18	34081.49
688.527	33817.09
688.874	33911.33
689.221	33727.83
689.568	33706.59
689.915	33629.98
690.262	33502.07
690.609	33350.21
690.956	33400.38
691.303	33285.81
691.65	33234.06
691.997	33148.86
692.344	33127.39
692.69	33102.99
693.037	33122.87
693.383	32657.57
693.73	32870
694.077	32579.84
694.423	32557.01
694.769	32479.5
695.116	32419.61
695.462	32383.23
695.808	32231.6
696.155	32325.6
696.501	32126.97
696.847	32108.89
697.193	31870.25
697.539	32098.04
697.885	31703.93
698.231	31707.99
698.577	31710.48
698.923	31732.85
699.269	31515.23
699.614	31349.13
699.96	31305.29
700.306	31409.02
700.651	31229.36
700.997	31082.47
701.342	31013.32
701.688	30959.09
702.033	30968.13
702.379	30917.28
702.724	30861.46
703.069	30827.57
703.415	30442.94
703.76	30644.75
704.105	30523.62
704.45	30399.1
704.795	30385.09
705.14	30211.76
705.485	30095.61
705.83	30102.84
706.175	30039.34
706.52	29936.52
706.865	29908.27
707.209	29843.64
707.554	29800.47
707.899	29857.42
708.243	29626.92
708.588	29542.4
708.932	29470.31
709.277	29527.49
709.621	29415.4
709.966	29297.66
710.31	29283.88
710.654	28982.42
710.998	29103.32
711.342	29001.62
711.687	29041.85
712.031	28866.26
712.375	28854.74
712.719	28812.02
713.063	28797.34
713.407	28942.87
713.75	28600.28
714.094	28573.84
714.438	28562.77
714.782	28472.6
715.125	28433.28
715.469	28487.74
715.812	28328.2
716.156	28038.71
716.499	28135.21
716.843	28219.05
717.186	28050.46
717.53	28111.93
717.873	28037.81
718.216	28032.84
718.559	27901.31
718.902	27818.83
719.246	27872.16
719.589	27738.38
719.932	27640.98
720.275	27773.18
720.617	27629.46
720.96	27566.86
721.303	27541.32
721.646	27583.36
721.989	27418.62
722.331	27434.66
722.674	27332.29
723.016	27478.73
723.359	27306.75
723.701	27231.5
724.044	27128
724.386	27035.12
724.729	27175.46
725.071	26970.49
725.413	27013.2
725.755	27070.15
726.097	26827.44
726.439	26744.06
726.782	26711.06
727.124	26888.23
727.465	26650.5
727.807	26682.82
728.149	26564.85
728.491	26586.09
728.833	26585.19
729.175	26506.55
729.516	26394.01
729.858	26448.25
730.199	26513.1
730.541	26354.24
730.882	26376.83
731.224	26401.24
731.565	26257.97
731.906	26308.59
732.248	26173.9
732.589	26154.24
732.93	25987.01
733.271	26024.3
733.612	26129.84
733.953	25941.82
734.294	25985.21
734.635	25932.33
734.976	26033.34
735.317	25785.44
735.658	25768.72
735.999	25890.29
736.339	25720.13
736.68	25879.22
737.021	25844.87
737.361	25570.08
737.702	25679.23
738.042	25630.19
738.383	25541.15
738.723	25574.82
739.063	25440.36
739.404	25525.78
739.744	25432.68
740.084	25262.06
740.424	25468.16
740.764	25269.52
741.104	25331.89
741.444	25300.25
741.784	25095.29
742.124	25177.32
742.464	25136.42
742.804	25163.76
743.143	25058.45
743.483	25172.12
743.823	24942.07
744.162	24878.34
744.502	25048.73
744.841	24876.31
745.181	24923.54
745.52	24721.74
745.86	24883.54
746.199	24720.83
746.538	24835.18
746.877	24726.26
747.216	24690.78
747.556	24749.98
747.895	24741.85
748.234	24493.49
748.573	24652.36
748.911	24487.39
749.25	24491.01
749.589	24487.17
749.928	24551.12
750.267	24440.84
750.605	24384.57
750.944	24357
751.283	24272.71
751.621	24359.94
751.96	24204.69
752.298	24164.69
752.636	24104.35
752.975	24131.24
753.313	24110.68
753.651	24139.83
753.989	23993.17
754.327	23840.4
754.666	23826.17
755.004	23833.85
755.342	23973.96
755.679	23781.87
756.017	23730.58
756.355	23806.96
756.693	23609.68
757.031	23559.96
757.368	23485.16
757.706	23434.99
758.044	23295.33
758.381	23450.58
758.719	23293.98
759.056	23371.04
759.394	23261.44
759.731	23101.89
760.068	23114.77
760.405	23062.8
760.743	22979.64
761.08	22961.56
761.417	22888.79
761.754	22849.7
762.091	22719.53
762.428	22711.17
762.765	22549.36
763.102	22604.73
763.438	22563.83
763.775	22515.47
764.112	22414
764.449	22479.31
764.785	22357.96
765.122	22102.82
765.458	22162.93
765.795	22052.65
766.131	22155.02
766.467	21973.11
766.804	21901.25
767.14	21783.06
767.476	21754.13
767.812	21678.43
768.148	21729.95
768.485	21535.83
768.821	21439.56
769.157	21409.51
769.492	21393.24
769.828	21392.56
770.164	21050.65
770.5	21085.67
770.836	21054.04
771.171	20951.89
771.507	20991.21
771.842	20744.44
772.178	20754.61
772.513	20685.91
772.849	20697.44
773.184	20561.17
773.519	20562.52
773.855	20433.04
774.19	20438.01
774.525	20266.26
774.86	20247.5
775.195	20249.99
775.53	20239.82
775.865	19999.15
776.2	19906.72
776.535	19826.95
776.87	19834.86
777.205	19685.49
777.539	19658.82
777.874	19702.89
778.209	19506.05
778.543	19414.08
778.878	19337.02
779.212	19312.16
779.547	19234.2
779.881	19299.73
780.215	19096.57
780.55	19156.23
780.884	18990.81
781.218	18839.86
781.552	18920.08
781.886	18898.84
782.22	18696.81
782.554	18681.22
782.888	18419.3
783.222	18462.24
783.556	18404.39
783.889	18283.71
784.223	18237.16
784.557	18219.99
784.89	18161.01
785.224	18177.28
785.557	17967.11
785.891	17948.81
786.224	17906.32
786.558	17833.33
786.891	17785.42
787.224	17679.89
787.557	17705.88
787.891	17613
788.224	17568.7
788.557	17539.1
788.89	17518.54
789.223	17424.53
789.556	17269.96
789.888	17263.18
790.221	17134.59
790.554	17098.89
790.887	17045.78
791.219	17072.67
791.552	17078.55
791.884	16983.18
792.217	16882.62
792.549	16799.01
792.882	16625.9
793.214	16530.54
793.546	16643.08
793.879	16495.51
794.211	16446.47
794.543	16505.91
794.875	16475.17
795.207	16430.66
795.539	16330.09
795.871	16437.66
796.203	16226.14
796.535	16089.2
796.867	16072.25
797.198	15990.67
797.53	16059.59
797.862	15803.78
798.193	16001.06
798.525	15779.6
798.856	15831.12
799.188	15635.2
799.519	15559.27
799.85	15582.77
800.182	15561.07
800.513	15537.8
800.844	15361.98
801.175	15408.31
801.506	15386.84
801.837	15237.92
802.168	15231.82
802.499	15236.34
802.83	15079.5
803.161	15120.63
803.491	15069.79
803.822	15120.63
804.153	15086.51
804.483	14935.78
804.814	14900.75
805.145	14844.93
805.475	14793.86
805.805	14772.39
806.136	14816.23
806.466	14742.56
806.796	14660.31
807.126	14630.48
807.457	14539.41
807.787	14610.59
808.117	14439.75
808.447	14458.05
808.777	14493.76
809.107	14395
809.436	14373.31
809.766	14325.17
810.096	14206.99
810.426	14182.35
810.755	14179.42
811.085	14186.42
811.414	14109.81
811.744	14022.58
812.073	13951.17
812.403	14079.98
812.732	13910.27
813.061	13909.37
813.39	13825.53
813.719	13759.09
814.049	13877.28
814.378	13804.06
814.707	13718.41
815.036	13683.38
815.365	13595.7
815.693	13534.69
816.022	13605.87
816.351	13517.51
816.68	13346.44
817.008	13507.57
817.337	13333.56
817.665	13289.95
817.994	13350.51
818.322	13337.4
818.651	13245.2
818.979	13238.65
819.307	13294.92
819.636	13246.78
819.964	13187.8
820.292	13284.52
820.62	13199.78
820.948	13202.27
821.276	13173.11
821.604	13144.41
821.932	13198.42
822.259	13221.93
822.587	13134.7
822.915	13044.08
823.243	13185.09
823.57	13095.38
823.898	13068.48
824.225	13054.93
824.553	13044.76
824.88	13105.32
825.207	13094.7
825.535	13020.12
825.862	13051.08
826.189	13059.9
826.516	13027.58
826.843	13093.34
827.17	13040.46
827.497	13019.45
827.824	13070.97
828.151	13080.46
828.478	12955.04
828.805	13093.34
829.131	12953.23
829.458	12934.93
829.785	12929.73
830.111	13030.07
830.438	13071.65
830.764	13061.93
831.09	13039.78
831.417	12931.76
831.743	13026.23
832.069	12951.88
832.395	12901.93
832.722	12968.15
833.048	12959.33
833.374	12932.22
833.7	12882.27
834.026	12849.73
834.351	12902.84
834.677	12871.2
835.003	12872.33
835.329	12829.85
835.654	12808.15
835.98	12745.78
836.306	12804.99
836.631	12801.82
836.956	12762.73
837.282	12772.22
837.607	12712.34
837.932	12671.66
838.258	12637.31
838.583	12680.25
838.908	12605.9
839.233	12616.52
839.558	12633.02
839.883	12550.08
840.208	12461.49
840.533	12501.04
840.858	12474.38
841.182	12447.48
841.507	12457.65
841.832	12400.93
842.156	12373.59
842.481	12364.77
842.805	12315.96
843.13	12246.13
843.454	12309.86
843.778	12267.83
844.103	12192.12
844.427	12179.92
844.751	12186.02
845.075	12101.28
845.399	12098.57
845.723	12028.29
846.047	12029.87
846.371	11971.34
846.695	11904.67
847.019	11832.81
847.343	11797.78
847.666	11744
847.99	11619.48
848.313	11651.8
848.637	11608.86
848.96	11589.65
849.284	11617.22
849.607	11489.77
849.931	11453.84
850.254	11352.6
850.577	11299.94
850.9	11237.57
851.223	11261.07
851.546	11179.72
851.869	11186.27
852.192	11210.68
852.515	10977.92
852.838	10963
853.161	11019.95
853.483	10949.22
853.806	10932.5
854.129	10857.69
854.451	10932.27
854.774	10767.53
855.096	10696.34
855.419	10727.53
855.741	10701.31
856.063	10709.9
856.385	10662.67
856.708	10641.43
857.03	10579.06
857.352	10593.97
857.674	10520.53
857.996	10452.51
858.318	10426.29
858.64	10436.91
858.961	10357.59
859.283	10331.83
859.605	10292.51
859.926	10347.88
860.248	10315.79
860.57	10231.95
860.891	10292.06
861.212	10143.14
861.534	10194.89
861.855	10096.13
862.176	10129.58
862.498	10110.6
862.819	10106.3
863.14	10077.6
863.461	10031.28
863.782	9990.15
864.103	10062.46
864.424	10029.24
864.745	10015.46
865.065	9946.53
865.386	9951.5
865.707	9943.37
866.027	9899.53
866.348	9908.12
866.668	9833.77
866.989	9898.4
867.309	9784.5
867.63	9758.51
867.95	9750.61
868.27	9726.43
868.59	9677.16
868.91	9737.5
869.23	9756.71
869.55	9723.04
869.87	9703.6
870.19	9712.41
870.51	9693.66
870.83	9687.56
871.15	9609.14
871.469	9590.16
871.789	9612.98
872.109	9619.08
872.428	9549.71
872.748	9610.5
873.067	9572.3
873.386	9499.99
873.706	9559.42
874.025	9468.13
874.344	9459.09
874.663	9521.46
874.982	9426.32
875.301	9471.29
875.62	9436.26
875.939	9400.11
876.258	9444.85
876.577	9316.72
876.896	9368.92
877.214	9317.85
877.533	9338.64
877.852	9275.59
878.17	9287.34
878.489	9261.35
878.807	9336.38
879.125	9247.34
879.444	9284.18
879.762	9217.29
880.08	9232.2
880.398	9182.26
880.716	9148.36
881.034	9211.86
881.352	9107.01
881.67	9112.66
881.988	9151.75
882.306	9096.39
882.624	9054.58
882.941	9009.61
883.259	8982.72
883.577	9004.41
883.894	8938.2
884.212	8933.68
884.529	8949.72
884.846	8922.15
885.164	8887.35
885.481	8841.02
885.798	8819.1
886.115	8771.65
886.432	8763.06
886.75	8806
887.067	8733.68
887.383	8703.85
887.7	8768.03
888.017	8691.88
888.334	8720.58
888.651	8675.15
888.967	8580.69
889.284	8625.21
889.6	8603.52
889.917	8453.01
890.233	8499.11
890.55	8493.01
890.866	8502.05
891.182	8406.01
891.498	8497.98
891.815	8394.71
892.131	8392.45
892.447	8290.3
892.763	8331.21
893.079	8305.9
893.395	8306.58
893.71	8290.53
894.026	8237.2
894.342	8289.17
894.657	8216.41
894.973	8146.58
895.289	8109.29
895.604	8185
895.92	8077.65
896.235	7995.4
896.55	8031.78
896.865	8047.6
897.181	7940.26
897.496	8061.61
897.811	7992.91
898.126	7838.11
898.441	7904.1
898.756	7892.12
899.071	7830.43
899.386	7808.51
899.7	7760.15
900.015	7711.34
900.33	7660.04
900.644	7612.58
900.959	7675.86
901.273	7676.54
901.588	7615.75
901.902	7538.69
902.216	7545.24
902.531	7490.33
902.845	7509.76
903.159	7429.54
903.473	7397.9
903.787	7443.77
904.101	7366.71
904.415	7393.38
904.729	7326.94
905.042	7253.72
905.356	7300.05
905.67	7270.44
905.984	7183.67
906.297	7202.42
906.611	7142.54
906.924	7089.88
907.237	7068.19
907.551	7091.69
907.864	6946.16
908.177	7040.62
908.491	7021.41
908.804	7015.76
909.117	6912.71
909.43	6894.18
909.743	6849.21
910.056	6837.01
910.368	6830.46
910.681	6804.92
910.994	6772.38
911.307	6780.06
911.619	6692.15
911.932	6716.33
912.244	6606.73
912.557	6631.82
912.869	6638.14
913.181	6611.48
913.494	6520.18
913.806	6533.06
914.118	6526.06
914.43	6452.61
914.742	6462.33
915.054	6401.77
915.366	6442.22
915.678	6421.2
915.99	6370.13
916.302	6275.89
916.613	6275.44
916.925	6299.85
917.236	6251.71
917.548	6222.34
917.859	6202.45
918.171	6189.57
918.482	6160.19
918.794	6136.91
919.105	6108.67
919.416	6099.63
919.727	6108.89
920.038	6030.93
920.349	5995.45
920.66	5949.12
920.971	5936.24
921.282	5993.87
921.593	5927.43
921.903	5875.23
922.214	5851.27
922.525	5849.46
922.835	5801.56
923.146	5754.55
923.456	5720.88
923.767	5749.35
924.077	5748.45
924.387	5658.06
924.697	5639.07
925.008	5674.78
925.318	5657.61
925.628	5637.04
925.938	5600.43
926.248	5548.91
926.558	5536.7
926.867	5492.41
927.177	5446.54
927.487	5479.08
927.796	5395.92
928.106	5411.74
928.416	5394.34
928.725	5393.43
929.034	5365.64
929.344	5326.31
929.653	5299.42
929.962	5187.34
930.271	5236.83
930.581	5189.37
930.89	5192.08
931.199	5209.03
931.508	5221.68
931.817	5152.08
932.125	5135.81
932.434	5105.76
932.743	5071.86
933.051	5037.51
933.36	5010.62
933.669	5025.08
933.977	4958.87
934.286	4954.35
934.594	4896.04
934.902	4915.7
935.21	4896.5
935.519	4902.82
935.827	4855.59
936.135	4844.52
936.443	4763.39
936.751	4768.14
937.059	4763.39
937.367	4752.32
937.674	4761.36
937.982	4806.1
938.29	4706.22
938.597	4678.65
938.905	4663.06
939.213	4619.89
939.52	4639.33
939.827	4596.84
940.135	4570.18
940.442	4550.29
940.749	4548.71
941.056	4578.31
941.363	4478.88
941.67	4491.53
941.977	4455.15
942.284	4433.91
942.591	4375.61
942.898	4416.28
943.205	4440.91
943.511	4394.81
943.818	4345.55
944.125	4346.45
944.431	4327.7
944.738	4317.53
945.044	4249.05
945.35	4266.23
945.657	4245.67
945.963	4195.72
946.269	4202.5
946.575	4176.51
946.881	4178.1
947.187	4111.66
947.493	4120.02
947.799	4154.14
948.105	4099.91
948.41	4108.72
948.716	4065.33
949.022	4066.23
949.327	4039.12
949.633	4031.21
949.938	4018.33
950.244	3972.23
950.549	3949.63
950.854	3957.54
951.16	3917.99
951.465	3892.45
951.77	3865.56
952.075	3913.7
952.38	3853.13
952.685	3887.48
952.99	3821.5
953.294	3813.36
953.599	3797.09
953.904	3741.5
954.209	3744.21
954.513	3769.52
954.818	3702.63
955.122	3710.76
955.426	3704.66
955.731	3688.39
956.035	3665.57
956.339	3647.26
956.643	3680.93
956.948	3595.06
957.252	3619.24
957.556	3607.94
957.86	3571.56
958.163	3530.2
958.467	3544.21
958.771	3537.89
959.075	3487.49
959.378	3462.86
959.682	3492.92
959.985	3492.01
960.289	3439.58
960.592	3452.24
960.896	3406.59
961.199	3417.44
961.502	3422.41
961.805	3383.54
962.108	3362.07
962.411	3372.02
962.714	3365.46
963.017	3340.6
963.32	3256.31
963.623	3263.77
963.926	3274.62
964.228	3270.32
964.531	3230.32
964.833	3233.49
965.136	3223.09
965.438	3228.74
965.741	3180.83
966.043	3189.2
966.345	3166.37
966.648	3157.56
966.95	3156.43
967.252	3105.58
967.554	3096.99
967.856	3100.16
968.158	3072.14
968.46	3087.5
968.761	3052.93
969.063	3040.27
969.365	3022.87
969.666	3064.23
969.968	2965.47
970.269	2976.77
970.571	3002.08
970.872	2966.38
971.174	2960.05
971.475	2959.6
971.776	2928.19
972.077	2918.24
972.378	2881.18
972.679	2891.8
972.98	2910.33
973.281	2846.83
973.582	2828.75
973.883	2877.57
974.183	2824.46
974.484	2803.44
974.785	2812.26
975.085	2782.88
975.386	2806.61
975.686	2752.82
975.986	2766.61
976.287	2743.11
976.587	2678.7
976.887	2744.01
977.187	2713.05
977.487	2720.51
977.787	2663.11
978.087	2679.83
978.387	2642.54
978.687	2594.18
978.987	2647.97
979.286	2656.1
979.586	2634.86
979.885	2603
980.185	2586.05
980.484	2613.17
980.784	2546.27
981.083	2556.9
981.382	2578.36
981.682	2562.77
981.981	2518.48
982.28	2521.87
982.579	2508.54
982.878	2513.73
983.177	2474.64
983.475	2467.86
983.774	2431.93
984.073	2432.83
984.372	2445.71
984.67	2466.28
984.969	2433.74
985.267	2404.81
985.566	2414.3
985.864	2425.37
986.162	2397.35
986.461	2344.25
986.759	2360.74
987.057	2334.08
987.355	2338.37
987.653	2334.75
987.951	2324.59
988.249	2284.59
988.547	2306.96
988.844	2266.73
989.142	2321.87
989.44	2252.95
989.737	2233.97
990.035	2208.88
990.332	2244.59
990.63	2221.31
990.927	2203.01
991.224	2203.01
991.521	2218.37
991.819	2201.88
992.116	2199.84
992.413	2144.93
992.71	2144.03
993.006	2128.88
993.303	2126.62
993.6	2109.45
993.897	2123.91
994.193	2140.86
994.49	2097.25
994.787	2072.39
995.083	2088.89
995.379	2065.61
995.676	2037.81
995.972	2047.76
996.268	2021.99
996.565	2011.37
996.861	1999.85
997.157	2052.05
997.453	1968.89
997.749	1979.74
998.044	1959.62
998.34	1942
998.636	1959.4
998.932	1958.27
999.227	1940.42
999.523	1937.7
999.818	1904.03
1000.114	1909.46
1000.409	1905.61
1000.704	1879.63
1001	1887.08
1001.295	1874.88
1001.59	1883.02
1001.885	1882.11
1002.18	1842.11
1002.475	1866.74
1002.77	1832.17
1003.065	1807.76
1003.359	1815.67
1003.654	1833.07
1003.949	1800.76
1004.243	1757.14
1004.538	1785.62
1004.832	1783.36
1005.127	1746.97
1005.421	1726.64
1005.715	1728.67
1006.009	1720.31
1006.304	1704.49
1006.598	1685.28
1006.892	1716.69
1007.186	1711.27
1007.48	1664.49
1007.773	1660.65
1008.067	1642.34
1008.361	1651.16
1008.655	1663.59
1008.948	1641.67
1009.242	1636.02
1009.535	1585.62
1009.829	1609.58
1010.122	1595.11
1010.415	1568.67
1010.708	1581.33
1011.001	1560.31
1011.295	1562.35
1011.588	1570.03
1011.881	1526.64
1012.173	1513.76
1012.466	1509.24
1012.759	1512.4
1013.052	1503.36
1013.344	1512.86
1013.637	1516.47
1013.93	1460.43
1014.222	1467.21
1014.514	1466.53
1014.807	1482.35
1015.099	1464.27
1015.391	1440.32
1015.683	1424.95
1015.976	1444.83
1016.268	1412.07
1016.56	1403.71
1016.851	1395.57
1017.143	1371.16
1017.435	1380.43
1017.727	1396.7
1018.018	1342.92
1018.31	1348.57
1018.602	1331.39
1018.893	1350.37
1019.185	1327.78
1019.476	1325.74
1019.767	1342.92
1020.058	1300.43
1020.35	1303.14
1020.641	1290.49
1020.932	1301.11
1021.223	1286.19
1021.514	1284.84
1021.804	1264.73
1022.095	1265.63
1022.386	1255.24
1022.677	1211.17
1022.967	1213.2
1023.258	1250.26
1023.548	1235.57
1023.839	1221.11
1024.129	1218.4
1024.419	1208.91
1024.709	1187.67
1025	1164.62
1025.29	1139.76
1025.58	1148.12
1025.87	1140.66
1026.16	1146.54
1026.449	1142.47
1026.739	1139.98
1027.029	1114.67
1027.319	1102.7
1027.608	1090.04
1027.898	1091.4
1028.187	1111.28
1028.477	1090.49
1028.766	1090.04
1029.055	1040.33
1029.344	1104.73
1029.634	1070.38
1029.923	1060.89
1030.212	1069.7
1030.501	1043.94
1030.79	1036.48
1031.078	1021.57
1031.367	1024.28
1031.656	977.28
1031.945	1005.07
1032.233	1016.6
1032.522	1034.22
1032.81	1011.85
1033.099	970.27
1033.387	960.78
1033.675	984.96
1033.963	971.63
1034.251	983.38
1034.54	973.21
1034.828	975.92
1035.116	956.03
1035.403	936.15
1035.691	947.67
1035.979	930.95
1036.267	942.7
1036.554	921.91
1036.842	904.28
1037.129	914
1037.417	902.93
1037.704	892.53
1037.992	909.03
1038.279	891.18
1038.566	894.11
1038.853	894.11
1039.14	894.11
