Data from hue_330_FLMS001491_77.txt Node
Date: Mon Feb 06 15:45:53 GMT 2017
User: dcchb
Spectrometer: FLMS00149
Trigger mode: 0
Integration Time (sec): 2.000000E-2
Scans to average: 10
Electric dark correction enabled: true
Nonlinearity correction enabled: false
Boxcar width: 0
XAxis mode: Wavelengths
Number of Pixels in Spectrum: 2048
>>>>>Begin Spectral Data<<<<<
341.393	-20.01
341.776	-20.01
342.16	-20.01
342.543	-78.09
342.927	-60.24
343.31	-75.83
343.693	-67.24
344.077	-50.52
344.46	-57.75
344.843	-43.29
345.226	-40.13
345.61	-36.74
345.993	-29.96
346.376	-0.58
346.759	8.01
347.142	26.76
347.525	37.61
347.908	60.66
348.291	64.73
348.674	95.46
349.057	108.8
349.44	122.36
349.823	144.5
350.206	165.74
350.588	178.63
350.971	214.56
351.354	245.97
351.737	249.81
352.119	244.16
352.502	262.01
352.884	283.93
353.267	273.09
353.65	273.99
354.032	301.79
354.414	309.92
354.797	317.6
355.179	313.31
355.562	316.7
355.944	341.56
356.326	350.6
356.709	329.58
357.091	341.78
357.473	332.07
357.855	328.9
358.238	335.68
358.62	328.23
359.002	339.75
359.384	333.65
359.766	338.4
360.148	331.62
360.53	333.42
360.912	349.69
361.294	329.36
361.676	317.38
362.057	328.9
362.439	331.16
362.821	310.83
363.203	334.78
363.584	322.12
363.966	333.2
364.348	320.99
364.729	318.51
365.111	309.47
365.493	334.78
365.874	315.57
366.256	311.73
366.637	313.99
367.019	287.32
367.4	326.42
367.781	309.02
368.163	315.34
368.544	311.5
368.925	313.99
369.306	337.72
369.688	312.41
370.069	312.18
370.45	342.24
370.831	330.94
371.212	318.51
371.593	312.41
371.974	319.64
372.355	311.73
372.736	309.47
373.117	310.6
373.498	336.59
373.879	313.08
374.26	324.84
374.641	316.93
375.021	300.66
375.402	316.7
375.783	323.48
376.163	320.09
376.544	338.62
376.925	308.79
377.305	339.52
377.686	339.75
378.066	321.45
378.447	313.31
378.827	337.72
379.208	331.39
379.588	323.71
379.968	326.87
380.349	330.94
380.729	344.04
381.109	358.28
381.489	337.27
381.87	338.62
382.25	331.84
382.63	333.42
383.01	341.11
383.39	335.68
383.77	328.68
384.15	347.89
384.53	349.47
384.91	364.16
385.29	356.47
385.67	337.72
386.049	365.96
386.429	346.76
386.809	363.48
387.189	344.27
387.568	355.34
387.948	353.08
388.328	352.18
388.707	354.89
389.087	373.42
389.466	348.79
389.846	355.34
390.225	351.73
390.605	386.76
390.984	346.98
391.363	351.5
391.743	365.96
392.122	371.39
392.501	378.39
392.881	371.84
393.26	388.56
393.639	370.26
394.018	369.35
394.397	382.91
394.776	367.32
395.155	382.01
395.534	383.82
395.913	391.5
396.292	379.3
396.671	402.57
397.05	386.98
397.429	375.68
397.808	371.39
398.186	398.73
398.565	406.42
398.944	397.83
399.323	398.96
399.701	396.7
400.08	397.38
400.458	412.74
400.837	411.61
401.215	413.2
401.594	415
401.972	424.95
402.351	418.39
402.729	403.93
403.107	407.09
403.486	428.56
403.864	417.72
404.242	396.7
404.62	415.91
404.999	439.64
405.377	430.82
405.755	447.54
406.133	435.34
406.511	443.03
406.889	442.57
407.267	436.02
407.645	448.22
408.023	457.71
408.401	443.93
408.779	432.86
409.156	446.64
409.534	464.72
409.912	468.34
410.29	479.41
410.667	472.63
411.045	506.53
411.422	490.26
411.8	512.85
412.178	501.55
412.555	508.11
412.933	502.68
413.31	525.96
413.687	514.66
414.065	538.39
414.442	540.88
414.819	538.39
415.197	556.92
415.574	545.85
415.951	559.41
416.328	556.69
416.705	553.98
417.082	580.87
417.46	567.09
417.837	578.61
418.214	603.7
418.591	615.9
418.967	605.51
419.344	621.78
419.721	604.38
420.098	627.88
420.475	615.68
420.852	638.5
421.228	626.3
421.605	634.21
421.982	638.95
422.358	647.31
422.735	677.14
423.111	647.54
423.488	672.62
423.864	683.47
424.241	692.74
424.617	696.8
424.994	673.53
425.37	704.49
425.746	694.77
426.123	711.72
426.499	720.76
426.875	723.24
427.251	742.45
427.627	747.65
428.003	756.46
428.379	754.2
428.756	770.93
429.132	765.05
429.507	788.1
429.883	772.06
430.259	816.35
430.635	827.87
431.011	799.17
431.387	797.37
431.763	845.73
432.138	838.49
432.514	842.11
432.89	854.54
433.265	855.22
433.641	875.1
434.016	883.47
434.392	887.08
434.767	903.58
435.143	892.73
435.518	940.64
435.894	949.45
436.269	940.41
436.644	921.2
437.02	946.29
437.395	951.94
437.77	964.59
438.145	999.62
438.52	979.28
438.895	1009.34
439.271	998.49
439.646	1003.91
440.021	1037.59
440.395	1024.7
440.77	989.45
441.145	1038.94
441.52	1011.6
441.895	1034.65
442.27	1047.75
442.645	1070.13
443.019	1058.15
443.394	1054.76
443.769	1078.71
444.143	1095.44
444.518	1085.95
444.892	1083.01
445.267	1089.79
445.641	1127.98
446.016	1093.4
446.39	1118.71
446.764	1122.56
447.139	1111.93
447.513	1148.77
447.887	1142.44
448.262	1121.2
448.636	1145.38
449.01	1130.01
449.384	1153.97
449.758	1154.87
450.132	1170.24
450.506	1175.89
450.88	1172.27
451.254	1183.8
451.628	1177.7
452.002	1190.12
452.376	1220.18
452.75	1202.33
453.123	1221.54
453.497	1231.93
453.871	1243
454.244	1247.52
454.618	1244.81
454.992	1270.57
455.365	1272.38
455.739	1292.04
456.112	1304.47
456.486	1292.04
456.859	1320.97
457.232	1316
457.606	1331.82
457.979	1332.04
458.352	1364.58
458.725	1372.49
459.099	1374.75
459.472	1374.98
459.845	1391.7
460.218	1406.39
460.591	1427.18
460.964	1442.09
461.337	1460.63
461.71	1468.08
462.083	1477.12
462.456	1481.42
462.829	1501.3
463.201	1485.71
463.574	1509.66
463.947	1517.57
464.32	1548.98
464.692	1602.09
465.065	1583.79
465.438	1585.82
465.81	1597.35
466.183	1624.24
466.555	1641.41
466.928	1639.83
467.3	1645.48
467.672	1680.05
468.045	1676.21
468.417	1727.06
468.789	1680.73
469.161	1739.04
469.534	1747.4
469.906	1794.18
470.278	1763.89
470.65	1795.31
471.022	1848.41
471.394	1859.94
471.766	1907.17
472.138	1894.29
472.51	1921.86
472.882	1950.56
473.253	1933.38
473.625	2002.98
473.997	2007.5
474.369	2015.19
474.74	2072.81
475.112	2046.6
475.484	2099.93
475.855	2125.92
476.227	2128.63
476.598	2200.04
476.97	2204.56
477.341	2202.98
477.713	2273.94
478.084	2292.02
478.455	2328.17
478.827	2312.81
479.198	2362.07
479.569	2389.41
479.94	2454.05
480.311	2466.7
480.682	2514.84
481.053	2554.61
481.424	2623.53
481.795	2589.64
482.166	2655.4
482.537	2666.24
482.908	2718.9
483.279	2720.25
483.65	2816.52
484.021	2865.79
484.391	2835.5
484.762	2863.53
485.133	2905.33
485.503	2955.73
485.874	2979.68
486.244	3007.7
486.615	3039.57
486.985	3073.01
487.356	3137.19
487.726	3149.17
488.097	3190.3
488.467	3240.47
488.837	3263.97
489.207	3305.55
489.578	3367.24
489.948	3341.25
490.318	3388.48
490.688	3461.93
491.058	3471.65
491.428	3489.95
491.798	3548.25
492.168	3567.91
492.538	3607.69
492.908	3596.39
493.278	3661.7
493.648	3697.18
494.017	3743.73
494.387	3743.05
494.757	3786.89
495.126	3815.82
495.496	3817.63
495.866	3833.44
496.235	3870.51
496.605	3894.01
496.974	3868.92
497.344	3914.12
497.713	3968.13
498.082	4048.81
498.452	4037.73
498.821	4047.68
499.19	4029.15
499.559	4088.8
499.928	4114.34
500.298	4114.79
500.667	4156.15
501.036	4123.61
501.405	4242.93
501.774	4187.11
502.143	4205.64
502.512	4220.1
502.88	4228.01
503.249	4230.27
503.618	4278.86
503.987	4253.55
504.356	4334.45
504.724	4314.11
505.093	4369.02
505.462	4359.53
505.83	4424.84
506.199	4398.63
506.567	4454.9
506.936	4460.55
507.304	4484.73
507.672	4534.67
508.041	4546.19
508.409	4508.23
508.777	4549.13
509.145	4560.66
509.514	4584.16
509.882	4570.15
510.25	4586.42
510.618	4639.3
510.986	4664.61
511.354	4703.48
511.722	4698.73
512.09	4710.71
512.458	4692.63
512.826	4757.04
513.193	4774.44
513.561	4746.41
513.929	4776.02
514.297	4811.05
514.664	4825.28
515.032	4828.45
515.4	4861.67
515.767	4881.1
516.135	4896.92
516.502	4896.24
516.869	4898.95
517.237	4926.97
517.604	4902.12
517.972	4947.09
518.339	4959.97
518.706	4948.67
519.073	4998.84
519.44	4983.02
519.808	5041.1
520.175	4994.32
520.542	5101.89
520.909	5093.75
521.276	5087.42
521.643	5084.71
522.009	5114.99
522.376	5192.28
522.743	5167.19
523.11	5224.37
523.477	5233.86
523.843	5257.59
524.21	5319.51
524.577	5374.19
524.943	5336.68
525.31	5351.14
525.676	5411.93
526.043	5459.16
526.409	5428.2
526.776	5464.81
527.142	5524.7
527.508	5499.62
527.874	5592.95
528.241	5571.93
528.607	5594.08
528.973	5611.02
529.339	5632.95
529.705	5690.34
530.071	5686.28
530.437	5770.79
530.803	5766.5
531.169	5775.77
531.535	5779.83
531.901	5829.55
532.267	5835.2
532.632	5915.65
532.998	5912.26
533.364	5936.67
533.73	5986.16
534.095	6017.57
534.461	5989.32
534.826	6045.59
535.192	6042.88
535.557	6089.43
535.923	6159.26
536.288	6169.2
536.653	6154.51
537.019	6139.15
537.384	6194.29
537.749	6185.25
538.114	6232.93
538.479	6265.24
538.845	6289.43
539.21	6295.53
539.575	6298.24
539.94	6344.56
540.305	6378.01
540.67	6406.94
541.034	6374.62
541.399	6378.01
541.764	6471.79
542.129	6500.27
542.494	6516.31
542.858	6524
543.223	6618.68
543.587	6656.87
543.952	6617.1
544.316	6631.11
544.681	6648.06
545.045	6713.82
545.41	6734.61
545.774	6733.03
546.138	6792.91
546.503	6864.1
546.867	6820.94
547.231	6927.15
547.595	6893.93
547.959	6920.14
548.324	6931.67
548.688	6965.11
549.052	6976.41
549.416	7004.66
549.779	7038.78
550.143	7037.65
550.507	7075.17
550.871	7136.86
551.235	7076.97
551.599	7188.16
551.962	7113.58
552.326	7173.47
552.689	7186.12
553.053	7232.9
553.417	7210.3
553.78	7286.23
554.143	7273.58
554.507	7346.12
554.87	7321.71
555.234	7386.12
555.597	7362.62
555.96	7376.85
556.323	7433.12
556.686	7469.06
557.05	7539.11
557.413	7504.76
557.776	7520.81
558.139	7538.21
558.502	7569.17
558.865	7590.41
559.228	7641.03
559.59	7652.33
559.953	7693.23
560.316	7724.42
560.679	7698.2
561.041	7798.31
561.404	7834.7
561.767	7860.91
562.129	7849.84
562.492	7847.35
562.854	7867.69
563.217	7927.12
563.579	7904.3
563.941	7944.3
564.304	8002.6
564.666	8069.27
565.028	8036.5
565.39	8084.63
565.753	8075.14
566.115	8123.28
566.477	8146.55
566.839	8257.51
567.201	8227
567.563	8191.97
567.925	8255.02
568.287	8256.38
568.648	8262.71
569.01	8395.58
569.372	8470.84
569.734	8434.23
570.095	8443.27
570.457	8495.24
570.819	8481.23
571.18	8570.27
571.542	8593.32
571.903	8637.84
572.265	8706.31
572.626	8727.1
572.987	8723.49
573.349	8850.71
573.71	8850.49
574.071	8883.48
574.432	9028.11
574.794	9083.48
575.155	9101.1
575.516	9111.95
575.877	9200.08
576.238	9270.82
576.599	9329.8
576.96	9413.18
577.32	9469.91
577.681	9632.16
578.042	9699.5
578.403	9703.35
578.763	9813.63
579.124	9935.66
579.485	10085.26
579.845	10198.02
580.206	10285.93
580.566	10358.7
580.927	10492.25
581.287	10707.84
581.648	10770.44
582.008	10900.15
582.368	11054.05
582.728	11229.86
583.089	11385.79
583.449	11508.27
583.809	11697.42
584.169	11907.81
584.529	12049.5
584.889	12353.9
585.249	12517.96
585.609	12664.62
585.969	12908.01
586.329	13055.35
586.688	13289.92
587.048	13543.02
587.408	13702.34
587.768	14025.72
588.127	14143
588.487	14467.52
588.846	14675.42
589.206	14883.55
589.565	15239.92
589.925	15440.82
590.284	15587.94
590.643	15906.35
591.003	16237.19
591.362	16476.95
591.721	16780.45
592.08	17083.49
592.44	17437.15
592.799	17704.27
593.158	17857.26
593.517	18169.11
593.876	18521.65
594.235	18793.28
594.593	19000.5
594.952	19334.73
595.311	19556.42
595.67	19911.44
596.029	20366.34
596.387	20673.45
596.746	20801.59
597.104	21112.09
597.463	21362.25
597.822	21701.9
598.18	21959.97
598.538	22226.63
598.897	22597.92
599.255	22708.2
599.613	23258.24
599.972	23441.97
600.33	23826.59
600.688	23895.06
601.046	24276.97
601.404	24691.2
601.762	24853.46
602.12	25183.17
602.478	25469.03
602.836	25694.79
603.194	25894.33
603.552	26092.75
603.91	26230.14
604.268	26597.14
604.625	26813.63
604.983	27181.31
605.341	27252.72
605.698	27643.67
606.056	27847.95
606.413	28030.77
606.771	28356.19
607.128	28487.71
607.485	28718.67
607.843	28932.45
608.2	29317.07
608.557	29465.09
608.914	29670.05
609.272	29940.55
609.629	30117.05
609.986	30575.57
610.343	30412.41
610.7	30892.62
611.057	31101.43
611.414	31196.57
611.771	31416
612.127	31690.11
612.484	31854.18
612.841	32137.78
613.198	32155.41
613.554	32383.65
613.911	32699.35
614.267	32706.36
614.624	32981.15
614.98	33006.91
615.337	33355.15
615.693	33512.89
616.05	33464.98
616.406	33886.44
616.762	33861.36
617.118	34031.07
617.475	34100.22
617.831	34369.14
618.187	34475.58
618.543	34608.45
618.899	34894.32
619.255	34898.16
619.611	34992.63
619.967	35215.67
620.323	35402.56
620.678	35225.84
621.034	35298.83
621.39	35375.21
621.746	35505.83
622.101	36092.71
622.457	35782.21
622.812	35985.82
623.168	36057.68
623.523	36142.2
623.879	36283.21
624.234	36172.93
624.589	36529.76
624.945	36578.35
625.3	36754.39
625.655	36738.34
626.01	36785.8
626.365	36934.95
626.72	36929.75
627.075	36964.1
627.43	37101.95
627.785	36969.97
628.14	37161.61
628.495	37355.95
628.85	37300.36
629.205	37193.02
629.559	37362.05
629.914	37265.79
630.269	37483.18
630.623	37423.3
630.978	37348.5
631.332	37471.88
631.687	37644.76
632.041	37459.45
632.396	37567.25
632.75	37554.82
633.104	37593.91
633.459	37470.98
633.813	37499.68
634.167	37586.23
634.521	37619.22
634.875	37689.28
635.229	37715.94
635.583	37664.19
635.937	37543.07
636.291	37573.35
636.645	37585.55
636.999	37517.53
637.352	37704.19
637.706	37662.16
638.06	37713.46
638.413	37555.04
638.767	37542.61
639.121	37666.91
639.474	37522.73
639.828	37454.26
640.181	37640.69
640.534	37640.24
640.888	37522.95
641.241	37444.99
641.594	37512.78
641.947	37699.9
642.301	37452.67
642.654	37548.26
643.007	37642.05
643.36	37466.46
643.713	37513.01
644.066	37658.09
644.419	37230.31
644.771	37202.06
645.124	36850.43
645.477	36823.76
645.83	36639.36
646.182	36581.74
646.535	36381.74
646.888	36540.16
647.24	36363.66
647.593	36512.36
647.945	36398.24
648.298	36404.57
648.65	36362.98
649.002	36248.19
649.355	36317.34
649.707	36284.12
650.059	36485.92
650.411	36877.55
650.763	36875.97
651.115	37300.59
651.467	37152.12
651.819	37191.21
652.171	37095.85
652.523	37134.94
652.875	37013.81
653.227	36933.14
653.578	37148.95
653.93	37135.17
654.282	36981.27
654.633	36893.82
654.985	36945.34
655.337	36969.07
655.688	36903.54
656.039	37036.19
656.391	36671.9
656.742	36895.85
657.094	36799.58
657.445	36956.19
657.796	36777.89
658.147	36943.99
658.498	36728.85
658.849	37006.81
659.2	36833.25
659.551	36749.19
659.902	36884.1
660.253	36838.9
660.604	36759.13
660.955	36775.18
661.306	36809.07
661.656	36761.84
662.007	36806.59
662.358	36769.98
662.708	36670.32
663.059	36705.57
663.409	36530.44
663.76	36941.05
664.11	36888.39
664.461	36925.23
664.811	36685.01
665.161	36721.39
665.511	36712.81
665.862	36727.95
666.212	36845.68
666.562	36854.05
666.912	36595.75
667.262	36729.53
667.612	36713.94
667.962	36780.83
668.312	36640.49
668.662	36734.05
669.011	36713.26
669.361	36801.39
669.711	36555.3
670.06	36517.78
670.41	36659.25
670.76	36362.76
671.109	36626.48
671.459	36539.25
671.808	36527.27
672.157	36656.99
672.507	36439.59
672.856	36492.47
673.205	36467.39
673.554	36517.1
673.904	36319.14
674.253	36614.05
674.602	36502.42
674.951	36060.17
675.3	35761.87
675.649	36480.27
675.998	36298.35
676.346	36329.31
676.695	36494.28
677.044	36172.71
677.393	36337.45
677.741	36399.82
678.09	36202.76
678.438	36132.48
678.787	36166.61
679.135	36220.39
679.484	35863.11
679.832	36171.13
680.181	35833.05
680.529	36192.14
680.877	35923.45
681.225	35972.71
681.573	36141.3
681.922	35838.93
682.27	35798.71
682.618	35902.88
682.966	35595.32
683.314	35794.41
683.661	35627.18
684.009	35516.68
684.357	35299.96
684.705	35387.19
685.053	35416.57
685.4	35318.94
685.748	35188.55
686.095	35190.81
686.443	34996.69
686.79	35081.21
687.138	35118.72
687.485	35052.74
687.832	34960.99
688.18	35012.51
688.527	34852.97
688.874	34734.55
689.221	34737.04
689.568	34492.75
689.915	34552.41
690.262	34615.91
690.609	34425.86
690.956	34363.26
691.303	34329.59
691.65	34155.58
691.997	34116.26
692.344	34035.81
692.69	33919.43
693.037	34053.89
693.383	33729.16
693.73	33921.69
694.077	33728.48
694.423	33678.99
694.769	33697.52
695.116	33523.29
695.462	33408.03
695.808	33315.83
696.155	33366
696.501	33090.75
696.847	33042.62
697.193	32900.02
697.539	32946.58
697.885	32849.4
698.231	32579.58
698.577	32681.5
698.923	32693.25
699.269	32467.95
699.614	32409.87
699.96	32358.57
700.306	32411.68
700.651	32255.07
700.997	32152.7
701.342	32097.33
701.688	32102.31
702.033	31864.57
702.379	31976.21
702.724	31863.67
703.069	31842.65
703.415	31492.38
703.76	31478.14
704.105	31636.78
704.45	31320.18
704.795	31310.01
705.14	31049.68
705.485	31140.3
705.83	31135.1
706.175	31183.23
706.52	30951.38
706.865	30896.46
707.209	30844.03
707.554	30785.5
707.899	30982.56
708.243	30673.42
708.588	30574.89
708.932	30389.58
709.277	30359.07
709.621	30525.62
709.966	30242.02
710.31	30304.39
710.654	29905.53
710.998	30120.21
711.342	30116.37
711.687	30010.38
712.031	29969.93
712.375	29817.17
712.719	29832.08
713.063	29823.95
713.407	29894.91
713.75	29663.27
714.094	29715.02
714.438	29606.1
714.782	29614.91
715.125	29280.68
715.469	29459.89
715.812	29284.98
716.156	29125.66
716.499	29104.42
716.843	29182.83
717.186	29055.15
717.53	29171.99
717.873	29128.82
718.216	29074.59
718.559	28969.96
718.902	28752.34
719.246	28774.94
719.589	28689.74
719.932	28620.36
720.275	28685.22
720.617	28590.08
720.96	28590.08
721.303	28467.82
721.646	28662.4
721.989	28386.7
722.331	28425.11
722.674	28241.16
723.016	28353.03
723.359	28302.63
723.701	28287.72
724.044	28107.61
724.386	27917.56
724.729	28113.71
725.071	27919.59
725.413	28011.34
725.755	28044.56
726.097	27801.4
726.439	27730.44
726.782	27710.1
727.124	27916.65
727.465	27684.79
727.807	27719.37
728.149	27459.04
728.491	27512.14
728.833	27559.6
729.175	27492.71
729.516	27376.55
729.858	27376.33
730.199	27354.41
730.541	27299.04
730.882	27270.79
731.224	27341.3
731.565	27244.13
731.906	27229.21
732.248	27118.48
732.589	27012.72
732.93	26725.95
733.271	26937.7
733.612	26883.69
733.953	27013.4
734.294	26818.83
734.635	26845.04
734.976	26911.48
735.317	26821.31
735.658	26659.51
735.999	26633.97
736.339	26573.19
736.68	26790.13
737.021	26615.44
737.361	26497.26
737.702	26676.46
738.042	26518.05
738.383	26441.66
738.723	26556.24
739.063	26407.77
739.404	26400.31
739.744	26296.36
740.084	26224.95
740.424	26177.26
740.764	26181.56
741.104	26311.95
741.444	26196.47
741.784	25942.47
742.124	26108.11
742.464	26014.1
742.804	25897.5
743.143	25971.62
743.483	25915.8
743.823	25848.46
744.162	25777.95
744.502	25811.4
744.841	25674.45
745.181	25907.89
745.52	25634.91
745.86	25617.5
746.199	25527.11
746.538	25651.4
746.877	25604.17
747.216	25508.58
747.556	25496.6
747.895	25520.56
748.234	25331.41
748.573	25281.02
748.911	25234.46
749.25	25274.91
749.589	25119.89
749.928	25124.18
750.267	25188.36
750.605	25045.77
750.944	24965.09
751.283	25018.88
751.621	24975.04
751.96	24829.28
752.298	24905.21
752.636	24790.63
752.975	24615.27
753.313	24631.77
753.651	24727.81
753.989	24597.64
754.327	24629.28
754.666	24390.42
755.004	24410.08
755.342	24474.03
755.679	24362.85
756.017	24313.13
756.355	24299.12
756.693	24196.98
757.031	24198.56
757.368	23950.2
757.706	24039.92
758.044	23936.64
758.381	23942.07
758.719	23850.77
759.056	23802.64
759.394	23848.74
759.731	23618.23
760.068	23638.35
760.405	23569.42
760.743	23409.65
761.08	23546.15
761.417	23298.02
761.754	23272.03
762.091	23276.55
762.428	23171.02
762.765	22969.21
763.102	23082.43
763.438	22974.18
763.775	22864.13
764.112	22807.18
764.449	22882.89
764.785	22763.34
765.122	22646.51
765.458	22549.79
765.795	22511.15
766.131	22453.97
766.467	22382.56
766.804	22328.33
767.14	22082.46
767.476	22135.34
767.812	22092.17
768.148	21964.49
768.485	21886.08
768.821	21782.8
769.157	21813.99
769.492	21729.47
769.828	21800.2
770.164	21516.37
770.5	21473.66
770.836	21499.42
771.171	21307.79
771.507	21229.82
771.842	21101.01
772.178	21116.83
772.513	21098.08
772.849	21063.05
773.184	20945.08
773.519	20889.04
773.855	20811.3
774.19	20645.66
774.525	20567.24
774.86	20619.22
775.195	20523.18
775.53	20473.23
775.865	20329.73
776.2	20276.85
776.535	20086.35
776.87	20129.97
777.205	20032.34
777.539	19878.67
777.874	20006.8
778.209	19724.55
778.543	19756.64
778.878	19654.95
779.212	19597.1
779.547	19522.52
779.881	19572.69
780.215	19434.62
780.55	19395.75
780.884	19287.95
781.218	19102.42
781.552	19267.16
781.886	19076.66
782.22	18965.93
782.554	18919.83
782.888	18777.91
783.222	18732.94
783.556	18641.42
783.889	18664.92
784.223	18539.27
784.557	18447.52
784.89	18499.73
785.224	18323.46
785.557	18277.58
785.891	18223.35
786.224	18239.85
786.558	18277.58
786.891	17956.69
787.224	17944.03
787.557	17869.23
787.891	17871.49
788.224	17807.54
788.557	17816.13
788.89	17744.49
789.223	17690.71
789.556	17570.71
789.888	17499.53
790.221	17385.4
790.554	17361.22
790.887	17306.76
791.219	17260.66
791.552	17218.4
791.884	17041.01
792.217	17090.5
792.549	17081.46
792.882	16992.19
793.214	16828.36
793.546	16860.22
793.879	16824.52
794.211	16692.09
794.543	16645.76
794.875	16596.5
795.207	16615.03
795.539	16576.39
795.871	16483.96
796.203	16377.97
796.535	16376.84
796.867	16344.53
797.198	16268.6
797.53	16278.77
797.862	16136.85
798.193	16137.75
798.525	16001.49
798.856	16006.01
799.188	15883.07
799.519	15724.21
799.85	15761.94
800.182	15824.32
800.513	15692.34
800.844	15556.07
801.175	15636.75
801.506	15589.97
801.837	15434.04
802.168	15490.09
802.499	15511.78
802.83	15328.28
803.161	15329.41
803.491	15306.59
803.822	15351.33
804.153	15207.16
804.483	15080.83
804.814	15043.32
805.145	15132.58
805.475	15001.51
805.805	14956.77
806.136	14915.64
806.466	14962.19
806.796	14874.51
807.126	14737.79
807.457	14846.26
807.787	14729.43
808.117	14702.76
808.447	14590.9
808.777	14665.7
809.107	14568.76
809.436	14558.59
809.766	14630.22
810.096	14403.34
810.426	14438.36
810.755	14447.18
811.085	14369.89
811.414	14304.58
811.744	14176.22
812.073	14192.95
812.403	14160.18
812.732	14107.07
813.061	14069.11
813.39	14110.01
813.719	13977.58
814.049	14104.13
814.378	13979.17
814.707	13949.79
815.036	13911.15
815.365	13890.13
815.693	13775.1
816.022	13743.47
816.351	13637.93
816.68	13629.35
817.008	13641.1
817.337	13479.07
817.665	13527.88
817.994	13567.2
818.322	13525.17
818.651	13442.91
818.979	13481.55
819.307	13523.13
819.636	13465.73
819.964	13391.84
820.292	13427.54
820.62	13346.19
820.948	13294.44
821.276	13379.41
821.604	13333.31
821.932	13312.52
822.259	13342.12
822.587	13288.79
822.915	13273.2
823.243	13313.2
823.57	13168.57
823.898	13295.34
824.225	13271.39
824.553	13166.98
824.88	13250.15
825.207	13233.42
825.535	13241.33
825.862	13253.08
826.189	13105.52
826.516	13317.49
826.843	13243.82
827.17	13140.77
827.497	13304.38
827.824	13230.26
828.151	13244.27
828.478	13232.52
828.805	13241.56
829.131	13173.99
829.458	13173.76
829.785	13184.61
830.111	13166.31
830.438	13225.06
830.764	13103.48
831.09	13153.2
831.417	13111.39
831.743	13199.07
832.069	13206.08
832.395	13132.86
832.722	13186.42
833.048	13088.34
833.374	13161.79
833.7	13067.1
834.026	13129.47
834.351	13059.19
834.677	13112.97
835.003	13070.49
835.329	13024.84
835.654	13000.89
835.98	12901.45
836.306	13013.77
836.631	12986.88
836.956	12890.16
837.282	12928.57
837.607	12916.14
837.932	12866.43
838.258	12827.78
838.583	12837.5
838.908	12666.21
839.233	12754.57
839.558	12749.37
839.883	12668.24
840.208	12731.74
840.533	12618.52
840.858	12642.48
841.182	12575.59
841.507	12625.76
841.832	12560.45
842.156	12564.51
842.481	12467.12
842.805	12531.29
843.13	12440.45
843.454	12426.66
843.778	12360
844.103	12343.28
844.427	12361.13
844.751	12330.4
845.075	12372.88
845.399	12254.69
845.723	12165.65
846.047	12206.78
846.371	12134.92
846.695	12165.2
847.019	12047.01
847.343	12004.08
847.666	11919.56
847.99	11896.74
848.313	11917.3
848.637	11790.52
848.96	11763.63
849.284	11674.59
849.607	11624.2
849.931	11640.24
850.254	11543.07
850.577	11422.4
850.9	11439.8
851.223	11389.18
851.546	11277.54
851.869	11296.3
852.192	11283.19
852.515	11221.27
852.838	11182.4
853.161	11121.39
853.483	11154.16
853.806	11011.33
854.129	10996.19
854.451	10945.57
854.774	10986.25
855.096	10903.99
855.419	10911.9
855.741	10822.64
856.063	10827.61
856.385	10775.86
856.708	10717.11
857.03	10712.59
857.352	10769.08
857.674	10693.83
857.996	10583.55
858.318	10547.39
858.64	10571.35
858.961	10576.32
859.283	10528.41
859.605	10447.06
859.926	10464.46
860.248	10377.68
860.57	10348.98
860.891	10427.62
861.212	10355.98
861.534	10337.23
861.855	10320.51
862.176	10318.47
862.498	10262.65
862.819	10303.1
863.14	10284.57
863.461	10219.04
863.782	10120.74
864.103	10192.6
864.424	10143.56
864.745	10135.65
865.065	10064.69
865.386	10061.08
865.707	10056.33
866.027	10045.48
866.348	10040.51
866.668	9986.28
866.989	10034.41
867.309	9868.99
867.63	9948.31
867.95	9884.36
868.27	9930.69
868.59	9833.06
868.91	9890.46
869.23	9847.52
869.55	9796
869.87	9872.61
870.19	9798.26
870.51	9802.55
870.83	9848.2
871.15	9690.92
871.469	9712.84
871.789	9739.05
872.109	9759.39
872.428	9714.87
872.748	9708.09
873.067	9694.53
873.386	9665.16
873.706	9650.01
874.025	9633.97
874.344	9657.02
874.663	9570.92
874.982	9528.44
875.301	9605.5
875.62	9551.49
875.939	9525.5
876.258	9537.02
876.577	9503.58
876.896	9490.7
877.214	9464.26
877.533	9426.07
877.852	9445.27
878.17	9449.57
878.489	9398.04
878.807	9393.98
879.125	9387.65
879.444	9339.29
879.762	9333.86
880.08	9344.26
880.398	9271.72
880.716	9398.04
881.034	9267.2
881.352	9273.98
881.67	9193.53
881.988	9201.89
882.306	9188.56
882.624	9190.37
882.941	9088.9
883.259	9125.51
883.577	9118.96
883.894	9088.22
884.212	9057.94
884.529	9028.79
884.846	9026.98
885.164	9025.17
885.481	8945.85
885.798	8925.29
886.115	8988.79
886.432	8885.29
886.75	8881.22
887.067	8906.08
887.383	8797.83
887.7	8833.31
888.017	8781.11
888.334	8860.43
888.651	8792.86
888.967	8736.37
889.284	8718.97
889.6	8669.25
889.917	8676.03
890.233	8655.92
890.55	8573.43
890.866	8664.5
891.182	8612.98
891.498	8532.98
891.815	8495.02
892.131	8517.62
892.447	8486.43
892.763	8442.81
893.079	8417.28
893.395	8387.67
893.71	8380.67
894.026	8333.89
894.342	8298.41
894.657	8263.84
894.973	8227
895.289	8290.73
895.604	8234.23
895.92	8189.71
896.235	8116.5
896.55	8161.01
896.865	8164.63
897.181	8113.56
897.496	8079.43
897.811	8033.11
898.126	8017.97
898.441	7955.37
898.756	7956.05
899.071	7934.35
899.386	7953.79
899.7	7839.21
900.015	7836.73
900.33	7766.9
900.644	7767.8
900.959	7843.73
901.273	7763.74
901.588	7686
901.902	7655.26
902.216	7626.11
902.531	7596.06
902.845	7590.63
903.159	7562.16
903.473	7545.66
903.787	7492.56
904.101	7436.06
904.415	7472.67
904.729	7384.76
905.042	7377.31
905.356	7343.41
905.67	7361.04
905.984	7349.51
906.297	7296.4
906.611	7243.98
906.924	7218.89
907.237	7158.55
907.551	7169.18
907.864	7138.22
908.177	7098.22
908.491	7112.68
908.804	7057.54
909.117	7007.15
909.43	6971.67
909.743	6972.12
910.056	6943.87
910.368	6881.05
910.681	6867.26
910.994	6847.38
911.307	6882.4
911.619	6786.59
911.932	6798.56
912.244	6799.47
912.557	6763.54
912.869	6686.7
913.181	6667.95
913.494	6658.91
913.806	6614.61
914.118	6603.32
914.43	6559.25
914.742	6537.1
915.054	6511.34
915.366	6474.96
915.678	6457.1
915.99	6489.19
916.302	6368.74
916.613	6344.79
916.925	6383.66
917.236	6326.94
917.548	6282.42
917.859	6303.89
918.171	6266.6
918.482	6200.39
918.794	6211.91
919.105	6197.22
919.416	6145.02
919.727	6110.45
920.038	6139.15
920.349	6078.81
920.66	6048.08
920.971	6036.55
921.282	5981.64
921.593	5980.28
921.903	5995.65
922.214	5963.56
922.525	5895.09
922.835	5881.53
923.146	5845.37
923.456	5834.75
923.767	5786.39
924.077	5812.6
924.387	5818.7
924.697	5724.02
925.008	5739.38
925.318	5721.76
925.628	5686.05
925.938	5640.4
926.248	5611.48
926.558	5616.45
926.867	5548.65
927.177	5571.25
927.487	5487.86
927.796	5486.51
928.106	5433.18
928.416	5417.36
928.725	5473.18
929.034	5432.27
929.344	5414.42
929.653	5396.79
929.962	5325.38
930.271	5312.28
930.581	5287.87
930.89	5261.2
931.199	5211.49
931.508	5235.22
931.817	5233.41
932.125	5215.55
932.434	5179.62
932.743	5129.46
933.051	5063.92
933.36	5067.08
933.669	5050.81
933.977	5053.98
934.286	5045.62
934.594	5043.36
934.902	4929.01
935.21	4949.57
935.519	4931.27
935.827	4963.13
936.135	4866.64
936.443	4872.29
936.751	4822.34
937.059	4858.73
937.367	4856.47
937.674	4799.07
937.982	4749.8
938.29	4794.78
938.597	4793.42
938.905	4737.6
939.213	4705.96
939.52	4686.08
939.827	4678.17
940.135	4648.11
940.442	4618.28
940.749	4563.14
941.056	4587.77
941.363	4565.18
941.67	4541.22
941.977	4468.91
942.284	4493.54
942.591	4487.89
942.898	4454.45
943.205	4464.84
943.511	4444.5
943.818	4446.31
944.125	4393.66
944.431	4376.25
944.738	4368.8
945.044	4327.44
945.35	4325.18
945.657	4263.49
945.963	4288.12
946.269	4246.54
946.575	4253.32
946.881	4207.9
947.187	4194.34
947.493	4178.75
947.799	4186.88
948.105	4148.92
948.41	4122.7
948.716	4131.52
949.022	4093.78
949.327	4066.88
949.633	4041.57
949.938	4036.38
950.244	4071.4
950.549	3993.21
950.854	3988.92
951.16	3994.57
951.465	3958.64
951.77	3964.06
952.075	3980.56
952.38	3918.64
952.685	3912.31
952.99	3890.62
953.294	3905.31
953.599	3810.85
953.904	3837.51
954.209	3807.46
954.513	3798.19
954.818	3776.5
955.122	3722.49
955.426	3750.73
955.731	3727.91
956.035	3705.09
956.339	3706.67
956.643	3677.29
956.948	3672.32
957.252	3675.93
957.556	3613.56
957.86	3620.79
958.163	3622.38
958.467	3602.26
958.771	3578.31
959.075	3594.81
959.378	3525.66
959.682	3551.19
959.985	3524.75
960.289	3536.05
960.592	3471.87
960.896	3469.61
961.199	3466.67
961.502	3455.38
961.805	3405.66
962.108	3408.37
962.411	3388.71
962.714	3386.9
963.017	3382.38
963.32	3387.13
963.623	3398.65
963.926	3334.7
964.228	3327.02
964.531	3299.9
964.833	3266.68
965.136	3251.99
965.438	3231.2
965.741	3222.16
966.043	3194.82
966.345	3181.94
966.648	3172.44
966.95	3207.7
967.252	3155.5
967.554	3146.23
967.856	3132.45
968.158	3103.52
968.46	3068.27
968.761	3124.08
969.063	3038.89
969.365	3025.33
969.666	3048.38
969.968	3035.27
970.269	3020.58
970.571	3027.14
970.872	2991.66
971.174	3027.14
971.475	2986.01
971.776	2944.2
972.077	2943.75
972.378	2927.25
972.679	2952.11
972.98	2919.34
973.281	2896.75
973.582	2916.86
973.883	2857.65
974.183	2873.24
974.484	2869.4
974.785	2847.48
975.085	2828.27
975.386	2854.49
975.686	2837.54
975.986	2771.1
976.287	2776.75
976.587	2786.47
976.887	2745.11
977.187	2771.55
977.487	2713.02
977.787	2718.45
978.087	2702.4
978.387	2708.73
978.687	2703.08
978.987	2673.02
979.286	2630.76
979.586	2681.61
979.885	2655.17
980.185	2657.66
980.484	2591.44
980.784	2593.03
981.083	2585.79
981.382	2584.66
981.682	2584.66
981.981	2584.44
982.28	2537.43
982.579	2538.11
982.878	2521.61
983.177	2532.91
983.475	2514.16
983.774	2512.35
984.073	2454.05
984.372	2476.87
984.67	2469.19
984.969	2476.19
985.267	2418.11
985.566	2467.83
985.864	2432.35
986.162	2407.04
986.461	2395.29
986.759	2418.79
987.057	2357.33
987.355	2359.13
987.653	2354.39
987.951	2355.74
988.249	2348.29
988.547	2353.48
988.844	2301.73
989.142	2295.18
989.44	2316.87
989.737	2278.91
990.035	2258.57
990.332	2264.22
990.63	2247.05
990.927	2209.53
991.224	2275.07
991.521	2254.5
991.819	2216.54
992.116	2188.52
992.413	2198.91
992.71	2139.93
993.006	2148.52
993.303	2159.14
993.6	2153.71
993.897	2126.14
994.193	2115.07
994.49	2138.12
994.787	2123.43
995.083	2092.7
995.379	2093.83
995.676	2081.17
995.972	2052.47
996.268	2073.94
996.565	2081.85
996.861	2072.59
997.157	2054.06
997.453	2057.67
997.749	2025.36
998.044	1994.85
998.34	2009.31
998.636	1978.58
998.932	1968.41
999.227	1964.57
999.523	1974.06
999.818	1927.28
1000.114	1938.8
1000.409	1912.14
1000.704	1907.62
1001	1931.12
1001.295	1907.39
1001.59	1896.77
1001.885	1896.55
1002.18	1880.95
1002.475	1835.53
1002.77	1859.94
1003.065	1823.1
1003.359	1848.86
1003.654	1811.58
1003.949	1829.88
1004.243	1789.66
1004.538	1778.13
1004.832	1782.65
1005.127	1744.46
1005.421	1767.51
1005.715	1763.67
1006.009	1745.59
1006.304	1703.1
1006.598	1713.05
1006.892	1727.96
1007.186	1684.35
1007.48	1677.79
1007.773	1671.24
1008.067	1669.21
1008.361	1658.59
1008.655	1687.51
1008.948	1671.69
1009.242	1647.51
1009.535	1612.71
1009.829	1629.21
1010.122	1608.64
1010.415	1604.58
1010.708	1591.92
1011.001	1592.37
1011.295	1570.45
1011.588	1552.6
1011.881	1550.11
1012.173	1553.96
1012.466	1573.62
1012.759	1531.13
1013.052	1534.52
1013.344	1539.95
1013.637	1522.54
1013.93	1479.38
1014.222	1479.16
1014.514	1503.56
1014.807	1494.52
1015.099	1461.3
1015.391	1453.39
1015.683	1450.68
1015.976	1438.48
1016.268	1449.55
1016.56	1450.91
1016.851	1441.42
1017.143	1418.59
1017.435	1424.24
1017.727	1386.5
1018.018	1398.03
1018.31	1400.06
1018.602	1366.62
1018.893	1353.06
1019.185	1340.18
1019.476	1334.75
1019.767	1343.57
1020.058	1333.85
1020.35	1311.25
1020.641	1313.28
1020.932	1309.89
1021.223	1309.22
1021.514	1242.33
1021.804	1271.48
1022.095	1279.16
1022.386	1268.99
1022.677	1251.37
1022.967	1266.73
1023.258	1215.66
1023.548	1225.15
1023.839	1232.61
1024.129	1210.69
1024.419	1214.3
1024.709	1190.35
1025	1203.68
1025.29	1204.36
1025.58	1189.9
1025.87	1168.2
1026.16	1145.38
1026.449	1146.74
1026.739	1148.54
1027.029	1141.31
1027.319	1110.13
1027.608	1138.37
1027.898	1125.49
1028.187	1131.37
1028.477	1128.88
1028.766	1089.79
1029.055	1087.75
1029.344	1092.27
1029.634	1087.53
1029.923	1076.23
1030.212	1049.79
1030.501	1064.48
1030.79	1062.67
1031.078	1049.34
1031.367	1037.13
1031.656	1046.85
1031.945	1027.42
1032.233	1041.65
1032.522	988.32
1032.81	997.36
1033.099	1004.14
1033.387	982.22
1033.675	982.22
1033.963	990.13
1034.251	979.51
1034.54	981.32
1034.828	950.13
1035.116	945.61
1035.403	945.84
1035.691	935.22
1035.979	957.36
1036.267	946.29
1036.554	956.46
1036.842	934.76
1037.129	900.87
1037.417	922.11
1037.704	913.3
1037.992	908.1
1038.279	887.99
1038.566	910.36
1038.853	910.36
1039.14	910.36
