Data from hue_350_FLMS001491_92.txt Node
Date: Mon Feb 06 15:38:46 GMT 2017
User: dcchb
Spectrometer: FLMS00149
Trigger mode: 0
Integration Time (sec): 2.000000E-2
Scans to average: 10
Electric dark correction enabled: true
Nonlinearity correction enabled: false
Boxcar width: 0
XAxis mode: Wavelengths
Number of Pixels in Spectrum: 2048
>>>>>Begin Spectral Data<<<<<
341.393	-6.74
341.776	-6.74
342.16	-6.74
342.543	-72.72
342.927	-46.74
343.31	-76.34
343.693	-92.61
344.077	-46.51
344.46	-77.24
344.843	-45.61
345.226	-44.48
345.61	-34.31
345.993	-10.35
346.376	-13.74
346.759	-6.29
347.142	28.97
347.525	59.25
347.908	59.48
348.291	78.01
348.674	90.44
349.057	131.34
349.44	117.1
349.823	135.63
350.206	166.82
350.588	187.61
350.971	222.86
351.354	227.16
351.737	253.37
352.119	232.8
352.502	251.56
352.884	274.84
353.267	280.26
353.65	292.69
354.032	303.76
354.414	282.97
354.797	319.58
355.179	307.83
355.562	327.72
355.944	319.81
356.326	334.72
356.709	336.08
357.091	326.36
357.473	341.73
357.855	321.62
358.238	323.65
358.62	340.6
359.002	326.81
359.384	335.85
359.766	341.05
360.148	359.13
360.53	328.62
360.912	351.67
361.294	352.35
361.676	344.44
362.057	322.29
362.439	332.24
362.821	321.39
363.203	321.62
363.584	327.72
363.966	316.42
364.348	311.67
364.729	314.84
365.111	311.22
365.493	313.48
365.874	308.51
366.256	332.24
366.637	318.68
367.019	325.68
367.4	310.77
367.781	316.87
368.163	304.67
368.544	308.51
368.925	292.46
369.306	331.11
369.688	306.93
370.069	317.32
370.45	313.71
370.831	302.63
371.212	302.41
371.593	302.18
371.974	291.56
372.355	298.34
372.736	298.79
373.117	321.16
373.498	303.99
373.879	319.58
374.26	318.23
374.641	330.66
375.021	313.03
375.402	324.1
375.783	299.02
376.163	331.33
376.544	313.48
376.925	314.61
377.305	346.7
377.686	317.55
378.066	322.97
378.447	332.24
378.827	320.71
379.208	335.63
379.588	337.66
379.968	348.73
380.349	324.33
380.729	336.3
381.109	343.76
381.489	349.64
381.87	345.57
382.25	303.31
382.63	334.72
383.01	356.64
383.39	327.94
383.77	338.56
384.15	330.43
384.53	352.35
384.91	329.3
385.29	359.13
385.67	346.25
386.049	353.93
386.429	346.02
386.809	350.77
387.189	343.54
387.568	375.63
387.948	351.22
388.328	370.2
388.707	367.94
389.087	335.4
389.466	359.81
389.846	356.19
390.225	361.84
390.605	356.87
390.984	351.22
391.363	362.29
391.743	351.9
392.122	373.14
392.501	357.55
392.881	350.32
393.26	364.55
393.639	355.97
394.018	382.63
394.397	374.04
394.776	372.01
395.155	384.67
395.534	376.08
395.913	381.73
396.292	375.17
396.671	390.09
397.05	391.44
397.429	380.15
397.808	378.34
398.186	378.34
398.565	379.02
398.944	388.05
399.323	383.31
399.701	385.12
400.08	398.68
400.458	361.39
400.837	402.97
401.215	416.08
401.594	407.26
401.972	373.14
402.351	389.41
402.729	403.2
403.107	391.22
403.486	397.55
403.864	411.11
404.242	410.2
404.62	408.62
404.999	440.71
405.377	412.91
405.755	409.07
406.133	429.41
406.511	414.95
406.889	429.64
407.267	426.92
407.645	424.89
408.023	440.03
408.401	411.56
408.779	419.24
409.156	438.22
409.534	407.94
409.912	425.12
410.29	450.2
410.667	457.88
411.045	449.75
411.422	448.84
411.8	452.01
412.178	426.92
412.555	464.66
412.933	458.56
413.31	479.35
413.687	474.61
414.065	466.47
414.442	467.37
414.819	491.1
415.197	474.83
415.574	462.18
415.951	477.32
416.328	485.91
416.705	493.14
417.082	490.2
417.46	501.27
417.837	508.5
418.214	518.45
418.591	520.03
418.967	501.95
419.344	511.89
419.721	506.24
420.098	536.07
420.475	503.76
420.852	507.6
421.228	539.46
421.605	533.36
421.982	552.8
422.358	530.88
422.735	560.71
423.111	553.02
423.488	533.59
423.864	534.94
424.241	543.98
424.617	546.69
424.994	562.51
425.37	565.68
425.746	569.07
426.123	560.93
426.499	572.46
426.875	573.36
427.251	601.83
427.627	573.81
428.003	600.03
428.379	596.41
428.756	583.53
429.132	617.88
429.507	628.05
429.883	612.23
430.259	597.99
430.635	620.14
431.011	646.58
431.387	633.47
431.763	625.56
432.138	651.78
432.514	669.86
432.89	654.49
433.265	677.99
433.641	655.39
434.016	660.59
434.392	658.78
434.767	669.86
435.143	691.32
435.518	715.28
435.894	702.85
436.269	699.68
436.644	695.17
437.02	727.48
437.395	694.49
437.77	721.83
438.145	734.71
438.52	735.39
438.895	718.44
439.271	715.5
439.646	747.82
440.021	759.34
440.395	767.71
440.77	751.44
441.145	753.92
441.52	773.81
441.895	788.27
442.27	787.14
442.645	781.72
443.019	785.56
443.394	753.92
443.769	782.39
444.143	804.99
444.518	806.12
444.892	778.55
445.267	805.67
445.641	818.33
446.016	832.56
446.39	823.98
446.764	807.03
447.139	810.19
447.513	827.37
447.887	840.92
448.262	810.64
448.636	817.42
449.01	824.43
449.384	874.14
449.758	854.94
450.132	857.65
450.506	863.07
450.88	878.89
451.254	874.14
451.628	883.86
452.002	905.56
452.376	906.23
452.75	892
453.123	913.69
453.497	910.07
453.871	916.63
454.244	940.36
454.618	942.62
454.992	935.16
455.365	948.49
455.739	964.76
456.112	956.4
456.486	991.65
456.859	966.8
457.232	990.52
457.606	985.1
457.979	992.56
458.352	1005.44
458.725	1031.65
459.099	1044.08
459.472	1046.12
459.845	1039.56
460.218	1076.17
460.591	1053.12
460.964	1057.19
461.337	1081.14
461.71	1093.57
462.083	1106.23
462.456	1108.26
462.829	1122.27
463.201	1126.79
463.574	1126.79
463.947	1165.66
464.32	1166.57
464.692	1194.81
465.065	1179.9
465.438	1211.08
465.81	1226.45
466.183	1210.86
466.555	1244.3
466.928	1261.03
467.3	1245.21
467.672	1271.42
468.045	1293.34
468.417	1309.84
468.789	1324.98
469.161	1307.58
469.534	1343.74
469.906	1369.72
470.278	1380.12
470.65	1407.01
471.022	1417.63
471.394	1465.54
471.766	1460.34
472.138	1485.2
472.51	1484.3
472.882	1504.41
473.253	1542.37
473.625	1542.83
473.997	1604.07
474.369	1622.37
474.74	1594.35
475.112	1622.82
475.484	1651.52
475.855	1686.78
476.227	1702.82
476.598	1741.01
476.97	1768.81
477.341	1787.79
477.713	1813.78
478.084	1838.19
478.455	1883.61
478.827	1919.54
479.198	1975.58
479.569	1972.42
479.94	2032.08
480.311	2073.43
480.682	2082.02
481.053	2103.72
481.424	2183.71
481.795	2174.22
482.166	2200.44
482.537	2224.62
482.908	2290.15
483.279	2289.47
483.65	2318.85
484.021	2419.64
484.391	2431.62
484.762	2477.27
485.133	2470.26
485.503	2531.95
485.874	2572.63
486.244	2554.78
486.615	2678.39
486.985	2682.91
487.356	2726.3
487.726	2755.9
488.097	2791.83
488.467	2792.96
488.837	2894.2
489.207	2880.64
489.578	2950.47
489.948	2976.69
490.318	2994.31
490.688	2990.47
491.058	3086.74
491.428	3106.4
491.798	3153.18
492.168	3207.87
492.538	3288.77
492.908	3286.51
493.278	3316.11
493.648	3312.95
494.017	3341.88
494.387	3370.35
494.757	3413.74
495.126	3456.22
495.496	3476.34
495.866	3493.06
496.235	3552.04
496.605	3586.16
496.974	3591.81
497.344	3636.33
497.713	3618.7
498.082	3655.77
498.452	3715.88
498.821	3779.6
499.19	3749.32
499.559	3752.71
499.928	3806.5
500.298	3818.7
500.667	3835.2
501.036	3845.36
501.405	3866.83
501.774	3870.45
502.143	3891.69
502.512	3983.67
502.88	3970.11
503.249	3980.5
503.618	3964.91
503.987	3989.77
504.356	3999.03
504.724	4057.34
505.093	4081.07
505.462	4143.44
505.83	4084
506.199	4170.1
506.567	4191.12
506.936	4164.45
507.304	4233.6
507.672	4244.22
508.041	4205.36
508.409	4277.22
508.777	4318.8
509.145	4331.23
509.514	4318.35
509.882	4314.96
510.25	4371.23
510.618	4378.91
510.986	4393.37
511.354	4427.27
511.722	4432.24
512.09	4499.13
512.458	4498
512.826	4477.89
513.193	4528.28
513.561	4527.15
513.929	4550.43
514.297	4622.29
514.664	4621.62
515.032	4633.59
515.4	4647.83
515.767	4660.03
516.135	4623.42
516.502	4625.68
516.869	4727.15
517.237	4671.78
517.604	4724.89
517.972	4723.76
518.339	4772.12
518.706	4765.57
519.073	4784.32
519.44	4781.84
519.808	4833.81
520.175	4843.3
520.542	4901.83
520.909	4890.76
521.276	4940.25
521.643	4946.13
522.009	4935.28
522.376	4996.07
522.743	5052.56
523.11	5037.65
523.477	5077.65
523.843	5115.39
524.21	5123.3
524.577	5152.9
524.943	5198.32
525.31	5202.17
525.676	5246.23
526.043	5233.13
526.409	5275.38
526.776	5326.46
527.142	5303.86
527.508	5376.85
527.874	5356.29
528.241	5485.77
528.607	5417.53
528.973	5471.54
529.339	5495.72
529.705	5538.88
530.071	5602.83
530.437	5543.17
530.803	5635.83
531.169	5609.61
531.535	5634.47
531.901	5640.12
532.267	5662.04
532.632	5702.72
532.998	5742.04
533.364	5777.29
533.73	5760.12
534.095	5758.54
534.461	5860.68
534.826	5850.06
535.192	5888.93
535.557	5949.04
535.923	5865.65
536.288	5970.73
536.653	5953.33
537.019	5970.05
537.384	6025.65
537.749	6029.04
538.114	6071.52
538.479	6046.44
538.845	6123.5
539.21	6103.84
539.575	6189.71
539.94	6109.94
540.305	6246.66
540.67	6201.46
541.034	6278.97
541.399	6266.54
541.764	6309.48
542.129	6254.57
542.494	6344.51
542.858	6356.94
543.223	6401.46
543.587	6436.71
543.952	6428.12
544.316	6464.51
544.681	6476.48
545.045	6520.1
545.41	6534.79
545.774	6534.33
546.138	6524.39
546.503	6558.06
546.867	6609.13
547.231	6674.9
547.595	6704.05
547.959	6740.2
548.324	6757.38
548.688	6823.82
549.052	6737.94
549.416	6804.84
549.779	6831.5
550.143	6872.18
550.507	6923.02
550.871	6944.04
551.235	6915.57
551.599	6910.14
551.962	7023.36
552.326	6969.12
552.689	6980.2
553.053	7021.1
553.417	7008.9
553.78	7163.7
554.143	7063.59
554.507	7102.91
554.87	7165.28
555.234	7169.12
555.597	7145.62
555.96	7216.12
556.323	7150.81
556.686	7248.67
557.05	7306.97
557.413	7319.62
557.776	7284.37
558.139	7383.35
558.502	7380.87
558.865	7383.8
559.228	7473.74
559.59	7481.65
559.953	7454.08
560.316	7523.69
560.679	7574.98
561.041	7564.14
561.404	7598.94
561.767	7678.48
562.129	7595.77
562.492	7706.96
562.854	7671.93
563.217	7708.99
563.579	7728.88
563.941	7732.04
564.304	7793.06
564.666	7819.95
565.028	7887.74
565.39	7828.31
565.753	7934.3
566.115	7938.36
566.477	7935.88
566.839	7949.66
567.201	8007.97
567.563	8041.86
567.925	8109.43
568.287	8068.76
568.648	8132.03
569.01	8218.81
569.372	8234.18
569.734	8218.13
570.095	8254.29
570.457	8302.65
570.819	8309.65
571.18	8368.86
571.542	8404.12
571.903	8446.83
572.265	8478.92
572.626	8579.48
572.987	8548.29
573.349	8626.26
573.71	8644.33
574.071	8708.51
574.432	8693.15
574.794	8792.58
575.155	8793.03
575.516	8856.98
575.877	8929.75
576.238	9005.23
576.599	9183.3
576.96	9187.6
577.32	9237.77
577.681	9287.26
578.042	9397.54
578.403	9416.52
578.763	9536.29
579.124	9619
579.485	9673.23
579.845	9846.79
580.206	9954.81
580.566	9959.55
580.927	10070.96
581.287	10263.73
581.648	10280.22
582.008	10412.2
582.368	10503.72
582.728	10722.02
583.089	10834.11
583.449	11002.01
583.809	11022.35
584.169	11331.5
584.529	11374.21
584.889	11679.96
585.249	11751.82
585.609	11960.41
585.969	12156.78
586.329	12295.09
586.688	12552.48
587.048	12649.65
587.408	12878.8
587.768	13072.24
588.127	13278.79
588.487	13613.47
588.846	13798.1
589.206	13986.34
589.565	14168.94
589.925	14502.71
590.284	14745.42
590.643	14931.85
591.003	15185.86
591.362	15474.66
591.721	15771.61
592.08	15952.39
592.44	16329.33
592.799	16520.74
593.158	16763.9
593.517	17064.45
593.876	17393.03
594.235	17596.42
594.593	17930.42
594.952	18116.4
595.311	18461.7
595.67	18745.31
596.029	19116.38
596.387	19438.4
596.746	19713.42
597.104	19906.19
597.463	20231.83
597.822	20653.96
598.18	20712.04
598.538	21035.42
598.897	21373.27
599.255	21455.07
599.613	22094.83
599.972	22127.37
600.33	22584.31
600.688	22734.59
601.046	23104.29
601.404	23551.29
601.762	23638.29
602.12	24052.29
602.478	24304.49
602.836	24469.68
603.194	24651.82
603.552	25052.04
603.91	25156.22
604.268	25522.54
604.625	25671.68
604.983	26118
605.341	26191.67
605.698	26539.46
606.056	26877.98
606.413	27042.04
606.771	27375.37
607.128	27655.81
607.485	27634.57
607.843	27892.42
608.2	28402.69
608.557	28545.05
608.914	28684.71
609.272	29085.61
609.629	29260.06
609.986	29563.33
610.343	29655.99
610.7	30088.06
611.057	30179.81
611.414	30350.43
611.771	30620.25
612.127	30864.99
612.484	31005.78
612.841	31137.75
613.198	31318.77
613.554	31336.62
613.911	31864.74
614.267	31951.97
614.624	31994.91
614.98	32320.1
615.337	32575.46
615.693	32618.85
616.05	32771.38
616.406	33041.21
616.762	33087.08
617.118	33167.08
617.475	33428.77
617.831	33605.49
618.187	33752.83
618.543	33854.52
618.899	34143.78
619.255	34185.13
619.611	34330.67
619.967	34577.21
620.323	34727.26
620.678	34553.71
621.034	34667.61
621.39	34831.22
621.746	34963.42
622.101	35400.69
622.457	35205.67
622.812	35389.17
623.168	35397.3
623.523	35697.86
623.879	35776.05
624.234	35643.62
624.589	35807.91
624.945	35898.99
625.3	36013.33
625.655	36018.53
626.01	36175.36
626.365	36109.83
626.72	36258.52
627.075	36368.58
627.43	36455.36
627.785	36378.75
628.14	36673.65
628.495	36587.33
628.85	36643.6
629.205	36520.21
629.559	36927.66
629.914	36823.48
630.269	36873.88
630.623	36672.07
630.978	36748.23
631.332	36958.62
631.687	37129.46
632.041	36899.41
632.396	37038.39
632.75	36967.66
633.104	37168.33
633.459	37010.59
633.813	36979.64
634.167	36914.1
634.521	37095.11
634.875	37170.36
635.229	37001.78
635.583	36918.85
635.937	36979.86
636.291	37041.78
636.645	37032.29
636.999	37041.55
637.352	37328.33
637.706	36901.67
638.06	37025.28
638.413	37111.16
638.767	36878.39
639.121	37073.19
639.474	36898.51
639.828	36966.53
640.181	37049.69
640.534	37174.21
640.888	37038.62
641.241	36859.41
641.594	36975.12
641.947	37122.91
642.301	36908
642.654	36981.22
643.007	37007.43
643.36	36961.78
643.713	36981.89
644.066	36932.18
644.419	36903.93
644.771	36572.87
645.124	36260.33
645.477	36291.07
645.83	36070.05
646.182	35825.32
646.535	35802.72
646.888	35896.5
647.24	35648.6
647.593	35915.03
647.945	35822.83
648.298	35767.24
648.65	35803.62
649.002	35620.8
649.355	35627.35
649.707	35635.49
650.059	35961.36
650.411	36161.13
650.763	36279.99
651.115	36643.15
651.467	36522.7
651.819	36503.72
652.171	36440.21
652.523	36550.04
652.875	36472.53
653.227	36353.89
653.578	36513.66
653.93	36432.3
654.282	36308.01
654.633	36305.53
654.985	36426.2
655.337	36451.74
655.688	36292.42
656.039	36398.41
656.391	36171.52
656.742	36260.33
657.094	36238.41
657.445	36380.55
657.796	36286.77
658.147	36269.82
658.498	36263.95
658.849	36289.03
659.2	36298.75
659.551	36147.79
659.902	36235.47
660.253	36091.52
660.604	36266.66
660.955	36103.5
661.306	36191.86
661.656	36233.21
662.007	36120
662.358	36040.9
662.708	36079.32
663.059	36077.74
663.409	35868.93
663.76	36031.41
664.11	36033.9
664.461	36127.91
664.811	36021.69
665.161	36129.94
665.511	36085.2
665.862	36024.63
666.212	36149.15
666.562	36073.67
666.912	36043.39
667.262	35988.7
667.612	35970.4
667.962	35987.12
668.312	36051.52
668.662	36240.9
669.011	36171.75
669.361	35976.05
669.711	35981.24
670.06	35923.17
670.41	35831.64
670.76	35873.22
671.109	35986.21
671.459	35924.07
671.808	35832.32
672.157	35901.47
672.507	35769.72
672.856	35737.18
673.205	35763.85
673.554	35793.68
673.904	35813.56
674.253	36032.77
674.602	35845.2
674.951	35330.19
675.3	35076.41
675.649	35627.35
675.998	35618.99
676.346	35677.52
676.695	35875.94
677.044	35497.41
677.393	35658.54
677.741	35580.58
678.09	35498.54
678.438	35465.78
678.787	35529.73
679.135	35533.35
679.484	35231.43
679.832	35500.35
680.181	35206.57
680.529	35423.97
680.877	35179.91
681.225	35251.09
681.573	35439.11
681.922	35127.71
682.27	35179.23
682.618	35108.95
682.966	34982.63
683.314	35102.4
683.661	34908.95
684.009	34663.99
684.357	34904.89
684.705	34715.51
685.053	34702.41
685.4	34710.77
685.748	34547.61
686.095	34451.34
686.443	34463.09
686.79	34380.61
687.138	34422.41
687.485	34353.04
687.832	34301.51
688.18	34334.51
688.527	34053.38
688.874	34039.6
689.221	34076.66
689.568	34051.8
689.915	33865.82
690.262	33721.42
690.609	33872.15
690.956	33538.6
691.303	33660.4
691.65	33517.81
691.997	33493.4
692.344	33346.96
692.69	33416.11
693.037	33229.68
693.383	33048.44
693.73	33118.95
694.077	32974.99
694.423	33018.61
694.769	32824.94
695.116	32766.41
695.462	32669.92
695.808	32670.6
696.155	32694.32
696.501	32431.96
696.847	32416.59
697.193	32210.49
697.539	32434.22
697.885	32092.76
698.231	31961.91
698.577	31996.94
698.923	31940.9
699.269	31942.25
699.614	31680.11
699.96	31483.73
700.306	31691.41
700.651	31492.77
700.997	31434.02
701.342	31267.69
701.688	31329.61
702.033	31108.83
702.379	31177.75
702.724	31091.43
703.069	31171.43
703.415	30674.26
703.76	30847.37
704.105	30779.57
704.45	30712.91
704.795	30538.67
705.14	30486.47
705.485	30424.78
705.83	30396.08
706.175	30354.72
706.52	30248.74
706.865	30063.66
707.209	30081.96
707.554	30032.02
707.899	30136.65
708.243	29743.22
708.588	29920.16
708.932	29723.33
709.277	29720.84
709.621	29722.88
709.966	29489.44
710.31	29651.69
710.654	29313.4
710.998	29437.46
711.342	29397.69
711.687	29227.3
712.031	29188.2
712.375	29041.54
712.719	29138.49
713.063	29074.76
713.407	29116.34
713.75	28927.87
714.094	28930.58
714.438	28680.64
714.782	28817.59
715.125	28746.63
715.469	28686.52
715.812	28512.51
716.156	28453.31
716.499	28446.07
716.843	28529.24
717.186	28271.62
717.53	28357.94
717.873	28444.94
718.216	28279.52
718.559	28135.8
718.902	28003.83
719.246	28114.78
719.589	27983.26
719.932	27783.27
720.275	27910.95
720.617	27821.23
720.96	27800.22
721.303	27778.3
721.646	27791.4
721.989	27630.05
722.331	27722.7
722.674	27682.03
723.016	27645.42
723.359	27540.11
723.701	27570.84
724.044	27462.37
724.386	27341.7
724.729	27411.3
725.071	27266.67
725.413	27278.2
725.755	27242.94
726.097	27052.21
726.439	27054.25
726.782	27034.13
727.124	27111.42
727.465	26942.61
727.807	26847.7
728.149	26910.3
728.491	26911.65
728.833	26877.3
729.175	26703.52
729.516	26739.45
729.858	26640.7
730.199	26727.02
730.541	26694.48
730.882	26613.13
731.224	26692.22
731.565	26519.57
731.906	26512.34
732.248	26562.96
732.589	26347.82
732.93	26400.48
733.271	26413.59
733.612	26455.17
733.953	26334.04
734.294	26176.53
734.635	26160.26
734.976	26219.92
735.317	26076.87
735.658	25992.58
735.999	26042.97
736.339	25981.96
736.68	25932.24
737.021	25941.96
737.361	25843.2
737.702	25926.59
738.042	25864.45
738.383	25826.26
738.723	25782.42
739.063	25766.6
739.404	25699.71
739.744	25695.19
740.084	25525.25
740.424	25642.08
740.764	25478.02
741.104	25701.29
741.444	25384.69
741.784	25349.21
742.124	25458.58
742.464	25343.33
742.804	25323.44
743.143	25268.53
743.483	25224.92
743.823	25118.48
744.162	25135.88
744.502	25113.28
744.841	25092.72
745.181	25180.17
745.52	24936.11
745.86	25005.71
746.199	25090
746.538	25014.75
746.877	25012.27
747.216	24937.24
747.556	24766.85
747.895	24899.5
748.234	24845.26
748.573	24680.75
748.911	24806.85
749.25	24657.93
749.589	24511.04
749.928	24555.1
750.267	24576.12
750.605	24472.85
750.944	24465.84
751.283	24477.36
751.621	24508.1
751.96	24374.54
752.298	24354.66
752.636	24281.44
752.975	24188.78
753.313	24076.92
753.651	24258.61
753.989	24210.48
754.327	23990.6
754.666	23893.65
755.004	24020.88
755.342	23944.05
755.679	23857.27
756.017	23821.56
756.355	23842.58
756.693	23722.58
757.031	23744.73
757.368	23644.62
757.706	23595.81
758.044	23473.1
758.381	23572.08
758.719	23484.4
759.056	23454.34
759.394	23361.69
759.731	23193.78
760.068	23103.39
760.405	23041.24
760.743	23077.18
761.08	23074.01
761.417	23034.01
761.754	22850.06
762.091	22923.06
762.428	22795.6
762.765	22563.97
763.102	22733.23
763.438	22540.92
763.775	22533.46
764.112	22502.5
764.449	22574.36
764.785	22405.33
765.122	22343.64
765.458	22205.56
765.795	22164.66
766.131	22037.66
766.467	22006.47
766.804	21907.04
767.14	21784.78
767.476	21771.9
767.812	21737.78
768.148	21736.42
768.485	21669.53
768.821	21588.18
769.157	21495.3
769.492	21371.68
769.828	21442.42
770.164	21229.77
770.5	21147.06
770.836	21191.12
771.171	20957.01
771.507	20949.77
771.842	20840.62
772.178	20792.04
772.513	20750.01
772.849	20738.48
773.184	20700.29
773.519	20675.66
773.855	20521.31
774.19	20325.84
774.525	20339.62
774.86	20260.75
775.195	20275.89
775.53	20207.42
775.865	20081.1
776.2	19901.89
776.535	19768.34
776.87	19775.34
777.205	19789.58
777.539	19714.1
777.874	19724.72
778.209	19527.66
778.543	19418.51
778.878	19254.9
779.212	19377.84
779.547	19289.48
779.881	19294.45
780.215	19068.47
780.55	19089.71
780.884	19042.03
781.218	19021.24
781.552	18919.54
781.886	18778.98
782.22	18730.17
782.554	18688.59
782.888	18521.36
783.222	18394.36
783.556	18381.71
783.889	18270.97
784.223	18189.62
784.557	18167.93
784.89	18215.61
785.224	18144.65
785.557	18021.04
785.891	18028.04
786.224	17914.83
786.558	17867.37
786.891	17757.99
787.224	17672.12
787.557	17636.41
787.891	17632.12
788.224	17530.65
788.557	17605.68
788.89	17499.47
789.223	17442.3
789.556	17299.02
789.888	17247.95
790.221	17184.22
790.554	17041.4
790.887	17129.54
791.219	16993.04
791.552	17009.31
791.884	16909.88
792.217	16886.6
792.549	16769.09
792.882	16658.14
793.214	16605.26
793.546	16587.85
793.879	16496.33
794.211	16475.32
794.543	16454.75
794.875	16335.43
795.207	16528.2
795.539	16323.23
795.871	16319.61
796.203	16145.38
796.535	16052.73
796.867	16083.91
797.198	16067.19
797.53	16073.74
797.862	15892.51
798.193	15895.22
798.525	15842.34
798.856	15827.42
799.188	15692.29
799.519	15675.79
799.85	15590.82
800.182	15613.19
800.513	15535.68
800.844	15387.21
801.175	15559.41
801.506	15343.14
801.837	15374.33
802.168	15290.49
802.499	15195.12
802.83	15185.18
803.161	15193.32
803.491	15140.44
803.822	15104.96
804.153	14988.35
804.483	14920.78
804.814	14850.95
805.145	14824.29
805.475	14809.82
805.805	14702.03
806.136	14788.35
806.466	14735.02
806.796	14837.84
807.126	14631.3
807.457	14489.15
807.787	14563.73
808.117	14462.26
808.447	14372.55
808.777	14481.02
809.107	14450.96
809.436	14330.96
809.766	14331.19
810.096	14231.76
810.426	14229.27
810.755	14172.78
811.085	14109.73
811.414	14106.56
811.744	14092.78
812.073	14088.71
812.403	14040.35
812.732	13812.79
813.061	13887.81
813.39	13834.93
813.719	13813.69
814.049	13836.29
814.378	13799.23
814.707	13792.22
815.036	13797.42
815.365	13663.86
815.693	13503.42
816.022	13611.89
816.351	13534.6
816.68	13386.81
817.008	13491.44
817.337	13349.75
817.665	13374.61
817.994	13382.52
818.322	13384.55
818.651	13316.53
818.979	13191.11
819.307	13283.99
819.636	13310.65
819.964	13143.88
820.292	13264.1
820.62	13208.96
820.948	13109.3
821.276	13188.4
821.604	13060.94
821.932	13267.26
822.259	13180.26
822.587	13127.61
822.915	13124.22
823.243	13183.65
823.57	13136.42
823.898	13106.14
824.225	13028.17
824.553	12981.4
824.88	13047.83
825.207	13101.17
825.535	13038.34
825.862	13127.15
826.189	13103.65
826.516	13087.38
826.843	13150.43
827.17	13071.11
827.497	13111.11
827.824	13103.43
828.151	13070.21
828.478	13053.03
828.805	13066.59
829.131	12972.13
829.458	12957.89
829.785	12963.54
830.111	13040.83
830.438	13047.16
830.764	13024.56
831.09	13060.94
831.417	12923.09
831.743	13005.35
832.069	13004.9
832.395	12990.21
832.722	12964.67
833.048	12947.72
833.374	12924.22
833.7	12859.14
834.026	12939.59
834.351	12881.51
834.677	12894.39
835.003	12836.32
835.329	12872.92
835.654	12817.11
835.98	12757
836.306	12828.63
836.631	12736.66
836.956	12846.71
837.282	12774.4
837.607	12682.42
837.932	12640.61
838.258	12738.92
838.583	12699.6
838.908	12567.62
839.233	12560.16
839.558	12577.56
839.883	12569.66
840.208	12527.4
840.533	12509.09
840.858	12524.23
841.182	12540.28
841.507	12452.82
841.832	12380.73
842.156	12410.79
842.481	12430.45
842.805	12371.69
843.13	12315.88
843.454	12259.61
843.778	12239.27
844.103	12313.16
844.427	12287.18
844.751	12166.05
845.075	12202.21
845.399	12173.06
845.723	12020.07
846.047	12083.11
846.371	11922.21
846.695	11931.93
847.019	11859.39
847.343	11812.84
847.666	11773.97
847.99	11768.55
848.313	11729.68
848.637	11604.48
848.96	11694.42
849.284	11638.83
849.607	11496.46
849.931	11414.43
850.254	11390.03
850.577	11353.42
850.9	11324.94
851.223	11290.59
851.546	11304.6
851.869	11165.85
852.192	11177.83
852.515	11065.29
852.838	11033.42
853.161	11033.65
853.483	10938.51
853.806	10923.6
854.129	10939.87
854.451	10849.02
854.774	10805.41
855.096	10792.07
855.419	10822.81
855.741	10731.06
856.063	10717.5
856.385	10691.29
856.708	10608.13
857.03	10548.69
857.352	10604.28
857.674	10516.6
857.996	10490.16
858.318	10416.94
858.64	10456.26
858.961	10360.9
859.283	10267.57
859.605	10315.93
859.926	10375.36
860.248	10293.56
860.57	10229.15
860.891	10282.71
861.212	10238.64
861.534	10138.08
861.855	10184.86
862.176	10226.21
862.498	10122.71
862.819	10121.13
863.14	10130.4
863.461	10020.12
863.782	10033.68
864.103	10049.27
864.424	9980.57
864.745	9992.32
865.065	9977.86
865.386	9915.49
865.707	9915.94
866.027	9894.92
866.348	9915.94
866.668	9890.18
866.989	9841.59
867.309	9748.71
867.63	9879.1
867.95	9804.98
868.27	9758.2
868.59	9716.17
868.91	9788.03
869.23	9797.52
869.55	9720.01
869.87	9750.75
870.19	9763.85
870.51	9747.58
870.83	9726.11
871.15	9618.55
871.469	9689.96
871.789	9669.17
872.109	9592.11
872.428	9544.2
872.748	9593.91
873.067	9568.38
873.386	9569.96
873.706	9562.28
874.025	9538.32
874.344	9442.51
874.663	9460.81
874.982	9484.09
875.301	9496.74
875.62	9414.71
875.939	9449.96
876.258	9414.48
876.577	9355.95
876.896	9383.98
877.214	9357.76
877.533	9320.93
877.852	9319.8
878.17	9286.8
878.489	9336.07
878.807	9297.88
879.125	9327.93
879.444	9241.61
879.762	9242.96
880.08	9213.59
880.398	9187.6
880.716	9196.18
881.034	9158.9
881.352	9109.41
881.67	9049.97
881.988	9082.74
882.306	9018.11
882.624	9125.68
882.941	9049.52
883.259	9005.46
883.577	8944.44
883.894	8942.18
884.212	8919.81
884.529	8937.43
884.846	8939.47
885.164	8851.79
885.481	8847.49
885.798	8946.02
886.115	8816.53
886.432	8788.06
886.75	8754.84
887.067	8778.12
887.383	8739.93
887.7	8794.16
888.017	8692.7
888.334	8744.67
888.651	8660.83
888.967	8689.31
889.284	8581.96
889.6	8564.11
889.917	8569.99
890.233	8545.81
890.55	8444.57
890.866	8517.56
891.182	8457.45
891.498	8439.37
891.815	8381.29
892.131	8425.81
892.447	8432.81
892.763	8340.39
893.079	8334.29
893.395	8311.91
893.71	8306.26
894.026	8278.69
894.342	8272.14
894.657	8189.66
894.973	8176.1
895.289	8208.87
895.604	8092.94
895.92	8088.19
896.235	7961.41
896.55	8108.3
896.865	8015.65
897.181	7975.43
897.496	8034.41
897.811	7915.77
898.126	7938.14
898.441	7900.17
898.756	7857.69
899.071	7798.71
899.386	7842.77
899.7	7810.23
900.015	7742.89
900.33	7647.52
900.644	7723
900.959	7692.5
901.273	7616.11
901.588	7603.01
901.902	7589.9
902.216	7577.24
902.531	7504.48
902.845	7510.13
903.159	7467.19
903.473	7334.54
903.787	7409.34
904.101	7403.24
904.415	7357.36
904.729	7328.21
905.042	7278.72
905.356	7290.25
905.67	7221.77
905.984	7277.82
906.297	7221.55
906.611	7150.14
906.924	7110.59
907.237	7124.37
907.551	7107.2
907.864	7098.84
908.177	7015.68
908.491	7057.26
908.804	7026.75
909.117	6926.41
909.43	6934.1
909.743	6859.3
910.056	6920.76
910.368	6860.88
910.681	6809.81
910.994	6841.67
911.307	6729.13
911.619	6736.36
911.932	6723.26
912.244	6696.14
912.557	6677.15
912.869	6621.79
913.181	6560.32
913.494	6579.98
913.806	6520.1
914.118	6501.57
914.43	6509.7
914.742	6500.66
915.054	6417.73
915.366	6384.73
915.678	6426.77
915.99	6348.58
916.302	6342.7
916.613	6244.17
916.925	6284.85
917.236	6288.24
917.548	6224.74
917.859	6248.01
918.171	6160.11
918.482	6225.19
918.794	6098.41
919.105	6162.59
919.416	6090.73
919.727	6081.46
920.038	6041.69
920.349	5991.75
920.66	5981.81
920.971	5984.07
921.282	5967.57
921.593	5935.71
921.903	5870.4
922.214	5843.28
922.525	5808.03
922.835	5798.76
923.146	5785.2
923.456	5732.32
923.767	5740
924.077	5718.54
924.387	5677.63
924.697	5676.05
925.008	5579.78
925.318	5633.79
925.628	5558.31
925.938	5605.09
926.248	5526
926.558	5516.06
926.867	5511.54
927.177	5457.53
927.487	5455.49
927.796	5385.89
928.106	5432.89
928.416	5352.22
928.725	5355.16
929.034	5368.04
929.344	5329.39
929.653	5323.52
929.962	5267.47
930.271	5218.21
930.581	5205.78
930.89	5206.01
931.199	5154.26
931.508	5136.86
931.817	5103.64
932.125	5172.79
932.434	5091.21
932.743	5055.73
933.051	5021.61
933.36	5008.5
933.669	4999.68
933.977	5019.35
934.286	4959.46
934.594	4942.74
934.902	4906.81
935.21	4930.76
935.519	4904.32
935.827	4835.4
936.135	4836.75
936.443	4803.53
936.751	4837.2
937.059	4805.79
937.367	4759.92
937.674	4740.71
937.982	4749.07
938.29	4695.29
938.597	4722.4
938.905	4660.26
939.213	4641.73
939.52	4597.89
939.827	4618.45
940.135	4578.91
940.442	4582.97
940.749	4573.03
941.056	4552.92
941.363	4493.48
941.67	4481.28
941.977	4484.67
942.284	4432.02
942.591	4379.14
942.898	4443.32
943.205	4433.37
943.511	4361.51
943.818	4350.89
944.125	4337.78
944.431	4298.01
944.738	4281.29
945.044	4294.17
945.35	4271.34
945.657	4263.66
945.963	4236.54
946.269	4204
946.575	4198.12
946.881	4167.62
947.187	4172.59
947.493	4139.37
947.799	4091.91
948.105	4086.71
948.41	4090.78
948.716	4091.23
949.022	4043.33
949.327	4064.57
949.633	4007.85
949.938	4031.57
950.244	3987.28
950.549	3971.24
950.854	3982.08
951.16	3909.32
951.465	3906.38
951.77	3872.71
952.075	3883.33
952.38	3868.87
952.685	3880.84
952.99	3860.73
953.294	3839.94
953.599	3779.15
953.904	3774.63
954.209	3747.74
954.513	3747.51
954.818	3734.63
955.122	3749.77
955.426	3695.99
955.731	3707.52
956.035	3692.15
956.339	3652.6
956.643	3657.8
956.948	3601.3
957.252	3597.69
957.556	3587.97
957.86	3559.95
958.163	3617.8
958.467	3554.3
958.771	3575.32
959.075	3544.81
959.378	3508.2
959.682	3496.9
959.985	3477.92
960.289	3463.45
960.592	3462.78
960.896	3433.17
961.199	3440.4
961.502	3430.69
961.805	3371.93
962.108	3360.41
962.411	3370.8
962.714	3304.59
963.017	3316.57
963.32	3324.25
963.623	3283.57
963.926	3258.04
964.228	3269.79
964.531	3277.92
964.833	3282.89
965.136	3228.66
965.438	3240.64
965.741	3199.28
966.043	3147.53
966.345	3182.11
966.648	3153.41
966.95	3166.96
967.252	3121.99
967.554	3133.07
967.856	3075.22
968.158	3115.89
968.46	3090.36
968.761	3077.93
969.063	3066.4
969.365	3028.21
969.666	3004.71
969.968	3001.09
970.269	3007.19
970.571	3015.33
970.872	2997.7
971.174	2935.33
971.475	2956.8
971.776	2919.74
972.077	2938.5
972.378	2941.43
972.679	2913.19
972.98	2901.89
973.281	2884.71
973.582	2865.05
973.883	2825.73
974.183	2849.23
974.484	2808.1
974.785	2787.99
975.085	2799.29
975.386	2807.65
975.686	2792.96
975.986	2761.78
976.287	2755.68
976.587	2731.04
976.887	2748.22
977.187	2746.86
977.487	2718.84
977.787	2688.33
978.087	2669.58
978.387	2652.85
978.687	2629.58
978.987	2641.78
979.286	2620.76
979.586	2592.52
979.885	2607.21
980.185	2599.07
980.484	2613.98
980.784	2550.71
981.083	2531.05
981.382	2546.64
981.682	2544.38
981.981	2555.46
982.28	2512.07
982.579	2484.5
982.878	2500.77
983.177	2488.56
983.475	2480.88
983.774	2462.58
984.073	2454.67
984.372	2418.74
984.67	2442.46
984.969	2420.32
985.267	2412.18
985.566	2419.64
985.864	2438.85
986.162	2395.91
986.461	2382.13
986.759	2342.13
987.057	2348.68
987.355	2338.51
987.653	2341.45
987.951	2344.84
988.249	2318.17
988.547	2302.35
988.844	2319.76
989.142	2289.02
989.44	2221.45
989.737	2261.68
990.035	2257.61
990.332	2213.09
990.63	2223.71
990.927	2186.43
991.224	2188.23
991.521	2228.68
991.819	2199.08
992.116	2176.48
992.413	2156.37
992.71	2171.28
993.006	2155.47
993.303	2149.14
993.6	2163.38
993.897	2135.81
994.193	2148.01
994.49	2130.83
994.787	2120.21
995.083	2080.67
995.379	2075.24
995.676	2068.01
995.972	2044.73
996.268	2072.53
996.565	2062.14
996.861	2025.07
997.157	2006.32
997.453	1993.89
997.749	1990.05
998.044	1996.37
998.34	1975.13
998.636	1968.8
998.932	1996.83
999.227	1948.24
999.523	1956.83
999.818	1951.18
1000.114	1909.37
1000.409	1929.26
1000.704	1933.78
1001	1890.16
1001.295	1897.62
1001.59	1855.81
1001.885	1861.24
1002.18	1854.68
1002.475	1844.74
1002.77	1863.5
1003.065	1854
1003.359	1849.26
1003.654	1825.31
1003.949	1797.51
1004.243	1809.49
1004.538	1775.36
1004.832	1754.35
1005.127	1753.67
1005.421	1741.47
1005.715	1731.3
1006.009	1734.46
1006.304	1711.18
1006.598	1709.83
1006.892	1688.59
1007.186	1693.33
1007.48	1655.37
1007.773	1662.37
1008.067	1663.95
1008.361	1646.1
1008.655	1627.12
1008.948	1646.78
1009.242	1611.75
1009.535	1605.2
1009.829	1622.6
1010.122	1612.88
1010.415	1571.98
1010.708	1567.46
1011.001	1569.49
1011.295	1579.44
1011.588	1563.17
1011.881	1542.15
1012.173	1518.19
1012.466	1509.38
1012.759	1516.39
1013.052	1505.77
1013.344	1513.45
1013.637	1507.12
1013.93	1494.47
1014.222	1461.7
1014.514	1459.44
1014.807	1480.46
1015.099	1428.71
1015.391	1422.38
1015.683	1439.55
1015.976	1431.19
1016.268	1420.34
1016.56	1422.6
1016.851	1419.44
1017.143	1406.56
1017.435	1398.42
1017.727	1392.32
1018.018	1381.93
1018.31	1357.07
1018.602	1373.34
1018.893	1330.18
1019.185	1358.2
1019.476	1357.97
1019.767	1295.83
1020.058	1318.65
1020.35	1308.03
1020.641	1291.53
1020.932	1296.51
1021.223	1255.15
1021.514	1281.82
1021.804	1262.38
1022.095	1249.95
1022.386	1232.78
1022.677	1258.54
1022.967	1231.87
1023.258	1242.95
1023.548	1239.56
1023.839	1209.28
1024.129	1219.9
1024.419	1189.39
1024.709	1167.7
1025	1189.62
1025.29	1166.79
1025.58	1139.22
1025.87	1151.65
1026.16	1157.07
1026.449	1149.62
1026.739	1147.81
1027.029	1134.7
1027.319	1144.87
1027.608	1102.84
1027.898	1123.4
1028.187	1109.84
1028.477	1094.02
1028.766	1095.83
1029.055	1073.23
1029.344	1088.83
1029.634	1071.43
1029.923	1068.04
1030.212	1052.22
1030.501	1063.07
1030.79	1044.99
1031.078	1029.62
1031.367	1035.04
1031.656	1010.19
1031.945	992.56
1032.233	1002.95
1032.522	998.66
1032.81	1007.93
1033.099	987.81
1033.387	991.43
1033.675	986.01
1033.963	979.68
1034.251	964.08
1034.54	942.16
1034.828	961.15
1035.116	961.37
1035.403	938.32
1035.691	944.42
1035.979	943.29
1036.267	929.06
1036.554	933.35
1036.842	925.89
1037.129	888.61
1037.417	902.62
1037.704	898.1
1037.992	909.85
1038.279	902.62
1038.566	876.4
1038.853	876.4
1039.14	876.4
