Data from hue_160_FLMS001491_00053.txt Node
Date: Tue Feb 07 16:51:22 GMT 2017
User: dcchb
Spectrometer: FLMS00149
Trigger mode: 0
Integration Time (sec): 2.000000E-2
Scans to average: 10
Electric dark correction enabled: true
Nonlinearity correction enabled: false
Boxcar width: 0
XAxis mode: Wavelengths
Number of Pixels in Spectrum: 2048
>>>>>Begin Spectral Data<<<<<
341.393	-39.82
341.776	-39.82
342.16	-39.82
342.543	-57.44
342.927	-63.09
343.31	-73.94
343.693	-79.14
344.077	-58.8
344.46	-71
344.843	-61.96
345.226	-35.75
345.61	-29.87
345.993	2.22
346.376	9
346.759	9.45
347.142	39.96
347.525	40.18
347.908	39.96
348.291	55.32
348.674	87.64
349.057	126.73
349.44	117.02
349.823	139.84
350.206	150.01
350.588	186.17
350.971	208.77
351.354	232.72
351.737	214.87
352.119	228.2
352.502	271.81
352.884	279.05
353.267	306.39
353.65	299.16
354.032	314.53
354.414	323.11
354.797	297.35
355.179	285.15
355.562	306.62
355.944	303.23
356.326	320.18
356.709	315.88
357.091	343.9
357.473	338.48
357.855	339.61
358.238	320.63
358.62	304.81
359.002	320.85
359.384	358.59
359.766	333.51
360.148	340.06
360.53	331.7
360.912	342.32
361.294	363.34
361.676	338.93
362.057	332.38
362.439	335.54
362.821	314.07
363.203	316.33
363.584	310.91
363.966	299.38
364.348	318.14
364.729	322.89
365.111	308.88
365.493	295.54
365.874	328.76
366.256	299.38
366.637	306.16
367.019	316.56
367.4	326.95
367.781	297.35
368.163	320.63
368.544	304.81
368.925	319.27
369.306	328.76
369.688	307.97
370.069	302.77
370.45	307.29
370.831	304.36
371.212	320.85
371.593	301.19
371.974	325.6
372.355	331.02
372.736	319.95
373.117	305.71
373.498	310.91
373.879	310.01
374.26	328.08
374.641	312.72
375.021	328.76
375.402	320.4
375.783	297.35
376.163	323.79
376.544	320.85
376.925	322.66
377.305	309.78
377.686	307.29
378.066	310.91
378.447	318.37
378.827	322.44
379.208	314.98
379.588	350.68
379.968	339.16
380.349	312.27
380.729	317.46
381.109	353.62
381.489	330.8
381.87	320.63
382.25	347.07
382.63	308.42
383.01	331.25
383.39	347.29
383.77	340.29
384.15	337.58
384.53	362.89
384.91	341.64
385.29	343.9
385.67	342.55
386.049	339.38
386.429	347.97
386.809	331.7
387.189	357.24
387.568	349.33
387.948	363.56
388.328	343
388.707	351.13
389.087	374.41
389.466	358.82
389.846	352.04
390.225	337.12
390.605	363.11
390.984	335.54
391.363	353.17
391.743	345.03
392.122	361.76
392.501	355.2
392.881	382.55
393.26	366.95
393.639	358.82
394.018	377.8
394.397	360.63
394.776	346.62
395.155	375.09
395.534	372.6
395.913	385.48
396.292	387.07
396.671	364.47
397.05	380.96
397.429	376.44
397.808	374.64
398.186	404.92
398.565	394.3
398.944	359.04
399.323	391.59
399.701	396.11
400.08	425.26
400.458	377.8
400.837	402.43
401.215	393.17
401.594	392.49
401.972	413.51
402.351	388.87
402.729	406.27
403.107	432.04
403.486	416.22
403.864	404.69
404.242	390.91
404.62	393.85
404.999	409.44
405.377	422.09
405.755	424.58
406.133	426.84
406.511	408.99
406.889	429.1
407.267	438.59
407.645	443.11
408.023	418.48
408.401	411.92
408.779	444.47
409.156	430.23
409.534	445.14
409.912	429.55
410.29	466.61
410.667	439.04
411.045	472.94
411.422	455.54
411.8	444.01
412.178	479.72
412.555	472.71
412.933	472.49
413.31	463.9
413.687	465.03
414.065	491.24
414.442	475.2
414.819	471.36
415.197	501.64
415.574	509.77
415.951	487.85
416.328	470.23
416.705	506.16
417.082	498.48
417.46	493.5
417.837	500.51
418.214	512.94
418.591	519.04
418.967	481.98
419.344	518.36
419.721	534.86
420.098	521.53
420.475	501.64
420.852	538.25
421.228	521.07
421.605	535.08
421.982	548.19
422.358	541.19
422.735	541.86
423.111	543.22
423.488	543.67
423.864	580.51
424.241	578.25
424.617	575.99
424.994	593.39
425.37	569.66
425.746	563.78
426.123	581.86
426.499	582.09
426.875	590.45
427.251	617.79
427.627	583.9
428.003	616.44
428.379	615.31
428.756	614.18
429.132	634.29
429.507	630.45
429.883	617.79
430.259	622.77
430.635	629.77
431.011	634.97
431.387	650.34
431.763	663.67
432.138	669.54
432.514	663.22
432.89	693.5
433.265	680.39
433.641	678.36
434.016	694.63
434.392	713.84
434.767	696.21
435.143	722.65
435.518	731.01
435.894	728.07
436.269	745.47
436.644	750.9
437.02	750.67
437.395	751.35
437.77	758.58
438.145	795.87
438.52	766.72
438.895	780.73
439.271	774.17
439.646	780.95
440.021	789.54
440.395	815.98
440.77	824.12
441.145	805.81
441.52	830.67
441.895	841.74
442.27	841.74
442.645	840.61
443.019	825.92
443.394	855.53
443.769	846.49
444.143	852.14
444.518	865.7
444.892	870.44
445.267	869.99
445.641	885.81
446.016	888.97
446.39	891.23
446.764	910.67
447.139	869.54
447.513	914.28
447.887	917.22
448.262	930.78
448.636	913.15
449.01	939.37
449.384	968.07
449.758	930.78
450.132	946.83
450.506	955.19
450.88	956.32
451.254	961.29
451.628	985.47
452.002	994.28
452.376	1009.2
452.75	1015.75
453.123	1008.74
453.497	1032.02
453.871	1027.05
454.244	1015.98
454.618	1052.59
454.992	1069.76
455.365	1089.19
455.739	1079.25
456.112	1133.26
456.486	1121.06
456.859	1127.39
457.232	1142.07
457.606	1149.53
457.979	1170.1
458.352	1186.59
458.725	1199.7
459.099	1225.46
459.472	1242.41
459.845	1241.05
460.218	1279.47
460.591	1253.26
460.964	1272.69
461.337	1329.64
461.71	1322.18
462.083	1341.84
462.456	1352.24
462.829	1325.8
463.201	1394.05
463.574	1398.79
463.947	1427.72
464.32	1436.53
464.692	1424.33
465.065	1494.38
465.438	1502.52
465.81	1515.85
466.183	1540.48
466.555	1575.28
466.928	1568.28
467.3	1604.21
467.672	1596.98
468.045	1681.5
468.417	1627.26
468.789	1721.49
469.161	1747.71
469.534	1751.32
469.906	1768.27
470.278	1813.24
470.65	1867.03
471.022	1869.29
471.394	1931.88
471.766	1952.45
472.138	1947.25
472.51	2063.18
472.882	2090.07
473.253	2103.63
473.625	2114.7
473.997	2228.37
474.369	2221.82
474.74	2285.1
475.112	2310.86
475.484	2412.1
475.855	2434.24
476.227	2490.97
476.598	2552.66
476.97	2606.22
477.341	2690.73
477.713	2752.65
478.084	2806.89
478.455	2897.06
478.827	2937.73
479.198	3108.8
479.569	3095.7
479.94	3243.26
480.311	3266.99
480.682	3389.92
481.053	3458.17
481.424	3557.83
481.795	3603.48
482.166	3703.82
482.537	3825.62
482.908	3942.9
483.279	4006.86
483.65	4101.09
484.021	4239.39
484.391	4312.84
484.762	4399.84
485.133	4524.81
485.503	4643.45
485.874	4775.65
486.244	4846.38
486.615	4930.22
486.985	5098.81
487.356	5230.1
487.726	5341.06
488.097	5479.14
488.467	5522.98
488.837	5736.3
489.207	5859.46
489.578	6026.24
489.948	6129.29
490.318	6303.29
490.688	6373.35
491.058	6525.44
491.428	6656.28
491.798	6734.92
492.168	6935.37
492.538	7016.27
492.908	7122.48
493.278	7283.16
493.648	7406.54
494.017	7535.8
494.387	7658.29
494.757	7773.09
495.126	7900.31
495.496	7983.93
495.866	8122.68
496.235	8216.46
496.605	8363.13
496.974	8484.48
497.344	8528.32
497.713	8656.68
498.082	8760.63
498.452	8921.3
498.821	8964.24
499.19	9016.44
499.559	9126.95
499.928	9264.35
500.298	9307.74
500.667	9461.63
501.036	9565.13
501.405	9608.07
501.774	9620.72
502.143	9784.79
502.512	9791.79
502.88	10009.19
503.249	10005.8
503.618	10022.97
503.987	10144.1
504.356	10249.41
504.724	10317.43
505.093	10408.5
505.462	10388.84
505.83	10489.4
506.199	10647.36
506.567	10694.59
506.936	10686
507.304	10785.66
507.672	10850.29
508.041	10916.28
508.409	10964.87
508.777	11078.31
509.145	11170.96
509.514	11221.58
509.882	11250.28
510.25	11191.53
510.618	11321.92
510.986	11341.81
511.354	11462.71
511.722	11492.76
512.09	11596.71
512.458	11579.31
512.826	11566.89
513.193	11708.12
513.561	11732.76
513.929	11743.6
514.297	11829.03
514.664	11865.63
515.032	11900.66
515.4	11962.13
515.767	11940.21
516.135	12100.66
516.502	11879.65
516.869	12185.17
517.237	12133.2
517.604	12118.51
517.972	12229.92
518.339	12264.72
518.706	12253.65
519.073	12254.32
519.44	12301.56
519.808	12392.85
520.175	12349.01
520.542	12503.58
520.909	12496.35
521.276	12494.77
521.643	12483.92
522.009	12567.76
522.376	12621.77
522.743	12647.76
523.11	12728.89
523.477	12694.99
523.843	12762.11
524.21	12805.72
524.577	12899.28
524.943	12855.21
525.31	12862.44
525.676	12852.28
526.043	12875.1
526.409	12952.84
526.776	12999.39
527.142	13013.4
527.508	13008.2
527.874	13048.2
528.241	13020.86
528.607	13039.61
528.973	13150.35
529.339	12996.9
529.705	13013.63
530.071	13136.79
530.437	13148.09
530.803	13139.73
531.169	13160.52
531.535	13011.59
531.901	13023.8
532.267	13059.5
532.632	13079.84
532.998	13029.22
533.364	13082.78
533.73	13097.01
534.095	13181.98
534.461	13098.82
534.826	13097.69
535.192	13041.42
535.557	13093.62
535.923	12978.15
536.288	13045.72
536.653	13040.74
537.019	12927.53
537.384	12895.89
537.749	12863.57
538.114	12875.55
538.479	12906.51
538.845	12821.77
539.21	12713.97
539.575	12768.44
539.94	12751.03
540.305	12768.66
540.67	12636.46
541.034	12699.28
541.399	12652.05
541.764	12602.56
542.129	12594.88
542.494	12641.21
542.858	12484.83
543.223	12488.22
543.587	12458.16
543.952	12411.61
544.316	12338.39
544.681	12295.23
545.045	12379.29
545.41	12307.2
545.774	12326.87
546.138	12258.17
546.503	12214.55
546.867	12141.33
547.231	12232.63
547.595	12190.6
547.959	12145.85
548.324	12085.06
548.688	12066.98
549.052	12058.17
549.416	11952.19
549.779	11986.99
550.143	11944.5
550.507	11988.34
550.871	11970.04
551.235	11771.85
551.599	11900.21
551.962	11802.59
552.326	11844.39
552.689	11832.64
553.053	11705.64
553.417	11667.9
553.78	11812.08
554.143	11696.37
554.507	11654.34
554.87	11692.08
555.234	11769.82
555.597	11632.19
555.96	11529.6
556.323	11585.87
556.686	11608.47
557.05	11590.16
557.413	11571.63
557.776	11532.31
558.139	11588.13
558.502	11497.96
558.865	11475.14
559.228	11525.08
559.59	11469.49
559.953	11444.85
560.316	11592.65
560.679	11546.09
561.041	11590.84
561.404	11610.73
561.767	11538.86
562.129	11499.99
562.492	11619.09
562.854	11634.68
563.217	11612.53
563.579	11562.59
563.941	11556.04
564.304	11651.63
564.666	11667.22
565.028	11596.49
565.39	11651.4
565.753	11641.46
566.115	11608.47
566.477	11686.88
566.839	11647.79
567.201	11686.2
567.563	11626.32
567.925	11688.24
568.287	11685.3
568.648	11564.63
569.01	11686.88
569.372	11803.94
569.734	11687.33
570.095	11726.2
570.457	11669.93
570.819	11754.22
571.18	11753.77
571.542	11870.83
571.903	11809.82
572.265	11835.35
572.626	11822.25
572.987	11824.51
573.349	11841.23
573.71	11850.04
574.071	11855.24
574.432	11871.06
574.794	11945.86
575.155	11959.87
575.516	11838.29
575.877	11883.71
576.238	11921
576.599	11942.92
576.96	11886.65
577.32	11948.34
577.681	11895.46
578.042	11856.82
578.403	11895.01
578.763	11941.34
579.124	11860.89
579.485	12030.6
579.845	12010.04
580.206	11896.37
580.566	11896.37
580.927	11903.15
581.287	11968
581.648	11906.76
582.008	11965.29
582.368	11842.36
582.728	11906.99
583.089	11879.65
583.449	11846.65
583.809	11954.67
584.169	11934.11
584.529	11844.84
584.889	11984.5
585.249	11787.44
585.609	11771.4
585.969	11850.95
586.329	11872.19
586.688	11823.15
587.048	11832.41
587.408	11840.55
587.768	11775.92
588.127	11801.46
588.487	11787.67
588.846	11833.54
589.206	11716.49
589.565	11716.26
589.925	11804.62
590.284	11785.86
590.643	11717.84
591.003	11721.91
591.362	11741.8
591.721	11750.38
592.08	11686.66
592.44	11773.21
592.799	11728.46
593.158	11655.47
593.517	11645.98
593.876	11659.09
594.235	11689.82
594.593	11715.58
594.952	11667
595.311	11657.5
595.67	11675.81
596.029	11750.84
596.387	11659.76
596.746	11689.37
597.104	11638.52
597.463	11707.22
597.822	11705.86
598.18	11665.87
598.538	11669.48
598.897	11684.17
599.255	11604.4
599.613	11751.97
599.972	11656.6
600.33	11683.49
600.688	11652.31
601.046	11655.24
601.404	11703.38
601.762	11625.19
602.12	11687.33
602.478	11699.09
602.836	11750.84
603.194	11584.96
603.552	11649.82
603.91	11549.71
604.268	11652.53
604.625	11553.1
604.983	11632.87
605.341	11559.43
605.698	11632.87
606.056	11632.87
606.413	11636.49
606.771	11694.11
607.128	11647.56
607.485	11596.71
607.843	11637.62
608.2	11647.56
608.557	11691.63
608.914	11677.39
609.272	11714.45
609.629	11775.47
609.986	11784.05
610.343	11749.93
610.7	11793.09
611.057	11813.21
611.414	11776.37
611.771	11786.77
612.127	11795.13
612.484	11781.34
612.841	11794
613.198	11770.5
613.554	11756.26
613.911	11858.18
614.267	11867.89
614.624	11815.01
614.98	11761.68
615.337	11891.62
615.693	11776.82
616.05	11849.59
616.406	11910.6
616.762	11811.17
617.118	11806.2
617.475	11799.2
617.831	11879.87
618.187	11844.84
618.543	11969.36
618.899	11968.68
619.255	11965.97
619.611	11951.28
619.967	11992.41
620.323	12029.02
620.678	11984.28
621.034	11888.68
621.39	11882.81
621.746	12001.9
622.101	11993.09
622.457	11978.4
622.812	12017.49
623.168	11999.42
623.523	12009.81
623.879	12056.36
624.234	11987.44
624.589	12014.11
624.945	11966.2
625.3	12017.49
625.655	11965.74
626.01	12027.44
626.365	12050.49
626.72	11960.1
627.075	11972.98
627.43	11987.44
627.785	11942.92
628.14	11988.12
628.495	11945.41
628.85	11882.81
629.205	11885.07
629.559	12003.71
629.914	11872.19
630.269	11885.52
630.623	11764.39
630.978	11897.5
631.332	11922.13
631.687	11949.93
632.041	11870.61
632.396	11836.71
632.75	11846.2
633.104	11914.45
633.459	11775.02
633.813	11792.42
634.167	11756.94
634.521	11786.09
634.875	11828.57
635.229	11697.05
635.583	11665.19
635.937	11670.39
636.291	11667.9
636.645	11691.4
636.999	11650.72
637.352	11718.52
637.706	11691.18
638.06	11638.07
638.413	11505.42
638.767	11543.16
639.121	11584.29
639.474	11526.66
639.828	11594.46
640.181	11632.19
640.534	11594.46
640.888	11532.76
641.241	11495.47
641.594	11497.96
641.947	11518.98
642.301	11556.49
642.654	11498.41
643.007	11500.9
643.36	11556.49
643.713	11476.72
644.066	11483.72
644.419	11433.33
644.771	11327.8
645.124	11307.68
645.477	11274.46
645.83	11193.79
646.182	11102.72
646.535	11074.69
646.888	11115.15
647.24	11072.21
647.593	11089.16
647.945	11081.7
648.298	11076.28
648.65	11037.18
649.002	11007.8
649.355	11084.19
649.707	11051.19
650.059	11091.19
650.411	11290.96
650.763	11281.47
651.115	11373.67
651.467	11356.5
651.819	11305.88
652.171	11377.06
652.523	11296.16
652.875	11342.26
653.227	11280.79
653.578	11380.68
653.93	11357.63
654.282	11342.48
654.633	11153.11
654.985	11268.14
655.337	11290.06
655.688	11365.08
656.039	11346.55
656.391	11215.03
656.742	11313.78
657.094	11324.18
657.445	11322.6
657.796	11293.45
658.147	11267.68
658.498	11280.34
658.849	11280.11
659.2	11333.44
659.551	11362.82
659.902	11345.87
660.253	11350.85
660.604	11287.12
660.955	11371.41
661.306	11314.46
661.656	11326.67
662.007	11292.54
662.358	11264.52
662.708	11413.89
663.059	11337.06
663.409	11217.29
663.76	11368.47
664.11	11350.62
664.461	11394.69
664.811	11352.65
665.161	11318.53
665.511	11349.26
665.862	11309.94
666.212	11366.66
666.562	11357.17
666.912	11374.8
667.262	11335.03
667.612	11343.61
667.962	11339.09
668.312	11318.3
668.662	11378.87
669.011	11352.2
669.361	11391.97
669.711	11335.03
670.06	11371.18
670.41	11394.91
670.76	11355.82
671.109	11387
671.459	11404.63
671.808	11317.17
672.157	11401.47
672.507	11315.37
672.856	11345.2
673.205	11288.93
673.554	11286.67
673.904	11356.72
674.253	11393.78
674.602	11217.06
674.951	11149.04
675.3	11042.83
675.649	11210.06
675.998	11198.76
676.346	11140
676.695	11208.25
677.044	11070.4
677.393	11168.48
677.741	11135.48
678.09	11199.89
678.438	11141.81
678.787	11109.27
679.135	11104.98
679.484	11068.37
679.832	11135.48
680.181	11013.68
680.529	11106.56
680.877	10992.66
681.225	10982.49
681.573	11080.12
681.922	10986.34
682.27	10863.85
682.618	10966.67
682.966	10874.93
683.314	10876.28
683.661	10900.46
684.009	10828.15
684.357	10802.39
684.705	10736.85
685.053	10784.76
685.4	10731.43
685.748	10702.28
686.095	10698.43
686.443	10732.33
686.79	10645.55
687.138	10655.27
687.485	10670.86
687.832	10642.84
688.18	10591.54
688.527	10569.17
688.874	10476.97
689.221	10531.43
689.568	10468.38
689.915	10469.51
690.262	10443.07
690.609	10446.01
690.956	10378.67
691.303	10352
691.65	10267.48
691.997	10234.04
692.344	10180.93
692.69	10129.86
693.037	10208.5
693.383	10024.78
693.73	10160.59
694.077	10079.69
694.423	10060.94
694.769	9964.67
695.116	9986.59
695.462	9954.05
695.808	9903.43
696.155	9942.75
696.501	9839.25
696.847	9832.02
697.193	9773.71
697.539	9825.01
697.885	9660.49
698.231	9724.22
698.577	9696.43
698.923	9665.01
699.269	9602.42
699.614	9525.58
699.96	9566.03
700.306	9509.54
700.651	9417.34
700.997	9381.18
701.342	9388.64
701.688	9442.42
702.033	9339.83
702.379	9296.21
702.724	9265.25
703.069	9320.16
703.415	9143.45
703.76	9190.22
704.105	9140.06
704.45	9138.25
704.795	9136.89
705.14	9026.84
705.485	9044.01
705.83	9053.5
706.175	9019.16
706.52	8899.61
706.865	8914.75
707.209	8933.06
707.554	8886.96
707.899	8889.89
708.243	8802.66
708.588	8764.02
708.932	8724.93
709.277	8673.85
709.621	8733.97
709.966	8705.49
710.31	8640.63
710.654	8592.05
710.998	8645.61
711.342	8583.23
711.687	8533.29
712.031	8534.2
712.375	8517.7
712.719	8471.37
713.063	8446.97
713.407	8485.84
713.75	8487.87
714.094	8462.79
714.438	8460.75
714.782	8415.33
715.125	8393.41
715.469	8423.69
715.812	8338.04
716.156	8314.32
716.499	8330.13
716.843	8324.71
717.186	8282
717.53	8298.04
717.873	8373.3
718.216	8274.99
718.559	8265.73
718.902	8220.31
719.246	8193.19
719.589	8199.29
719.932	8207.2
720.275	8181.44
720.617	8228.44
720.96	8220.53
721.303	8210.59
721.646	8209.46
721.989	8108.9
722.331	8126.98
722.674	8139.63
723.016	8194.54
723.359	8128.11
723.701	8105.96
724.044	8113.64
724.386	8029.8
724.729	8065.51
725.071	8076.13
725.413	8091.72
725.755	8089.91
726.097	8062.34
726.439	8012.18
726.782	7984.83
727.124	8094.21
727.465	8032.74
727.807	7991.16
728.149	8010.37
728.491	7999.07
728.833	7995.91
729.175	8063.02
729.516	7969.92
729.858	7989.35
730.199	7980.54
730.541	7959.75
730.882	7905.06
731.224	7987.77
731.565	7994.32
731.906	8002.69
732.248	7958.39
732.589	7926.98
732.93	7909.81
733.271	7953.65
733.612	7946.64
733.953	8015.57
734.294	7955.23
734.635	7890.6
734.976	7952.97
735.317	7957.26
735.658	7956.13
735.999	7930.37
736.339	7964.27
736.68	7992.29
737.021	7954.32
737.361	7973.76
737.702	8016.7
738.042	7974.21
738.383	7968.34
738.723	8011.05
739.063	8024.38
739.404	8003.36
739.744	8001.56
740.084	7979.86
740.424	8013.98
740.764	8002.69
741.104	8057.82
741.444	8039.97
741.784	8049.24
742.124	8072.97
742.464	8098.05
742.804	8123.81
743.143	8152.96
743.483	8136.24
743.823	8146.41
744.162	8124.94
744.502	8236.58
744.841	8234.77
745.181	8267.31
745.52	8250.59
745.86	8299.85
746.199	8374.65
746.538	8318.38
746.877	8405.39
747.216	8483.35
747.556	8484.93
747.895	8512.95
748.234	8528.32
748.573	8584.82
748.911	8682.89
749.25	8706.62
749.589	8792.72
749.928	8848.76
750.267	8909.55
750.605	8981.87
750.944	9060.28
751.283	9034.75
751.621	9230
751.96	9280.17
752.298	9354.97
752.636	9496.21
752.975	9539.59
753.313	9607.84
753.651	9776.2
753.989	9852.35
754.327	9919.47
754.666	9963.31
755.004	10116.98
755.342	10309.74
755.679	10357.43
756.017	10538.89
756.355	10622.05
756.693	10708.6
757.031	10924.42
757.368	11042.38
757.706	11098.42
758.044	11191.3
758.381	11449.15
758.719	11598.75
759.056	11670.61
759.394	11891.85
759.731	11902.24
760.068	12172.29
760.405	12259.07
760.743	12434.66
761.08	12633.07
761.417	12734.09
761.754	12925.95
762.091	13101.99
762.428	13226.5
762.765	13303.34
763.102	13503.78
763.438	13638.7
763.775	13697.68
764.112	13944.45
764.449	14174.95
764.785	14288.85
765.122	14328.85
765.458	14537.65
765.795	14699.23
766.131	14734.49
766.467	14898.77
766.804	15021.26
767.14	15195.72
767.476	15349.61
767.812	15463.73
768.148	15657.4
768.485	15665.31
768.821	15795.7
769.157	15870.73
769.492	15982.14
769.828	16157.5
770.164	16163.15
770.5	16349.36
770.836	16429.81
771.171	16454.89
771.507	16619.63
771.842	16616.7
772.178	16700.08
772.513	16750.03
772.849	16971.04
773.184	17007.87
773.519	17061.88
773.855	17121.77
774.19	17117.93
774.525	17191.6
774.86	17272.5
775.195	17383.91
775.53	17504.36
775.865	17361.99
776.2	17413.06
776.535	17350.01
776.87	17535.77
777.205	17507.52
777.539	17554.3
777.874	17563.56
778.209	17656.22
778.543	17625.48
778.878	17532.15
779.212	17763.33
779.547	17686.5
779.881	17765.59
780.215	17760.39
780.55	17863.89
780.884	17702.54
781.218	17805.37
781.552	17935.08
781.886	17755.42
782.22	17820.73
782.554	17820.73
782.888	17726.5
783.222	17704.8
783.556	17589.33
783.889	17709.55
784.223	17549.1
784.557	17586.39
784.89	17735.54
785.224	17638.59
785.557	17620.74
785.891	17634.97
786.224	17608.76
786.558	17665.48
786.891	17503.68
787.224	17526.95
787.557	17514.3
787.891	17537.8
788.224	17491.25
788.557	17484.47
788.89	17501.19
789.223	17488.76
789.556	17339.61
789.888	17426.84
790.221	17397.47
790.554	17306.4
790.887	17286.28
791.219	17257.13
791.552	17166.74
791.884	17222.33
792.217	17145.5
792.549	16993.41
792.882	17121.77
793.214	17039.28
793.546	17072.5
793.879	16927.42
794.211	16904.6
794.543	16912.06
794.875	16913.64
795.207	16966.97
795.539	16927.42
795.871	16931.94
796.203	16664.83
796.535	16660.08
796.867	16656.47
797.198	16645.17
797.53	16599.3
797.862	16487.89
798.193	16650.37
798.525	16453.99
798.856	16532.86
799.188	16305.74
799.519	16319.98
799.85	16262.81
800.182	16272.3
800.513	16289.25
800.844	16174.45
801.175	16290.15
801.506	16169.02
801.837	16188.46
802.168	16089.7
802.499	16015.36
802.83	15998.63
803.161	16027.78
803.491	15931.97
803.822	15880.44
804.153	15901.69
804.483	15740.33
804.814	15716.38
805.145	15764.51
805.475	15799.09
805.805	15647.68
806.136	15656.72
806.466	15660.34
806.796	15566.78
807.126	15513.9
807.457	15430.06
807.787	15518.65
808.117	15415.37
808.447	15383.28
808.777	15360.91
809.107	15354.13
809.436	15235.94
809.766	15260.57
810.096	15312.1
810.426	15113.23
810.755	15225.09
811.085	15192.55
811.414	15131.76
811.744	14989.85
812.073	15041.82
812.403	14977.42
812.732	14897.19
813.061	14966.34
813.39	14893.35
813.719	14882.73
814.049	14892.22
814.378	14807.25
814.707	14724.77
815.036	14830.08
815.365	14705.56
815.693	14626.69
816.022	14649.97
816.351	14563.87
816.68	14469.63
817.008	14573.59
817.337	14422.18
817.665	14423.76
817.994	14409.75
818.322	14487.03
818.651	14374.72
818.979	14422.86
819.307	14349.18
819.636	14446.81
819.964	14279.36
820.292	14399.58
820.62	14446.13
820.948	14260.37
821.276	14418.56
821.604	14252.92
821.932	14304.44
822.259	14283.65
822.587	14283.88
822.915	14307.38
823.243	14301.73
823.57	14266.02
823.898	14284.1
824.225	14293.82
824.553	14261.05
824.88	14272.8
825.207	14285.01
825.535	14285.46
825.862	14336.98
826.189	14209.75
826.516	14389.18
826.843	14276.87
827.17	14322.97
827.497	14329.75
827.824	14335.63
828.151	14304.67
828.478	14263.99
828.805	14388.51
829.131	14300.37
829.458	14215.86
829.785	14208.17
830.111	14253.37
830.438	14369.3
830.764	14296.76
831.09	14281.39
831.417	14132.24
831.743	14284.78
832.069	14316.87
832.395	14183.77
832.722	14278
833.048	14181.73
833.374	14204.56
833.7	14049.98
834.026	14263.09
834.351	14213.6
834.677	14130.43
835.003	14145.12
835.329	14167.04
835.654	14117.33
835.98	14060.15
836.306	14100.6
836.631	14024.67
836.956	14107.61
837.282	14107.61
837.607	14093.37
837.932	14025.8
838.258	14023.09
838.583	13968.63
838.908	13887.28
839.233	13969.99
839.558	13850.44
839.883	13774.96
840.208	13751.91
840.533	13792.14
840.858	13831.68
841.182	13825.13
841.507	13793.49
841.832	13637.57
842.156	13717.56
842.481	13671.91
842.805	13595.08
843.13	13653.84
843.454	13611.8
843.778	13528.19
844.103	13471.24
844.427	13470.56
844.751	13404.35
845.075	13434.63
845.399	13358.7
845.723	13291.81
846.047	13345.37
846.371	13186.73
846.695	13290.68
847.019	13122.1
847.343	13115.32
847.666	12997.58
847.99	13023.12
848.313	12943.8
848.637	12891.37
848.96	12853.18
849.284	12786.06
849.607	12772.5
849.931	12644.14
850.254	12617.48
850.577	12565.05
850.9	12462.91
851.223	12430.37
851.546	12396.24
851.869	12353.08
852.192	12362.57
852.515	12277.37
852.838	12249.13
853.161	12268.79
853.483	12136.36
853.806	12039.19
854.129	12005.97
854.451	12001.9
854.774	11968.68
855.096	11921.9
855.419	11901.79
855.741	11913.32
856.063	11834.22
856.385	11699.09
856.708	11790.83
857.03	11737.28
857.352	11753.32
857.674	11646.66
857.996	11606.43
858.318	11610.5
858.64	11524.85
858.961	11544.06
859.283	11517.39
859.605	11398.98
859.926	11403.95
860.248	11417.74
860.57	11333.9
860.891	11349.94
861.212	11311.98
861.534	11239.21
861.855	11162.15
862.176	11283.73
862.498	11208.02
862.819	11255.03
863.14	11186.56
863.461	11129.83
863.782	11120.57
864.103	11165.09
864.424	11069.05
864.745	11060.46
865.065	10990.63
865.386	10974.13
865.707	10992.44
866.027	11022.94
866.348	10963.29
866.668	10865.43
866.989	10912.21
867.309	10883.51
867.63	10821.82
867.95	10875.83
868.27	10781.14
868.59	10838.77
868.91	10783.18
869.23	10821.14
869.55	10793.35
869.87	10848.26
870.19	10795.61
870.51	10784.31
870.83	10796.28
871.15	10688.26
871.469	10738.43
871.789	10739.11
872.109	10677.64
872.428	10616.18
872.748	10637.19
873.067	10680.58
873.386	10622.5
873.706	10624.31
874.025	10549.74
874.344	10550.87
874.663	10563.52
874.982	10555.39
875.301	10511.55
875.62	10507.03
875.939	10382.06
876.258	10448.27
876.577	10400.36
876.896	10390.19
877.214	10367.82
877.533	10376.63
877.852	10339.12
878.17	10405.79
878.489	10308.61
878.807	10329.86
879.125	10255.73
879.444	10323.98
879.762	10202.85
880.08	10311.78
880.398	10178.67
880.716	10222.29
881.034	10148.17
881.352	10147.71
881.67	10136.87
881.988	10187.03
882.306	10118.56
882.624	10103.19
882.941	10029.3
883.259	9968.06
883.577	9946.81
883.894	10005.57
884.212	9931.45
884.529	9927.61
884.846	9873.6
885.164	9845.57
885.481	9844.9
885.798	9896.87
886.115	9744.33
886.432	9791.34
886.75	9742.53
887.067	9752.92
887.383	9734.62
887.7	9746.14
888.017	9667.5
888.334	9707.5
888.651	9638.12
888.967	9653.94
889.284	9570.55
889.6	9543.89
889.917	9517.45
890.233	9475.87
890.55	9428.41
890.866	9408.75
891.182	9394.06
891.498	9358.13
891.815	9351.12
892.131	9302.76
892.447	9308.64
892.763	9227.96
893.079	9243.56
893.395	9204.91
893.71	9270.45
894.026	9146.84
894.342	9182.32
894.657	9096.67
894.973	9025.71
895.289	9107.97
895.604	9060.96
895.92	8948.42
896.235	8980.51
896.55	8905.71
896.865	8933.06
897.181	8853.28
897.496	8815.77
897.811	8826.17
898.126	8727.41
898.441	8779.16
898.756	8744.36
899.071	8680.86
899.386	8708.2
899.7	8599.28
900.015	8550.69
900.33	8503.91
900.644	8487.87
900.959	8510.92
901.273	8470.24
901.588	8411.26
901.902	8383.01
902.216	8394.54
902.531	8347.31
902.845	8309.34
903.159	8218.5
903.473	8267.08
903.787	8175.56
904.101	8141.89
904.415	8134.43
904.729	8125.17
905.042	8050.14
905.356	8080.2
905.67	8039.97
905.984	8021.89
906.297	8010.59
906.611	7895.34
906.924	7901.22
907.237	7932.86
907.551	7853.08
907.864	7819.41
908.177	7739.19
908.491	7769.02
908.804	7732.64
909.117	7718.85
909.43	7584.62
909.743	7589.81
910.056	7595.01
910.368	7602.24
910.681	7470.04
910.994	7548.91
911.307	7445.86
911.619	7396.15
911.932	7380.1
912.244	7361.12
912.557	7339.2
912.869	7269.6
913.181	7204.29
913.494	7291.52
913.806	7212.42
914.118	7210.16
914.43	7111.86
914.742	7156.83
915.054	7145.76
915.366	7058.3
915.678	7029.38
915.99	6966.1
916.302	6938.98
916.613	6938.08
916.925	6918.65
917.236	6934.92
917.548	6914.58
917.859	6870.29
918.171	6885.2
918.482	6759.78
918.794	6703.74
919.105	6695.15
919.416	6741.02
919.727	6740.8
920.038	6648.82
920.349	6568.15
920.66	6653.57
920.971	6584.19
921.282	6597.07
921.593	6502.39
921.903	6507.13
922.214	6457.41
922.525	6443.63
922.835	6385.55
923.146	6383.97
923.456	6395.27
923.767	6284.09
924.077	6323.86
924.387	6294.48
924.697	6282.73
925.008	6275.05
925.318	6222.39
925.628	6187.59
925.938	6178.55
926.248	6098.1
926.558	6125.45
926.867	6115.28
927.177	6041.15
927.487	6005.22
927.796	5951.89
928.106	5982.17
928.416	5994.15
928.725	5946.24
929.034	5879.13
929.344	5872.35
929.653	5849.75
929.962	5814.27
930.271	5812.23
930.581	5865.34
930.89	5798.22
931.199	5718.23
931.508	5757.55
931.817	5738.56
932.125	5694.95
932.434	5666.93
932.743	5577.89
933.051	5595.29
933.36	5553.94
933.669	5528.85
933.977	5506.25
934.286	5555.52
934.594	5504.22
934.902	5470.77
935.21	5417.44
935.519	5444.56
935.827	5395.97
936.135	5388.52
936.443	5346.03
936.751	5344.22
937.059	5303.77
937.367	5249.76
937.674	5283.21
937.982	5281.17
938.29	5207.73
938.597	5215.19
938.905	5154.4
939.213	5100.16
939.52	5106.04
939.827	5083.44
940.135	5094.06
940.442	5057.23
940.749	5026.72
941.056	5042.31
941.363	5003.44
941.67	5005.25
941.977	4932.03
942.284	4888.42
942.591	4889.09
942.898	4884.35
943.205	4866.72
943.511	4894.52
943.818	4867.85
944.125	4816.1
944.431	4774.52
944.738	4791.24
945.044	4727.52
945.35	4760.74
945.657	4721.42
945.963	4667.41
946.269	4612.94
946.575	4658.37
946.881	4635.99
947.187	4598.71
947.493	4597.58
947.799	4548.76
948.105	4541.76
948.41	4513.96
948.716	4541.31
949.022	4519.84
949.327	4521.87
949.633	4425.83
949.938	4434.19
950.244	4430.58
950.549	4356.23
950.854	4354.65
951.16	4385.15
951.465	4381.54
951.77	4365.94
952.075	4319.62
952.38	4283.46
952.685	4267.87
952.99	4245.27
953.294	4227.42
953.599	4191.71
953.904	4210.69
954.209	4173.63
954.513	4150.81
954.818	4100.64
955.122	4108.78
955.426	4125.72
955.731	4091.38
956.035	4094.99
956.339	4071.49
956.643	4033.52
956.948	4031.04
957.252	4043.24
957.556	3995.33
957.86	3949.91
958.163	3966.86
958.467	3936.58
958.771	3924.83
959.075	3954.2
959.378	3895
959.682	3899.29
959.985	3868.33
960.289	3857.26
960.592	3832.85
960.896	3801.44
961.199	3793.08
961.502	3830.59
961.805	3781.78
962.108	3796.69
962.411	3731.16
962.714	3704.49
963.017	3667.66
963.32	3703.36
963.623	3639.41
963.926	3680.54
964.228	3618.62
964.531	3636.7
964.833	3599.41
965.136	3577.72
965.438	3539.53
965.741	3548.79
966.043	3540.2
966.345	3533.65
966.648	3537.04
966.95	3485.74
967.252	3468.34
967.554	3455.23
967.856	3433.54
968.158	3397.38
968.46	3431.51
968.761	3428.12
969.063	3406.87
969.365	3373.43
969.666	3426.08
969.968	3333.88
970.269	3308.8
970.571	3312.64
970.872	3317.16
971.174	3280.78
971.475	3250.27
971.776	3256.6
972.077	3231.96
972.378	3228.8
972.679	3195.81
972.98	3164.17
973.281	3187.22
973.582	3192.87
973.883	3144.06
974.183	3177.28
974.484	3143.15
974.785	3123.04
975.085	3087.11
975.386	3123.94
975.686	3112.19
975.986	3083.94
976.287	3084.4
976.587	3032.87
976.887	3005.98
977.187	3038.97
977.487	3032.65
977.787	2983.83
978.087	2969.37
978.387	2968.02
978.687	2988.81
978.987	2927.56
979.286	2930.73
979.586	2944.06
979.885	2884.4
980.185	2911.29
980.484	2880.56
980.784	2846.44
981.083	2878.53
981.382	2815.93
981.682	2829.49
981.981	2800.11
982.28	2794.01
982.579	2773.22
982.878	2777.06
983.177	2740.9
983.475	2745.87
983.774	2765.31
984.073	2725.99
984.372	2706.78
984.67	2694.12
984.969	2689.15
985.267	2638.53
985.566	2676.27
985.864	2665.88
986.162	2650.74
986.461	2614.8
986.759	2634.01
987.057	2573.22
987.355	2587.91
987.653	2553.34
987.951	2598.31
988.249	2585.88
988.547	2561.02
988.844	2529.38
989.142	2539.78
989.44	2526.9
989.737	2507.24
990.035	2465.66
990.332	2491.19
990.63	2473.11
990.927	2472.89
991.224	2428.59
991.521	2411.87
991.819	2387.24
992.116	2415.94
992.413	2371.65
992.71	2372.78
993.006	2398.09
993.303	2357.64
993.6	2368.03
993.897	2338.65
994.193	2340.46
994.49	2298.43
994.787	2277.64
995.083	2302.72
995.379	2303.85
995.676	2281.48
995.972	2273.57
996.268	2267.47
996.565	2243.06
996.861	2210.97
997.157	2222.5
997.453	2217.75
997.749	2176.4
998.044	2190.86
998.34	2204.42
998.636	2179.79
998.932	2112.9
999.227	2121.48
999.523	2109.51
999.818	2094.82
1000.114	2125.78
1000.409	2089.17
1000.704	2043.75
1001	2092.11
1001.295	2058.21
1001.59	2024.09
1001.885	2059.11
1002.18	2040.36
1002.475	1988.83
1002.77	2026.35
1003.065	2023.41
1003.359	1963.52
1003.654	1985.67
1003.949	1966.46
1004.243	1963.52
1004.538	1931.21
1004.832	1935.05
1005.127	1934.14
1005.421	1902.05
1005.715	1886.24
1006.009	1920.13
1006.304	1884.2
1006.598	1831.1
1006.892	1869.74
1007.186	1858.89
1007.48	1862.28
1007.773	1820.25
1008.067	1821.15
1008.361	1796.07
1008.655	1802.17
1008.948	1782.06
1009.242	1789.97
1009.535	1743.87
1009.829	1735.51
1010.122	1729.63
1010.415	1743.64
1010.708	1710.2
1011.001	1708.16
1011.295	1693.7
1011.588	1678.11
1011.881	1661.61
1012.173	1688.95
1012.466	1682.63
1012.759	1673.36
1013.052	1627.03
1013.344	1644.43
1013.637	1596.3
1013.93	1625.68
1014.222	1616.41
1014.514	1602.4
1014.807	1596.98
1015.099	1568.28
1015.391	1580.71
1015.683	1560.82
1015.976	1553.82
1016.268	1528.05
1016.56	1549.52
1016.851	1521.5
1017.143	1552.91
1017.435	1506.58
1017.727	1488.96
1018.018	1500.48
1018.31	1472.01
1018.602	1480.37
1018.893	1462.97
1019.185	1462.52
1019.476	1471.11
1019.767	1440.15
1020.058	1421.62
1020.35	1417.32
1020.641	1403.76
1020.932	1391.33
1021.223	1374.16
1021.514	1372.35
1021.804	1380.71
1022.095	1367.61
1022.386	1345.91
1022.677	1334.39
1022.967	1329.19
1023.258	1327.15
1023.548	1328.74
1023.839	1286.25
1024.129	1306.14
1024.419	1294.39
1024.709	1306.82
1025	1277.66
1025.29	1271.79
1025.58	1255.07
1025.87	1234.95
1026.16	1233.15
1026.449	1253.48
1026.739	1215.74
1027.029	1241.73
1027.319	1173.71
1027.608	1201.06
1027.898	1197.44
1028.187	1184.79
1028.477	1191.11
1028.766	1201.06
1029.055	1174.84
1029.344	1143.43
1029.634	1132.36
1029.923	1154.5
1030.212	1161.51
1030.501	1139.14
1030.79	1095.07
1031.078	1138.23
1031.367	1109.08
1031.656	1103.21
1031.945	1072.7
1032.233	1091.68
1032.522	1088.06
1032.81	1079.48
1033.099	1059.14
1033.387	1041.29
1033.675	1051
1033.963	1025.69
1034.251	1063.43
1034.54	1036.99
1034.828	1015.98
1035.116	1025.02
1035.403	1016.43
1035.691	1007.16
1035.979	1006.03
1036.267	1012.36
1036.554	986.6
1036.842	984.79
1037.129	973.72
1037.417	958.8
1037.704	986.82
1037.992	961.74
1038.279	945.47
1038.566	942.08
1038.853	942.08
1039.14	942.08
