Data from hue_20_FLMS001491_35.txt Node
Date: Mon Feb 06 15:33:59 GMT 2017
User: dcchb
Spectrometer: FLMS00149
Trigger mode: 0
Integration Time (sec): 2.000000E-2
Scans to average: 10
Electric dark correction enabled: true
Nonlinearity correction enabled: false
Boxcar width: 0
XAxis mode: Wavelengths
Number of Pixels in Spectrum: 2048
>>>>>Begin Spectral Data<<<<<
341.393	-10.13
341.776	-10.13
342.16	-10.13
342.543	-57.81
342.927	-46.96
343.31	-72.27
343.693	-68.43
344.077	-71.59
344.46	-62.55
344.843	-32.73
345.226	-47.41
345.61	-15.32
345.993	-29.79
346.376	-1.31
346.759	5.01
347.142	21.51
347.525	55.41
347.908	49.76
348.291	72.13
348.674	94.05
349.057	103.54
349.44	121.4
349.823	143.09
350.206	159.13
350.588	204.78
350.971	213.14
351.354	215.86
351.737	235.06
352.119	239.81
352.502	276.87
352.884	269.19
353.267	290.66
353.65	296.31
354.032	309.86
354.414	318.45
354.797	296.98
355.179	324.55
355.562	321.62
355.944	330.66
356.326	315.06
356.709	337.66
357.091	355.06
357.473	353.48
357.855	347.15
358.238	359.13
358.62	336.3
359.002	350.54
359.384	353.48
359.766	334.72
360.148	338.11
360.53	334.04
360.912	340.82
361.294	347.38
361.676	324.78
362.057	342.18
362.439	361.16
362.821	333.37
363.203	307.6
363.584	331.11
363.966	328.17
364.348	335.17
364.729	313.25
365.111	318.9
365.493	327.72
365.874	331.79
366.256	307.38
366.637	309.64
367.019	310.54
367.4	329.3
367.781	330.66
368.163	306.25
368.544	305.8
368.925	309.64
369.306	323.42
369.688	295.4
370.069	314.84
370.45	302.41
370.831	298.11
371.212	328.17
371.593	316.64
371.974	316.19
372.355	315.29
372.736	325.01
373.117	305.8
373.498	328.85
373.879	308.06
374.26	315.06
374.641	309.41
375.021	290.2
375.402	315.97
375.783	316.19
376.163	301.73
376.544	324.78
376.925	302.86
377.305	329.75
377.686	325.91
378.066	339.92
378.447	319.36
378.827	316.64
379.208	333.59
379.588	326.59
379.968	324.78
380.349	333.14
380.729	344.67
381.109	337.89
381.489	324.1
381.87	340.82
382.25	344.21
382.63	344.67
383.01	338.11
383.39	337.43
383.77	354.84
384.15	342.63
384.53	346.47
384.91	336.98
385.29	360.94
385.67	345.34
386.049	336.53
386.429	353.48
386.809	355.29
387.189	313.93
387.568	349.41
387.948	353.48
388.328	360.71
388.707	375.63
389.087	346.25
389.466	352.12
389.846	363.42
390.225	342.41
390.605	340.37
390.984	344.21
391.363	352.12
391.743	353.93
392.122	351.9
392.501	360.71
392.881	365.68
393.26	353.71
393.639	363.65
394.018	375.4
394.397	357.1
394.776	375.4
395.155	359.81
395.534	376.53
395.913	374.72
396.292	371.56
396.671	376.76
397.05	371.11
397.429	370.65
397.808	361.16
398.186	361.61
398.565	383.99
398.944	386.92
399.323	394.83
399.701	392.12
400.08	380.6
400.458	382.86
400.837	386.92
401.215	374.27
401.594	385.12
401.972	393.03
402.351	403.42
402.729	407.04
403.107	390.99
403.486	397.09
403.864	394.16
404.242	417.43
404.62	405.91
404.999	384.89
405.377	404.55
405.755	410.43
406.133	403.87
406.511	400.94
406.889	414.72
407.267	423.99
407.645	430.09
408.023	429.41
408.401	396.87
408.779	419.24
409.156	431.44
409.534	421.73
409.912	413.14
410.29	412.01
410.667	437.32
411.045	442.74
411.422	447.26
411.8	438.9
412.178	427.38
412.555	446.36
412.933	459.01
413.31	432.8
413.687	455.4
414.065	446.58
414.442	447.49
414.819	454.72
415.197	457.21
415.574	455.85
415.951	456.3
416.328	455.85
416.705	433.93
417.082	472.8
417.46	455.4
417.837	458.79
418.214	476.64
418.591	455.62
418.967	464.44
419.344	495.17
419.721	490.42
420.098	482.06
420.475	480.03
420.852	477.77
421.228	472.57
421.605	499.01
421.982	505.79
422.358	485.68
422.735	496.98
423.111	531.78
423.488	506.92
423.864	495.17
424.241	513.25
424.617	509.41
424.994	502.4
425.37	504.66
425.746	515.74
426.123	529.75
426.499	518.67
426.875	523.19
427.251	521.84
427.627	518.45
428.003	531.1
428.379	540.14
428.756	516.86
429.132	558.67
429.507	549.18
429.883	562.74
430.259	544.21
430.635	554.15
431.011	595.96
431.387	559.35
431.763	588.95
432.138	555.96
432.514	579.46
432.89	577.88
433.265	583.08
433.641	594.38
434.016	614.26
434.392	609.52
434.767	599.35
435.143	617.2
435.518	628.05
435.894	621.27
436.269	619.91
436.644	624.43
437.02	603.19
437.395	638.67
437.77	656.3
438.145	630.31
438.52	657.65
438.895	657.65
439.271	658.33
439.646	662.4
440.021	672.12
440.395	676.86
440.77	687.26
441.145	659.23
441.52	682.96
441.895	664.88
442.27	686.8
442.645	695.84
443.019	698.33
443.394	657.43
443.769	678.44
444.143	693.13
444.518	705.11
444.892	698.78
445.267	701.94
445.641	722.51
446.016	698.1
446.39	716.41
446.764	712.34
447.139	714.6
447.513	743.98
447.887	727.48
448.262	731.32
448.636	739.46
449.01	747.14
449.384	741.94
449.758	731.1
450.132	752.79
450.506	751.66
450.88	763.64
451.254	766.12
451.628	747.59
452.002	766.8
452.376	783.52
452.75	793.92
453.123	781.94
453.497	821.04
453.871	779.91
454.244	792.11
454.618	840.7
454.992	841.83
455.365	843.18
455.739	835.73
456.112	851.77
456.486	848.83
456.859	873.24
457.232	870.75
457.606	901.04
457.979	874.37
458.352	901.49
458.725	899.23
459.099	887.7
459.472	917.31
459.845	932.45
460.218	948.27
460.591	917.31
460.964	943.97
461.337	953.01
461.71	947.81
462.083	964.08
462.456	966.12
462.829	981.49
463.201	1004.31
463.574	995.27
463.947	1037.76
464.32	1005.67
464.692	1035.27
465.065	1003.41
465.438	1055.83
465.81	1071.43
466.183	1072.33
466.555	1084.76
466.928	1095.61
467.3	1114.82
467.672	1099.22
468.045	1150.07
468.417	1154.36
468.789	1155.72
469.161	1160.01
469.534	1173.57
469.906	1220.58
470.278	1204.3
470.65	1232.1
471.022	1247.24
471.394	1261.93
471.766	1275.26
472.138	1288.82
472.51	1335.15
472.882	1328.6
473.253	1338.31
473.625	1350.97
473.997	1407.46
474.369	1405.88
474.74	1419.21
475.112	1456.5
475.484	1474.35
475.855	1487.01
476.227	1503.96
476.598	1560.45
476.97	1581.02
477.341	1611.3
477.713	1615.14
478.084	1633.22
478.455	1687.23
478.827	1698.75
479.198	1724.74
479.569	1773.33
479.94	1778.75
480.311	1818.75
480.682	1843.61
481.053	1869.82
481.424	1912.53
481.795	1927.22
482.166	1997.96
482.537	2031.85
482.908	2041.57
483.279	2082.02
483.65	2094.68
484.021	2172.19
484.391	2203.83
484.762	2211.28
485.133	2262.13
485.503	2267.33
485.874	2346.65
486.244	2351.39
486.615	2395.46
486.985	2437.04
487.356	2491.95
487.726	2494.67
488.097	2562.69
488.467	2577.15
488.837	2630.26
489.207	2675.9
489.578	2732.85
489.948	2774.66
490.318	2768.11
490.688	2798.16
491.058	2849.23
491.428	2878.61
491.798	2968.55
492.168	2965.84
492.538	2960.19
492.908	3028.66
493.278	3066.18
493.648	3096.23
494.017	3161.77
494.387	3166.29
494.757	3188.43
495.126	3216.68
495.496	3213.52
495.866	3296.9
496.235	3298.03
496.605	3328.99
496.974	3364.02
497.344	3371.03
497.713	3397.24
498.082	3470.01
498.452	3460.74
498.821	3474.98
499.19	3550.68
499.559	3578.48
499.928	3561.53
500.298	3598.14
500.667	3654.86
501.036	3629.78
501.405	3671.36
501.774	3676.33
502.143	3693.73
502.512	3719.94
502.88	3746.38
503.249	3737.12
503.618	3741.64
503.987	3839.49
504.356	3837.68
504.724	3863.67
505.093	3873.16
505.462	3940.5
505.83	3936.66
506.199	3922.43
506.567	4012.82
506.936	3963.78
507.304	4017.79
507.672	4020.95
508.041	4048.52
508.409	4046.04
508.777	4101.63
509.145	4121.06
509.514	4120.16
509.882	4185.47
510.25	4142.98
510.618	4152.93
510.986	4184.34
511.354	4229.54
511.722	4192.47
512.09	4296.88
512.458	4267.27
512.826	4317.67
513.193	4302.08
513.561	4339.14
513.929	4340.95
514.297	4398.57
514.664	4362.41
515.032	4421.62
515.4	4431.56
515.767	4457.78
516.135	4484.22
516.502	4476.08
516.869	4485.57
517.237	4481.05
517.604	4495.29
517.972	4507.27
518.339	4573.26
518.706	4567.38
519.073	4571
519.44	4583.65
519.808	4638.79
520.175	4615.97
520.542	4679.02
520.909	4673.82
521.276	4676.3
521.643	4721.73
522.009	4762.18
522.376	4800.14
522.743	4744.55
523.11	4805.57
523.477	4925.11
523.843	4832.46
524.21	4916.3
524.577	4930.76
524.943	4994.04
525.31	4988.84
525.676	5025.67
526.043	5020.02
526.409	5066.58
526.776	5112.45
527.142	5108.61
527.508	5162.39
527.874	5152
528.241	5205.56
528.607	5151.55
528.973	5241.71
529.339	5203.3
529.705	5240.81
530.071	5328.49
530.437	5286.68
530.803	5409.84
531.169	5415.49
531.535	5379.11
531.901	5403.97
532.267	5405.1
532.632	5464.53
532.998	5515.6
533.364	5508.82
533.73	5516.73
534.095	5614.13
534.461	5587.24
534.826	5612.1
535.192	5634.24
535.557	5680.34
535.923	5670.18
536.288	5715.37
536.653	5715.6
537.019	5724.41
537.384	5772.09
537.749	5773.22
538.114	5777.97
538.479	5784.98
538.845	5841.24
539.21	5894.8
539.575	5833.34
539.94	5898.19
540.305	5926.21
540.67	5927.57
541.034	5964.63
541.399	5967.57
541.764	5967.57
542.129	6074.01
542.494	6039.88
542.858	6149.49
543.223	6112.65
543.587	6187.45
543.952	6160.11
544.316	6208.92
544.681	6164.4
545.045	6271.52
545.41	6247.79
545.774	6323.27
546.138	6280.33
546.503	6310.61
546.867	6365.3
547.231	6354
547.595	6464.05
547.959	6421.12
548.324	6458.4
548.688	6469.25
549.052	6454.11
549.416	6450.72
549.779	6461.12
550.143	6538.63
550.507	6546.31
550.871	6583.6
551.235	6578.17
551.599	6668.12
551.962	6670.38
552.326	6649.81
552.689	6703.59
553.053	6715.12
553.417	6718.96
553.78	6776.14
554.143	6815
554.507	6801.67
554.87	6807.55
555.234	6852.29
555.597	6840.31
555.96	6876.02
556.323	6913.31
556.686	6840.77
557.05	6935.45
557.413	6939.07
557.776	6957.15
558.139	7025.39
558.502	6989.92
558.865	7003.25
559.228	7133.64
559.59	7081.21
559.953	7116.69
560.316	7181.55
560.679	7209.57
561.041	7215.22
561.404	7271.26
561.767	7288.21
562.129	7267.2
562.492	7349.91
562.854	7315.78
563.217	7309
563.579	7394.88
563.941	7374.09
564.304	7402.79
564.666	7456.57
565.028	7473.07
565.39	7469.22
565.753	7528.66
566.115	7562.33
566.477	7558.49
566.839	7619.73
567.201	7677.81
567.563	7648.2
567.925	7681.2
568.287	7668.09
568.648	7702.89
569.01	7786.05
569.372	7824.24
569.734	7843
570.095	7884.13
570.457	7977.69
570.819	8001.19
571.18	7981.53
571.542	8063.79
571.903	8056.78
572.265	8084.12
572.626	8163.67
572.987	8161.64
573.349	8205.02
573.71	8286.6
574.071	8302.87
574.432	8352.59
574.794	8421.29
575.155	8463.77
575.516	8450.22
575.877	8515.98
576.238	8565.92
576.599	8685.46
576.96	8702.64
577.32	8717.78
577.681	8846.36
578.042	8958.9
578.403	8952.8
578.763	9028.05
579.124	9084.32
579.485	9243.42
579.845	9319.12
580.206	9413.58
580.566	9440.7
580.927	9582.16
581.287	9658.32
581.648	9758.43
582.008	9915.94
582.368	10037.97
582.728	10097.4
583.089	10223.5
583.449	10403.84
583.809	10509.82
584.169	10673.66
584.529	10770.15
584.889	11039.3
585.249	11167.21
585.609	11207.88
585.969	11505.28
586.329	11680.64
586.688	11914.76
587.048	12046.51
587.408	12263.67
587.768	12412.82
588.127	12659.82
588.487	12841.96
588.846	13105.69
589.206	13246.02
589.565	13456.86
589.925	13801.49
590.284	13960.81
590.643	14224.3
591.003	14603.73
591.362	14779.54
591.721	15036.26
592.08	15223.6
592.44	15485.96
592.799	15784.71
593.158	16037.59
593.517	16323
593.876	16534.3
594.235	16789.66
594.593	17181.51
594.952	17504.89
595.311	17726.13
595.67	18057.42
596.029	18340.35
596.387	18749.61
596.746	19007.9
597.104	19141.69
597.463	19370.61
597.822	19784.15
598.18	20043.58
598.538	20302.33
598.897	20663.91
599.255	20811.02
599.613	21301.4
599.972	21505.69
600.33	21843.99
600.688	22143.19
601.046	22410.3
601.404	22805.77
601.762	23047.8
602.12	23441.69
602.478	23557.16
602.836	23823.37
603.194	23885.52
603.552	24334.77
603.91	24457.93
604.268	24884.13
604.625	25022.66
604.983	25444.8
605.341	25538.81
605.698	25741.96
606.056	26255.85
606.413	26313.7
606.771	26777.87
607.128	27004.98
607.485	27128.59
607.843	27355.03
608.2	27762.25
608.557	27924.51
608.914	28133.31
609.272	28414.21
609.629	28721.32
609.986	29000.41
610.343	29028.21
610.7	29426.61
611.057	29508.42
611.414	29777.11
611.771	29865.92
612.127	30236.31
612.484	30340.94
612.841	30744.32
613.198	30682.4
613.554	30813.47
613.911	31239.67
614.267	31395.6
614.624	31713.56
614.98	31641.02
615.337	32074.68
615.693	32084.17
616.05	32314.45
616.406	32610.71
616.762	32601.67
617.118	32618.17
617.475	32897.71
617.831	33197.14
618.187	33298.38
618.543	33486.39
618.899	33824.69
619.255	33819.72
619.611	33840.06
619.967	34092.03
620.323	34374.05
620.678	34321.17
621.034	34350.78
621.39	34545.8
621.746	34654.95
622.101	35109.63
622.457	34854.95
622.812	35056.75
623.168	35254.03
623.523	35233.92
623.879	35498.32
624.234	35326.57
624.589	35560.24
624.945	35652.44
625.3	35778.54
625.655	35728.14
626.01	35793.45
626.365	35959.55
626.72	36084.74
627.075	36039.55
627.43	36077.51
627.785	36094.23
628.14	36192.76
628.495	36347.34
628.85	36365.87
629.205	36361.12
629.559	36604.05
629.914	36485.41
630.269	36649.47
630.623	36556.37
630.978	36646.54
631.332	36761.79
631.687	36923.82
632.041	36777.61
632.396	36859.19
632.75	36695.12
633.104	36904.83
633.459	36703.03
633.813	36781
634.167	36768.57
634.521	36933.76
634.875	36955.23
635.229	36704.16
635.583	36732.64
635.937	36889.02
636.291	36844.72
636.645	36919.3
636.999	36856.7
637.352	36976.7
637.706	36749.13
638.06	37021.89
638.413	36900.54
638.767	36817.38
639.121	36964.72
639.474	36769.7
639.828	36819.87
640.181	36939.41
640.534	36920.65
640.888	36746.42
641.241	36547.1
641.594	36834.78
641.947	37010.37
642.301	36800.2
642.654	36850.37
643.007	36870.71
643.36	36818.51
643.713	36862.58
644.066	36949.13
644.419	36764.73
644.771	36498.74
645.124	36163.61
645.477	36213.55
645.83	36014.24
646.182	35760.68
646.535	35678.2
646.888	35784.19
647.24	35689.27
647.593	35775.15
647.945	35793.45
648.298	35627.13
648.65	35626
649.002	35470.75
649.355	35665.55
649.707	35655.6
650.059	35728.37
650.411	36153.89
650.763	36196.15
651.115	36604.5
651.467	36499.42
651.819	36533.09
652.171	36386.43
652.523	36334
652.875	36366.54
653.227	36202.71
653.578	36567.67
653.93	36351.4
654.282	36279.99
654.633	36318.64
654.985	36244.06
655.337	36329.71
655.688	36219.43
656.039	36421.91
656.391	36030.28
656.742	36109.38
657.094	36147.79
657.445	36202.71
657.796	36210.62
658.147	36072.54
658.498	36039.77
658.849	36234.8
659.2	36239.77
659.551	36089.71
659.902	36153.44
660.253	36165.87
660.604	36237.51
660.955	36030.06
661.306	36183.05
661.656	35975.82
662.007	36120.67
662.358	36081.81
662.708	36085.2
663.059	36042.48
663.409	35886.33
663.76	36121.8
664.11	36015.14
664.461	36138.08
664.811	36122.71
665.161	36056.72
665.511	36041.58
665.862	35886.33
666.212	36194.57
666.562	36130.39
666.912	36002.71
667.262	35973.11
667.612	35852.66
667.962	36058.53
668.312	36005.42
668.662	36192.99
669.011	36048.36
669.361	36005.88
669.711	36008.36
670.06	35908.7
670.41	35882.49
670.76	35942.15
671.109	36025.08
671.459	36004.07
671.808	35840.68
672.157	35922.71
672.507	35736.96
672.856	35844.98
673.205	35815.37
673.554	35892.43
673.904	35770.85
674.253	36008.81
674.602	35787.35
674.951	35209.51
675.3	35031.21
675.649	35632.78
675.998	35632.33
676.346	35670.97
676.695	35804.98
677.044	35480.24
677.393	35465.55
677.741	35664.64
678.09	35629.84
678.438	35388.26
678.787	35538.77
679.135	35620.35
679.484	35387.81
679.832	35469.17
680.181	35215.39
680.529	35360.24
680.877	35336.74
681.225	35282.28
681.573	35347.81
681.922	35116.41
682.27	35173.58
682.618	34960.03
682.966	34934.72
683.314	35129.06
683.661	35030.31
684.009	34761.39
684.357	34733.14
684.705	34680.03
685.053	34738.79
685.4	34673.71
685.748	34496.31
686.095	34528.4
686.443	34312.13
686.79	34291.57
687.138	34415.86
687.485	34398.23
687.832	34254.51
688.18	34315.98
688.527	34181.74
688.874	34127.51
689.221	34182.87
689.568	33922.54
689.915	33817.23
690.262	33797.12
690.609	33828.31
690.956	33697.91
691.303	33581.76
691.65	33581.31
691.997	33627.63
692.344	33300.41
692.69	33357.81
693.037	33284.36
693.383	33094.54
693.73	33225.16
694.077	32993.98
694.423	32878.27
694.769	32917.59
695.116	32775.9
695.462	32717.83
695.808	32618.85
696.155	32665.85
696.501	32549.24
696.847	32449.13
697.193	32381.79
697.539	32351.06
697.885	32139.99
698.231	32030.16
698.577	32123.94
698.923	32043.72
699.269	31824.52
699.614	31755.82
699.96	31641.92
700.306	31674.46
700.651	31537.97
700.997	31326
701.342	31434.02
701.688	31379.33
702.033	31172.33
702.379	31140.24
702.724	31028.61
703.069	31206
703.415	30662.74
703.76	30755.17
704.105	30786.13
704.45	30692.34
704.795	30593.81
705.14	30538.22
705.485	30475.17
705.83	30554.27
706.175	30356.53
706.52	30226.14
706.865	30092.81
707.209	30126.03
707.554	29944.57
707.899	30069.31
708.243	29946.83
708.588	29909.31
708.932	29826.15
709.277	29749.77
709.621	29799.94
709.966	29475.88
710.31	29635.42
710.654	29370.8
710.998	29401.08
711.342	29379.16
711.687	29369.21
712.031	29212.16
712.375	29097.58
712.719	29174.19
713.063	29063.91
713.407	29176
713.75	28948.89
714.094	29034.76
714.438	28831.37
714.782	28931.71
715.125	28635.22
715.469	28853.97
715.812	28707.76
716.156	28459.41
716.499	28495.56
716.843	28684.03
717.186	28341.44
717.53	28485.62
717.873	28487.43
718.216	28405.85
718.559	28294.67
718.902	28053.54
719.246	28093.99
719.589	27988.01
719.932	27930.61
720.275	27987.33
720.617	27972.19
720.96	27824.17
721.303	27813.32
721.646	27905.98
721.989	27703.04
722.331	27639.99
722.674	27675.25
723.016	27629.6
723.359	27552.99
723.701	27561.8
724.044	27391.41
724.386	27299.89
724.729	27378.76
725.071	27317.29
725.413	27402.26
725.755	27390.28
726.097	27200.01
726.439	27093.12
726.782	27095.38
727.124	27119.1
727.465	27028.94
727.807	27100.35
728.149	27004.08
728.491	26975.38
728.833	26992.33
729.175	26761.6
729.516	26630.3
729.858	26685.22
730.199	26680.24
730.541	26687.93
730.882	26600.7
731.224	26625.78
731.565	26524.09
731.906	26447.71
732.248	26646.57
732.589	26372.23
732.93	26287.94
733.271	26310.09
733.612	26334.49
733.953	26376.75
734.294	26206.13
734.635	26131.78
734.976	26207.71
735.317	26216.75
735.658	26178.56
735.999	26136.53
736.339	26100.6
736.68	26055.63
737.021	26018.57
737.361	25924.11
737.702	25969.53
738.042	25862.64
738.383	25851.11
738.723	25958.46
739.063	25719.82
739.404	25780.83
739.744	25705.13
740.084	25638.69
740.424	25604.11
740.764	25548.98
741.104	25562.08
741.444	25539.03
741.784	25423.55
742.124	25403.44
742.464	25409.54
742.804	25344.23
743.143	25237.57
743.483	25284.12
743.823	25253.62
744.162	25182.66
744.502	25161.41
744.841	25153.96
745.181	25206.39
745.52	25176.78
745.86	25068.08
746.199	25011.14
746.538	25071.47
746.877	25100.17
747.216	25096.56
747.556	24936.11
747.895	25000.06
748.234	24871.03
748.573	24913.06
748.911	24799.84
749.25	24732.73
749.589	24680.98
749.928	24658.6
750.267	24693.86
750.605	24614.54
750.944	24511.71
751.283	24421.32
751.621	24540.64
751.96	24405.95
752.298	24379.29
752.636	24397.82
752.975	24201.89
753.313	24215.45
753.651	24302.23
753.989	24105.17
754.327	24222.23
754.666	24119.63
755.004	24014.1
755.342	24090.93
755.679	24046.42
756.017	23799.19
756.355	24027.43
756.693	23941.56
757.031	23909.24
757.368	23697.72
757.706	23736.37
758.044	23638.74
758.381	23723.26
758.719	23509.03
759.056	23511.06
759.394	23497.73
759.731	23391.07
760.068	23295.7
760.405	23288.7
760.743	23237.17
761.08	23198.75
761.417	23007.35
761.754	23054.35
762.091	23102.71
762.428	22882.83
762.765	22861.59
763.102	22874.92
763.438	22669.05
763.775	22568.26
764.112	22589.73
764.449	22677.19
764.785	22501.37
765.122	22317.65
765.458	22289.4
765.795	22291.21
766.131	22282.39
766.467	22114.04
766.804	22061.84
767.14	21952.91
767.476	21905.68
767.812	21839.69
768.148	21946.81
768.485	21697.32
768.821	21639.02
769.157	21573.03
769.492	21563.54
769.828	21508.86
770.164	21354.74
770.5	21355.41
770.836	21314.74
771.171	21236.55
771.507	21081.07
771.842	20915.65
772.178	21036.33
772.513	20868.65
772.849	20830.68
773.184	20747.07
773.519	20699.16
773.855	20559.05
774.19	20510.46
774.525	20346.17
774.86	20471.37
775.195	20389.34
775.53	20318.38
775.865	20190.25
776.2	20004.04
776.535	19938.5
776.87	19945.73
777.205	19923.59
777.539	19736.47
777.874	19690.6
778.209	19573.54
778.543	19619.64
778.878	19552.52
779.212	19449.02
779.547	19332.87
779.881	19367.67
780.215	19183.27
780.55	19274.11
780.884	19137.17
781.218	19037.73
781.552	19071.41
781.886	18896.27
782.22	18912.09
782.554	18786.44
782.888	18623.51
783.222	18668.03
783.556	18562.94
783.889	18491.99
784.223	18382.84
784.557	18357.98
784.89	18340.8
785.224	18273.23
785.557	18169.73
785.891	18138.55
786.224	18022.85
786.558	18015.61
786.891	17820.36
787.224	17810.2
787.557	17734.72
787.891	17717.54
788.224	17766.81
788.557	17701.72
788.89	17560.03
789.223	17572.46
789.556	17491.11
789.888	17395.52
790.221	17365.69
790.554	17195.52
790.887	17176.77
791.219	17203.66
791.552	17140.38
791.884	17033.94
792.217	16986.49
792.549	16937.68
792.882	16735.2
793.214	16782.65
793.546	16750.79
793.879	16622.43
794.211	16475.09
794.543	16629.44
794.875	16543.11
795.207	16540.4
795.539	16364.81
795.871	16447.07
796.203	16201.42
796.535	16108.55
796.867	16143.8
797.198	16135.21
797.53	16144.02
797.862	16020.41
798.193	16030.36
798.525	15927.53
798.856	15966.63
799.188	15776.8
799.519	15705.62
799.85	15644.15
800.182	15676.01
800.513	15633.53
800.844	15579.97
801.175	15548.33
801.506	15551.05
801.837	15429.02
802.168	15393.76
802.499	15366.19
802.83	15266.76
803.161	15237.83
803.491	15315.8
803.822	15183.82
804.153	15047.78
804.483	15004.62
804.814	14919.65
805.145	14936.6
805.475	14952.42
805.805	14843.04
806.136	14859.31
806.466	14892.76
806.796	14754
807.126	14675.59
807.457	14650.05
807.787	14597.85
808.117	14548.81
808.447	14563.95
808.777	14560.79
809.107	14513.56
809.436	14458.87
809.766	14403.28
810.096	14356.73
810.426	14320.57
810.755	14289.16
811.085	14262.94
811.414	14149.95
811.744	14184.75
812.073	14074.93
812.403	14142.04
812.732	13988.15
813.061	14028.83
813.39	13974.36
813.719	13935.04
814.049	14058.43
814.378	13888.72
814.707	13886.68
815.036	13808.72
815.365	13746.35
815.693	13662.28
816.022	13602.85
816.351	13648.5
816.68	13546.58
817.008	13659.57
817.337	13465
817.665	13400.37
817.994	13530.31
818.322	13474.72
818.651	13288.05
818.979	13354.72
819.307	13425.68
819.636	13367.6
819.964	13204.21
820.292	13296.87
820.62	13227.27
820.948	13270.88
821.276	13333.7
821.604	13207.6
821.932	13154.5
822.259	13156.53
822.587	13153.14
822.915	13217.1
823.243	13137.55
823.57	13178.68
823.898	13184.33
824.225	13116.31
824.553	13149.98
824.88	13193.59
825.207	13248.96
825.535	13132.58
825.862	13105.46
826.189	13097.78
826.516	13254.61
826.843	13203.31
827.17	13132.35
827.497	13144.56
827.824	13113.14
828.151	13143.88
828.478	13156.98
828.805	13180.94
829.131	13100.94
829.458	13140.49
829.785	13041.28
830.111	13112.24
830.438	13133.71
830.764	13125.8
831.09	13073.82
831.417	13036.99
831.743	13065.24
832.069	13017.78
832.395	13021.85
832.722	13109.53
833.048	12982.75
833.374	13052.13
833.7	12971.9
834.026	12978.01
834.351	13039.02
834.677	12864.56
835.003	12955.86
835.329	12983.88
835.654	12881.74
835.98	12866.14
836.306	12857.11
836.631	12847.39
836.956	12937.1
837.282	12828.63
837.607	12705.7
837.932	12792.93
838.258	12792.02
838.583	12704.79
838.908	12653.72
839.233	12721.52
839.558	12683.78
839.883	12659.14
840.208	12593.38
840.533	12598.58
840.858	12602.87
841.182	12626.38
841.507	12630.22
841.832	12486.72
842.156	12519.49
842.481	12513.61
842.805	12405.59
843.13	12385.93
843.454	12328.53
843.778	12358.14
844.103	12327.85
844.427	12309.78
844.751	12288.31
845.075	12281.3
845.399	12204.92
845.723	12124.92
846.047	12196.33
846.371	12063
846.695	12079.95
847.019	11905.27
847.343	11945.27
847.666	11846.28
847.99	11818.26
848.313	11761.09
848.637	11734.42
848.96	11662.56
849.284	11637.48
849.607	11558.61
849.931	11481.55
850.254	11456.69
850.577	11372.17
850.9	11341.67
851.223	11340.99
851.546	11239.75
851.869	11166.98
852.192	11244.49
852.515	11226.41
852.838	11140.31
853.161	11111.16
853.483	11076.36
853.806	11026.42
854.129	11021.22
854.451	10944.61
854.774	10928.12
855.096	10857.84
855.419	10845.18
855.741	10833.88
856.063	10752.98
856.385	10747.1
856.708	10711.63
857.03	10662.59
857.352	10700.33
857.674	10635.02
857.996	10509.82
858.318	10527.68
858.64	10512.76
858.961	10442.03
859.283	10458.3
859.605	10373.78
859.926	10397.06
860.248	10327
860.57	10357.28
860.891	10356.83
861.212	10300.34
861.534	10198.87
861.855	10255.37
862.176	10287.91
862.498	10251.07
862.819	10221.47
863.14	10151.64
863.461	10124.07
863.782	10098.08
864.103	10135.37
864.424	10030.29
864.745	10090.4
865.065	10008.82
865.386	9941.02
865.707	9966.11
866.027	10035.48
866.348	9945.77
866.668	9977.41
866.989	9966.11
867.309	9845.89
867.63	9871.2
867.95	9895.83
868.27	9818.99
868.59	9795.72
868.91	9829.61
869.23	9755.49
869.55	9793.46
869.87	9854.25
870.19	9741.03
870.51	9786.9
870.83	9787.81
871.15	9640.92
871.469	9651.54
871.789	9739.9
872.109	9711.43
872.428	9656.51
872.748	9579.9
873.067	9583.07
873.386	9638.43
873.706	9610.64
874.025	9552.56
874.344	9561.82
874.663	9548.72
874.982	9531.77
875.301	9537.64
875.62	9479.57
875.939	9426.01
876.258	9449.96
876.577	9369.29
876.896	9459.45
877.214	9339.91
877.533	9417.87
877.852	9466.91
878.17	9346.01
878.489	9335.62
878.807	9317.76
879.125	9328.16
879.444	9373.36
879.762	9284.32
880.08	9310.53
880.398	9223.3
880.716	9211.55
881.034	9186.92
881.352	9168.84
881.67	9122.97
881.988	9219.23
882.306	9189.18
882.624	9117.09
882.941	9105.79
883.259	9045.68
883.577	9063.31
883.894	9050.65
884.212	9035.06
884.529	9054.95
884.846	8955.97
885.164	8970.88
885.481	8861.73
885.798	8924.1
886.115	8820.83
886.432	8826.25
886.75	8847.27
887.067	8857.21
887.383	8770.43
887.7	8795.29
888.017	8775.18
888.334	8781.51
888.651	8718.01
888.967	8692.47
889.284	8643.43
889.6	8614.51
889.917	8571.12
890.233	8561.4
890.55	8597.78
890.866	8596.88
891.182	8611.12
891.498	8536.54
891.815	8457.45
892.131	8421.06
892.447	8391.91
892.763	8358.47
893.079	8353.72
893.395	8315.53
893.71	8346.49
894.026	8265.36
894.342	8249.99
894.657	8223.55
894.973	8224.68
895.289	8211.13
895.604	8196.44
895.92	8128.19
896.235	8085.93
896.55	8123.67
896.865	8080.96
897.181	8080.51
897.496	8074.41
897.811	8017.01
898.126	7925.71
898.441	8017.23
898.756	7903.79
899.071	7964.35
899.386	7877.35
899.7	7790.57
900.015	7784.24
900.33	7763.91
900.644	7668.77
900.959	7712.61
901.273	7698.82
901.588	7667.19
901.902	7588.54
902.216	7656.79
902.531	7589.45
902.845	7575.66
903.159	7495.89
903.473	7520.3
903.787	7417.02
904.101	7384.71
904.415	7372.05
904.729	7380.87
905.042	7353.75
905.356	7358.72
905.67	7294.09
905.984	7263.81
906.297	7243.47
906.611	7217.25
906.924	7210.02
907.237	7196.69
907.551	7132.28
907.864	7083.02
908.177	7072.4
908.491	7098.84
908.804	7016.58
909.117	6962.57
909.43	7005.06
909.743	6884.61
910.056	6915.57
910.368	6892.97
910.681	6860.88
910.994	6835.12
911.307	6819.75
911.619	6698.17
911.932	6774.78
912.244	6708.79
912.557	6679.19
912.869	6685.52
913.181	6620.43
913.494	6604.16
913.806	6565.29
914.118	6594.45
914.43	6542.24
914.742	6549.93
915.054	6502.02
915.366	6487.56
915.678	6427.9
915.99	6418.4
916.302	6349.03
916.613	6331.18
916.925	6334.79
917.236	6339.31
917.548	6244.62
917.859	6249.37
918.171	6191.52
918.482	6130.5
918.794	6150.62
919.105	6210.27
919.416	6086.66
919.727	6036.72
920.038	6104.06
920.349	6083.05
920.66	6060.9
920.971	5986.1
921.282	6008.92
921.593	5967.8
921.903	5916.95
922.214	5943.84
922.525	5887.8
922.835	5844.41
923.146	5765.54
923.456	5824.52
923.767	5792.88
924.077	5783.17
924.387	5664.75
924.697	5742.26
925.008	5685.32
925.318	5601.03
925.628	5665.66
925.938	5628.59
926.248	5573.23
926.558	5548.82
926.867	5510.41
927.177	5538.43
927.487	5521.48
927.796	5456.17
928.106	5464.31
928.416	5430.86
928.725	5393.8
929.034	5353.12
929.344	5365.78
929.653	5357.87
929.962	5272.9
930.271	5284.88
930.581	5241.49
930.89	5197.19
931.199	5175.27
931.508	5170.08
931.817	5221.83
932.125	5137.08
932.434	5168.95
932.743	5050.53
933.051	5048.27
933.36	5087.14
933.669	5040.59
933.977	4977.54
934.286	5018.44
934.594	5020.93
934.902	4940.03
935.21	4911.78
935.519	4954.49
935.827	4895.28
936.135	4855.96
936.443	4817.77
936.751	4853.02
937.059	4843.3
937.367	4762.18
937.674	4759.47
937.982	4720.6
938.29	4683.31
938.597	4730.99
938.905	4665.91
939.213	4592.69
939.52	4612.8
939.827	4653.71
940.135	4640.82
940.442	4610.09
940.749	4577.32
941.056	4587.94
941.363	4507.27
941.67	4535.06
941.977	4501.17
942.284	4458.23
942.591	4461.85
942.898	4423.2
943.205	4441.73
943.511	4405.12
943.818	4421.62
944.125	4325.35
944.431	4317.67
944.738	4334.17
945.044	4326.03
945.35	4291.91
945.657	4272.47
945.963	4249.65
946.269	4224.79
946.575	4247.61
946.881	4184.57
947.187	4192.93
947.493	4159.03
947.799	4230.89
948.105	4109.54
948.41	4118.58
948.716	4101.63
949.022	4049.43
949.327	4082.65
949.633	4037.22
949.938	4029.99
950.244	4025.47
950.549	4024.57
950.854	3957.23
951.16	3958.13
951.465	3937.79
951.77	3888.53
952.075	3891.01
952.38	3854.63
952.685	3872.93
952.99	3833.84
953.294	3832.71
953.599	3792.49
953.904	3809.43
954.209	3762.2
954.513	3750.23
954.818	3757.91
955.122	3769.66
955.426	3746.38
955.731	3705.71
956.035	3663.9
956.339	3715.42
956.643	3672.26
956.948	3637.69
957.252	3594.98
957.556	3578.25
957.86	3561.53
958.163	3558.82
958.467	3567.86
958.771	3567.63
959.075	3526.73
959.378	3511.59
959.682	3523.79
959.985	3503
960.289	3529.44
960.592	3473.85
960.896	3458.03
961.199	3421.65
961.502	3414.19
961.805	3371.93
962.108	3371.03
962.411	3354.3
962.714	3346.4
963.017	3324.02
963.32	3353.17
963.623	3301.65
963.926	3311.37
964.228	3274.53
964.531	3275.66
964.833	3270.01
965.136	3248.77
965.438	3225.49
965.741	3245.15
966.043	3212.84
966.345	3154.76
966.648	3196.57
966.95	3161.32
967.252	3151.37
967.554	3158.15
967.856	3164.93
968.158	3101.88
968.46	3111.6
968.761	3079.28
969.063	3084.48
969.365	3049.23
969.666	3043.13
969.968	3012.62
970.269	3011.04
970.571	3019.17
970.872	2965.39
971.174	2949.8
971.475	2961.55
971.776	2937.37
972.077	2956.8
972.378	2928.33
972.679	2891.49
972.98	2894.2
973.281	2889.23
973.582	2861.44
973.883	2874.32
974.183	2860.08
974.484	2851.04
974.785	2853.07
975.085	2847.88
975.386	2804.26
975.686	2781.66
975.986	2780.99
976.287	2784.6
976.587	2734.43
976.887	2746.41
977.187	2682.01
977.487	2717.49
977.787	2706.64
978.087	2691.27
978.387	2700.99
978.687	2707.54
978.987	2650.59
979.286	2636.13
979.586	2649.69
979.885	2646.98
980.185	2615.79
980.484	2598.39
980.784	2604.49
981.083	2581.67
981.382	2545.96
981.682	2555
981.981	2574.66
982.28	2540.99
982.579	2511.61
982.878	2508.23
983.177	2497.83
983.475	2479.75
983.774	2498.06
984.073	2459.41
984.372	2478.17
984.67	2455.35
984.969	2459.86
985.267	2405.85
985.566	2431.62
985.864	2425.97
986.162	2396.36
986.461	2359.75
986.759	2371.96
987.057	2358.62
987.355	2330.38
987.653	2371.28
987.951	2320.43
988.249	2307.1
988.547	2324.28
988.844	2305.52
989.142	2287.44
989.44	2263.03
989.737	2253.77
990.035	2265.97
990.332	2258.29
990.63	2243.6
990.927	2237.95
991.224	2239.31
991.521	2225.07
991.819	2193.88
992.116	2184.62
992.413	2167.67
992.71	2163.15
993.006	2187.1
993.303	2160.21
993.6	2159.31
993.897	2151.4
994.193	2143.94
994.49	2098.29
994.787	2113.66
995.083	2111.63
995.379	2112.98
995.676	2086.99
995.972	2082.02
996.268	2053.1
996.565	2072.53
996.861	2037.28
997.157	1998.86
997.453	2021.23
997.749	2001.8
998.044	1984.17
998.34	1978.07
998.636	1957.96
998.932	1941.69
999.227	1980.56
999.523	1931.97
999.818	1930.16
1000.114	1898.07
1000.409	1921.35
1000.704	1933.1
1001	1910.5
1001.295	1879.09
1001.59	1898.07
1001.885	1836.6
1002.18	1851.29
1002.475	1872.76
1002.77	1858.75
1003.065	1814.23
1003.359	1813.33
1003.654	1844.06
1003.949	1820.33
1004.243	1796.38
1004.538	1769.26
1004.832	1762.48
1005.127	1751.41
1005.421	1720.22
1005.715	1761.58
1006.009	1736.72
1006.304	1751.63
1006.598	1712.31
1006.892	1691.07
1007.186	1696.49
1007.48	1672.09
1007.773	1673.44
1008.067	1684.29
1008.361	1678.42
1008.655	1667.12
1008.948	1657.4
1009.242	1618.53
1009.535	1612.2
1009.829	1606.1
1010.122	1603.39
1010.415	1616.5
1010.708	1593.45
1011.001	1596.61
1011.295	1566.55
1011.588	1545.09
1011.881	1536.05
1012.173	1561.58
1012.466	1538.31
1012.759	1513.9
1013.052	1530.4
1013.344	1516.84
1013.637	1517.74
1013.93	1479.78
1014.222	1496.95
1014.514	1471.19
1014.807	1480.68
1015.099	1444.07
1015.391	1451.98
1015.683	1443.85
1015.976	1422.6
1016.268	1405.88
1016.56	1417.18
1016.851	1411.3
1017.143	1429.16
1017.435	1388.48
1017.727	1389.16
1018.018	1382.15
1018.31	1348.26
1018.602	1395.71
1018.893	1374.47
1019.185	1340.12
1019.476	1350.52
1019.767	1340.8
1020.058	1339.89
1020.35	1290.4
1020.641	1307.13
1020.932	1290.86
1021.223	1295.83
1021.514	1288.6
1021.804	1279.78
1022.095	1281.59
1022.386	1255.38
1022.677	1222.16
1022.967	1244.76
1023.258	1221.71
1023.548	1230.07
1023.839	1232.33
1024.129	1249.28
1024.419	1223.51
1024.709	1215.38
1025	1169.05
1025.29	1176.51
1025.58	1159.79
1025.87	1161.59
1026.16	1141.48
1026.449	1158.2
1026.739	1139
1027.029	1124.31
1027.319	1124.31
1027.608	1153.91
1027.898	1101.48
1028.187	1088.6
1028.477	1117.53
1028.766	1087.25
1029.055	1067.36
1029.344	1086.79
1029.634	1076.4
1029.923	1062.39
1030.212	1064.2
1030.501	1076.62
1030.79	1047.02
1031.078	1048.83
1031.367	1014.93
1031.656	1008.83
1031.945	1018.32
1032.233	1014.03
1032.522	996.4
1032.81	1001.37
1033.099	1010.19
1033.387	1001.15
1033.675	1000.69
1033.963	964.99
1034.251	968.83
1034.54	972.67
1034.828	971.54
1035.116	943.07
1035.403	979.9
1035.691	950.98
1035.979	946.01
1036.267	932.9
1036.554	922.96
1036.842	931.77
1037.129	912.56
1037.417	910.75
1037.704	899.68
1037.992	896.52
1038.279	882.96
1038.566	866.46
1038.853	866.46
1039.14	866.46
