Data from hue_220_FLMS001491_00075.txt Node
Date: Tue Feb 07 16:39:55 GMT 2017
User: dcchb
Spectrometer: FLMS00149
Trigger mode: 0
Integration Time (sec): 2.000000E-2
Scans to average: 10
Electric dark correction enabled: true
Nonlinearity correction enabled: false
Boxcar width: 0
XAxis mode: Wavelengths
Number of Pixels in Spectrum: 2048
>>>>>Begin Spectral Data<<<<<
341.393	-12.27
341.776	-12.27
342.16	-12.27
342.543	-72.39
342.927	-66.51
343.31	-71.48
343.693	-57.02
344.077	-53.4
344.46	-53.63
344.843	-57.7
345.226	-63.8
345.61	-56.57
345.993	-2.33
346.376	-1.88
346.759	12.13
347.142	15.07
347.525	31.79
347.908	55.07
348.291	77.44
348.674	108.85
349.057	117.44
349.44	109.08
349.823	129.64
350.206	145.69
350.588	214.61
350.971	203.54
351.354	228.85
351.737	224.1
352.119	232.47
352.502	263.2
352.884	256.65
353.267	285.12
353.65	289.87
354.032	282.41
354.414	296.42
354.797	307.94
355.179	310.66
355.562	316.31
355.944	315.85
356.326	340.49
356.709	324.21
357.091	308.17
357.473	337.77
357.855	346.36
358.238	346.36
358.62	329.41
359.002	341.62
359.384	357.89
359.766	344.1
360.148	347.72
360.53	347.26
360.912	326.02
361.294	346.36
361.676	335.74
362.057	328.28
362.439	327.38
362.821	329.64
363.203	308.4
363.584	335.29
363.966	321.95
364.348	309.53
364.729	301.62
365.111	312.69
365.493	311.56
365.874	308.4
366.256	310.2
366.637	324.44
367.019	306.81
367.4	318.11
367.781	286.02
368.163	311.33
368.544	297.77
368.925	308.17
369.306	291.22
369.688	303.42
370.069	326.7
370.45	304.78
370.831	291.22
371.212	308.17
371.593	294.84
371.974	317.66
372.355	324.67
372.736	309.53
373.117	305.01
373.498	308.62
373.879	336.19
374.26	324.67
374.641	320.82
375.021	337.55
375.402	322.18
375.783	299.58
376.163	328.28
376.544	336.87
376.925	334.61
377.305	336.87
377.686	344.78
378.066	308.62
378.447	304.33
378.827	307.94
379.208	327.83
379.588	316.53
379.968	324.67
380.349	347.49
380.729	332.12
381.109	359.24
381.489	334.61
381.87	339.81
382.25	311.11
382.63	329.41
383.01	341.84
383.39	334.61
383.77	356.98
384.15	337.77
384.53	342.52
384.91	342.07
385.29	330.77
385.67	349.52
386.049	337.1
386.429	358.34
386.809	325.57
387.189	339.36
387.568	352.91
387.948	341.84
388.328	340.49
388.707	359.24
389.087	366.02
389.466	342.52
389.846	366.47
390.225	373.93
390.605	367.83
390.984	356.08
391.363	353.82
391.743	387.04
392.122	370.32
392.501	367.6
392.881	381.39
393.26	360.37
393.639	389.98
394.018	394.95
394.397	378
394.776	387.49
395.155	391.11
395.534	375.74
395.913	382.97
396.292	395.17
396.671	390.88
397.05	395.63
397.429	402.18
397.808	389.98
398.186	411.9
398.565	388.62
398.944	404.21
399.323	393.37
399.701	379.58
400.08	412.57
400.458	406.25
400.837	410.77
401.215	406.25
401.594	407.38
401.972	405.34
402.351	408.73
402.729	436.75
403.107	436.98
403.486	411.67
403.864	437.66
404.242	439.01
404.62	458
404.999	446.02
405.377	448.96
405.755	454.15
406.133	450.31
406.511	445.34
406.889	468.39
407.267	474.49
407.645	481.95
408.023	472.91
408.401	490.76
408.779	485.34
409.156	494.15
409.534	491.89
409.912	514.72
410.29	507.26
410.667	523.76
411.045	534.83
411.422	544.77
411.8	528.73
412.178	550.65
412.555	568.05
412.933	563.53
413.31	576.19
413.687	589.52
414.065	608.73
414.442	595.62
414.819	589.52
415.197	621.38
415.574	618.22
415.951	643.75
416.328	646.47
416.705	642.4
417.082	650.76
417.46	671.32
417.837	655.28
418.214	680.82
418.591	691.66
418.967	711.78
419.344	700.02
419.721	718.33
420.098	712.45
420.475	735.05
420.852	718.1
421.228	758.55
421.605	768.27
421.982	768.27
422.358	792
422.735	797.42
423.111	805.56
423.488	830.42
423.864	842.17
424.241	869.29
424.617	857.31
424.994	873.58
425.37	878.1
425.746	896.4
426.123	894.82
426.499	911.54
426.875	945.67
427.251	932.56
427.627	944.54
428.003	967.81
428.379	972.56
428.756	997.42
429.132	1003.29
429.507	1037.42
429.883	1058.88
430.259	1055.49
430.635	1042.84
431.011	1062.05
431.387	1069.73
431.763	1106.11
432.138	1108.83
432.514	1113.8
432.89	1143.85
433.265	1145.21
433.641	1179.56
434.016	1180.92
434.392	1226.34
434.767	1270.63
435.143	1261.59
435.518	1269.5
435.894	1314.02
436.269	1333.91
436.644	1353.11
437.02	1367.8
437.395	1391.08
437.77	1387.46
438.145	1424.3
438.52	1423.62
438.895	1507.01
439.271	1503.39
439.646	1533.45
440.021	1533.67
440.395	1565.09
440.77	1555.59
441.145	1548.36
441.52	1617.97
441.895	1614.35
442.27	1650.28
442.645	1641.02
443.019	1664.97
443.394	1693.9
443.769	1671.3
444.143	1679.66
444.518	1746.55
444.892	1742.03
445.267	1759.21
445.641	1790.16
446.016	1778.19
446.39	1789.03
446.764	1815.7
447.139	1802.82
447.513	1805.31
447.887	1816.15
448.262	1877.62
448.636	1846.21
449.01	1888.47
449.384	1918.07
449.758	1912.42
450.132	1916.49
450.506	1936.15
450.88	1961.69
451.254	1969.37
451.628	2020.22
452.002	1992.87
452.376	2031.97
452.75	2045.07
453.123	2060.44
453.497	2067.45
453.871	2093.43
454.244	2154.22
454.618	2142.02
454.992	2162.58
455.365	2164.39
455.739	2226.99
456.112	2225.18
456.486	2278.29
456.859	2233.99
457.232	2322.35
457.606	2327.55
457.979	2334.33
458.352	2378.4
458.725	2370.26
459.099	2419.07
459.472	2468.34
459.845	2485.51
460.218	2465.18
460.591	2536.36
460.964	2520.32
461.337	2581.56
461.71	2657.49
462.083	2637.83
462.456	2630.37
462.829	2647.77
463.201	2713.3
463.574	2681.44
463.947	2778.84
464.32	2799.4
464.692	2844.37
465.065	2860.42
465.438	2847.09
465.81	2926.63
466.183	2903.58
466.555	3013.41
466.928	3019.51
467.3	3009.57
467.672	3069.45
468.045	3144.48
468.417	3123.69
468.789	3145.61
469.161	3192.39
469.534	3272.16
469.906	3312.16
470.278	3319.39
470.65	3356.9
471.022	3376.56
471.394	3449.1
471.766	3496.56
472.138	3521.42
472.51	3594.86
472.882	3583.11
473.253	3609.78
473.625	3689.78
473.997	3747.85
474.369	3791.02
474.74	3835.53
475.112	3899.04
475.484	3929.77
475.855	3948.07
476.227	3998.47
476.598	4106.94
476.97	4140.39
477.341	4247.28
477.713	4285.92
478.084	4312.13
478.455	4390.1
478.827	4420.15
479.198	4504.22
479.569	4517.55
479.94	4630.54
480.311	4610.88
480.682	4715.74
481.053	4846.36
481.424	4903.76
481.795	4946.47
482.166	5002.74
482.537	5063.98
482.908	5150.98
483.279	5163.18
483.65	5257.87
484.021	5326.12
484.391	5376.74
484.762	5421.93
485.133	5450.63
485.503	5561.37
485.874	5646.56
486.244	5696.28
486.615	5764.98
486.985	5801.13
487.356	5891.07
487.726	5975.14
488.097	6028.7
488.467	6041.13
488.837	6144.4
489.207	6211.74
489.578	6279.76
489.948	6317.05
490.318	6395.92
490.688	6403.83
491.058	6479.76
491.428	6579.87
491.798	6663.48
492.168	6725.18
492.538	6736.93
492.908	6761.56
493.278	6867.09
493.648	6896.02
494.017	6992.06
494.387	6984.15
494.757	7026.19
495.126	7110.93
495.496	7129.46
495.866	7119.97
496.235	7166.75
496.605	7228.44
496.974	7320.87
497.344	7324.26
497.713	7299.4
498.082	7393.86
498.452	7450.58
498.821	7498.49
499.19	7456.23
499.559	7525.83
499.928	7573.06
500.298	7636.11
500.667	7640.41
501.036	7601.31
501.405	7704.36
501.774	7746.39
502.143	7759.5
502.512	7745.49
502.88	7858.48
503.249	7822.32
503.618	7863.23
503.987	7849.21
504.356	7906.16
504.724	7914.07
505.093	7912.04
505.462	7992.94
505.83	8035.2
506.199	8067.06
506.567	8089.66
506.936	8046.27
507.304	8103.45
507.672	8175.53
508.041	8126.5
508.409	8218.7
508.777	8235.19
509.145	8263.21
509.514	8236.77
509.882	8307.96
510.25	8261.18
510.618	8326.26
510.986	8286.04
511.354	8374.17
511.722	8388.41
512.09	8411.46
512.458	8403.32
512.826	8415.53
513.193	8442.42
513.561	8464.11
513.929	8466.83
514.297	8541.85
514.664	8446.49
515.032	8481.97
515.4	8566.48
515.767	8599.25
516.135	8526.26
516.502	8438.8
516.869	8627.27
517.237	8523.1
517.604	8559.93
517.972	8606.48
518.339	8622.08
518.706	8576.65
519.073	8624.34
519.44	8605.13
519.808	8684.45
520.175	8568.29
520.542	8709.3
520.909	8679.7
521.276	8600.38
521.643	8713.37
522.009	8671.79
522.376	8743.88
522.743	8761.96
523.11	8801.51
523.477	8822.75
523.843	8837.44
524.21	8833.37
524.577	8888.74
524.943	8912.01
525.31	8871.33
525.676	8986.59
526.043	8915.18
526.409	8945
526.776	9010.54
527.142	8935.74
527.508	9004.44
527.874	8955.17
528.241	8973.93
528.607	8972.35
528.973	8977.77
529.339	8958.56
529.705	9057.54
530.071	9069.52
530.437	9022.97
530.803	9035.17
531.169	9023.19
531.535	9000.82
531.901	8974.38
532.267	9025.68
532.632	9050.76
532.998	8996.08
533.364	9034.95
533.73	9003.08
534.095	8999.24
534.461	9031.33
534.826	9005.57
535.192	8999.47
535.557	9010.31
535.923	8981.39
536.288	9001.27
536.653	8985.68
537.019	8912.01
537.384	8904.33
537.749	8948.39
538.114	8840.6
538.479	8852.58
538.845	8835.86
539.21	8787.49
539.575	8828.4
539.94	8797.44
540.305	8826.82
540.67	8775.29
541.034	8808.06
541.399	8712.47
541.764	8786.14
542.129	8751.11
542.494	8671.57
542.858	8708.85
543.223	8749.08
543.587	8694.39
543.952	8636.99
544.316	8618.69
544.681	8582.3
545.045	8656.88
545.41	8614.84
545.774	8583.66
546.138	8539.14
546.503	8510.89
546.867	8513.38
547.231	8554.73
547.595	8585.47
547.959	8484.45
548.324	8489.88
548.688	8469.76
549.052	8458.46
549.416	8498.91
549.779	8412.14
550.143	8349.77
550.507	8383.89
550.871	8397.22
551.235	8352.25
551.599	8397
551.962	8299.15
552.326	8302.54
552.689	8347.96
553.053	8221.41
553.417	8265.93
553.78	8327.17
554.143	8218.47
554.507	8180.28
554.87	8290.78
555.234	8347.73
555.597	8203.78
555.96	8144.57
556.323	8249.66
556.686	8195.19
557.05	8193.16
557.413	8201.97
557.776	8186.83
558.139	8236.1
558.502	8229.77
558.865	8167.62
559.228	8172.37
559.59	8235.42
559.953	8130.56
560.316	8229.54
560.679	8189.54
561.041	8257.57
561.404	8249.43
561.767	8216.89
562.129	8201.75
562.492	8293.95
562.854	8232.93
563.217	8216.89
563.579	8224.57
563.941	8272.71
564.304	8305.47
564.666	8305.47
565.028	8323.33
565.39	8263.21
565.753	8304.8
566.115	8339.37
566.477	8378.01
566.839	8335.53
567.201	8380.5
567.563	8331.01
567.925	8410.33
568.287	8341.86
568.648	8428.18
569.01	8423.89
569.372	8499.37
569.734	8381.18
570.095	8497.33
570.457	8447.16
570.819	8486.94
571.18	8506.37
571.542	8498.24
571.903	8519.25
572.265	8558.12
572.626	8508.41
572.987	8526.03
573.349	8610.78
573.71	8643.77
574.071	8623.43
574.432	8629.53
574.794	8691
575.155	8700.49
575.516	8650.78
575.877	8674.96
576.238	8696.65
576.599	8745.69
576.96	8786.37
577.32	8770.77
577.681	8743.88
578.042	8832.69
578.403	8881.05
578.763	8818.45
579.124	8925.57
579.485	8879.92
579.845	8995.4
580.206	8923.99
580.566	8891
580.927	9042.63
581.287	9027.04
581.648	8971.9
582.008	8982.74
582.368	9036.53
582.728	8987.72
583.089	9027.04
583.449	9065.23
583.809	9113.36
584.169	9108.39
584.529	9048.51
584.889	9145
585.249	9110.88
585.609	9166.92
585.969	9171.21
586.329	9145.68
586.688	9251.89
587.048	9209.63
587.408	9200.59
587.768	9245.34
588.127	9231.33
588.487	9215.51
588.846	9384.99
589.206	9300.25
589.565	9256.86
589.925	9306.35
590.284	9298.44
590.643	9377.54
591.003	9355.39
591.362	9402.17
591.721	9315.62
592.08	9373.47
592.44	9401.49
592.799	9402.85
593.158	9332.57
593.517	9398.78
593.876	9446.69
594.235	9446.69
594.593	9393.35
594.952	9510.87
595.311	9399
595.67	9416.63
596.029	9473.8
596.387	9534.82
596.746	9514.93
597.104	9470.41
597.463	9482.17
597.822	9511.77
598.18	9522.62
598.538	9470.64
598.897	9594.71
599.255	9516.06
599.613	9625.21
599.972	9505.89
600.33	9593.35
600.688	9589.06
601.046	9568.49
601.404	9674.03
601.762	9561.94
602.12	9605.55
602.478	9658.66
602.836	9622.5
603.194	9529.17
603.552	9624.99
603.91	9649.17
604.268	9659.79
604.625	9594.25
604.983	9608.72
605.341	9610.98
605.698	9628.83
606.056	9667.47
606.413	9682.84
606.771	9729.84
607.128	9680.58
607.485	9665.89
607.843	9624.08
608.2	9737.75
608.557	9784.3
608.914	9747.92
609.272	9733.91
609.629	9826.79
609.986	9803.29
610.343	9758.99
610.7	9849.84
611.057	9804.64
611.414	9829.28
611.771	9781.59
612.127	9847.13
612.484	9827.24
612.841	9798.54
613.198	9849.84
613.554	9852.33
613.911	9880.57
614.267	9945.66
614.624	9815.26
614.98	9894.58
615.337	9946.33
615.693	9918.09
616.05	9955.83
616.406	9984.07
616.762	9971.42
617.118	9912.44
617.475	9928.48
617.831	9938.2
618.187	10005.54
618.543	9938.88
618.899	10005.77
619.255	9992.44
619.611	10016.62
619.967	10046.44
620.323	10061.59
620.678	9987.01
621.034	9967.35
621.39	10018.65
621.746	9974.36
622.101	10141.36
622.457	10038.76
622.812	10040.12
623.168	9977.07
623.523	10105.88
623.879	10090.51
624.234	10000.57
624.589	10060.91
624.945	10059.1
625.3	10061.36
625.655	10114.47
626.01	10077.18
626.365	9997.63
626.72	10024.98
627.075	10038.76
627.43	10050.51
627.785	10047.8
628.14	10046.9
628.495	10067.46
628.85	9994.47
629.205	9982.72
629.559	10010.74
629.914	9988.59
630.269	9988.37
630.623	9966.67
630.978	9951.31
631.332	9986.11
631.687	10014.13
632.041	9919.89
632.396	9883.51
632.75	9835.6
633.104	9980.23
633.459	9861.37
633.813	9777.53
634.167	9882.38
634.521	9868.37
634.875	9853
635.229	9829.05
635.583	9815.72
635.937	9808.26
636.291	9741.14
636.645	9770.29
636.999	9792.44
637.352	9803.51
637.706	9674.48
638.06	9763.74
638.413	9743.85
638.767	9735.72
639.121	9710.63
639.474	9688.49
639.828	9656.62
640.181	9602.16
640.534	9636.06
640.888	9576.17
641.241	9601.26
641.594	9580.69
641.947	9601.94
642.301	9619.11
642.654	9547.02
643.007	9546.57
643.36	9553.12
643.713	9585.89
644.066	9563.97
644.419	9536.4
644.771	9490.53
645.124	9453.47
645.477	9433.58
645.83	9345.22
646.182	9346.8
646.535	9304.54
646.888	9373.69
647.24	9242.62
647.593	9391.55
647.945	9319.68
648.298	9266.8
648.65	9249.18
649.002	9234.71
649.355	9318.55
649.707	9289.85
650.059	9312.68
650.411	9394.94
650.763	9433.81
651.115	9538.89
651.467	9461.15
651.819	9548.15
652.171	9483.75
652.523	9442.62
652.875	9431.55
653.227	9471.77
653.578	9504.31
653.93	9525.33
654.282	9421.15
654.633	9444.43
654.985	9506.57
655.337	9464.09
655.688	9478.1
656.039	9473.13
656.391	9369.85
656.742	9431.32
657.094	9497.98
657.445	9475.61
657.796	9471.77
658.147	9450.3
658.498	9433.81
658.849	9493.92
659.2	9464.54
659.551	9444.88
659.902	9395.16
660.253	9480.13
660.604	9471.54
660.955	9472.22
661.306	9531.43
661.656	9537.76
662.007	9498.66
662.358	9591.09
662.708	9532.33
663.059	9500.92
663.409	9540.02
663.76	9538.44
664.11	9535.95
664.461	9516.97
664.811	9541.15
665.161	9573.24
665.511	9488.04
665.862	9554.48
666.212	9524.2
666.562	9526.23
666.912	9483.07
667.262	9445.1
667.612	9578.89
667.962	9491.66
668.312	9492.34
668.662	9521.49
669.011	9495.27
669.361	9442.39
669.711	9482.62
670.06	9502.73
670.41	9467.93
670.76	9499.57
671.109	9445.33
671.459	9477.19
671.808	9495.72
672.157	9504.99
672.507	9390.64
672.856	9415.73
673.205	9402.39
673.554	9416.63
673.904	9364.2
674.253	9457.31
674.602	9399.68
674.951	9288.05
675.3	9268.39
675.649	9414.6
675.998	9357.88
676.346	9382.51
676.695	9398.78
677.044	9291.89
677.393	9333.24
677.741	9423.86
678.09	9362.85
678.438	9274.26
678.787	9389.29
679.135	9323.98
679.484	9263.41
679.832	9281.72
680.181	9194.72
680.529	9207.6
680.877	9195.85
681.225	9228.16
681.573	9206.69
681.922	9220.48
682.27	9135.51
682.618	9108.84
682.966	9198.56
683.314	9131.67
683.661	9088.5
684.009	9041.95
684.357	9029.07
684.705	8976.64
685.053	8997.43
685.4	8981.84
685.748	8931.9
686.095	8975.96
686.443	8901.39
686.79	8944.1
687.138	8896.64
687.485	8974.83
687.832	8888.06
688.18	8850.32
688.527	8867.72
688.874	8852.35
689.221	8739.81
689.568	8730.55
689.915	8702.3
690.262	8734.61
690.609	8651.91
690.956	8630.21
691.303	8607.84
691.65	8591.34
691.997	8616.88
692.344	8477.45
692.69	8459.82
693.037	8512.7
693.383	8450.55
693.73	8470.67
694.077	8411.23
694.423	8404
694.769	8335.08
695.116	8250.56
695.462	8274.29
695.808	8241.97
696.155	8315.87
696.501	8166.72
696.847	8202.2
697.193	8110
697.539	8162.2
697.885	8070.23
698.231	8067.29
698.577	8125.82
698.923	7968.08
699.269	7980.06
699.614	7870.91
699.96	7911.59
700.306	7920.4
700.651	7845.15
700.997	7804.02
701.342	7825.49
701.688	7814.87
702.033	7795.66
702.379	7748.2
702.724	7707.3
703.069	7657.81
703.415	7654.64
703.76	7646.28
704.105	7605.83
704.45	7562.44
704.795	7543.69
705.14	7493.74
705.485	7521.77
705.83	7426.63
706.175	7483.12
706.52	7436.8
706.865	7410.58
707.209	7387.98
707.554	7367.65
707.899	7426.85
708.243	7351.37
708.588	7271.83
708.932	7240.19
709.277	7254.65
709.621	7191.6
709.966	7172.4
710.31	7218.04
710.654	7129.91
710.998	7111.38
711.342	7137.14
711.687	7130.36
712.031	7086.97
712.375	7102.34
712.719	7059.4
713.063	7068.9
713.407	7037.26
713.75	7027.99
714.094	7039.97
714.438	7015.34
714.782	6984.6
715.125	6983.02
715.469	7017.37
715.812	6914.32
716.156	6935.11
716.499	6894.89
716.843	6916.13
717.186	6877.94
717.53	6972.63
717.873	6909.35
718.216	6830.03
718.559	6838.85
718.902	6867.77
719.246	6874.55
719.589	6859.18
719.932	6787.32
720.275	6814.44
720.617	6779.64
720.96	6810.82
721.303	6806.08
721.646	6787.77
721.989	6713.43
722.331	6803.59
722.674	6781.45
723.016	6778.06
723.359	6766.31
723.701	6771.05
724.044	6697.38
724.386	6706.42
724.729	6750.94
725.071	6714.56
725.413	6694.67
725.755	6668
726.097	6665.29
726.439	6655.8
726.782	6625.74
727.124	6716.36
727.465	6696.93
727.807	6678.85
728.149	6598.4
728.491	6690.15
728.833	6641.11
729.175	6621.45
729.516	6673.2
729.858	6620.32
730.199	6612.86
730.541	6619.19
730.882	6584.16
731.224	6682.47
731.565	6604.95
731.906	6667.78
732.248	6642.92
732.589	6617.83
732.93	6614.67
733.271	6554.79
733.612	6645.4
733.953	6683.82
734.294	6651.96
734.635	6610.6
734.976	6640.88
735.317	6615.8
735.658	6640.88
735.999	6647.21
736.339	6609.47
736.68	6648.57
737.021	6655.57
737.361	6620.55
737.702	6670.71
738.042	6641.56
738.383	6704.61
738.723	6704.61
739.063	6648.34
739.404	6701.9
739.744	6673.65
740.084	6636.14
740.424	6728.79
740.764	6752.97
741.104	6746.64
741.444	6757.94
741.784	6731.73
742.124	6790.49
742.464	6768.34
742.804	6780.54
743.143	6800.43
743.483	6875.45
743.823	6858.28
744.162	6880.88
744.502	6911.84
744.841	6915.91
745.181	7006.52
745.52	7012.85
745.86	7030.03
746.199	7005.17
746.538	7079.74
746.877	7155.22
747.216	7173.07
747.556	7171.04
747.895	7216.91
748.234	7253.07
748.573	7374.2
748.911	7370.13
749.25	7427.3
749.589	7482.44
749.928	7536.68
750.267	7623.91
750.605	7658.71
750.944	7736.45
751.283	7837.69
751.621	7944.81
751.96	7990.68
752.298	8055.76
752.636	8182.09
752.975	8233.84
753.313	8306.15
753.651	8421.63
753.989	8513.38
754.327	8597.44
754.666	8682.64
755.004	8822.07
755.342	8956.53
755.679	9093.7
756.017	9154.49
756.355	9353.58
756.693	9433.35
757.031	9597.42
757.368	9694.14
757.706	9847.13
758.044	9927.58
758.381	10197.85
758.719	10257.96
759.056	10481.69
759.394	10637.84
759.731	10669.03
760.068	10895.24
760.405	11049.36
760.743	11216.58
761.08	11422.68
761.417	11521.43
761.754	11701.77
762.091	11860.86
762.428	12054.53
762.765	12141.08
763.102	12376.1
763.438	12517.11
763.775	12693.38
764.112	12932.92
764.449	13068.74
764.785	13270.54
765.122	13376.3
765.458	13505.11
765.795	13721.15
766.131	13848.83
766.467	13950.07
766.804	14139.22
767.14	14177.18
767.476	14456.27
767.812	14589.38
768.148	14803.16
768.485	14887.9
768.821	14961.34
769.157	15107.33
769.492	15220.32
769.828	15359.07
770.164	15454.66
770.5	15532.4
770.836	15755.45
771.171	15774.66
771.507	15968.1
771.842	15900.53
772.178	16007.42
772.513	16283.12
772.849	16305.04
773.184	16409.67
773.519	16534.18
773.855	16570.34
774.19	16573.73
774.525	16707.74
774.86	16824.12
775.195	16876.1
775.53	16942.08
775.865	16972.36
776.2	16965.58
776.535	16969.2
776.87	17164.22
777.205	17092.59
777.539	17149.31
777.874	17284.45
778.209	17249.42
778.543	17302.3
778.878	17312.69
779.212	17434.27
779.547	17472.69
779.881	17488.51
780.215	17429.3
780.55	17597.88
780.884	17608.96
781.218	17593.37
781.552	17626.36
781.886	17697.77
782.22	17567.38
782.554	17649.41
782.888	17451.22
783.222	17508.4
783.556	17572.57
783.889	17615.51
784.223	17491.45
784.557	17592.01
784.89	17714.72
785.224	17587.49
785.557	17530.54
785.891	17451.22
786.224	17525.8
786.558	17607.38
786.891	17417.55
787.224	17472.69
787.557	17425.23
787.891	17421.62
788.224	17472.01
788.557	17385.01
788.89	17469.07
789.223	17505.46
789.556	17356.76
789.888	17329.87
790.221	17293.03
790.554	17235.18
790.887	17265.69
791.219	17307.95
791.552	17198.57
791.884	17127.39
792.217	17252.81
792.549	17133.49
792.882	17116.09
793.214	17056.88
793.546	17119.48
793.879	16916.32
794.211	16897.56
794.543	17006.94
794.875	16966.94
795.207	17020.27
795.539	16841.52
795.871	16961.97
796.203	16830.45
796.535	16702.09
796.867	16838.36
797.198	16733.73
797.53	16711.58
797.862	16612.15
798.193	16695.76
798.525	16557.91
798.856	16649.66
799.188	16462.1
799.519	16495.54
799.85	16360.4
800.182	16459.84
800.513	16427.97
800.844	16295.77
801.175	16443.11
801.506	16304.59
801.837	16160.63
802.168	16190.46
802.499	16162.22
802.83	16019.62
803.161	16098.26
803.491	15962.67
803.822	16108.43
804.153	15974.2
804.483	15952.28
804.814	15851.04
805.145	15879.74
805.475	15784.6
805.805	15803.13
806.136	15778.27
806.466	15743.02
806.796	15789.12
807.126	15654.88
807.457	15558.16
807.787	15544.83
808.117	15522.01
808.447	15522.46
808.777	15537.37
809.107	15504.38
809.436	15438.39
809.766	15376.47
810.096	15355.23
810.426	15319.07
810.755	15346.87
811.085	15256.48
811.414	15280.88
811.744	15162.69
812.073	15143.49
812.403	15291.96
812.732	15087.67
813.061	15134.67
813.39	15035.92
813.719	14978.74
814.049	15100.32
814.378	15011.74
814.707	15006.77
815.036	15023.26
815.365	14872.98
815.693	14769.48
816.022	14817.17
816.351	14782.59
816.68	14650.62
817.008	14782.14
817.337	14710.28
817.665	14679.54
817.994	14715.93
818.322	14592.09
818.651	14571.3
818.979	14498.08
819.307	14613.56
819.636	14632.31
819.964	14516.84
820.292	14544.18
820.62	14458.76
820.948	14527.23
821.276	14456.27
821.604	14398.19
821.932	14481.13
822.259	14506.67
822.587	14510.51
822.915	14297.63
823.243	14403.84
823.57	14497.85
823.898	14435.48
824.225	14386.44
824.553	14407.46
824.88	14431.41
825.207	14473.22
825.535	14441.58
825.862	14463.73
826.189	14382.6
826.516	14465.99
826.843	14547.57
827.17	14464.63
827.497	14500.79
827.824	14486.55
828.151	14467.12
828.478	14448.82
828.805	14556.16
829.131	14458.08
829.458	14460.11
829.785	14366.11
830.111	14444.52
830.438	14531.07
830.764	14405.65
831.09	14407.01
831.417	14390.06
831.743	14508.7
832.069	14388.48
832.395	14418.76
832.722	14413.11
833.048	14442.04
833.374	14423.96
833.7	14320.23
834.026	14394.58
834.351	14414.47
834.677	14371.3
835.003	14321.59
835.329	14338.54
835.654	14296.28
835.98	14246.11
836.306	14236.17
836.631	14278.2
836.956	14273.9
837.282	14294.47
837.607	14198.65
837.932	14160.01
838.258	14198.2
838.583	14207.69
838.908	14099.67
839.233	14176.05
839.558	14080.46
839.883	14085.43
840.208	13969.28
840.533	14063.74
840.858	14128.37
841.182	13985.32
841.507	13989.39
841.832	13925.66
842.156	13947.59
842.481	13893.58
842.805	13864.65
843.13	13801.83
843.454	13851.77
843.778	13748.49
844.103	13809.28
844.427	13718.21
844.751	13744.43
845.075	13640.93
845.399	13604.32
845.723	13532
846.047	13513.7
846.371	13471.44
846.695	13413.36
847.019	13304.44
847.343	13333.82
847.666	13181.73
847.99	13133.37
848.313	13175.18
848.637	13092.92
848.96	13076.2
849.284	12993.94
849.607	12966.59
849.931	12929.98
850.254	12819.93
850.577	12711.91
850.9	12676.43
851.223	12644.12
851.546	12570.9
851.869	12545.81
852.192	12570.45
852.515	12518.7
852.838	12438.7
853.161	12387.85
853.483	12328.42
853.806	12346.72
854.129	12264.69
854.451	12230.12
854.774	12204.81
855.096	12138.37
855.419	12139.05
855.741	12022.21
856.063	11963.46
856.385	11931.59
856.708	11921.88
857.03	11900.18
857.352	11879.62
857.674	11818.83
857.996	11826.29
858.318	11787.87
858.64	11775.66
858.961	11703.8
859.283	11725.95
859.605	11595.1
859.926	11584.03
860.248	11590.81
860.57	11550.13
860.891	11590.59
861.212	11483.47
861.534	11429.23
861.855	11447.09
862.176	11415.67
862.498	11429.23
862.819	11448.44
863.14	11326.86
863.461	11377.48
863.782	11343.13
864.103	11322.8
864.424	11252.74
864.745	11287.54
865.065	11208.22
865.386	11175
865.707	11167.55
866.027	11191.27
866.348	11113.99
866.668	11118.73
866.989	11033.99
867.309	11039.87
867.63	11107.43
867.95	11096.59
868.27	10960.09
868.59	11036.93
868.91	10972.3
869.23	10988.79
869.55	10920.09
869.87	10983.82
870.19	10905.86
870.51	10878.74
870.83	10918.29
871.15	10853.66
871.469	10869.02
871.789	10871.73
872.109	10816.37
872.428	10742.92
872.748	10799.19
873.067	10761.68
873.386	10827.89
873.706	10801.68
874.025	10687.33
874.344	10579.76
874.663	10724.85
874.982	10691.17
875.301	10655.92
875.62	10656.6
875.939	10583.83
876.258	10598.07
876.577	10576.37
876.896	10529.37
877.214	10520.78
877.533	10556.04
877.852	10580.22
878.17	10507.22
878.489	10511.29
878.807	10497.96
879.125	10468.35
879.444	10506.09
879.762	10423.16
880.08	10453.67
880.398	10323.95
880.716	10348.58
881.034	10361.69
881.352	10284.18
881.67	10295.03
881.988	10279.89
882.306	10225.65
882.624	10185.65
882.941	10191.75
883.259	10184.75
883.577	10189.49
883.894	10102.71
884.212	10107.91
884.529	10084.86
884.846	10057.97
885.164	10000.34
885.481	9971.87
885.798	10008.93
886.115	9977.29
886.432	9894.36
886.75	9885.77
887.067	9880.8
887.383	9863.85
887.7	9885.55
888.017	9789.5
888.334	9831.31
888.651	9760.58
888.967	9758.99
889.284	9753.8
889.6	9648.26
889.917	9648.72
890.233	9610.52
890.55	9542.28
890.866	9606.68
891.182	9566.46
891.498	9567.14
891.815	9473.8
892.131	9466.57
892.447	9434.48
892.763	9455.5
893.079	9383.41
893.395	9385.9
893.71	9316.29
894.026	9332.11
894.342	9252.57
894.657	9237.2
894.973	9217.54
895.289	9221.61
895.604	9192.46
895.92	9064.1
896.235	9099.8
896.55	9119.24
896.865	9053.02
897.181	8975.29
897.496	9003.08
897.811	8996.08
898.126	8937.1
898.441	8951.78
898.756	8880.37
899.071	8810.77
899.386	8796.53
899.7	8696.2
900.015	8671.57
900.33	8608.52
900.644	8636.76
900.959	8622.08
901.273	8648.06
901.588	8491.68
901.902	8544.34
902.216	8516.77
902.531	8470.44
902.845	8378.92
903.159	8436.32
903.473	8318.58
903.787	8310.67
904.101	8283.1
904.415	8251.69
904.729	8293.27
905.042	8207.17
905.356	8220.28
905.67	8200.17
905.984	8155.65
906.297	8066.61
906.611	8068.87
906.924	8029.32
907.237	8032.03
907.551	7952.26
907.864	8005.59
908.177	7856.45
908.491	7840.85
908.804	7757.69
909.117	7743.91
909.43	7702.55
909.743	7611.71
910.056	7696.68
910.368	7671.82
910.681	7629.33
910.994	7597.24
911.307	7606.28
911.619	7518.38
911.932	7564.7
912.244	7509.79
912.557	7472.95
912.869	7388.44
913.181	7334.2
913.494	7328.1
913.806	7297.82
914.118	7290.59
914.43	7261.89
914.742	7254.43
915.054	7134.66
915.366	7176.24
915.678	7158.16
915.99	7131.72
916.302	7101.89
916.613	7029.58
916.925	7042.46
917.236	7018.28
917.548	6960.88
917.859	6943.7
918.171	6958.62
918.482	6891.95
918.794	6938.28
919.105	6831.84
919.416	6786.64
919.727	6730.83
920.038	6778.51
920.349	6664.61
920.66	6654.67
920.971	6700.32
921.282	6689.47
921.593	6576.25
921.903	6615.57
922.214	6593.2
922.525	6542.36
922.835	6477.05
923.146	6486.54
923.456	6476.14
923.767	6407.44
924.077	6420.33
924.387	6388.69
924.697	6342.81
925.008	6313.66
925.318	6296.26
925.628	6296.49
925.938	6274.57
926.248	6217.39
926.558	6176.72
926.867	6141.46
927.177	6172.65
927.487	6133.1
927.796	6057.4
928.106	6023.95
928.416	6037.74
928.725	6065.76
929.034	5998.19
929.344	5980.11
929.653	5999.77
929.962	5952.99
930.271	5894.46
930.581	5821.92
930.89	5802.26
931.199	5773.79
931.508	5765.88
931.817	5772.66
932.125	5750.74
932.434	5767.46
932.743	5685.2
933.051	5692.44
933.36	5633.45
933.669	5604.3
933.977	5624.41
934.286	5657.63
934.594	5583.74
934.902	5545.77
935.21	5499.67
935.519	5473.68
935.827	5491.54
936.135	5441.59
936.443	5434.14
936.751	5426
937.059	5413.12
937.367	5399.11
937.674	5344.42
937.982	5329.28
938.29	5299.9
938.597	5245.44
938.905	5221.26
939.213	5160.47
939.52	5201.15
939.827	5187.82
940.135	5201.15
940.442	5179.68
940.749	5158.21
941.056	5112.11
941.363	5062.4
941.67	5047.71
941.977	5065.56
942.284	4988.72
942.591	4949.18
942.898	4941.72
943.205	4942.17
943.511	4907.6
943.818	4938.33
944.125	4872.57
944.431	4896.98
944.738	4912.34
945.044	4816.07
945.35	4849.75
945.657	4775.62
945.963	4760.03
946.269	4754.38
946.575	4757.54
946.881	4687.49
947.187	4683.2
947.493	4628.51
947.799	4611.56
948.105	4643.42
948.41	4581.5
948.716	4585.35
949.022	4521.62
949.327	4530.66
949.633	4500.38
949.938	4537.89
950.244	4518
950.549	4503.31
950.854	4428.51
951.16	4454.05
951.465	4415.18
951.77	4408.63
952.075	4340.61
952.38	4329.31
952.685	4344.45
952.99	4282.53
953.294	4281.17
953.599	4304.9
953.904	4305.35
954.209	4242.08
954.513	4248.18
954.818	4224.23
955.122	4213.83
955.426	4194.85
955.731	4186.94
956.035	4142.65
956.339	4110.78
956.643	4126.15
956.948	4094.96
957.252	4031.46
957.556	4057.45
957.86	4032.82
958.163	4025.81
958.467	3992.37
958.771	3962.99
959.075	3930.45
959.378	3915.98
959.682	3965.02
959.985	3943.78
960.289	3878.7
960.592	3885.93
960.896	3861.97
961.199	3843.44
961.502	3865.14
961.805	3814.52
962.108	3825.14
962.411	3799.6
962.714	3761.19
963.017	3761.41
963.32	3728.64
963.623	3700.62
963.926	3743.11
964.228	3686.39
964.531	3627.86
964.833	3687.97
965.136	3621.76
965.438	3604.35
965.741	3636.22
966.043	3605.03
966.345	3574.52
966.648	3539.27
966.95	3593.96
967.252	3503.79
967.554	3557.12
967.856	3507.41
968.158	3473.96
968.46	3492.49
968.761	3461.08
969.063	3455.43
969.365	3413.85
969.666	3443.23
969.968	3406.62
970.269	3387.18
970.571	3355.77
970.872	3367.07
971.174	3349.67
971.475	3311.71
971.776	3338.37
972.077	3324.36
972.378	3290.69
972.679	3317.58
972.98	3230.8
973.281	3208.88
973.582	3258.15
973.883	3234.19
974.183	3188.09
974.484	3172.73
974.785	3149.45
975.085	3178.38
975.386	3158.72
975.686	3144.48
975.986	3111.94
976.287	3128.89
976.587	3068.55
976.887	3095.67
977.187	3057.48
977.487	3065.16
977.787	3027.42
978.087	2986.07
978.387	3029.91
978.687	3008.89
978.987	2974.77
979.286	2969.57
979.586	2959.63
979.885	2958.27
980.185	2958.04
980.484	2897.93
980.784	2893.19
981.083	2862.45
981.382	2853.64
981.682	2867.65
981.981	2873.3
982.28	2818.61
982.579	2808.22
982.878	2806.86
983.177	2835.79
983.475	2808.22
983.774	2751.27
984.073	2736.58
984.372	2750.37
984.67	2735
984.969	2718.28
985.267	2722.34
985.566	2731.83
985.864	2705.85
986.162	2692.97
986.461	2678.28
986.759	2643.02
987.057	2628.11
987.355	2624.27
987.653	2630.82
987.951	2595.79
988.249	2576.58
988.547	2590.37
988.844	2581.1
989.142	2559.41
989.44	2536.13
989.737	2540.65
990.035	2523.48
990.332	2556.92
990.63	2455.46
990.927	2472.86
991.224	2448
991.521	2455.91
991.819	2459.75
992.116	2423.14
992.413	2453.2
992.71	2412.3
993.006	2397.61
993.303	2389.7
993.6	2370.49
993.897	2367.32
994.193	2358.51
994.49	2347.44
994.787	2327.1
995.083	2306.31
995.379	2332.07
995.676	2286.2
995.972	2288.46
996.268	2296.82
996.565	2229.93
996.861	2255.46
997.157	2274.67
997.453	2222.02
997.749	2260.89
998.044	2194
998.34	2191.28
998.636	2189.02
998.932	2193.09
999.227	2151.96
999.523	2132.3
999.818	2121.91
1000.114	2120.55
1000.409	2123.49
1000.704	2128.91
1001	2094.56
1001.295	2061.12
1001.59	2071.29
1001.885	2054.79
1002.18	2047.79
1002.475	2029.71
1002.77	2029.93
1003.065	2008.92
1003.359	2000.1
1003.654	1982.93
1003.949	1985.87
1004.243	1962.59
1004.538	1952.87
1004.832	1962.59
1005.127	1945.41
1005.421	1957.62
1005.715	1925.98
1006.009	1926.66
1006.304	1881.91
1006.598	1869.26
1006.892	1880.56
1007.186	1848.92
1007.48	1862.93
1007.773	1842.82
1008.067	1799.66
1008.361	1827.45
1008.655	1822.25
1008.948	1784.52
1009.242	1790.39
1009.535	1776.83
1009.829	1780.22
1010.122	1753.33
1010.415	1724.86
1010.708	1780.9
1011.001	1740.9
1011.295	1726.44
1011.588	1730.28
1011.881	1727.34
1012.173	1687.79
1012.466	1691.18
1012.759	1657.74
1013.052	1645.08
1013.344	1643.95
1013.637	1671.98
1013.93	1625.88
1014.222	1647.34
1014.514	1607.8
1014.807	1607.12
1015.099	1594.46
1015.391	1599.44
1015.683	1593.33
1015.976	1554.69
1016.268	1550.62
1016.56	1528.7
1016.851	1533.22
1017.143	1560.57
1017.435	1535.71
1017.727	1533
1018.018	1505.65
1018.31	1518.31
1018.602	1500
1018.893	1487.8
1019.185	1458.65
1019.476	1467.46
1019.767	1438.99
1020.058	1466.56
1020.35	1458.87
1020.641	1426.33
1020.932	1421.13
1021.223	1418.65
1021.514	1414.36
1021.804	1393.79
1022.095	1347.69
1022.386	1361.48
1022.677	1340.23
1022.967	1385.43
1023.258	1339.56
1023.548	1308.6
1023.839	1338.65
1024.129	1331.42
1024.419	1316.05
1024.709	1308.82
1025	1293.68
1025.29	1295.71
1025.58	1284.19
1025.87	1263.4
1026.16	1243.96
1026.449	1253.68
1026.739	1239.9
1027.029	1224.98
1027.319	1220.24
1027.608	1232.67
1027.898	1198.99
1028.187	1191.31
1028.477	1195.15
1028.766	1173.91
1029.055	1161.03
1029.344	1146.57
1029.634	1168.71
1029.923	1129.17
1030.212	1131.65
1030.501	1125.55
1030.79	1108.15
1031.078	1114.7
1031.367	1102.73
1031.656	1114.25
1031.945	1095.49
1032.233	1106.57
1032.522	1109.5
1032.81	1080.58
1033.099	1078.55
1033.387	1081.26
1033.675	1055.95
1033.963	1046.91
1034.251	1045.33
1034.54	1037.42
1034.828	1017.53
1035.116	1047.13
1035.403	1020.24
1035.691	1003.29
1035.979	1032.67
1036.267	1010.98
1036.554	992.67
1036.842	977.08
1037.129	973.46
1037.417	989.28
1037.704	981.15
1037.992	944.09
1038.279	938.66
1038.566	941.83
1038.853	941.83
1039.14	941.83
