Data from hue_80_FLMS001491_54.txt Node
Date: Mon Feb 06 15:23:14 GMT 2017
User: dcchb
Spectrometer: FLMS00149
Trigger mode: 0
Integration Time (sec): 2.000000E-2
Scans to average: 10
Electric dark correction enabled: true
Nonlinearity correction enabled: false
Boxcar width: 0
XAxis mode: Wavelengths
Number of Pixels in Spectrum: 2048
>>>>>Begin Spectral Data<<<<<
341.393	-3.84
341.776	-3.84
342.16	-3.84
342.543	-57.63
342.927	-59.89
343.31	-65.53
343.693	-63.73
344.077	-40
344.46	-38.19
344.843	-46.78
345.226	-32.77
345.61	-25.31
345.993	-32.99
346.376	-1.81
346.759	5.42
347.142	-0.9
347.525	28.93
347.908	52.88
348.291	80
348.674	74.12
349.057	106.66
349.44	107.34
349.823	131.75
350.206	172.88
350.588	193.89
350.971	194.12
351.354	220.79
351.737	236.6
352.119	254.91
352.502	248.81
352.884	263.5
353.267	271.63
353.65	312.53
354.032	306.43
354.414	284.74
354.797	311.4
355.179	338.75
355.562	331.06
355.944	338.3
356.326	347.34
356.709	336.94
357.091	328.35
357.473	348.24
357.855	335.81
358.238	340.78
358.62	355.7
359.002	356.6
359.384	341.91
359.766	338.3
360.148	344.4
360.53	343.95
360.912	338.75
361.294	330.84
361.676	346.43
362.057	339.65
362.439	324.29
362.821	297.62
363.203	318.64
363.584	345.75
363.966	349.37
364.348	335.81
364.729	343.27
365.111	315.25
365.493	308.47
365.874	336.49
366.256	327.68
366.637	304.62
367.019	325.87
367.4	335.58
367.781	310.05
368.163	327.22
368.544	329.71
368.925	305.08
369.306	324.74
369.688	322.48
370.069	318.64
370.45	314.79
370.831	310.5
371.212	317.51
371.593	313.21
371.974	326.32
372.355	313.66
372.736	300.33
373.117	317.28
373.498	314.12
373.879	316.83
374.26	310.27
374.641	301.91
375.021	317.28
375.402	355.24
375.783	326.32
376.163	327
376.544	354.11
376.925	326.55
377.305	331.52
377.686	329.03
378.066	336.49
378.447	332.87
378.827	336.04
379.208	325.42
379.588	315.47
379.968	334.45
380.349	332.87
380.729	334.45
381.109	342.59
381.489	350.05
381.87	347.34
382.25	347.56
382.63	335.81
383.01	353.21
383.39	342.36
383.77	331.74
384.15	353.66
384.53	336.71
384.91	350.27
385.29	337.17
385.67	325.19
386.049	358.41
386.429	354.57
386.809	335.13
387.189	364.28
387.568	349.37
387.948	350.73
388.328	331.29
388.707	354.34
389.087	355.02
389.466	358.18
389.846	364.51
390.225	363.38
390.605	380.78
390.984	380.1
391.363	347.79
391.743	372.42
392.122	368.13
392.501	355.92
392.881	368.35
393.26	365.41
393.639	367.45
394.018	372.87
394.397	361.35
394.776	367
395.155	371.74
395.534	384.4
395.913	385.98
396.292	370.61
396.671	369.93
397.05	379.88
397.429	371.52
397.808	399.54
398.186	391.4
398.565	408.58
398.944	393.44
399.323	381.46
399.701	391.85
400.08	395.92
400.458	408.12
400.837	400.67
401.215	403.83
401.594	396.6
401.972	391.85
402.351	417.39
402.729	409.25
403.107	400.67
403.486	399.99
403.864	422.36
404.242	421.46
404.62	423.04
404.999	419.2
405.377	418.97
405.755	425.53
406.133	408.12
406.511	415.36
406.889	438.63
407.267	446.54
407.645	408.8
408.023	437.73
408.401	409.48
408.779	426.43
409.156	424.4
409.534	461
409.912	447.9
410.29	441.12
410.667	422.81
411.045	444.51
411.422	452.87
411.8	448.35
412.178	456.26
412.555	477.5
412.933	456.26
413.31	451.29
413.687	484.06
414.065	465.07
414.442	487.67
414.819	478.41
415.197	492.87
415.574	499.65
415.951	491.29
416.328	480.21
416.705	489.7
417.082	494.68
417.46	499.42
417.837	499.2
418.214	488.12
418.591	489.7
418.967	493.55
419.344	526.99
419.721	528.12
420.098	518.4
420.475	521.79
420.852	510.72
421.228	518.4
421.605	512.75
421.982	525.18
422.358	535.58
422.735	537.39
423.111	519.76
423.488	555.47
423.864	564.05
424.241	551.4
424.617	531.29
424.994	548.91
425.37	559.08
425.746	546.88
426.123	571.51
426.499	568.57
426.875	553.21
427.251	573.54
427.627	587.33
428.003	587.78
428.379	587.33
428.756	588.01
429.132	604.28
429.507	615.35
429.883	628.01
430.259	606.76
430.635	595.92
431.011	590.72
431.387	612.19
431.763	628.46
432.138	634.33
432.514	651.96
432.89	620.55
433.265	667.55
433.641	665.07
434.016	661.68
434.392	700.77
434.767	669.13
435.143	665.97
435.518	709.13
435.894	686.99
436.269	686.54
436.644	705.97
437.02	707.78
437.395	710.04
437.77	717.95
438.145	732.18
438.52	720.89
438.895	725.18
439.271	735.35
439.646	728.79
440.021	751.84
440.395	759.75
440.77	751.84
441.145	764.73
441.52	768.34
441.895	767.66
442.27	782.13
442.645	776.02
443.019	767.21
443.394	787.78
443.769	785.06
444.143	753.43
444.518	783.26
444.892	788.45
445.267	809.24
445.641	819.64
446.016	813.99
446.39	795.69
446.764	830.49
447.139	818.28
447.513	825.06
447.887	845.18
448.262	843.14
448.636	850.37
449.01	857.6
449.384	860.99
449.758	841.79
450.132	877.04
450.506	885.4
450.88	867.55
451.254	886.98
451.628	906.64
452.002	916.36
452.376	900.32
452.75	899.64
453.123	936.47
453.497	937.83
453.871	934.21
454.244	953.65
454.618	949.35
454.992	966.08
455.365	976.7
455.739	1004.04
456.112	1004.72
456.486	1003.59
456.859	991.39
457.232	1039.52
457.606	1027.77
457.979	1034.32
458.352	1072.74
458.725	1068.67
459.099	1069.12
459.472	1099.86
459.845	1133.76
460.218	1117.94
460.591	1141.21
460.964	1132.17
461.337	1168.33
461.71	1188.9
462.083	1220.31
462.456	1193.87
462.829	1214.43
463.201	1230.7
463.574	1253.53
463.947	1258.5
464.32	1278.16
464.692	1292.17
465.065	1323.58
465.438	1310.02
465.81	1336.46
466.183	1379.17
466.555	1400.19
466.928	1401.55
467.3	1412.62
467.672	1434.31
468.045	1480.87
468.417	1508.89
468.789	1496.01
469.161	1534.87
469.534	1556.12
469.906	1608.09
470.278	1636.34
470.65	1653.29
471.022	1684.02
471.394	1733.97
471.766	1757.02
472.138	1775.32
472.51	1797.24
472.882	1837.69
473.253	1859.61
473.625	1916.79
473.997	1967.18
474.369	1965.82
474.74	2013.05
475.112	2074.3
475.484	2126.72
475.855	2186.16
476.227	2210.56
476.598	2257.79
476.97	2322.65
477.341	2365.14
477.713	2441.52
478.084	2488.3
478.455	2528.75
478.827	2644.68
479.198	2731.45
479.569	2742.3
479.94	2848.29
480.311	2919.47
480.682	3044.21
481.053	3109.52
481.424	3243.3
481.795	3249.18
482.166	3349.52
482.537	3429.29
482.908	3571.21
483.279	3632.22
483.65	3749.28
484.021	3879.45
484.391	3939.33
484.762	4057.52
485.133	4157.4
485.503	4268.14
485.874	4383.16
486.244	4479.88
486.615	4598.98
486.985	4723.04
487.356	4855.69
487.726	4955.8
488.097	5122.13
488.467	5213.2
488.837	5381.78
489.207	5491.61
489.578	5652.73
489.948	5805.05
490.318	5944.93
490.688	5964.14
491.058	6167.52
491.428	6354.64
491.798	6442.09
492.168	6647.73
492.538	6669.2
492.908	6920.27
493.278	7072.13
493.648	7153.26
494.017	7325.46
494.387	7414.49
494.757	7564.77
495.126	7770.87
495.496	7748.95
495.866	7987.13
496.235	8122.05
496.605	8254.47
496.974	8350.06
497.344	8537.63
497.713	8585.54
498.082	8786.21
498.452	8905.75
498.821	9107.33
499.19	9154.34
499.559	9288.8
499.928	9351.62
500.298	9587.54
500.667	9704.38
501.036	9742.79
501.405	9834.54
501.774	9936.69
502.143	10139.85
502.512	10172.39
502.88	10328.32
503.249	10441.76
503.618	10540.51
503.987	10664.58
504.356	10700.96
504.724	10813.73
505.093	10922.42
505.462	10981.41
505.83	11162.19
506.199	11243.32
506.567	11367.84
506.936	11446.48
507.304	11578.45
507.672	11629.07
508.041	11824.77
508.409	11893.02
508.777	11980.7
509.145	12034.49
509.514	12141.6
509.882	12216.4
510.25	12328.26
510.618	12403.74
510.986	12488.26
511.354	12559.9
511.722	12716.5
512.09	12905.2
512.458	12857.06
512.826	12974.57
513.193	13032.43
513.561	13160.33
513.929	13146.1
514.297	13339.08
514.664	13388.8
515.032	13449.82
515.4	13576.14
515.767	13659.08
516.135	13749.02
516.502	13691.62
516.869	13856.13
517.237	13922.57
517.604	13845.29
517.972	13983.81
518.339	14093.41
518.706	14107.88
519.073	14202.56
519.44	14229.68
519.808	14389.9
520.175	14348.1
520.542	14599.39
520.909	14616.34
521.276	14598.94
521.643	14735.21
522.009	14826.28
522.376	14870.57
522.743	14941.08
523.11	15075.54
523.477	15122.31
523.843	15229.2
524.21	15356.21
524.577	15403.89
524.943	15442.53
525.31	15497.22
525.676	15634.62
526.043	15682.75
526.409	15726.82
526.776	15854.72
527.142	15838.45
527.508	15959.35
527.874	15950.54
528.241	15980.37
528.607	16029.18
528.973	16149.41
529.339	16117.32
529.705	16226.92
530.071	16348.95
530.437	16383.98
530.803	16403.64
531.169	16445.22
531.535	16335.62
531.901	16439.34
532.267	16532.22
532.632	16608.15
532.998	16562.95
533.364	16633.46
533.73	16612.44
534.095	16794.59
534.461	16719.33
534.826	16766.34
535.192	16803.17
535.557	16866.45
535.923	16802.5
536.288	16771.76
536.653	16809.95
537.019	16774.02
537.384	16869.84
537.749	16834.36
538.114	16809.5
538.479	16883.85
538.845	16858.54
539.21	16924.53
539.575	16877.07
539.94	16786.23
540.305	16981.25
540.67	16831.87
541.034	16881.82
541.399	17009.95
541.764	16895.37
542.129	16903.06
542.494	16857.64
542.858	16903.06
543.223	16942.15
543.587	16957.75
543.952	16950.29
544.316	16913.91
544.681	16890.63
545.045	16906.9
545.41	16973.79
545.774	16896.5
546.138	16964.53
546.503	16873.45
546.867	16914.81
547.231	16983.96
547.595	16863.51
547.959	16985.99
548.324	16835.26
548.688	16867.13
549.052	16890.4
549.416	16931.98
549.779	16858.77
550.143	16858.99
550.507	16990.97
550.871	16892.44
551.235	16878.65
551.599	16898.54
551.962	17017.86
552.326	16878.2
552.689	16915.26
553.053	16834.13
553.417	16897.18
553.78	16903.28
554.143	17024.64
554.507	16969.27
554.87	16818.99
555.234	17046.11
555.597	16833.68
555.96	16867.35
556.323	17019.44
556.686	16971.98
557.05	16970.85
557.413	17008.59
557.776	17025.09
558.139	17063.05
558.502	17008.82
558.865	17064.86
559.228	17128.59
559.59	17200.9
559.953	17116.84
560.316	17334.01
560.679	17244.07
561.041	17199.55
561.404	17296.95
561.767	17517.73
562.129	17271.41
562.492	17448.13
562.854	17445.87
563.217	17417.85
563.579	17530.61
563.941	17489.48
564.304	17530.16
564.666	17634.11
565.028	17657.61
565.39	17557.73
565.753	17595.02
566.115	17628.69
566.477	17710.27
566.839	17816.25
567.201	17839.3
567.563	17860.1
567.925	17957.72
568.287	17882.92
568.648	17891.96
569.01	17960.88
569.372	18093.76
569.734	17999.07
570.095	18049.92
570.457	17987.78
570.819	18200.43
571.18	18053.08
571.542	18231.84
571.903	18161.78
572.265	18191.61
572.626	18247.43
572.987	18304.83
573.349	18301.67
573.71	18290.59
574.071	18385.73
574.432	18317.71
574.794	18518.38
575.155	18445.84
575.516	18399.06
575.877	18472.96
576.238	18441.1
576.599	18534.2
576.96	18629.34
577.32	18585.27
577.681	18647.87
578.042	18661.43
578.403	18586.18
578.763	18654.42
579.124	18582.79
579.485	18662.33
579.845	18732.61
580.206	18639.51
580.566	18709.11
580.927	18714.08
581.287	18717.7
581.648	18638.15
582.008	18676.8
582.368	18724.03
582.728	18701.2
583.089	18707.98
583.449	18722.45
583.809	18594.77
584.169	18689.68
584.529	18673.18
584.889	18801.54
585.249	18615.33
585.609	18644.48
585.969	18753.63
586.329	18681.32
586.688	18756.12
587.048	18644.71
587.408	18537.82
587.768	18538.5
588.127	18636.35
588.487	18505.73
588.846	18681.77
589.206	18488.78
589.565	18562.9
589.925	18583.92
590.284	18592.73
590.643	18604.26
591.003	18689.9
591.362	18577.14
591.721	18537.37
592.08	18509.34
592.44	18621.21
592.799	18577.59
593.158	18451.49
593.517	18469.12
593.876	18515.9
594.235	18504.6
594.593	18505.5
594.952	18518.16
595.311	18547.31
595.67	18427.99
596.029	18686.97
596.387	18585.95
596.746	18618.49
597.104	18459.18
597.463	18510.25
597.822	18524.71
598.18	18529.46
598.538	18474.99
598.897	18630.92
599.255	18376.47
599.613	18641.09
599.972	18500.76
600.33	18550.92
600.688	18452.17
601.046	18622.11
601.404	18604.26
601.762	18529.23
602.12	18556.8
602.478	18517.93
602.836	18620.3
603.194	18497.14
603.552	18549.57
603.91	18455.56
604.268	18653.07
604.625	18518.38
604.983	18682.67
605.341	18489.01
605.698	18663.92
606.056	18644.93
606.413	18579.62
606.771	18744.59
607.128	18702.79
607.485	18554.99
607.843	18638.38
608.2	18705.27
608.557	18754.08
608.914	18634.99
609.272	18698.49
609.629	18873.63
609.986	18804.93
610.343	18790.24
610.7	18849.67
611.057	18801.54
611.414	18931.25
611.771	18833.4
612.127	18857.58
612.484	18894.64
612.841	18930.12
613.198	18912.72
613.554	18926.28
613.911	19067.07
614.267	18950.91
614.624	18946.85
614.98	18996.79
615.337	19180.06
615.693	19126.05
616.05	19161.53
616.406	19097.8
616.762	19075.66
617.118	19078.59
617.475	19063
617.831	19149.55
618.187	19155.88
618.543	19159.95
618.899	19315.65
619.255	19185.71
619.611	19234.52
619.967	19350.68
620.323	19275.2
620.678	19271.13
621.034	19172.6
621.39	19258.02
621.746	19194.75
622.101	19474.74
622.457	19324.69
622.812	19269.55
623.168	19424.35
623.523	19311.13
623.879	19375.31
624.234	19347.51
624.589	19303.9
624.945	19285.37
625.3	19295.99
625.655	19339.6
626.01	19338.02
626.365	19347.74
626.72	19302.09
627.075	19337.57
627.43	19334.86
627.785	19199.95
628.14	19331.24
628.495	19303.22
628.85	19385.48
629.205	19164.02
629.559	19397.23
629.914	19245.6
630.269	19308.87
630.623	19186.84
630.978	19122.66
631.332	19193.85
631.687	19241.75
632.041	19245.82
632.396	19249.89
632.75	19176.67
633.104	19119.27
633.459	19091.7
633.813	19017.35
634.167	19046.28
634.521	19102.1
634.875	19125.15
635.229	18981.2
635.583	18953.85
635.937	19050.12
636.291	18908.2
636.645	18899.84
636.999	18944.36
637.352	18919.05
637.706	18857.36
638.06	18836.11
638.413	18810.35
638.767	18799.73
639.121	18917.47
639.474	18686.97
639.828	18788.66
640.181	18851.71
640.534	18712.05
640.888	18719.73
641.241	18635.22
641.594	18605.61
641.947	18741.65
642.301	18671.83
642.654	18705.04
643.007	18701.66
643.36	18619.4
643.713	18685.38
644.066	18639.96
644.419	18473.64
644.771	18436.8
645.124	18210.82
645.477	18246.07
645.83	18179.41
646.182	18098.96
646.535	17867.55
646.888	18043.14
647.24	17854.22
647.593	18164.49
647.945	17904.16
648.298	17945.74
648.65	17873.43
649.002	17867.33
649.355	18048.34
649.707	17868
650.059	17968.12
650.411	18285.39
650.763	18276.13
651.115	18374.88
651.467	18349.8
651.819	18325.85
652.171	18400.42
652.523	18407.43
652.875	18354.32
653.227	18370.14
653.578	18284.26
653.93	18444.26
654.282	18282.01
654.633	18296.47
654.985	18327.65
655.337	18350.48
655.688	18282.01
656.039	18369.69
656.391	18267.77
656.742	18247.2
657.094	18289.46
657.445	18331.95
657.796	18229.8
658.147	18215.11
658.498	18285.85
658.849	18392.06
659.2	18334.89
659.551	18277.71
659.902	18365.62
660.253	18392.74
660.604	18251.95
660.955	18228
661.306	18341.21
661.656	18256.92
662.007	18312.51
662.358	18293.98
662.708	18288.11
663.059	18252.63
663.409	18287.2
663.76	18334.21
664.11	18372.62
664.461	18406.97
664.811	18341.21
665.161	18367.2
665.511	18421.66
665.862	18430.7
666.212	18366.3
666.562	18360.42
666.912	18401.55
667.262	18403.36
667.612	18361.1
667.962	18392.06
668.312	18337.37
668.662	18433.87
669.011	18340.08
669.361	18379.86
669.711	18336.02
670.06	18277.49
670.41	18263.25
670.76	18284.72
671.109	18312.96
671.459	18213.98
671.808	18177.6
672.157	18271.84
672.507	18100.32
672.856	18148.9
673.205	18162.23
673.554	18258.28
673.904	18029.13
674.253	18176.25
674.602	18030.26
674.951	17921.56
675.3	17785.75
675.649	18058.06
675.998	18081.56
676.346	18095.12
676.695	18142.57
677.044	18025.51
677.393	18057.38
677.741	18064.16
678.09	18019.64
678.438	18025.29
678.787	18106.64
679.135	17963.6
679.484	17907.55
679.832	17960.43
680.181	17896.03
680.529	17862.58
680.877	17901
681.225	17784.39
681.573	17905.74
681.922	17732.19
682.27	17723.38
682.618	17717.27
682.966	17671.63
683.314	17697.16
683.661	17720.44
684.009	17550.27
684.357	17463.72
684.705	17437.06
685.053	17462.59
685.4	17462.14
685.748	17415.81
686.095	17253.11
686.443	17191.64
686.79	17217.85
687.138	17333.78
687.485	17257.4
687.832	17073.9
688.18	17215.82
688.527	17042.26
688.874	17018.08
689.221	16931.53
689.568	17000.68
689.915	16887.47
690.262	16807.47
690.609	16722.05
690.956	16746
691.303	16697.64
691.65	16677.53
691.997	16612.9
692.344	16433.24
692.69	16482.5
693.037	16472.34
693.383	16343.75
693.73	16395.95
694.077	16351.21
694.423	16331.55
694.769	16266.24
695.116	16191.66
695.462	16163.64
695.808	16078.45
696.155	16123.64
696.501	16058.79
696.847	15934.27
697.193	15877.77
697.539	15944.67
697.885	15764.56
698.231	15662.86
698.577	15711.45
698.923	15594.39
699.269	15546.26
699.614	15446.37
699.96	15445.24
700.306	15492.47
700.651	15293.38
700.997	15325.02
701.342	15272.82
701.688	15213.84
702.033	15096.33
702.379	15170.45
702.724	14948.08
703.069	15024.69
703.415	14894.52
703.76	14951.02
704.105	14804.81
704.45	14816.11
704.795	14768.2
705.14	14699.73
705.485	14734.53
705.83	14600.75
706.175	14591.48
706.52	14576.79
706.865	14507.87
707.209	14434.42
707.554	14370.92
707.899	14398.49
708.243	14292.96
708.588	14349.68
708.932	14254.77
709.277	14214.54
709.621	14227.2
709.966	14095.45
710.31	14147.65
710.654	13982.91
710.998	14025.39
711.342	14043.92
711.687	13994.21
712.031	13880.31
712.375	13889.8
712.719	13856.36
713.063	13776.81
713.407	13772.75
713.75	13791.28
714.094	13738.62
714.438	13729.81
714.782	13672.86
715.125	13651.62
715.469	13629.7
715.812	13619.75
716.156	13593.99
716.499	13531.17
716.843	13544.5
717.186	13454.79
717.53	13497.95
717.873	13502.24
718.216	13395.35
718.559	13393.32
718.902	13359.65
719.246	13332.3
719.589	13325.53
719.932	13304.28
720.275	13287.11
720.617	13230.61
720.96	13228.8
721.303	13266.77
721.646	13187.45
721.989	13104.51
722.331	13299.31
722.674	13135.47
723.016	13145.42
723.359	13177.05
723.701	13111.07
724.044	13080.11
724.386	12986.33
724.729	13043.05
725.071	13041.46
725.413	13000.34
725.755	12994.91
726.097	12993.56
726.439	12978.64
726.782	12904.07
727.124	13010.96
727.465	12957.85
727.807	12942.26
728.149	12959.43
728.491	12929.6
728.833	12970.73
729.175	12894.58
729.516	12917.4
729.858	12869.94
730.199	12827.46
730.541	12773
730.882	12811.87
731.224	12866.33
731.565	12821.36
731.906	12790.85
732.248	12742.72
732.589	12818.65
732.93	12695.03
733.271	12733.68
733.612	12654.81
733.953	12742.04
734.294	12733.9
734.635	12724.64
734.976	12747.46
735.317	12670.4
735.658	12720.34
735.999	12760.34
736.339	12775.03
736.68	12670.85
737.021	12692.77
737.361	12766.9
737.702	12773.9
738.042	12763.96
738.383	12695.26
738.723	12801.7
739.063	12664.3
739.404	12833.11
739.744	12824.97
740.084	12720.8
740.424	12799.89
740.764	12718.54
741.104	12884.63
741.444	12807.57
741.784	12820
742.124	12795.6
742.464	12812.09
742.804	12861.13
743.143	12720.12
743.483	12879.21
743.823	12810.51
744.162	12928.93
744.502	12967.79
744.841	12921.92
745.181	13091.41
745.52	13039.21
745.86	13037.85
746.199	13072.65
746.538	13135.47
746.877	13238.3
747.216	13214.57
747.556	13217.05
747.895	13347.45
748.234	13293.66
748.573	13375.92
748.911	13363.94
749.25	13499.31
749.589	13462.47
749.928	13527.1
750.267	13618.85
750.605	13679.87
750.944	13789.92
751.283	13772.07
751.621	13937.49
751.96	13924.38
752.298	13985.17
752.636	14078.27
752.975	14161.66
753.313	14204.37
753.651	14397.81
753.989	14420.64
754.327	14500.86
754.666	14509.22
755.004	14831.25
755.342	14804.58
755.679	14877.57
756.017	15023.33
756.355	15154.4
756.693	15174.06
757.031	15401.63
757.368	15417.22
757.706	15495.19
758.044	15678.46
758.381	15715.29
758.719	15856.53
759.056	15980.37
759.394	16085.45
759.731	16089.97
760.068	16282.96
760.405	16337.42
760.743	16397.53
761.08	16576.06
761.417	16685.89
761.754	16668.71
762.091	16845.21
762.428	16977.18
762.765	16924.07
763.102	17108.48
763.438	17174.92
763.775	17193.45
764.112	17297.4
764.449	17503.04
764.785	17519.99
765.122	17537.17
765.458	17636.6
765.795	17721.12
766.131	17808.35
766.467	17834.79
766.804	17882.24
767.14	17906.42
767.476	18041.11
767.812	18072.75
768.148	18193.87
768.485	18211.05
768.821	18209.46
769.157	18293.98
769.492	18301.89
769.828	18399.97
770.164	18292.17
770.5	18396.35
770.836	18458.27
771.171	18375.79
771.507	18406.97
771.842	18387.54
772.178	18370.59
772.513	18492.62
772.849	18550.02
773.184	18480.64
773.519	18533.52
773.855	18488.1
774.19	18463.24
774.525	18537.14
774.86	18584.37
775.195	18564.03
775.53	18513.64
775.865	18492.85
776.2	18324.94
776.535	18354.32
776.87	18345.51
777.205	18404.04
777.539	18344.15
777.874	18460.76
778.209	18362.23
778.543	18295.34
778.878	18187.54
779.212	18324.49
779.547	18243.59
779.881	18348.44
780.215	18188.45
780.55	18326.3
780.884	18219.63
781.218	18063.93
781.552	18129.24
781.886	18077.94
782.22	17974.44
782.554	18010.15
782.888	17879.98
783.222	17883.82
783.556	17797.27
783.889	17790.72
784.223	17629.59
784.557	17648.58
784.89	17750.95
785.224	17663.04
785.557	17586.43
785.891	17534.23
786.224	17452.65
786.558	17526.77
786.891	17371.29
787.224	17301.01
787.557	17371.97
787.891	17270.28
788.224	17326.78
788.557	17245.65
788.89	17236.83
789.223	17180.11
789.556	17083.62
789.888	17039.55
790.221	16973.34
790.554	16934.7
790.887	16944.41
791.219	16889.5
791.552	16774.7
791.884	16692.67
792.217	16797.52
792.549	16640.24
792.882	16536.97
793.214	16437.99
793.546	16538.77
793.879	16414.71
794.211	16344.88
794.543	16348.04
794.875	16414.48
795.207	16384.65
795.539	16307.14
795.871	16286.58
796.203	16013.36
796.535	16118.9
796.867	16164.09
797.198	16093.14
797.53	15959.81
797.862	15818.34
798.193	15932.69
798.525	15835.06
798.856	15860.6
799.188	15715.52
799.519	15619.02
799.85	15553.49
800.182	15605.47
800.513	15527.28
800.844	15410.22
801.175	15481.17
801.506	15515.75
801.837	15372.03
802.168	15360.95
802.499	15388.75
802.83	15243.89
803.161	15220.62
803.491	15233.05
803.822	15202.31
804.153	15125.25
804.483	15090.68
804.814	15032.15
805.145	15021.3
805.475	14893.85
805.805	14886.61
806.136	14908.53
806.466	14882.77
806.796	14866.73
807.126	14744.47
807.457	14687.07
807.787	14753.74
808.117	14609.11
808.447	14610.46
808.777	14592.16
809.107	14604.81
809.436	14526.4
809.766	14536.34
810.096	14414.08
810.426	14416.34
810.755	14433.97
811.085	14318.95
811.414	14289.57
811.744	14243.47
812.073	14271.26
812.403	14142.68
812.732	14162.34
813.061	14070.36
813.39	13991.5
813.719	13951.27
814.049	14064.49
814.378	14054.09
814.707	13922.57
815.036	13917.15
815.365	13858.17
815.693	13752.41
816.022	13868.56
816.351	13690.94
816.68	13712.41
817.008	13717.15
817.337	13637.38
817.665	13635.8
817.994	13602.81
818.322	13518.74
818.651	13532.3
818.979	13387.67
819.307	13597.38
819.636	13495.46
819.964	13431.96
820.292	13457.27
820.62	13489.81
820.948	13393.32
821.276	13488.68
821.604	13427.44
821.932	13341.57
822.259	13479.65
822.587	13445.97
822.915	13344.28
823.243	13437.39
823.57	13360.33
823.898	13427.44
824.225	13328.24
824.553	13357.84
824.88	13367.78
825.207	13377.5
825.535	13238.52
825.862	13339.08
826.189	13278.07
826.516	13344.51
826.843	13361.46
827.17	13345.86
827.497	13432.19
827.824	13316.26
828.151	13383.6
828.478	13316.26
828.805	13372.08
829.131	13342.93
829.458	13316.03
829.785	13296.6
830.111	13255.92
830.438	13338.86
830.764	13345.64
831.09	13350.38
831.417	13275.13
831.743	13291.85
832.069	13301.57
832.395	13176.83
832.722	13280.78
833.048	13238.52
833.374	13231.97
833.7	13130.95
834.026	13191.97
834.351	13184.06
834.677	13292.53
835.003	13183.61
835.329	13173.44
835.654	13220.44
835.98	13149.03
836.306	13157.85
836.631	12996.27
836.956	13118.98
837.282	13113.78
837.607	13022.03
837.932	12936.16
838.258	12988.36
838.583	12986.1
838.908	12963.05
839.233	12926.44
839.558	12929.38
839.883	12904.52
840.208	12766.22
840.533	12829.27
840.858	12861.58
841.182	12786.78
841.507	12843.28
841.832	12741.36
842.156	12729.61
842.481	12715.6
842.805	12610.29
843.13	12646.9
843.454	12594.47
843.778	12567.58
844.103	12594.02
844.427	12513.57
844.751	12507.02
845.075	12491.87
845.399	12449.39
845.723	12386.57
846.047	12423.63
846.371	12306.8
846.695	12256.4
847.019	12221.6
847.343	12104.54
847.666	12095.95
847.99	12059.57
848.313	12042.17
848.637	12007.14
848.96	11950.65
849.284	11863.19
849.607	11805.79
849.931	11801.95
850.254	11714.72
850.577	11649.19
850.9	11598.79
851.223	11582.75
851.546	11456.2
851.869	11438.57
852.192	11533.93
852.515	11368.97
852.838	11349.76
853.161	11372.13
853.483	11287.39
853.806	11224.79
854.129	11232.47
854.451	11138.69
854.774	11102.76
855.096	11124.68
855.419	11066.15
855.741	11085.36
856.063	11034.51
856.385	10941.41
856.708	10937.11
857.03	10877.23
857.352	10940.73
857.674	10888.75
857.996	10818.7
858.318	10764.69
858.64	10756.55
858.961	10694.41
859.283	10653.05
859.605	10693.28
859.926	10626.16
860.248	10566.28
860.57	10595.43
860.891	10602.66
861.212	10516.11
861.534	10521.53
861.855	10421.65
862.176	10479.72
862.498	10475.66
862.819	10407.86
863.14	10323.34
863.461	10357.92
863.782	10367.86
864.103	10295.55
864.424	10263.68
864.745	10279.28
865.065	10205.83
865.386	10181.88
865.707	10190.47
866.027	10272.05
866.348	10207.42
866.668	10191.14
866.989	10130.13
867.309	10038.38
867.63	10081.54
867.95	10079.96
868.27	10033.41
868.59	10089.68
868.91	10088.77
869.23	9992.51
869.55	9948.66
869.87	10056.23
870.19	9993.64
870.51	9962.22
870.83	9940.08
871.15	9869.12
871.469	9914.32
871.789	9871.6
872.109	9833.41
872.428	9862.57
872.748	9900.76
873.067	9865.05
873.386	9865.5
873.706	9819.4
874.025	9777.6
874.344	9762.68
874.663	9728.11
874.982	9802.91
875.301	9729.69
875.62	9640.65
875.939	9639.52
876.258	9725.85
876.577	9634.32
876.896	9575.12
877.214	9569.47
877.533	9604.95
877.852	9582.8
878.17	9611.5
878.489	9552.52
878.807	9607.88
879.125	9512.29
879.444	9498.06
879.762	9482.69
880.08	9482.01
880.398	9437.94
880.716	9505.96
881.034	9429.36
881.352	9414.44
881.67	9358.62
881.988	9422.35
882.306	9340.09
882.624	9343.48
882.941	9294.22
883.259	9262.13
883.577	9289.93
883.894	9180.32
884.212	9254.67
884.529	9182.81
884.846	9163.37
885.164	9154.34
885.481	9110.04
885.798	9085.41
886.115	9031.63
886.432	9113.43
886.75	9052.64
887.067	9035.02
887.383	8999.76
887.7	9061.46
888.017	8887.9
888.334	8962.25
888.651	8908.92
888.967	8857.17
889.284	8833.67
889.6	8796.15
889.917	8787.11
890.233	8821.01
890.55	8781.24
890.866	8733.1
891.182	8689.49
891.498	8604.29
891.815	8619.43
892.131	8606.55
892.447	8626.44
892.763	8594.58
893.079	8510.51
893.395	8545.31
893.71	8431.87
894.026	8513.22
894.342	8496.5
894.657	8388.93
894.973	8411.98
895.289	8364.75
895.604	8351.87
895.92	8344.87
896.235	8315.26
896.55	8226.22
896.865	8247.69
897.181	8220.57
897.496	8224.19
897.811	8258.77
898.126	8169.05
898.441	8118.66
898.756	8046.79
899.071	8059
899.386	7997.3
899.7	7982.84
900.015	7965.44
900.33	7913.46
900.644	7883.86
900.959	7862.62
901.273	7835.5
901.588	7763.64
901.902	7802.96
902.216	7816.29
902.531	7786.69
902.845	7725.45
903.159	7626.92
903.473	7638.44
903.787	7597.31
904.101	7564.09
904.415	7560.03
904.729	7533.36
905.042	7447.71
905.356	7448.39
905.67	7459.01
905.984	7396.42
906.297	7451.56
906.611	7409.07
906.924	7353.25
907.237	7332.24
907.551	7268.28
907.864	7263.09
908.177	7235.97
908.491	7246.14
908.804	7197.78
909.117	7074.62
909.43	7070.77
909.743	7086.37
910.056	7122.75
910.368	7059.48
910.681	6996.43
910.994	7008.86
911.307	6998.23
911.619	6857.67
911.932	6911.46
912.244	6809.54
912.557	6825.13
912.869	6803.44
913.181	6744
913.494	6745.13
913.806	6730.67
914.118	6681.18
914.43	6695.87
914.742	6656.1
915.054	6606.15
915.366	6591.24
915.678	6553.95
915.99	6532.03
916.302	6487.74
916.613	6454.52
916.925	6491.13
917.236	6455.65
917.548	6377.46
917.859	6384.69
918.171	6324.81
918.482	6287.07
918.794	6298.59
919.105	6321.19
919.416	6214.75
919.727	6234.64
920.038	6238.71
920.349	6192.61
920.66	6144.25
920.971	6092.72
921.282	6057.92
921.593	6050.69
921.903	6047.98
922.214	6021.99
922.525	5998.26
922.835	5950.35
923.146	5915.1
923.456	5926.85
923.767	5906.29
924.077	5944.02
924.387	5842.56
924.697	5831.26
925.008	5807.76
925.318	5785.84
925.628	5794.2
925.938	5746.06
926.248	5618.16
926.558	5669.46
926.867	5672.62
927.177	5610.02
927.487	5601.89
927.796	5535.45
928.106	5565.28
928.416	5543.58
928.725	5527.76
929.034	5508.56
929.344	5518.72
929.653	5442.34
929.962	5427.2
930.271	5381.78
930.581	5361.67
930.89	5376.81
931.199	5331.39
931.508	5328.45
931.817	5299.3
932.125	5274.89
932.434	5254.78
932.743	5185.85
933.051	5190.6
933.36	5191.5
933.669	5151.5
933.977	5088.45
934.286	5124.39
934.594	5057.49
934.902	5032.86
935.21	4996.7
935.519	5070.38
935.827	4998.29
936.135	4977.72
936.443	4916.71
936.751	4970.49
937.059	4950.6
937.367	4858.63
937.674	4899.76
937.982	4826.99
938.29	4847.78
938.597	4822.02
938.905	4780.21
939.213	4745.41
939.52	4766.2
939.827	4747.9
940.135	4699.76
940.442	4680.33
940.749	4702.02
941.056	4652.98
941.363	4676.26
941.67	4587.68
941.977	4565.76
942.284	4558.07
942.591	4535.02
942.898	4547.45
943.205	4528.92
943.511	4496.6
943.818	4537.51
944.125	4460.45
944.431	4435.59
944.738	4423.39
945.044	4401.92
945.35	4408.7
945.657	4417.06
945.963	4301.81
946.269	4358.3
946.575	4335.25
946.881	4264.52
947.187	4262.71
947.493	4277.85
947.799	4255.71
948.105	4218.42
948.41	4181.36
948.716	4201.25
949.022	4174.35
949.327	4125.09
949.633	4102.04
949.938	4138.2
950.244	4047.13
950.549	4082.83
950.854	4026.56
951.16	4031.31
951.465	4044.19
951.77	4023.4
952.075	4003.51
952.38	3996.05
952.685	3986.79
952.99	3942.5
953.294	3945.43
953.599	3902.72
953.904	3852.1
954.209	3865.89
954.513	3870.63
954.818	3861.82
955.122	3794.7
955.426	3878.77
955.731	3814.59
956.035	3777.98
956.339	3765.32
956.643	3732.11
956.948	3716.06
957.252	3758.09
957.556	3753.35
957.86	3673.35
958.163	3659.11
958.467	3665.67
958.771	3669.06
959.075	3615.72
959.378	3556.29
959.682	3612.33
959.985	3586.57
960.289	3551.32
960.592	3539.12
960.896	3546.35
961.199	3537.31
961.502	3530.3
961.805	3473.81
962.108	3477.2
962.411	3443.53
962.714	3459.12
963.017	3419.8
963.32	3400.59
963.623	3394.04
963.926	3414.83
964.228	3362.85
964.531	3352.23
964.833	3311.78
965.136	3329.86
965.438	3280.82
965.741	3293.7
966.043	3295.05
966.345	3241.95
966.648	3221.61
966.95	3219.58
967.252	3194.27
967.554	3220.03
967.856	3212.34
968.158	3159.69
968.46	3166.02
968.761	3181.61
969.063	3124.21
969.365	3111.33
969.666	3091.22
969.968	3055.06
970.269	3093.93
970.571	3043.31
970.872	3073.37
971.174	3033.14
971.475	3000.37
971.776	3032.91
972.077	2990.88
972.378	2987.72
972.679	3008.06
972.98	2968.28
973.281	2930.54
973.582	2947.04
973.883	2911.11
974.183	2938.68
974.484	2902.3
974.785	2884.44
975.085	2914.73
975.386	2895.97
975.686	2860.94
975.986	2862.07
976.287	2879.7
976.587	2811.9
976.887	2823.88
977.187	2766.71
977.487	2771.45
977.787	2791.79
978.087	2771.23
978.387	2740.27
978.687	2773.71
978.987	2740.49
979.286	2708.4
979.586	2686.26
979.885	2675.18
980.185	2646.03
980.484	2670.21
980.784	2674.51
981.083	2638.35
981.382	2622.53
981.682	2608.07
981.981	2614.39
982.28	2568.29
982.579	2597.45
982.878	2587.73
983.177	2568.07
983.475	2539.14
983.774	2554.28
984.073	2507.96
984.372	2513.61
984.67	2531.68
984.969	2498.24
985.267	2505.92
985.566	2497.34
985.864	2456.43
986.162	2440.61
986.461	2425.25
986.759	2430.9
987.057	2408.98
987.355	2384.12
987.653	2429.99
987.951	2369.66
988.249	2345.93
988.547	2368.53
988.844	2334.18
989.142	2318.13
989.44	2313.84
989.737	2312.71
990.035	2331.01
990.332	2274.52
990.63	2301.18
990.927	2269.77
991.224	2258.25
991.521	2258.47
991.819	2229.77
992.116	2224.8
992.413	2201.98
992.71	2224.57
993.006	2181.64
993.303	2175.76
993.6	2192.26
993.897	2190.45
994.193	2184.58
994.49	2180.96
994.787	2177.12
995.083	2150.23
995.379	2136.44
995.676	2111.13
995.972	2135.31
996.268	2103.9
996.565	2090.79
996.861	2057.12
997.157	2082.21
997.453	2074.07
997.749	2044.92
998.044	2013.51
998.34	2033.84
998.636	2025.94
998.932	2006.05
999.227	1989.1
999.523	1989.1
999.818	1977.58
1000.114	1985.48
1000.409	1961.98
1000.704	1950.68
1001	1928.76
1001.295	1934.41
1001.59	1906.16
1001.885	1927.63
1002.18	1879.5
1002.475	1875.43
1002.77	1898.48
1003.065	1877.24
1003.359	1856.9
1003.654	1821.65
1003.949	1845.6
1004.243	1835.21
1004.538	1832.49
1004.832	1806.73
1005.127	1789.11
1005.421	1788.43
1005.715	1765.15
1006.009	1761.76
1006.304	1742.55
1006.598	1762.44
1006.892	1743.46
1007.186	1745.49
1007.48	1722.44
1007.773	1703.68
1008.067	1704.81
1008.361	1680.41
1008.655	1707.53
1008.948	1673.85
1009.242	1703.01
1009.535	1679.73
1009.829	1682.44
1010.122	1619.17
1010.415	1621.88
1010.708	1605.16
1011.001	1611.03
1011.295	1588.43
1011.588	1619.17
1011.881	1613.06
1012.173	1534.65
1012.466	1579.17
1012.759	1580.07
1013.052	1560.86
1013.344	1534.87
1013.637	1514.08
1013.93	1529.45
1014.222	1521.54
1014.514	1521.99
1014.807	1478.15
1015.099	1516.8
1015.391	1496.46
1015.683	1481.77
1015.976	1481.09
1016.268	1447.42
1016.56	1466.18
1016.851	1443.8
1017.143	1417.59
1017.435	1428.89
1017.727	1409.45
1018.018	1409.91
1018.31	1402.9
1018.602	1400.42
1018.893	1391.15
1019.185	1382.79
1019.476	1371.49
1019.767	1338.5
1020.058	1350.7
1020.35	1326.07
1020.641	1314.77
1020.932	1321.1
1021.223	1286.75
1021.514	1300.3
1021.804	1281.32
1022.095	1289.23
1022.386	1284.26
1022.677	1281.32
1022.967	1254.2
1023.258	1246.52
1023.548	1258.05
1023.839	1235.22
1024.129	1235.45
1024.419	1202.45
1024.709	1205.39
1025	1204.71
1025.29	1212.17
1025.58	1204.94
1025.87	1169.46
1026.16	1186.41
1026.449	1164.49
1026.739	1186.86
1027.029	1161.1
1027.319	1150.7
1027.608	1153.64
1027.898	1130.14
1028.187	1134.66
1028.477	1129.46
1028.766	1102.8
1029.055	1107.99
1029.344	1097.82
1029.634	1094.21
1029.923	1107.77
1030.212	1092.17
1030.501	1074.32
1030.79	1058.28
1031.078	1060.99
1031.367	1061.89
1031.656	1047.66
1031.945	1018.96
1032.233	1049.69
1032.522	1006.3
1032.81	1025.06
1033.099	997.04
1033.387	1013.98
1033.675	1012.85
1033.963	1005.62
1034.251	999.3
1034.54	955
1034.828	964.04
1035.116	992.06
1035.403	990.03
1035.691	953.42
1035.979	956.59
1036.267	937.38
1036.554	938.28
1036.842	963.36
1037.129	950.48
1037.417	946.64
1037.704	931.5
1037.992	938.73
1038.279	901.9
1038.566	896.93
1038.853	896.93
1039.14	896.93
