Data from hue_100_FLMS001491_00060.txt Node
Date: Tue Feb 07 17:03:23 GMT 2017
User: dcchb
Spectrometer: FLMS00149
Trigger mode: 0
Integration Time (sec): 2.000000E-2
Scans to average: 10
Electric dark correction enabled: true
Nonlinearity correction enabled: false
Boxcar width: 0
XAxis mode: Wavelengths
Number of Pixels in Spectrum: 2048
>>>>>Begin Spectral Data<<<<<
341.393	1.77
341.776	1.77
342.16	1.77
342.543	-73.26
342.927	-72.13
343.31	-69.19
343.693	-62.87
344.077	-67.39
344.46	-51.11
344.843	-64.9
345.226	-49.53
345.61	-53.83
345.993	-6.82
346.376	-21.06
346.759	-19.93
347.142	45.15
347.525	55.78
347.908	54.87
348.291	92.61
348.674	96.23
349.057	121.99
349.44	136.23
349.823	135.77
350.206	170.35
350.588	185.72
350.971	197.01
351.354	218.03
351.737	248.54
352.119	256.67
352.502	266.84
352.884	294.64
353.267	286.28
353.65	286.73
354.032	277.92
354.414	307.97
354.797	301.42
355.179	304.13
355.562	330.34
355.944	314.98
356.326	345.03
356.709	331.7
357.091	334.19
357.473	321.53
357.855	339.16
358.238	347.29
358.62	339.38
359.002	355.88
359.384	347.75
359.766	316.11
360.148	339.38
360.53	343
360.912	333.96
361.294	331.7
361.676	335.99
362.057	332.15
362.439	328.99
362.821	329.44
363.203	309.78
363.584	331.25
363.966	315.66
364.348	309.55
364.729	330.57
365.111	320.85
365.493	338.71
365.874	326.28
366.256	313.85
366.637	320.85
367.019	315.66
367.4	295.54
367.781	319.05
368.163	314.3
368.544	340.06
368.925	314.3
369.306	322.89
369.688	338.48
370.069	303.9
370.45	322.21
370.831	292.38
371.212	323.34
371.593	303
371.974	315.43
372.355	319.72
372.736	319.27
373.117	316.11
373.498	318.82
373.879	310.68
374.26	333.28
374.641	312.49
375.021	326.5
375.402	331.02
375.783	346.84
376.163	328.99
376.544	318.14
376.925	332.83
377.305	340.97
377.686	336.22
378.066	313.4
378.447	336.67
378.827	337.8
379.208	323.11
379.588	319.5
379.968	338.25
380.349	344.36
380.729	321.31
381.109	330.8
381.489	348.65
381.87	337.58
382.25	352.49
382.63	347.97
383.01	358.37
383.39	351.13
383.77	357.46
384.15	360.63
384.53	364.02
384.91	349.55
385.29	354.3
385.67	341.87
386.049	333.51
386.429	361.08
386.809	361.76
387.189	358.14
387.568	377.12
387.948	343.9
388.328	376.9
388.707	355.65
389.087	365.6
389.466	375.31
389.846	365.82
390.225	354.75
390.605	366.5
390.984	365.37
391.363	367.86
391.743	371.47
392.122	381.87
392.501	382.32
392.881	376.67
393.26	392.04
393.639	377.8
394.018	375.99
394.397	387.07
394.776	368.76
395.155	387.74
395.534	396.11
395.913	385.71
396.292	392.94
396.671	397.91
397.05	389.33
397.429	398.14
397.808	397.91
398.186	392.04
398.565	410.34
398.944	405.6
399.323	416.67
399.701	399.95
400.08	411.25
400.458	415.54
400.837	413.96
401.215	415.54
401.594	416.44
401.972	398.14
402.351	415.99
402.729	407.63
403.107	423.45
403.486	401.75
403.864	416.22
404.242	403.79
404.62	431.36
404.999	431.58
405.377	433.39
405.755	456.22
406.133	430.23
406.511	410.79
406.889	449.66
407.267	446.05
407.645	438.59
408.023	458.25
408.401	449.89
408.779	458.93
409.156	442.43
409.534	470.23
409.912	456.44
410.29	480.4
410.667	458.7
411.045	476.56
411.422	465.93
411.8	468.42
412.178	487.18
412.555	488.76
412.933	486.5
413.31	485.82
413.687	498.25
414.065	503.9
414.442	479.04
414.819	510.68
415.197	499.61
415.574	507.51
415.951	509.55
416.328	531.92
416.705	521.3
417.082	523.79
417.46	520.17
417.837	517.01
418.214	527.18
418.591	519.72
418.967	512.26
419.344	525.82
419.721	545.03
420.098	511.81
420.475	563.78
420.852	576.44
421.228	557.68
421.605	554.07
421.982	553.62
422.358	559.26
422.735	581.64
423.111	559.26
423.488	588.19
423.864	582.99
424.241	592.71
424.617	591.81
424.994	574.63
425.37	605.82
425.746	572.15
426.123	592.71
426.499	576.44
426.875	621.41
427.251	611.24
427.627	620.96
428.003	625.03
428.379	622.77
428.756	647.62
429.132	641.52
429.507	642.43
429.883	638.36
430.259	665.93
430.635	661.41
431.011	661.64
431.387	653.27
431.763	682.43
432.138	694.63
432.514	707.74
432.89	707.28
433.265	694.85
433.641	714.06
434.016	702.54
434.392	719.49
434.767	736.66
435.143	701.86
435.518	730.33
435.894	727.4
436.269	741.18
436.644	747.28
437.02	763.78
437.395	767.62
437.77	772.59
438.145	780.73
438.52	758.36
438.895	797.22
439.271	775.3
439.646	790.45
440.021	795.19
440.395	814.4
440.77	806.49
441.145	791.35
441.52	826.38
441.895	829.31
442.27	843.55
442.645	855.75
443.019	871.35
443.394	859.37
443.769	853.72
444.143	885.58
444.518	854.62
444.892	887.39
445.267	878.8
445.641	909.54
446.016	895.3
446.39	895.08
446.764	890.56
447.139	904.11
447.513	912.48
447.887	902.08
448.262	886.04
448.636	936.66
449.01	926.26
449.384	947.05
449.758	939.37
450.132	965.13
450.506	952.02
450.88	981.17
451.254	949.09
451.628	978.91
452.002	1004.45
452.376	1014.39
452.75	1004.45
453.123	1004.9
453.497	1035.41
453.871	1041.51
454.244	1068.63
454.618	1040.83
454.992	1086.48
455.365	1089.87
455.739	1103.43
456.112	1119.25
456.486	1112.24
456.859	1142.75
457.232	1144.56
457.606	1142.98
457.979	1160.15
458.352	1156.99
458.725	1187.27
459.099	1214.16
459.472	1242.64
459.845	1230.43
460.218	1229.53
460.591	1274.73
460.964	1270.66
461.337	1283.09
461.71	1318.12
462.083	1338.23
462.456	1344.56
462.829	1362.18
463.201	1340.71
463.574	1379.36
463.947	1381.39
464.32	1432.46
464.692	1417.1
465.065	1447.15
465.438	1450.77
465.81	1487.38
466.183	1490.31
466.555	1542.29
466.928	1546.58
467.3	1571.67
467.672	1611.89
468.045	1622.74
468.417	1621.61
468.789	1645.11
469.161	1667.71
469.534	1716.75
469.906	1777.54
470.278	1794.03
470.65	1792.45
471.022	1833.36
471.394	1899.79
471.766	1900.47
472.138	1932.34
472.51	1995.84
472.882	1995.16
473.253	2050.3
473.625	2071.09
473.997	2161.93
474.369	2179.11
474.74	2217.53
475.112	2276.96
475.484	2311.31
475.855	2386.79
476.227	2387.92
476.598	2490.51
476.97	2509.95
477.341	2624.3
477.713	2670.4
478.084	2681.47
478.455	2830.84
478.827	2868.81
479.198	2943.38
479.569	3006.43
479.94	3156.94
480.311	3194.9
480.682	3270.61
481.053	3380.89
481.424	3400.55
481.795	3494.33
482.166	3606.64
482.537	3688.45
482.908	3815.9
483.279	3916.01
483.65	4059.29
484.021	4100.87
484.391	4243.24
484.762	4271.71
485.133	4387.41
485.503	4541.76
485.874	4648.42
486.244	4785.14
486.615	4932.71
486.985	5024.46
487.356	5157.56
487.726	5227.62
488.097	5401.17
488.467	5529.08
488.837	5661.5
489.207	5793.03
489.578	5924.77
489.948	6077.09
490.318	6168.16
490.688	6306.23
491.058	6447.47
491.428	6611.99
491.798	6758.42
492.168	6955.93
492.538	7013.56
492.908	7185.31
493.278	7221.91
493.648	7382.59
494.017	7518.63
494.387	7683.37
494.757	7843.37
495.126	8005.62
495.496	8097.82
495.866	8205.17
496.235	8340.76
496.605	8485.16
496.974	8634.31
497.344	8697.13
497.713	8780.97
498.082	8902.55
498.452	9068.65
498.821	9148.19
499.19	9229.32
499.559	9413.5
499.928	9495.53
500.298	9619.59
500.667	9679.03
501.036	9815.52
501.405	9922.63
501.774	9963.76
502.143	10080.82
502.512	10174.61
502.88	10273.36
503.249	10281.95
503.618	10457.99
503.987	10586.12
504.356	10620.92
504.724	10663.63
505.093	10769.17
505.462	10901.14
505.83	10939.56
506.199	11065.66
506.567	11226.78
506.936	11157.4
507.304	11403.05
507.672	11460.9
508.041	11541.58
508.409	11591.74
508.777	11664.51
509.145	11737.95
509.514	11736.82
509.882	11869.48
510.25	11892.98
510.618	11990.38
510.986	11981.11
511.354	12132.52
511.722	12263.14
512.09	12297.94
512.458	12260.88
512.826	12358.05
513.193	12392.4
513.561	12373.87
513.929	12509.23
514.297	12700.64
514.664	12700.41
515.032	12687.99
515.4	12816.57
515.767	12796.91
516.135	12880.97
516.502	12773.18
516.869	12961.2
517.237	13024.93
517.604	13023.8
517.972	13042.1
518.339	13088.88
518.706	13149.89
519.073	13111.03
519.44	13259.72
519.808	13378.36
520.175	13293.17
520.542	13432.37
520.909	13516.44
521.276	13407.06
521.643	13537.23
522.009	13525.7
522.376	13617.23
522.743	13584.01
523.11	13650.45
523.477	13804.11
523.843	13856.54
524.21	13889.31
524.577	13928.63
524.943	14008.4
525.31	14047.27
525.676	14101.06
526.043	14092.24
526.409	14162.98
526.776	14211.11
527.142	14191.9
527.508	14259.92
527.874	14234.39
528.241	14226.93
528.607	14247.72
528.973	14302.18
529.339	14268.51
529.705	14377.43
530.071	14444.55
530.437	14382.4
530.803	14399.35
531.169	14414.49
531.535	14269.19
531.901	14389.18
532.267	14369.98
532.632	14385.79
532.998	14451.56
533.364	14368.17
533.73	14427.83
534.095	14479.8
534.461	14373.37
534.826	14480.71
535.192	14393.48
535.557	14488.39
535.923	14327.94
536.288	14410.2
536.653	14461.5
537.019	14310.09
537.384	14394.16
537.749	14356.19
538.114	14328.17
538.479	14179.92
538.845	14264.67
539.21	14206.36
539.575	14148.06
539.94	14197.78
540.305	14184.67
540.67	14140.15
541.034	14111.68
541.399	14135.18
541.764	14074.16
542.129	14036.42
542.494	14013.83
542.858	14092.69
543.223	14006.37
543.587	14062.64
543.952	13911
544.316	13943.55
544.681	13882.3
545.045	13928.4
545.41	13874.17
545.774	13901.06
546.138	13815.64
546.503	13838.24
546.867	13788.75
547.231	13831.23
547.595	13725.02
547.959	13719.82
548.324	13635.31
548.688	13582.2
549.052	13598.02
549.416	13522.99
549.779	13579.26
550.143	13516.66
550.507	13572.71
550.871	13582.43
551.235	13504.46
551.599	13555.76
551.962	13440.51
552.326	13406.16
552.689	13528.64
553.053	13308.76
553.417	13357.12
553.78	13433.95
554.143	13279.83
554.507	13353.05
554.87	13386.95
555.234	13371.13
555.597	13351.7
555.96	13292.04
556.323	13344.92
556.686	13302.21
557.05	13311.47
557.413	13272.15
557.776	13264.47
558.139	13295.43
558.502	13267.86
558.865	13255.65
559.228	13374.97
559.59	13270.8
559.953	13231.25
560.316	13350.34
560.679	13408.87
561.041	13333.62
561.404	13322.77
561.767	13391.02
562.129	13349.21
562.492	13426.05
562.854	13398.93
563.217	13311.7
563.579	13366.84
563.941	13418.36
564.304	13456.78
564.666	13486.83
565.028	13440.96
565.39	13454.52
565.753	13466.04
566.115	13463.78
566.477	13525.7
566.839	13578.13
567.201	13577
567.563	13516.21
567.925	13621.75
568.287	13568.64
568.648	13629.66
569.01	13729.54
569.372	13690.45
569.734	13631.01
570.095	13637.79
570.457	13654.06
570.819	13754.4
571.18	13736.09
571.542	13692.7
571.903	13735.19
572.265	13733.38
572.626	13870.55
572.987	13797.11
573.349	13779.03
573.71	13910.55
574.071	13836.66
574.432	13898.58
574.794	14014.96
575.155	13871.46
575.516	13869.88
575.877	13879.14
576.238	13844.34
576.599	13986.93
576.96	13960.04
577.32	13938.35
577.681	13958.91
578.042	13920.95
578.403	14009.31
578.763	13917.33
579.124	14066.71
579.485	14011.57
579.845	14058.57
580.206	13963.43
580.566	13922.53
580.927	13921.4
581.287	14010.89
581.648	13885.02
582.008	13975.41
582.368	14018.8
582.728	13933.15
583.089	13999.14
583.449	13999.82
583.809	13890.44
584.169	13983.77
584.529	13911.91
584.889	13975.64
585.249	13895.19
585.609	13840.05
585.969	13963.66
586.329	13921.4
586.688	13887.95
587.048	13915.3
587.408	13848.18
587.768	13860.16
588.127	13844.79
588.487	13864.45
588.846	13879.14
589.206	13841.4
589.565	13793.04
589.925	13786.04
590.284	13753.04
590.643	13804.57
591.003	13805.47
591.362	13844.11
591.721	13809.09
592.08	13742.87
592.44	13839.37
592.799	13826.71
593.158	13792.59
593.517	13779.48
593.876	13743.1
594.235	13737
594.593	13712.59
594.952	13701.74
595.311	13735.64
595.67	13746.26
596.029	13752.82
596.387	13804.79
596.746	13828.75
597.104	13754.4
597.463	13649.32
597.822	13704.46
598.18	13693.83
598.538	13651.35
598.897	13733.38
599.255	13692.03
599.613	13832.36
599.972	13740.39
600.33	13727.73
600.688	13651.58
601.046	13717.11
601.404	13795.98
601.762	13694.06
602.12	13694.06
602.478	13704
602.836	13736.77
603.194	13614.51
603.552	13672.59
603.91	13635.76
604.268	13655.64
604.625	13591.69
604.983	13694.74
605.341	13686.83
605.698	13814.28
606.056	13838.69
606.413	13632.37
606.771	13752.36
607.128	13784.91
607.485	13735.42
607.843	13687.51
608.2	13766.38
608.557	13801.63
608.914	13817.22
609.272	13796.66
609.629	13762.76
609.986	13920.95
610.343	13838.01
610.7	13832.14
611.057	13873.94
611.414	13924.79
611.771	13889.08
612.127	13979.25
612.484	13910.1
612.841	13992.58
613.198	13929.08
613.554	13936.99
613.911	13986.26
614.267	14018.35
614.624	13967.5
614.98	14003.21
615.337	14031.23
615.693	14109.19
616.05	14033.49
616.406	14092.92
616.762	14024.45
617.118	14039.36
617.475	13979.25
617.831	14095.18
618.187	14101.51
618.543	14105.12
618.899	14110.32
619.255	14054.73
619.611	14063.32
619.967	14195.29
620.323	14168.85
620.678	14133.37
621.034	14120.26
621.39	14132.69
621.746	14021.74
622.101	14195.52
622.457	14076.65
622.812	14219.02
623.168	14149.42
623.523	14078.01
623.879	14238.23
624.234	14146.25
624.589	14206.36
624.945	14222.86
625.3	14078.91
625.655	14150.77
626.01	14259.24
626.365	14137.66
626.72	14140.38
627.075	14080.27
627.43	14123.65
627.785	14018.12
628.14	14165.23
628.495	14070.1
628.85	14073.71
629.205	14120.26
629.559	14086.37
629.914	14045.92
630.269	14074.16
630.623	14034.16
630.978	14037.1
631.332	14048.4
631.687	14135.86
632.041	13975.18
632.396	14031.68
632.75	13974.28
633.104	14031.68
633.459	14013.15
633.813	13956.88
634.167	13907.39
634.521	13939.93
634.875	13945.35
635.229	13868.52
635.583	13831.23
635.937	13885.24
636.291	13747.17
636.645	13724.34
636.999	13753.95
637.352	13736.09
637.706	13746.26
638.06	13757.34
638.413	13757.11
638.767	13654.51
639.121	13738.35
639.474	13648.41
639.828	13713.95
640.181	13612.71
640.534	13705.13
640.888	13593.27
641.241	13546.72
641.594	13632.37
641.947	13650.22
642.301	13546.72
642.654	13552.37
643.007	13612.71
643.36	13625.14
643.713	13528.64
644.066	13577.68
644.419	13538.36
644.771	13459.72
645.124	13306.5
645.477	13364.35
645.83	13226.05
646.182	13148.76
646.535	13201.42
646.888	13163.45
647.24	13137.47
647.593	13138.37
647.945	13165.26
648.298	13076.9
648.65	13077.13
649.002	13055.43
649.355	13121.87
649.707	13026.51
650.059	13119.61
650.411	13341.98
650.763	13242.1
651.115	13513.05
651.467	13406.84
651.819	13351.24
652.171	13381.75
652.523	13378.81
652.875	13344.69
653.227	13306.27
653.578	13404.8
653.93	13350.12
654.282	13337.23
654.633	13305.6
654.985	13354.63
655.337	13375.65
655.688	13401.19
656.039	13434.18
656.391	13297.01
656.742	13328.42
657.094	13346.73
657.445	13445.03
657.796	13407.97
658.147	13312.6
658.498	13267.86
658.849	13338.14
659.2	13375.2
659.551	13279.38
659.902	13373.84
660.253	13377.68
660.604	13317.8
660.955	13357.35
661.306	13322.32
661.656	13352.37
662.007	13420.85
662.358	13385.14
662.708	13393.5
663.059	13358.7
663.409	13308.76
663.76	13399.38
664.11	13370.45
664.461	13376.78
664.811	13410
665.161	13383.79
665.511	13355.99
665.862	13433.05
666.212	13415.65
666.562	13388.76
666.912	13360.74
667.262	13351.24
667.612	13406.61
667.962	13416.78
668.312	13333.84
668.662	13411.36
669.011	13414.52
669.361	13368.87
669.711	13373.39
670.06	13338.82
670.41	13335.2
670.76	13292.94
671.109	13344.24
671.459	13323
671.808	13305.37
672.157	13343.56
672.507	13193.96
672.856	13235.54
673.205	13236.67
673.554	13334.3
673.904	13231.02
674.253	13339.04
674.602	13243.45
674.951	13058.82
675.3	12957.13
675.649	13252.04
675.998	13185.37
676.346	13248.65
676.695	13272.38
677.044	13178.59
677.393	13170.23
677.741	13160.52
678.09	13127.07
678.438	13120.06
678.787	13102.44
679.135	13131.82
679.484	13028.99
679.832	13131.14
680.181	12964.81
680.529	13002.78
680.877	12934.53
681.225	13021.76
681.573	13008.43
681.922	12954.87
682.27	12854.31
682.618	12878.72
682.966	12777.02
683.314	12899.05
683.661	12795.1
684.009	12700.19
684.357	12714.2
684.705	12647.31
685.053	12800.3
685.4	12664.26
685.748	12598.04
686.095	12633.3
686.443	12546.29
686.79	12477.14
687.138	12533.19
687.485	12562.11
687.832	12409.35
688.18	12504.04
688.527	12435.79
688.874	12478.27
689.221	12309.46
689.568	12330.93
689.915	12323.93
690.262	12319.18
690.609	12220.43
690.956	12222.46
691.303	12216.13
691.65	12157.38
691.997	12098.62
692.344	12037.61
692.69	11968.68
693.037	12040.09
693.383	11925.07
693.73	11916.25
694.077	11815.69
694.423	11885.07
694.769	11725.98
695.116	11782.7
695.462	11673.32
695.808	11661.35
696.155	11666.32
696.501	11661.35
696.847	11647.79
697.193	11504.74
697.539	11585.87
697.885	11507.23
698.231	11405.99
698.577	11334.57
698.923	11350.62
699.269	11328.25
699.614	11205.54
699.96	11209.15
700.306	11124.41
700.651	11108.14
700.997	11036.05
701.342	11026.56
701.688	11016.39
702.033	11002.83
702.379	10980.46
702.724	10909.5
703.069	10864.53
703.415	10763.97
703.76	10869.5
704.105	10802.61
704.45	10827.7
704.795	10679.22
705.14	10704.76
705.485	10657.3
705.83	10563.97
706.175	10563.3
706.52	10563.07
706.865	10523.97
707.209	10499.79
707.554	10467.93
707.899	10438.55
708.243	10452.34
708.588	10454.37
708.932	10350.19
709.277	10294.83
709.621	10261.61
709.966	10221.16
710.31	10222.29
710.654	10176.87
710.998	10159.69
711.342	10231.33
711.687	10137.09
712.031	10061.61
712.375	10071.56
712.719	10111.56
713.063	10030.43
713.407	10029.98
713.75	10005.57
714.094	9923.54
714.438	9938.45
714.782	9995.85
715.125	9893.71
715.469	9922.41
715.812	9886.25
716.156	9807.61
716.499	9859.36
716.843	9886.03
717.186	9796.54
717.53	9856.65
717.873	9784.33
718.216	9805.12
718.559	9761.06
718.902	9709.53
719.246	9654.39
719.589	9667.95
719.932	9705.24
720.275	9646.03
720.617	9583.43
720.96	9710.44
721.303	9578.24
721.646	9661.85
721.989	9562.42
722.331	9611.68
722.674	9620.95
723.016	9601.29
723.359	9555.64
723.701	9559.71
724.044	9490.56
724.386	9425.92
724.729	9512.25
725.071	9511.57
725.413	9490.78
725.755	9449.65
726.097	9453.95
726.439	9387.51
726.782	9383.44
727.124	9473.15
727.465	9392.48
727.807	9363.1
728.149	9392.71
728.491	9411.01
728.833	9388.64
729.175	9356.32
729.516	9399.26
729.858	9367.85
730.199	9299.37
730.541	9372.82
730.882	9370.56
731.224	9321.97
731.565	9372.37
731.906	9335.31
732.248	9328.07
732.589	9315.64
732.93	9328.3
733.271	9243.33
733.612	9340.95
733.953	9331.92
734.294	9332.82
734.635	9298.92
734.976	9347.06
735.317	9295.08
735.658	9316.77
735.999	9350.22
736.339	9387.51
736.68	9381.63
737.021	9301.86
737.361	9296.89
737.702	9345.25
738.042	9299.83
738.383	9305.02
738.723	9333.05
739.063	9348.86
739.404	9356.55
739.744	9344.57
740.084	9373.5
740.424	9344.57
740.764	9349.54
741.104	9424.79
741.444	9370.56
741.784	9357
742.124	9451.01
742.464	9411.01
742.804	9491.46
743.143	9447.17
743.483	9497.56
743.823	9465.7
744.162	9514.51
744.502	9500.27
744.841	9579.14
745.181	9613.04
745.52	9644.68
745.86	9662.53
746.199	9695.52
746.538	9748.18
746.877	9829.3
747.216	9907.27
747.556	9853.03
747.895	9971.45
748.234	9954.5
748.573	10006.7
748.911	10098
749.25	10076.3
749.589	10158.79
749.928	10297.31
750.267	10350.19
750.605	10333.92
750.944	10460.93
751.283	10457.08
751.621	10597.19
751.96	10631.54
752.298	10750.41
752.636	10858.88
752.975	10879.45
753.313	11005.09
753.651	11143.39
753.989	11257.97
754.327	11280.11
754.666	11443.95
755.004	11545.42
755.342	11690.27
755.679	11858.4
756.017	11860.44
756.355	12059.3
756.693	12135.46
757.031	12376.36
757.368	12381.1
757.706	12579.51
758.044	12682.79
758.381	12835.33
758.719	12930.47
759.056	13153.28
759.394	13257.69
759.731	13424.69
760.068	13552.6
760.405	13685.7
760.743	13871.01
761.08	13987.16
761.417	14150.77
761.754	14332.01
762.091	14493.14
762.428	14621.95
762.765	14808.38
763.102	14942.84
763.438	15039.56
763.775	15132.44
764.112	15350.97
764.449	15626.44
764.785	15677.74
765.122	15666.21
765.458	15860.33
765.795	16089.03
766.131	16138.52
766.467	16291.96
766.804	16348.23
767.14	16479.3
767.476	16689.91
767.812	16722.23
768.148	16878.38
768.485	16936.24
768.821	17041.77
769.157	17270.92
769.492	17279.73
769.828	17451.48
770.164	17436.34
770.5	17491.48
770.836	17668.65
771.171	17709.77
771.507	17833.16
771.842	17833.84
772.178	18004.23
772.513	18028.18
772.849	18093.27
773.184	18154.06
773.519	18184.34
773.855	18244
774.19	18222.98
774.525	18296.88
774.86	18456.65
775.195	18502.3
775.53	18471.79
775.865	18597.43
776.2	18495.29
776.535	18483.31
776.87	18493.03
777.205	18608.06
777.539	18559.02
777.874	18666.36
778.209	18624.78
778.543	18675.17
778.878	18692.35
779.212	18713.36
779.547	18669.07
779.881	18845.34
780.215	18752.91
780.55	18833.13
780.884	18672.69
781.218	18688.05
781.552	18842.63
781.886	18767.83
782.22	18827.71
782.554	18761.95
782.888	18638.11
783.222	18671.78
783.556	18640.6
783.889	18588.17
784.223	18525.57
784.557	18482.41
784.89	18615.29
785.224	18557.44
785.557	18460.94
785.891	18400.83
786.224	18549.3
786.558	18464.56
786.891	18372.58
787.224	18385.69
787.557	18297.56
787.891	18364.67
788.224	18342.53
788.557	18318.8
788.89	18300.95
789.223	18249.65
789.556	18140.5
789.888	18120.39
790.221	18216.43
790.554	18082.19
790.887	18102.76
791.219	17991.12
791.552	17963.1
791.884	17874.74
792.217	17878.36
792.549	17944.57
792.882	17781.86
793.214	17708.64
793.546	17832.71
793.879	17606.73
794.211	17623.68
794.543	17701.64
794.875	17613.28
795.207	17625.93
795.539	17638.59
795.871	17610.79
796.203	17549.78
796.535	17393.17
796.867	17426.17
797.198	17413.51
797.53	17405.83
797.862	17314.76
798.193	17193.18
798.525	17225.49
798.856	17141.43
799.188	17003.58
799.519	17043.8
799.85	16903.47
800.182	17003.58
800.513	16952.05
800.844	16795.67
801.175	16932.62
801.506	16849.68
801.837	16836.13
802.168	16767.65
802.499	16754.77
802.83	16614.44
803.161	16642.01
803.491	16587.77
803.822	16583.48
804.153	16421.9
804.483	16378.06
804.814	16338.96
805.145	16315.69
805.475	16290.38
805.805	16206.99
806.136	16282.24
806.466	16298.96
806.796	16233.66
807.126	16064.39
807.457	16053.32
807.787	16169.48
808.117	15997.96
808.447	15818.3
808.777	16084.28
809.107	15884.06
809.436	15915.47
809.766	15894.68
810.096	15837.51
810.426	15818.75
810.755	15793.67
811.085	15687
811.414	15753.22
811.744	15680
812.073	15619.89
812.403	15612.65
812.732	15547.57
813.061	15493.34
813.39	15429.61
813.719	15460.79
814.049	15462.15
814.378	15421.93
814.707	15320.46
815.036	15342.83
815.365	15309.84
815.693	15210.86
816.022	15204.76
816.351	15204.53
816.68	15081.59
817.008	15142.38
817.337	14965.44
817.665	14969.96
817.994	14929.06
818.322	14904.88
818.651	14926.12
818.979	14823.75
819.307	14920.02
819.636	14935.61
819.964	14799.12
820.292	14831.66
820.62	14837.08
820.948	14724.09
821.276	14836.18
821.604	14742.17
821.932	14850.87
822.259	14833.01
822.587	14834.37
822.915	14823.75
823.243	14839.12
823.57	14717.76
823.898	14760.7
824.225	14653.13
824.553	14742.17
824.88	14670.76
825.207	14796.4
825.535	14712.34
825.862	14773.81
826.189	14647.26
826.516	14770.42
826.843	14833.47
827.17	14794.37
827.497	14820.58
827.824	14830.75
828.151	14894.03
828.478	14796.4
828.805	14907.59
829.131	14787.14
829.458	14764.77
829.785	14688.38
830.111	14697.42
830.438	14771.32
830.764	14774.26
831.09	14777.2
831.417	14695.39
831.743	14757.08
832.069	14742.62
832.395	14719.12
832.722	14760.7
833.048	14669.4
833.374	14708.72
833.7	14602.29
834.026	14680.25
834.351	14542.17
834.677	14583.53
835.003	14632.79
835.329	14548.05
835.654	14610.87
835.98	14522.97
836.306	14577.43
836.631	14422.63
836.956	14575.85
837.282	14520.93
837.607	14491.55
837.932	14433.02
838.258	14426.47
838.583	14471.44
838.908	14343.54
839.233	14417.88
839.558	14303.54
839.883	14333.14
840.208	14229.64
840.533	14262.18
840.858	14238
841.182	14194.39
841.507	14253.82
841.832	14089.76
842.156	14113.03
842.481	14104.45
842.805	14125.01
843.13	14006.82
843.454	13990.1
843.778	13921.17
844.103	13989.65
844.427	13925.47
844.751	13996.2
845.075	13883.89
845.399	13834.62
845.723	13746.71
846.047	13725.7
846.371	13660.62
846.695	13598.02
847.019	13599.6
847.343	13433.95
847.666	13441.19
847.99	13410.9
848.313	13350.57
848.637	13340.4
848.96	13233.06
849.284	13247.07
849.607	13122.1
849.931	13156.22
850.254	12972.72
850.577	12890.01
850.9	12858.83
851.223	12846.63
851.546	12715.56
851.869	12759.85
852.192	12725.95
852.515	12736.35
852.838	12580.87
853.161	12615.22
853.483	12553.3
853.806	12562.79
854.129	12433.53
854.451	12431.04
854.774	12333.64
855.096	12408.9
855.419	12337.03
855.741	12303.36
856.063	12242.57
856.385	12224.27
856.708	12137.04
857.03	12083.26
857.352	12102.24
857.674	12026.08
857.996	11998.74
858.318	12008.23
858.64	11850.49
858.961	11936.82
859.283	11843.71
859.605	11801.68
859.926	11768.24
860.248	11800.33
860.57	11651.18
860.891	11717.62
861.212	11627.67
861.534	11673.1
861.855	11656.15
862.176	11600.33
862.498	11626.77
862.819	11631.29
863.14	11502.03
863.461	11618.41
863.782	11464.51
864.103	11557.85
864.424	11450.5
864.745	11512.2
865.065	11440.56
865.386	11361.47
865.707	11362.14
866.027	11293.22
866.348	11323.5
866.668	11270.17
866.989	11314.01
867.309	11244.86
867.63	11305.42
867.95	11259.77
868.27	11155.82
868.59	11165.09
868.91	11182.94
869.23	11196.73
869.55	11078.31
869.87	11137.74
870.19	11052.55
870.51	11189.49
870.83	11086.67
871.15	11016.39
871.469	10980.69
871.789	11048.48
872.109	11048.48
872.428	11039.67
872.748	11006.67
873.067	10928.48
873.386	10957.86
873.706	10902.04
874.025	10809.16
874.344	10832.22
874.663	10832.22
874.982	10833.57
875.301	10848.49
875.62	10746.12
875.939	10820.46
876.258	10809.84
876.577	10773.91
876.896	10683.07
877.214	10703.86
877.533	10688.94
877.852	10629.73
878.17	10640.58
878.489	10580.02
878.807	10693.24
879.125	10632.9
879.444	10624.99
879.762	10513.81
880.08	10578.44
880.398	10478.78
880.716	10541.38
881.034	10515.84
881.352	10475.61
881.67	10453.24
881.988	10415.95
882.306	10349.97
882.624	10319.01
882.941	10322.4
883.259	10322.62
883.577	10284.21
883.894	10242.4
884.212	10263.87
884.529	10215.73
884.846	10151.56
885.164	10227.94
885.481	10077.88
885.798	10144.55
886.115	10023.2
886.432	10107.04
886.75	10020.49
887.067	10035.17
887.383	9989.07
887.7	9972.12
888.017	9971.9
888.334	9952.69
888.651	9913.82
888.967	9901.17
889.284	9828.4
889.6	9817.55
889.917	9716.76
890.233	9758.12
890.55	9701.4
890.866	9791.34
891.182	9702.75
891.498	9636.99
891.815	9676.09
892.131	9572.36
892.447	9521.97
892.763	9571.46
893.079	9584.79
893.395	9468.86
893.71	9452.14
894.026	9398.81
894.342	9441.52
894.657	9361.07
894.973	9357.45
895.289	9321.07
895.604	9374.63
895.92	9288.53
896.235	9192.03
896.55	9215.53
896.865	9180.28
897.181	9086.95
897.496	9158.59
897.811	9095.31
898.126	9059.83
898.441	9044.47
898.756	8973.73
899.071	8889.44
899.386	8971.7
899.7	8860.06
900.015	8869.1
900.33	8793.62
900.644	8771.7
900.959	8754.3
901.273	8777.35
901.588	8719.95
901.902	8625.95
902.216	8645.38
902.531	8595.44
902.845	8568.55
903.159	8539.62
903.473	8486.51
903.787	8402.22
904.101	8399.51
904.415	8376.69
904.729	8392.05
905.042	8344.15
905.356	8348.44
905.67	8275.9
905.984	8213.08
906.297	8274.09
906.611	8186.64
906.924	8147.54
907.237	8150.25
907.551	8098.5
907.864	8096.92
908.177	8048.56
908.491	8053.76
908.804	7922.46
909.117	7946.87
909.43	7885.63
909.743	7846.98
910.056	7798.17
910.368	7835.68
910.681	7713.2
910.994	7779.64
911.307	7632.75
911.619	7620.77
911.932	7679.08
912.244	7556.6
912.557	7609.25
912.869	7470.04
913.181	7439.99
913.494	7460.33
913.806	7437.95
914.118	7414.45
914.43	7349.82
914.742	7381.91
915.054	7295.59
915.366	7299.65
915.678	7278.86
915.99	7279.77
916.302	7165.87
916.613	7173.55
916.925	7129.26
917.236	7107.34
917.548	7101.69
917.859	7084.07
918.171	7037.51
918.482	7010.17
918.794	6971.75
919.105	6936.05
919.416	6927.46
919.727	6946.44
920.038	6838.65
920.349	6786.45
920.66	6780.8
920.971	6782.83
921.282	6747.58
921.593	6718.88
921.903	6665.55
922.214	6670.06
922.525	6655.6
922.835	6553.91
923.146	6564.76
923.456	6566.11
923.767	6501.03
924.077	6492.67
924.387	6448.6
924.697	6347.36
925.008	6390.07
925.318	6410.41
925.628	6343.52
925.938	6339
926.248	6280.47
926.558	6235.73
926.867	6231.43
927.177	6230.75
927.487	6176.29
927.796	6160.47
928.106	6154.37
928.416	6165.67
928.725	6113.92
929.034	6064.2
929.344	6067.14
929.653	6068.95
929.962	5989.86
930.271	5996.18
930.581	5950.08
930.89	5906.02
931.199	5908.05
931.508	5911.21
931.817	5867.83
932.125	5826.92
932.434	5831.44
932.743	5728.17
933.051	5789.41
933.36	5739.69
933.669	5684.33
933.977	5695.18
934.286	5657.44
934.594	5627.38
934.902	5593.93
935.21	5588.74
935.519	5518
935.827	5559.81
936.135	5526.59
936.443	5509.64
936.751	5456.76
937.059	5473.26
937.367	5450.66
937.674	5409.31
937.982	5438.91
938.29	5360.27
938.597	5356.88
938.905	5278.24
939.213	5309.42
939.52	5250.44
939.827	5279.82
940.135	5230.1
940.442	5158.24
940.749	5184.23
941.056	5185.36
941.363	5131.12
941.67	5162.76
941.977	5115.76
942.284	5125.25
942.591	5000.73
942.898	4985.36
943.205	4995.76
943.511	5010.9
943.818	4941.75
944.125	4925.25
944.431	4942.2
944.738	4904.69
945.044	4929.55
945.35	4844.12
945.657	4833.95
945.963	4828.98
946.269	4743.11
946.575	4782.88
946.881	4744.92
947.187	4737.46
947.493	4733.17
947.799	4684.13
948.105	4688.65
948.41	4626.5
948.716	4634.86
949.022	4665.6
949.327	4597.12
949.633	4533.4
949.938	4533.4
950.244	4571.36
950.549	4532.49
950.854	4514.64
951.16	4481.2
951.465	4470.8
951.77	4454.76
952.075	4367.3
952.38	4398.71
952.685	4389.22
952.99	4397.36
953.294	4359.62
953.599	4319.39
953.904	4293.4
954.209	4316.68
954.513	4298.83
954.818	4214.54
955.122	4238.94
955.426	4182.9
955.731	4143.13
956.035	4168.44
956.339	4197.14
956.643	4146.52
956.948	4094.31
957.252	4145.39
957.556	4108.55
957.86	4037.59
958.163	4045.73
958.467	4019.96
958.771	3997.59
959.075	4043.02
959.378	3992.17
959.682	3968.44
959.985	3920.53
960.289	3934.54
960.592	3942
960.896	3914.43
961.199	3915.11
961.502	3883.02
961.805	3884.6
962.108	3862.23
962.411	3842.12
962.714	3792.4
963.017	3784.94
963.32	3781.33
963.623	3758.05
963.926	3742.91
964.228	3707.43
964.531	3740.65
964.833	3693.19
965.136	3679.41
965.438	3656.13
965.741	3650.48
966.043	3630.37
966.345	3614.1
966.648	3597.6
966.95	3561.67
967.252	3550.37
967.554	3586.53
967.856	3540.2
968.158	3512.86
968.46	3561.45
968.761	3488.23
969.063	3518.28
969.365	3461.56
969.666	3466.99
969.968	3445.06
970.269	3396.93
970.571	3377.95
970.872	3376.82
971.174	3410.26
971.475	3350.83
971.776	3363.49
972.077	3324.16
972.378	3313.99
972.679	3292.3
972.98	3273.09
973.281	3292.53
973.582	3285.29
973.883	3259.98
974.183	3255.24
974.484	3178.86
974.785	3201.68
975.085	3195.58
975.386	3175.02
975.686	3164.62
975.986	3190.38
976.287	3147.9
976.587	3067.45
976.887	3099.09
977.187	3112.64
977.487	3076.03
977.787	3081.68
978.087	3041.23
978.387	3040.56
978.687	3036.04
978.987	3008.92
979.286	3003.95
979.586	3042.14
979.885	2954.68
980.185	2941.58
980.484	2926.43
980.784	2904.97
981.083	2915.36
981.382	2912.42
981.682	2916.49
981.981	2850.28
982.28	2874.46
982.579	2843.5
982.878	2849.6
983.177	2850.96
983.475	2818.87
983.774	2796.72
984.073	2784.52
984.372	2756.27
984.67	2735.7
984.969	2716.04
985.267	2717.17
985.566	2729.15
985.864	2722.6
986.162	2710.62
986.461	2672.88
986.759	2657.97
987.057	2638.98
987.355	2620
987.653	2646.67
987.951	2582.04
988.249	2598.08
988.547	2581.58
988.844	2600.12
989.142	2582.71
989.44	2574.13
989.737	2515.6
990.035	2544.3
990.332	2525.54
990.63	2510.63
990.927	2506.78
991.224	2513.79
991.521	2518.99
991.819	2487.35
992.116	2490.51
992.413	2439.44
992.71	2456.16
993.006	2452.55
993.303	2456.84
993.6	2406.45
993.897	2408.48
994.193	2403.96
994.49	2384.08
994.787	2344.53
995.083	2351.99
995.379	2360.57
995.676	2318.09
995.972	2360.35
996.268	2308.6
996.565	2290.52
996.861	2288.49
997.157	2255.72
997.453	2264.3
997.749	2257.07
998.044	2238.32
998.34	2219.11
998.636	2205.78
998.932	2200.58
999.227	2224.08
999.523	2198.77
999.818	2150.18
1000.114	2136.4
1000.409	2126.68
1000.704	2154.03
1001	2132.1
1001.295	2140.24
1001.59	2077.19
1001.885	2103.41
1002.18	2068.83
1002.475	2076.51
1002.77	2050.07
1003.065	2039.23
1003.359	2035.61
1003.654	2012.11
1003.949	2013.01
1004.243	2002.39
1004.538	1979.79
1004.832	1989.96
1005.127	1969.4
1005.421	1940.92
1005.715	1938.89
1006.009	1940.02
1006.304	1927.82
1006.598	1913.58
1006.892	1885.78
1007.186	1883.07
1007.48	1867.25
1007.773	1861.15
1008.067	1862.06
1008.361	1842.85
1008.655	1829.51
1008.948	1822.51
1009.242	1823.64
1009.535	1798.1
1009.829	1845.11
1010.122	1776.18
1010.415	1826.35
1010.708	1748.84
1011.001	1726.69
1011.295	1729.63
1011.588	1766.24
1011.881	1723.75
1012.173	1732.34
1012.466	1693.92
1012.759	1722.85
1013.052	1688.05
1013.344	1687.14
1013.637	1699.8
1013.93	1668.84
1014.222	1643.53
1014.514	1616.41
1014.807	1609.86
1015.099	1621.16
1015.391	1592.01
1015.683	1584.32
1015.976	1600.59
1016.268	1550.2
1016.56	1575.96
1016.851	1567.15
1017.143	1565.57
1017.435	1549.97
1017.727	1512.23
1018.018	1513.36
1018.31	1515.17
1018.602	1495.06
1018.893	1474.72
1019.185	1493.25
1019.476	1458
1019.767	1469.75
1020.058	1495.51
1020.35	1443.31
1020.641	1446.47
1020.932	1406.25
1021.223	1422.07
1021.514	1440.15
1021.804	1412.8
1022.095	1405.8
1022.386	1363.76
1022.677	1394.5
1022.967	1366.02
1023.258	1341.84
1023.548	1325.12
1023.839	1328.06
1024.129	1348.4
1024.419	1340.26
1024.709	1303.43
1025	1295.74
1025.29	1314.5
1025.58	1265.69
1025.87	1282.64
1026.16	1290.32
1026.449	1277.66
1026.739	1260.26
1027.029	1249.42
1027.319	1248.96
1027.608	1229.76
1027.898	1231.56
1028.187	1188.4
1028.477	1209.42
1028.766	1210.32
1029.055	1160.83
1029.344	1190.89
1029.634	1160.83
1029.923	1168.06
1030.212	1191.79
1030.501	1164.9
1030.79	1136.42
1031.078	1126.93
1031.367	1119.25
1031.656	1137.1
1031.945	1109.31
1032.233	1114.96
1032.522	1103.88
1032.81	1087.16
1033.099	1066.37
1033.387	1091.68
1033.675	1050.1
1033.963	1064.56
1034.251	1084.9
1034.54	1027.73
1034.828	1044.45
1035.116	1038.12
1035.403	1047.16
1035.691	1044.45
1035.979	1018.91
1036.267	1011
1036.554	1020.95
1036.842	1010.1
1037.129	1013.72
1037.417	990.89
1037.704	960.84
1037.992	966.03
1038.279	968.97
1038.566	961.51
1038.853	961.51
1039.14	961.51
