Data from hue_240_FLMS001491_00090.txt Node
Date: Tue Feb 07 16:36:05 GMT 2017
User: dcchb
Spectrometer: FLMS00149
Trigger mode: 0
Integration Time (sec): 2.000000E-2
Scans to average: 10
Electric dark correction enabled: true
Nonlinearity correction enabled: false
Boxcar width: 0
XAxis mode: Wavelengths
Number of Pixels in Spectrum: 2048
>>>>>Begin Spectral Data<<<<<
341.393	-14.36
341.776	-14.36
342.16	-14.36
342.543	-57.98
342.927	-70.86
343.31	-59.11
343.693	-75.15
344.077	-67.02
344.46	-55.04
344.843	-49.84
345.226	-41.93
345.61	-46.45
345.993	3.94
346.376	-17.75
346.759	6.65
347.142	33.77
347.525	40.32
347.908	69.7
348.291	76.48
348.674	93.2
349.057	88.23
349.44	136.14
349.823	137.5
350.206	169.36
350.588	206.2
350.971	189.92
351.354	219.53
351.737	225.18
352.119	242.58
352.502	240.54
352.884	262.01
353.267	260.66
353.65	278.96
354.032	288.68
354.414	292.29
354.797	320.54
355.179	318.73
355.562	295.46
355.944	310.6
356.326	315.57
356.709	314.21
357.091	316.7
357.473	356.02
357.855	339.3
358.238	336.14
358.62	336.36
359.002	344.72
359.384	328.45
359.766	336.59
360.148	343.37
360.53	324.16
360.912	325.97
361.294	327.77
361.676	317.6
362.057	326.64
362.439	309.47
362.821	304.95
363.203	324.38
363.584	341.33
363.966	315.34
364.348	321.22
364.729	323.48
365.111	309.7
365.493	318.28
365.874	302.01
366.256	304.27
366.637	315.34
367.019	303.37
367.4	326.64
367.781	298.62
368.163	300.2
368.544	294.1
368.925	294.78
369.306	325.51
369.688	302.46
370.069	299.75
370.45	295.23
370.831	316.02
371.212	309.02
371.593	308.57
371.974	310.6
372.355	302.69
372.736	311.28
373.117	311.05
373.498	308.34
373.879	315.12
374.26	307.44
374.641	309.47
375.021	316.02
375.402	306.76
375.783	314.67
376.163	327.1
376.544	311.73
376.925	323.48
377.305	328.23
377.686	327.1
378.066	330.03
378.447	326.64
378.827	333.42
379.208	322.58
379.588	288.45
379.968	331.39
380.349	315.34
380.729	325.29
381.109	337.94
381.489	310.83
381.87	316.47
382.25	330.49
382.63	333.88
383.01	334.1
383.39	340.2
383.77	352.63
384.15	319.64
384.53	358.51
384.91	341.11
385.29	334.1
385.67	331.39
386.049	344.72
386.429	348.11
386.809	354.44
387.189	322.12
387.568	315.12
387.948	337.72
388.328	340.43
388.707	342.01
389.087	353.99
389.466	348.56
389.846	361.9
390.225	339.52
390.605	353.08
390.984	361.45
391.363	338.85
391.743	346.76
392.122	358.51
392.501	360.09
392.881	355.34
393.26	373.42
393.639	363.25
394.018	364.61
394.397	384.04
394.776	382.24
395.155	355.12
395.534	383.14
395.913	366.42
396.292	356.02
396.671	372.97
397.05	386.08
397.429	387.21
397.808	386.76
398.186	375
398.565	389.02
398.944	393.99
399.323	398.05
399.701	386.98
400.08	394.44
400.458	391.95
400.837	390.37
401.215	387.21
401.594	375.46
401.972	388.56
402.351	404.16
402.729	397.83
403.107	434.66
403.486	426.08
403.864	412.52
404.242	421.1
404.62	403.48
404.999	436.7
405.377	453.87
405.755	447.77
406.133	458.84
406.511	424.49
406.889	436.92
407.267	429.69
407.645	455.91
408.023	449.8
408.401	447.32
408.779	462.46
409.156	463.36
409.534	469.92
409.912	463.82
410.29	478.5
410.667	491.84
411.045	484.15
411.422	496.58
411.8	492.29
412.178	505.85
412.555	519.18
412.933	502.01
413.31	519.86
413.687	514.44
414.065	532.74
414.442	511.5
414.819	543.59
415.197	556.24
415.574	546.53
415.951	531.61
416.328	564.6
416.705	575.22
417.082	580.87
417.46	597.82
417.837	571.16
418.214	622.68
418.591	609.35
418.967	627.88
419.344	610.03
419.721	623.59
420.098	629.46
420.475	619.97
420.852	624.94
421.228	645.96
421.605	666.52
421.982	660.87
422.358	687.76
422.735	681.21
423.111	669.46
423.488	708.1
423.864	694.77
424.241	719.63
424.617	729.12
424.994	737.25
425.37	737.03
425.746	749.46
426.123	754.2
426.499	724.6
426.875	789.23
427.251	770.25
427.627	792.17
428.003	770.25
428.379	812.28
428.756	828.33
429.132	810.7
429.507	835.33
429.883	842.34
430.259	848.44
430.635	882.79
431.011	855.67
431.387	872.17
431.763	889.79
432.138	912.39
432.514	909.68
432.89	931.6
433.265	945.38
433.641	948.77
434.016	975.21
434.392	998.94
434.767	961.88
435.143	1014.54
435.518	985.38
435.894	1037.81
436.269	1030.81
436.644	1099.5
437.02	1070.13
437.395	1071.71
437.77	1075.55
438.145	1105.38
438.52	1118.71
438.895	1125.27
439.271	1166.62
439.646	1165.72
440.021	1185.15
440.395	1183.8
440.77	1205.72
441.145	1200.52
441.52	1219.28
441.895	1237.58
442.27	1246.17
442.645	1260.18
443.019	1253.17
443.394	1285.71
443.769	1293.85
444.143	1277.58
444.518	1319.16
444.892	1334.75
445.267	1336.11
445.641	1338.37
446.016	1336.79
446.39	1346.73
446.764	1378.82
447.139	1359.39
447.513	1368.2
447.887	1395.54
448.262	1387.18
448.636	1406.84
449.01	1426.5
449.384	1424.02
449.758	1425.6
450.132	1452.26
450.506	1469.66
450.88	1468.08
451.254	1497.01
451.628	1490.23
452.002	1509.21
452.376	1524.8
452.75	1520.28
453.123	1558.02
453.497	1553.96
453.871	1591.47
454.244	1596.89
454.618	1612.71
454.992	1622.66
455.365	1648.19
455.739	1666.04
456.112	1690.68
456.486	1698.13
456.859	1709.43
457.232	1755.53
457.606	1715.31
457.979	1749.66
458.352	1790.56
458.725	1798.7
459.099	1794.18
459.472	1833.5
459.845	1878.92
460.218	1880.95
460.591	1853.16
460.964	1905.59
461.337	1968.18
461.71	1969.76
462.083	1946.26
462.456	1987.17
462.829	1993.94
463.201	2060.84
463.574	2070.1
463.947	2060.84
464.32	2102.64
464.692	2081.85
465.065	2115.07
465.438	2172.25
465.81	2156.65
466.183	2247.95
466.555	2261.73
466.928	2207.05
467.3	2236.88
467.672	2281.39
468.045	2328.63
468.417	2358.23
468.789	2340.83
469.161	2381.28
469.534	2408.4
469.906	2467.6
470.278	2465.34
470.65	2496.98
471.022	2562.74
471.394	2585.34
471.766	2567.26
472.138	2628.05
472.51	2672.57
472.882	2665.11
473.253	2697.2
473.625	2787.14
473.997	2805.9
474.369	2842.28
474.74	2877.54
475.112	2898.55
475.484	2931.55
475.855	2993.01
476.227	2980.13
476.598	3084.31
476.97	3108.27
477.341	3173.8
477.713	3202.95
478.084	3218.09
478.455	3309.62
478.827	3310.07
479.198	3409.27
479.569	3402.5
479.94	3502.83
480.311	3520.01
480.682	3572.66
481.053	3654.69
481.424	3731.3
481.795	3744.63
482.166	3782.15
482.537	3767.01
482.908	3883.16
483.279	3847.91
483.65	3987.79
484.021	4018.52
484.391	4083.16
484.762	4096.04
485.133	4100.56
485.503	4148.24
485.874	4254.45
486.244	4315.69
486.615	4345.75
486.985	4390.27
487.356	4509.13
487.726	4488.12
488.097	4584.84
488.467	4595.46
488.837	4692.4
489.207	4657.83
489.578	4775.57
489.948	4792.74
490.318	4883.36
490.688	4878.84
491.058	4908.9
491.428	5009.23
491.798	5015.56
492.168	5110.02
492.538	5133.52
492.908	5168.78
493.278	5267.31
493.648	5256.23
494.017	5325.16
494.387	5357.47
494.757	5343.46
495.126	5425.49
495.496	5413.52
495.866	5437.92
496.235	5507.75
496.605	5525.6
496.974	5545.49
497.344	5642.89
497.713	5645.15
498.082	5659.84
498.452	5677.92
498.821	5734.64
499.19	5752.04
499.559	5797.46
499.928	5826.39
500.298	5864.58
500.667	5880.85
501.036	5867.29
501.405	5948.64
501.774	5873.39
502.143	5954.07
502.512	5968.76
502.88	6056.21
503.249	6058.92
503.618	6060.28
503.987	6081.52
504.356	6050.79
504.724	6123.1
505.093	6160.61
505.462	6142.99
505.83	6173.95
506.199	6189.54
506.567	6292.36
506.936	6282.65
507.304	6298.01
507.672	6319.48
508.041	6329.65
508.409	6396.54
508.777	6395.41
509.145	6422.98
509.514	6400.61
509.882	6461.85
510.25	6429.53
510.618	6498.01
510.986	6476.76
511.354	6549.76
511.722	6595.18
512.09	6584.11
512.458	6554.73
512.826	6623.43
513.193	6620.72
513.561	6703.88
513.929	6695.52
514.297	6764.44
514.664	6787.27
515.032	6746.59
515.4	6794.72
515.767	6787.49
516.135	6755.85
516.502	6730.54
516.869	6837.21
517.237	6843.31
517.604	6830.43
517.972	6882.4
518.339	6854.61
518.706	6828.39
519.073	6926.7
519.44	6951.1
519.808	6969.18
520.175	6962.18
520.542	7010.31
520.909	7039.01
521.276	7034.26
521.643	7030.65
522.009	7059.35
522.376	7090.76
522.743	7092.79
523.11	7125.56
523.477	7180.7
523.843	7187.25
524.21	7224.32
524.577	7259.79
524.943	7248.5
525.31	7211.21
525.676	7231.32
526.043	7308.61
526.409	7330.3
526.776	7344.54
527.142	7312.22
527.508	7349.51
527.874	7378.89
528.241	7371.66
528.607	7441.94
528.973	7439.45
529.339	7436.74
529.705	7492.11
530.071	7458.21
530.437	7505.21
530.803	7504.99
531.169	7478.77
531.535	7505.21
531.901	7513.8
532.267	7437.64
532.632	7455.04
532.998	7489.62
533.364	7528.71
533.73	7495.27
534.095	7548.6
534.461	7543.4
534.826	7570.97
535.192	7469.96
535.557	7524.87
535.923	7455.04
536.288	7496.85
536.653	7561.93
537.019	7514.25
537.384	7497.98
537.749	7505.66
538.114	7487.81
538.479	7456.63
538.845	7519
539.21	7452.56
539.575	7461.82
539.94	7519.45
540.305	7483.97
540.67	7472.22
541.034	7462.05
541.399	7515.38
541.764	7431.09
542.129	7487.81
542.494	7493.24
542.858	7417.76
543.223	7422.95
543.587	7459.56
543.952	7408.27
544.316	7405.55
544.681	7436.97
545.045	7426.12
545.41	7395.61
545.774	7382.5
546.138	7326.91
546.503	7407.36
546.867	7370.75
547.231	7408.94
547.595	7380.24
547.959	7343.41
548.324	7338.21
548.688	7298.21
549.052	7372.79
549.416	7398.32
549.779	7368.72
550.143	7341.15
550.507	7331.66
550.871	7359.91
551.235	7310.19
551.599	7371.2
551.962	7347.02
552.326	7368.49
552.689	7324.43
553.053	7293.47
553.417	7322.17
553.78	7390.19
554.143	7371.66
554.507	7362.39
554.87	7294.6
555.234	7379.34
555.597	7300.47
555.96	7363.97
556.323	7349.51
556.686	7344.99
557.05	7372.33
557.413	7356.52
557.776	7362.84
558.139	7439.68
558.502	7369.4
558.865	7351.77
559.228	7406.01
559.59	7408.27
559.953	7386.57
560.316	7425.21
560.679	7444.87
561.041	7483.29
561.404	7475.16
561.767	7483.29
562.129	7442.39
562.492	7501.14
562.854	7498.66
563.217	7448.26
563.579	7517.42
563.941	7529.39
564.304	7589.28
564.666	7587.24
565.028	7627.92
565.39	7632.44
565.753	7577.3
566.115	7596.96
566.477	7668.15
566.839	7686.68
567.201	7676.73
567.563	7754.7
567.925	7800.35
568.287	7772.1
568.648	7750.18
569.01	7806.22
569.372	7845.32
569.734	7763.74
570.095	7835.83
570.457	7894.13
570.819	7858.2
571.18	7882.6
571.542	7900.23
571.903	7964.86
572.265	7986.1
572.626	7970.06
572.987	7921.92
573.349	7923.51
573.71	8048.47
574.071	8025.65
574.432	8023.16
574.794	8072.43
575.155	8102.48
575.516	8005.76
575.877	8104.29
576.238	8203.05
576.599	8085.99
576.96	8139.77
577.32	8205.31
577.681	8190.39
578.042	8201.01
578.403	8241.01
578.763	8247.34
579.124	8268.81
579.485	8286.89
579.845	8302.48
580.206	8278.98
580.566	8283.27
580.927	8253.22
581.287	8305.42
581.648	8277.85
582.008	8304.06
582.368	8353.33
582.728	8391.06
583.089	8337.28
583.449	8410.73
583.809	8377.73
584.169	8421.12
584.529	8386.77
584.889	8468.58
585.249	8361.23
585.609	8438.07
585.969	8455.02
586.329	8432.65
586.688	8428.58
587.048	8453.89
587.408	8477.62
587.768	8537.95
588.127	8474
588.487	8466.99
588.846	8553.32
589.206	8445.98
589.565	8478.75
589.925	8495.24
590.284	8508.58
590.643	8569.82
591.003	8573.43
591.362	8589.93
591.721	8552.64
592.08	8518.74
592.44	8605.75
592.799	8596.71
593.158	8554
593.517	8505.19
593.876	8636.48
594.235	8613.88
594.593	8596.26
594.952	8643.49
595.311	8590.61
595.67	8623.83
596.029	8683.26
596.387	8735.24
596.746	8679.87
597.104	8646.43
597.463	8579.08
597.822	8674.22
598.18	8629.93
598.538	8656.14
598.897	8715.58
599.255	8664.96
599.613	8711.06
599.972	8698.85
600.33	8729.13
600.688	8695.46
601.046	8688.91
601.404	8698.63
601.762	8659.08
602.12	8794.44
602.478	8718.51
602.836	8770.04
603.194	8719.87
603.552	8700.21
603.91	8709.25
604.268	8757.16
604.625	8719.19
604.983	8769.13
605.341	8718.51
605.698	8792.18
606.056	8809.81
606.413	8778.17
606.771	8864.95
607.128	8771.85
607.485	8772.75
607.843	8784.27
608.2	8854.78
608.557	8753.32
608.914	8832.63
609.272	8919.64
609.629	8927.77
609.986	8884.84
610.343	8843.03
610.7	8904.72
611.057	8899.53
611.414	8888.45
611.771	8856.82
612.127	8959.86
612.484	8953.31
612.841	8965.29
613.198	8898.4
613.554	8906.08
613.911	8971.39
614.267	8966.87
614.624	8944.72
614.98	8972.29
615.337	8959.19
615.693	9045.74
616.05	9019.07
616.406	8995.34
616.762	9020.65
617.118	9035.34
617.475	9004.83
617.831	8991.95
618.187	9037.15
618.543	9051.84
618.899	9076.02
619.255	9156.02
619.611	9057.26
619.967	9075.57
620.323	9152.4
620.678	9097.94
621.034	9080.31
621.39	8960.77
621.746	9000.99
622.101	9118.05
622.457	9057.04
622.812	9075.34
623.168	9221.33
623.523	9150.59
623.879	9126.19
624.234	9064.04
624.589	9118.05
624.945	9122.8
625.3	9160.31
625.655	9096.36
626.01	9098.39
626.365	9083.48
626.72	9068.56
627.075	9008.9
627.43	9069.92
627.785	9051.39
628.14	9065.4
628.495	9032.4
628.85	9005.51
629.205	9043.7
629.559	9080.09
629.914	9005.96
630.269	9023.82
630.623	8973.87
630.978	8970.71
631.332	8992.18
631.687	9017.71
632.041	8948.79
632.396	8996.25
632.75	8965.74
633.104	9006.19
633.459	9008.45
633.813	8908.11
634.167	8942.91
634.521	8937.72
634.875	8948.79
635.229	8961.45
635.583	8878.74
635.937	8864.72
636.291	8907.21
636.645	8880.32
636.999	8805.52
637.352	8880.32
637.706	8768.91
638.06	8816.82
638.413	8819.53
638.767	8760.77
639.121	8785.18
639.474	8767.55
639.828	8758.74
640.181	8753.54
640.534	8777.04
640.888	8672.19
641.241	8648.23
641.594	8709.02
641.947	8716.48
642.301	8756.48
642.654	8653.2
643.007	8748.57
643.36	8641.23
643.713	8645.97
644.066	8727.33
644.419	8620.89
644.771	8599.42
645.124	8521
645.477	8494.34
645.83	8449.82
646.182	8413.44
646.535	8407.34
646.888	8433.55
647.24	8433.55
647.593	8342.03
647.945	8385.64
648.298	8316.49
648.65	8334.34
649.002	8330.5
649.355	8363.72
649.707	8346.32
650.059	8355.13
650.411	8487.56
650.763	8492.76
651.115	8559.65
651.467	8531.17
651.819	8535.69
652.171	8525.3
652.523	8480.1
652.875	8522.36
653.227	8444.85
653.578	8578.18
653.93	8489.59
654.282	8440.1
654.633	8419.09
654.985	8497.95
655.337	8510.16
655.688	8507.67
656.039	8555.13
656.391	8411.86
656.742	8438.07
657.094	8476.71
657.445	8464.51
657.796	8447.79
658.147	8426.77
658.498	8528.46
658.849	8501.12
659.2	8504.28
659.551	8452.98
659.902	8461.57
660.253	8458.41
660.604	8501.57
660.955	8482.81
661.306	8521.23
661.656	8496.15
662.007	8472.19
662.358	8504.96
662.708	8509.71
663.059	8523.49
663.409	8395.13
663.76	8535.92
664.11	8528.69
664.461	8497.28
664.811	8494.34
665.161	8500.21
665.511	8436.49
665.862	8517.39
666.212	8531.85
666.562	8552.42
666.912	8515.13
667.262	8509.48
667.612	8443.72
667.962	8462.25
668.312	8567.56
668.662	8537.5
669.011	8494.56
669.361	8468.8
669.711	8422.02
670.06	8518.97
670.41	8452.98
670.76	8405.3
671.109	8444.85
671.459	8430.84
671.808	8403.04
672.157	8448.46
672.507	8363.95
672.856	8409.14
673.205	8349.71
673.554	8433.1
673.904	8417.73
674.253	8446.43
674.602	8384.74
674.951	8264.74
675.3	8309.03
675.649	8398.75
675.998	8342.03
676.346	8386.32
676.695	8303.61
677.044	8276.04
677.393	8290.05
677.741	8348.13
678.09	8287.11
678.438	8253.22
678.787	8351.74
679.135	8288.92
679.484	8244.18
679.832	8256.83
680.181	8255.93
680.529	8203.72
680.877	8249.83
681.225	8166.89
681.573	8249.15
681.922	8158.75
682.27	8185.42
682.618	8175.25
682.966	8109.94
683.314	8186.78
683.661	8136.61
684.009	8067.46
684.357	8084.41
684.705	8047.12
685.053	8105.87
685.4	8037.4
685.748	7976.39
686.095	7963.73
686.443	7963.05
686.79	7925.99
687.138	7970.28
687.485	7958.99
687.832	7940.91
688.18	7899.55
688.527	7805.09
688.874	7857.75
689.221	7832.66
689.568	7782.04
689.915	7781.82
690.262	7727.81
690.609	7767.35
690.956	7692.33
691.303	7759.44
691.65	7671.54
691.997	7648.71
692.344	7610.07
692.69	7599.67
693.037	7632.67
693.383	7535.27
693.73	7551.99
694.077	7455.27
694.423	7490.52
694.769	7448.94
695.116	7422.5
695.462	7453.24
695.808	7397.87
696.155	7372.11
696.501	7367.81
696.847	7346.12
697.193	7312.22
697.539	7331.66
697.885	7245.78
698.231	7254.6
698.577	7252.56
698.923	7218.21
699.269	7145.9
699.614	7121.27
699.96	7188.16
700.306	7099.35
700.651	7105
700.997	7088.73
701.342	6989.29
701.688	7024.55
702.033	7029.74
702.379	7056.86
702.724	6998.78
703.069	6947.71
703.415	6943.42
703.76	6882.18
704.105	6864.33
704.45	6883.08
704.795	6786.81
705.14	6837.21
705.485	6758.11
705.83	6762.41
706.175	6768.51
706.52	6825
706.865	6738.9
707.209	6739.81
707.554	6728.06
707.899	6726.93
708.243	6662.3
708.588	6645.12
708.932	6583.88
709.277	6554.73
709.621	6608.29
709.966	6517.89
710.31	6515.41
710.654	6549.98
710.998	6510.44
711.342	6533.49
711.687	6500.27
712.031	6504.33
712.375	6477.89
712.719	6442.64
713.063	6488.52
713.407	6413.72
713.75	6420.95
714.094	6422.75
714.438	6399.7
714.782	6399.48
715.125	6383.21
715.469	6414.85
715.812	6372.36
716.156	6338.46
716.499	6327.62
716.843	6327.39
717.186	6269.76
717.53	6294.4
717.873	6276.32
718.216	6328.29
718.559	6277.45
718.902	6195.42
719.246	6274.96
719.589	6224.12
719.932	6212.59
720.275	6257.56
720.617	6197.22
720.96	6196.32
721.303	6219.82
721.646	6206.04
721.989	6150.67
722.331	6182.08
722.674	6181.18
723.016	6154.51
723.359	6128.07
723.701	6148.41
724.044	6129.88
724.386	6067.28
724.729	6095.98
725.071	6130.11
725.413	6078.81
725.755	6131.46
726.097	6090.33
726.439	6064.35
726.782	6044.01
727.124	6062.09
727.465	6007.85
727.807	5979.15
728.149	6033.39
728.491	6020.05
728.833	6017.12
729.175	6051.92
729.516	6045.36
729.858	6047.85
730.199	5971.24
730.541	6005.36
730.882	6015.31
731.224	6046.49
731.565	6004.91
731.906	6008.53
732.248	6013.27
732.589	6017.57
732.93	5927.63
733.271	5993.16
733.612	5997
733.953	6020.51
734.294	6007.17
734.635	5973.73
734.976	5955.87
735.317	5985.03
735.658	5952.03
735.999	5999.26
736.339	5917.91
736.68	5986.61
737.021	6004.69
737.361	5962.65
737.702	6050.11
738.042	5939.83
738.383	5960.85
738.723	5949.77
739.063	5968.53
739.404	6018.25
739.744	5984.12
740.084	6010.11
740.424	6011.92
740.764	5966.95
741.104	6027.96
741.444	5992.26
741.784	5989.77
742.124	6006.72
742.464	6032.71
742.804	6047.62
743.143	6057.57
743.483	6035.87
743.823	6015.76
744.162	6054.63
744.502	6108.19
744.841	6099.6
745.181	6083.55
745.52	6112.48
745.86	6160.16
746.199	6175.53
746.538	6151.8
746.877	6171.46
747.216	6255.53
747.556	6248.3
747.895	6274.96
748.234	6307.5
748.573	6326.71
748.911	6368.74
749.25	6446.48
749.589	6402.42
749.928	6492.58
750.267	6507.72
750.605	6544.11
750.944	6552.92
751.283	6557.67
751.621	6657.55
751.96	6689.87
752.298	6712.24
752.636	6773.03
752.975	6822.97
753.313	6904.55
753.651	6998.78
753.989	6999.91
754.327	7063.64
754.666	7119.23
755.004	7189.06
755.342	7306.35
755.679	7328.95
756.017	7362.62
756.355	7534.82
756.693	7557.87
757.031	7721.03
757.368	7688.71
757.706	7828.59
758.044	7910.4
758.381	7958.31
758.719	8055.48
759.056	8170.05
759.394	8250.5
759.731	8267.23
760.068	8384.51
760.405	8503.38
760.743	8522.81
761.08	8639.42
761.417	8760.09
761.754	8798.29
762.091	8880.32
762.428	9027.66
762.765	9120.99
763.102	9201.89
763.438	9267.43
763.775	9316.01
764.112	9439.85
764.449	9643.91
764.785	9615.21
765.122	9737.47
765.458	9671.93
765.795	9851.14
766.131	9935.88
766.467	10048.2
766.804	10064.02
767.14	10104.69
767.476	10214.97
767.812	10237.12
768.148	10385.81
768.485	10325.93
768.821	10405.02
769.157	10504.68
769.492	10581.29
769.828	10649.54
770.164	10585.36
770.5	10652.47
770.836	10751.91
771.171	10702.64
771.507	10798.01
771.842	10819.93
772.178	10930.21
772.513	11008.17
772.849	11015.18
773.184	11042.75
773.519	11019.7
773.855	11110.32
774.19	11033.71
774.525	11089.52
774.86	11219.92
775.195	11210.88
775.53	11225.34
775.865	11214.27
776.2	11258.11
776.535	11211.33
776.87	11236.64
777.205	11208.17
777.539	11199.8
777.874	11292.91
778.209	11178.56
778.543	11226.02
778.878	11124.1
779.212	11240.03
779.547	11209.3
779.881	11274.15
780.215	11194.61
780.55	11277.77
780.884	11237.77
781.218	11243.19
781.552	11248.84
781.886	11254.04
782.22	11137.43
782.554	11226.24
782.888	11164.1
783.222	11122.52
783.556	11134.72
783.889	11066.7
784.223	11029.87
784.557	11101.73
784.89	11114.38
785.224	11089.98
785.557	11029.87
785.891	11090.65
786.224	11027.61
786.558	11111.9
786.891	10963.65
787.224	10987.61
787.557	10892.47
787.891	10932.24
788.224	10984.67
788.557	10923.2
788.89	10941.05
789.223	10940.15
789.556	10893.15
789.888	10808.18
790.221	10828.06
790.554	10788.74
790.887	10771.79
791.219	10760.49
791.552	10734.05
791.884	10745.81
792.217	10694.05
792.549	10667.61
792.882	10689.76
793.214	10506.49
793.546	10668.52
793.879	10531.8
794.211	10507.17
794.543	10572.93
794.875	10507.39
795.207	10544.45
795.539	10438.69
795.871	10475.08
796.203	10400.73
796.535	10456.77
796.867	10357.79
797.198	10374.29
797.53	10372.48
797.862	10323.22
798.193	10398.02
798.525	10231.24
798.856	10272.6
799.188	10181.98
799.519	10130.68
799.85	10048.87
800.182	10122.54
800.513	10118.93
800.844	10013.62
801.175	10097.01
801.506	10099.27
801.837	10030.57
802.168	9970.68
802.499	10032.38
802.83	9953.51
803.161	9904.47
803.491	9921.42
803.822	9967.07
804.153	9896.34
804.483	9783.34
804.814	9770.69
805.145	9781.54
805.475	9765.72
805.805	9703.8
806.136	9739.28
806.466	9717.13
806.796	9729.56
807.126	9641.2
807.457	9583.12
807.787	9691.37
808.117	9534.99
808.447	9585.38
808.777	9549.68
809.107	9521.2
809.436	9489.11
809.766	9456.8
810.096	9520.3
810.426	9362.56
810.755	9442.56
811.085	9441.88
811.414	9419.74
811.744	9354.43
812.073	9288.89
812.403	9286.41
812.732	9286.41
813.061	9257.48
813.39	9205.73
813.719	9214.32
814.049	9289.12
814.378	9185.17
814.707	9153.3
815.036	9159.18
815.365	9110.14
815.693	9037.38
816.022	9030.37
816.351	9038.05
816.68	9008.45
817.008	9032.63
817.337	8993.08
817.665	8962.8
817.994	9000.54
818.322	8949.47
818.651	8895.68
818.979	8881.9
819.307	8980.65
819.636	8922.12
819.964	8886.19
820.292	8921.9
820.62	8883.93
820.948	8858.17
821.276	8863.82
821.604	8847.32
821.932	8889.13
822.259	8958.51
822.587	8855.23
822.915	8850.49
823.243	8852.97
823.57	8820.21
823.898	8887.77
824.225	8843.03
824.553	8754.22
824.88	8799.64
825.207	8825.86
825.535	8824.73
825.862	8819.3
826.189	8750.6
826.516	8851.62
826.843	8865.85
827.17	8898.4
827.497	8884.61
827.824	8895.68
828.151	8827.21
828.478	8877.61
828.805	8881
829.131	8869.02
829.458	8820.66
829.785	8797.61
830.111	8855.46
830.438	8917.83
830.764	8869.47
831.09	8885.29
831.417	8836.25
831.743	8897.72
832.069	8854.78
832.395	8849.36
832.722	8815.91
833.048	8803.03
833.374	8841.45
833.7	8761.9
834.026	8813.65
834.351	8855.23
834.677	8804.16
835.003	8788.79
835.329	8774.56
835.654	8791.73
835.98	8749.25
836.306	8754.67
836.631	8716.93
836.956	8758.29
837.282	8746.76
837.607	8687.55
837.932	8641
838.258	8731.85
838.583	8704.5
838.908	8618.18
839.233	8689.59
839.558	8683.49
839.883	8545.64
840.208	8578.86
840.533	8543.6
840.858	8588.35
841.182	8539.99
841.507	8552.64
841.832	8454.11
842.156	8513.1
842.481	8475.36
842.805	8416.15
843.13	8450.95
843.454	8446.2
843.778	8446.88
844.103	8411.4
844.427	8332.54
844.751	8327.34
845.075	8373.66
845.399	8288.47
845.723	8252.54
846.047	8280.56
846.371	8170.28
846.695	8249.37
847.019	8109.72
847.343	8125.76
847.666	8096.16
847.99	8093.9
848.313	8064.29
848.637	8023.62
848.96	8011.41
849.284	7951.98
849.607	7888.03
849.931	7858.2
850.254	7828.14
850.577	7785.66
850.9	7802.61
851.223	7778.88
851.546	7748.6
851.869	7613.46
852.192	7704.76
852.515	7604.87
852.838	7640.12
853.161	7603.29
853.483	7630.18
853.806	7566.68
854.129	7554.02
854.451	7510.41
854.774	7458.21
855.096	7446.46
855.419	7431.09
855.741	7442.16
856.063	7357.65
856.385	7382.96
856.708	7300.92
857.03	7287.82
857.352	7318.1
857.674	7281.72
857.996	7263.86
858.318	7206.01
858.64	7258.89
858.961	7170.08
859.283	7171.66
859.605	7125.11
859.926	7162.17
860.248	7162.85
860.57	7116.52
860.891	7121.72
861.212	7058.22
861.534	7009.86
861.855	7019.8
862.176	7024.32
862.498	7068.39
862.819	7047.6
863.14	7005.56
863.461	6984.77
863.782	6948.62
864.103	6977.54
864.424	6948.16
864.745	6926.92
865.065	6899.58
865.386	6881.05
865.707	6908.39
866.027	6871.78
866.348	6849.86
866.668	6844.89
866.989	6811.67
867.309	6781.39
867.63	6781.62
867.95	6797.21
868.27	6768.28
868.59	6762.63
868.91	6736.64
869.23	6780.26
869.55	6729.41
869.87	6768.28
870.19	6690.54
870.51	6746.81
870.83	6712.01
871.15	6686.25
871.469	6651
871.789	6685.35
872.109	6638.12
872.428	6632.24
872.748	6619.36
873.067	6624.11
873.386	6646.03
873.706	6672.92
874.025	6582.3
874.344	6606.48
874.663	6575.52
874.982	6598.57
875.301	6567.84
875.62	6581.39
875.939	6505.92
876.258	6570.32
876.577	6520.61
876.896	6568.74
877.214	6461.4
877.533	6501.62
877.852	6448.29
878.17	6481.74
878.489	6445.81
878.807	6447.61
879.125	6434.28
879.444	6412.59
879.762	6444.45
880.08	6462.08
880.398	6426.14
880.716	6402.19
881.034	6387.28
881.352	6365.58
881.67	6346.15
881.988	6346.37
882.306	6312.7
882.624	6333.27
882.941	6282.19
883.259	6318.12
883.577	6277.45
883.894	6286.26
884.212	6204
884.529	6269.54
884.846	6244.91
885.164	6208.98
885.481	6240.39
885.798	6199.26
886.115	6103.67
886.432	6186.6
886.75	6168.3
887.067	6153.16
887.383	6204
887.7	6154.06
888.017	6052.37
888.334	6093.27
888.651	6077
888.967	6068.19
889.284	6018.25
889.6	6021.64
889.917	5964.46
890.233	5981.64
890.55	5958.36
890.866	5989.32
891.182	5951.58
891.498	5882.88
891.815	5923.11
892.131	5896.67
892.447	5852.15
892.763	5893.05
893.079	5811.25
893.395	5812.15
893.71	5811.92
894.026	5811.02
894.342	5792.04
894.657	5710.23
894.973	5740.74
895.289	5721.3
895.604	5685.37
895.92	5677.46
896.235	5644.47
896.55	5648.31
896.865	5606.73
897.181	5638.14
897.496	5634.98
897.811	5558.14
898.126	5581.42
898.441	5540.97
898.756	5514.53
899.071	5558.82
899.386	5545.94
899.7	5449.9
900.015	5450.13
900.33	5371.71
900.644	5392.5
900.959	5349.56
901.273	5369
901.588	5358.83
901.902	5364.03
902.216	5287.64
902.531	5301.88
902.845	5300.07
903.159	5272.5
903.473	5276.57
903.787	5197.25
904.101	5171.26
904.415	5181.88
904.729	5183.24
905.042	5149.79
905.356	5159.51
905.67	5116.8
905.984	5120.19
906.297	5075.45
906.611	5053.75
906.924	5042.23
907.237	5040.42
907.551	5026.63
907.864	4953.19
908.177	4980.53
908.491	4955.9
908.804	4909.12
909.117	4930.82
909.43	4886.98
909.743	4919.29
910.056	4879.52
910.368	4830.93
910.681	4827.09
910.994	4819.63
911.307	4809.46
911.619	4749.58
911.932	4781.44
912.244	4747.54
912.557	4697.15
912.869	4686.53
913.181	4667.32
913.494	4676.13
913.806	4621.45
914.118	4629.13
914.43	4607.21
914.742	4540.32
915.054	4552.3
915.366	4560.88
915.678	4538.74
915.99	4491.96
916.302	4443.82
916.613	4462.81
916.925	4484.95
917.236	4452.64
917.548	4444.95
917.859	4409.47
918.171	4373.32
918.482	4384.62
918.794	4337.16
919.105	4336.03
919.416	4316.6
919.727	4288.12
920.038	4306.88
920.349	4296.48
920.66	4214.45
920.971	4241.34
921.282	4227.78
921.593	4172.64
921.903	4210.84
922.214	4196.15
922.525	4170.38
922.835	4137.84
923.146	4162.48
923.456	4128.13
923.767	4111.63
924.077	4093.55
924.387	4036.15
924.697	4054
925.008	4025.76
925.318	4018.98
925.628	4062.14
925.938	4004.06
926.248	4000.45
926.558	3956.61
926.867	3932.2
927.177	3936.27
927.487	3903.5
927.796	3843.39
928.106	3870.51
928.416	3869.83
928.725	3878.87
929.034	3809.94
929.344	3856.95
929.653	3797.06
929.962	3781.69
930.271	3745.54
930.581	3738.08
930.89	3721.58
931.199	3714.35
931.508	3765.42
931.817	3789.6
932.125	3720
932.434	3666.22
932.743	3673.45
933.051	3680.68
933.36	3622.15
933.669	3585.32
933.977	3577.18
934.286	3560.68
934.594	3574.69
934.902	3563.85
935.21	3524.53
935.519	3516.39
935.827	3513.9
936.135	3506.45
936.443	3486.79
936.751	3479.78
937.059	3435.49
937.367	3447.24
937.674	3455.6
937.982	3408.6
938.29	3410.63
938.597	3406.56
938.905	3398.43
939.213	3346.9
939.52	3356.17
939.827	3374.25
940.135	3342.84
940.442	3322.72
940.749	3301.93
941.056	3320.92
941.363	3238.43
941.67	3231.2
941.977	3225.55
942.284	3207.02
942.591	3199.11
942.898	3239.56
943.205	3160.69
943.511	3183.74
943.818	3168.15
944.125	3133.58
944.431	3145.78
944.738	3100.58
945.044	3092.22
945.35	3124.99
945.657	3089.28
945.963	3045.22
946.269	3066.68
946.575	3060.81
946.881	3075.95
947.187	3017.65
947.493	2989.17
947.799	2965.9
948.105	2986.24
948.41	2971.32
948.716	2998.66
949.022	2942.85
949.327	2979.23
949.633	2911.89
949.938	2953.24
950.244	2920.47
950.549	2872.57
950.854	2883.41
951.16	2894.26
951.465	2847.03
951.77	2826.24
952.075	2817.43
952.38	2835.5
952.685	2847.71
952.99	2788.05
953.294	2799.8
953.599	2750.99
953.904	2751.66
954.209	2752.12
954.513	2772.46
954.818	2730.87
955.122	2687.03
955.426	2721.84
955.731	2727.03
956.035	2696.07
956.339	2675.96
956.643	2658.33
956.948	2647.03
957.252	2657.88
957.556	2637.32
957.86	2626.7
958.163	2607.94
958.467	2629.18
958.771	2616.75
959.075	2556.87
959.378	2532.01
959.682	2531.78
959.985	2553.93
960.289	2554.83
960.592	2532.91
960.896	2513.48
961.199	2495.4
961.502	2517.77
961.805	2493.82
962.108	2494.27
962.411	2466.02
962.714	2456.76
963.017	2459.24
963.32	2444.55
963.623	2451.56
963.926	2409.3
964.228	2447.04
964.531	2406.59
964.833	2369.3
965.136	2363.2
965.438	2390.32
965.741	2365.91
966.043	2352.35
966.345	2337.89
966.648	2298.34
966.95	2316.42
967.252	2334.95
967.554	2320.94
967.856	2316.42
968.158	2241.4
968.46	2278.91
968.761	2262.64
969.063	2249.08
969.365	2233.49
969.666	2226.93
969.968	2222.87
970.269	2203.43
970.571	2199.36
970.872	2176.76
971.174	2195.75
971.475	2166.82
971.776	2168.18
972.077	2125.92
972.378	2156.43
972.679	2148.06
972.98	2151.23
973.281	2139.7
973.582	2127.95
973.883	2116.2
974.183	2126.82
974.484	2097.9
974.785	2111.91
975.085	2052.25
975.386	2046.82
975.686	2068.07
975.986	2076.43
976.287	2046.82
976.587	2038.24
976.887	2009.09
977.187	2017.45
977.487	2023.32
977.787	1987.62
978.087	2013.38
978.387	1994.85
978.687	2004.11
978.987	1987.62
979.286	1975.19
979.586	1969.54
979.885	1922.08
980.185	1926.83
980.484	1917.79
980.784	1943.55
981.083	1928.18
981.382	1910.11
981.682	1906.26
981.981	1881.86
982.28	1899.03
982.579	1865.36
982.878	1877.79
983.177	1875.08
983.475	1878.69
983.774	1842.99
984.073	1841.63
984.372	1857.23
984.67	1835.76
984.969	1805.48
985.267	1816.55
985.566	1825.81
985.864	1798.02
986.162	1772.71
986.461	1789.2
986.759	1762.09
987.057	1771.35
987.355	1765.48
987.653	1743.56
987.951	1751.24
988.249	1764.57
988.547	1704.01
988.844	1718.47
989.142	1726.16
989.44	1729.54
989.737	1716.44
990.035	1716.21
990.332	1710.11
990.63	1668.53
990.927	1680.51
991.224	1644.58
991.521	1659.04
991.819	1654.07
992.116	1646.84
992.413	1658.81
992.71	1643.22
993.006	1624.24
993.303	1626.27
993.6	1593.05
993.897	1606.38
994.193	1619.27
994.49	1557.12
994.787	1573.62
995.083	1594.63
995.379	1562.09
995.676	1574.52
995.972	1542.21
996.268	1535.88
996.565	1523.45
996.861	1544.69
997.157	1528.42
997.453	1522.09
997.749	1510.79
998.044	1496.78
998.34	1506.95
998.636	1503.11
998.932	1489.78
999.227	1513.96
999.523	1474.64
999.818	1467.4
1000.114	1466.5
1000.409	1448.2
1000.704	1464.47
1001	1440.06
1001.295	1388.08
1001.59	1404.81
1001.885	1423.11
1002.18	1388.31
1002.475	1390.57
1002.77	1377.92
1003.065	1414.07
1003.359	1417.46
1003.654	1370.46
1003.949	1348.54
1004.243	1346.73
1004.538	1352.15
1004.832	1322.1
1005.127	1328.65
1005.421	1330.23
1005.715	1306.73
1006.009	1321.87
1006.304	1306.28
1006.598	1324.58
1006.892	1287.75
1007.186	1276.9
1007.48	1258.82
1007.773	1304.25
1008.067	1267.18
1008.361	1229.9
1008.655	1258.37
1008.948	1242.55
1009.242	1254.08
1009.535	1242.33
1009.829	1216.79
1010.122	1218.15
1010.415	1193.97
1010.708	1213.63
1011.001	1224.47
1011.295	1194.64
1011.588	1197.58
1011.881	1198.26
1012.173	1196.68
1012.466	1179.95
1012.759	1179.95
1013.052	1161.2
1013.344	1143.57
1013.637	1142.44
1013.93	1151.26
1014.222	1149
1014.514	1160.29
1014.807	1128.88
1015.099	1128.66
1015.391	1102.89
1015.683	1114.19
1015.976	1101.09
1016.268	1119.39
1016.56	1110.58
1016.851	1088.21
1017.143	1068.77
1017.435	1059.73
1017.727	1061.31
1018.018	1054.08
1018.31	1061.54
1018.602	1077.58
1018.893	1029
1019.185	1048.66
1019.476	1011.15
1019.767	1033.29
1020.058	991.94
1020.35	1025.83
1020.641	988.77
1020.932	1001.65
1021.223	1014.76
1021.514	974.76
1021.804	978.38
1022.095	982.22
1022.386	977.47
1022.677	978.6
1022.967	941.77
1023.258	968.21
1023.548	968.89
1023.839	930.24
1024.129	947.42
1024.419	956.46
1024.709	912.84
1025	925.05
1025.29	920.75
1025.58	913.52
1025.87	897.93
1026.16	909.91
1026.449	888.21
1026.739	909.91
1027.029	903.13
1027.319	899.06
1027.608	881.88
1027.898	868.55
1028.187	866.52
1028.477	892.05
1028.766	875.78
1029.055	871.49
1029.344	833.07
1029.634	832.17
1029.923	841.21
1030.212	851.6
1030.501	849.12
1030.79	827.2
1031.078	812.28
1031.367	816.8
1031.656	817.03
1031.945	826.29
1032.233	811.15
1032.522	798.95
1032.81	772.73
1033.099	798.27
1033.387	810.7
1033.675	785.39
1033.963	769.12
1034.251	774.32
1034.54	769.12
1034.828	762.11
1035.116	776.8
1035.403	784.49
1035.691	759.85
1035.979	761.21
1036.267	761.89
1036.554	723.47
1036.842	744.03
1037.129	725.73
1037.417	749.68
1037.704	747.65
1037.992	730.02
1038.279	732.51
1038.566	705.17
1038.853	705.17
1039.14	705.17
