Data from hue_36_FLMS001491_00096.txt Node
Date: Tue Feb 07 17:30:33 GMT 2017
User: dcchb
Spectrometer: FLMS00149
Trigger mode: 0
Integration Time (sec): 2.000000E-2
Scans to average: 10
Electric dark correction enabled: true
Nonlinearity correction enabled: false
Boxcar width: 0
XAxis mode: Wavelengths
Number of Pixels in Spectrum: 2048
>>>>>Begin Spectral Data<<<<<
341.393	-15.47
341.776	-15.47
342.16	-15.47
342.543	-77.38
342.927	-66.99
343.31	-86.88
343.693	-76.03
344.077	-80.77
344.46	-58.63
344.843	-39.19
345.226	-68.57
345.61	-26.99
345.993	-8.91
346.376	-6.88
346.759	6
347.142	37.87
347.525	49.39
347.908	57.53
348.291	83.97
348.674	102.5
349.057	115.6
349.44	126
349.823	141.14
350.206	180.46
350.588	201.48
350.971	222.04
351.354	233.34
351.737	257.75
352.119	266.33
352.502	270.63
352.884	270.18
353.267	299.55
353.65	292.55
354.032	312.89
354.414	303.4
354.797	328.48
355.179	311.53
355.562	323.51
355.944	323.96
356.326	320.57
356.709	345.43
357.091	329.84
357.473	349.27
357.855	332.32
358.238	338.88
358.62	333.45
359.002	340.46
359.384	352.21
359.766	313.79
360.148	363.28
360.53	326.45
360.912	325.77
361.294	325.32
361.676	320.34
362.057	339.33
362.439	330.29
362.821	324.86
363.203	324.41
363.584	322.38
363.966	323.06
364.348	311.53
364.729	312.89
365.111	305.43
365.493	303.4
365.874	319.89
366.256	306.56
366.637	317.41
367.019	300.23
367.4	304.3
367.781	325.77
368.163	316.73
368.544	302.27
368.925	318.31
369.306	330.29
369.688	305.2
370.069	320.8
370.45	313.34
370.831	306.56
371.212	331.87
371.593	311.98
371.974	305.43
372.355	301.14
372.736	304.07
373.117	325.54
373.498	296.16
373.879	315.6
374.26	303.17
374.641	332.55
375.021	305.66
375.402	324.86
375.783	316.5
376.163	325.32
376.544	315.37
376.925	323.96
377.305	311.31
377.686	328.71
378.066	321.25
378.447	313.57
378.827	324.41
379.208	335.03
379.588	308.14
379.968	327.35
380.349	368.25
380.729	331.42
381.109	328.48
381.489	338.88
381.87	333.68
382.25	327.12
382.63	322.15
383.01	325.32
383.39	331.87
383.77	336.84
384.15	348.82
384.53	342.49
384.91	354.47
385.29	343.39
385.67	341.81
386.049	370.06
386.429	345.43
386.809	356.73
387.189	366.45
387.568	357.41
387.948	354.47
388.328	339.78
388.707	356.05
389.087	348.82
389.466	370.96
389.846	372.55
390.225	356.73
390.605	356.73
390.984	353.11
391.363	367.35
391.743	372.77
392.122	359.67
392.501	388.82
392.881	379.55
393.26	394.24
393.639	369.38
394.018	370.96
394.397	381.36
394.776	384.52
395.155	369.38
395.534	386.11
395.913	378.2
396.292	371.19
396.671	370.29
397.05	363.51
397.429	367.35
397.808	367.12
398.186	380.46
398.565	396.73
398.944	377.29
399.323	358.08
399.701	370.96
400.08	381.36
400.458	392.21
400.837	400.79
401.215	381.59
401.594	386.33
401.972	382.94
402.351	392.89
402.729	410.29
403.107	398.08
403.486	394.47
403.864	404.41
404.242	403.73
404.62	394.24
404.999	420
405.377	412.55
405.755	428.36
406.133	427.23
406.511	414.81
406.889	413.68
407.267	430.62
407.645	431.08
408.023	430.4
408.401	433.56
408.779	435.14
409.156	414.58
409.534	448.7
409.912	437.18
410.29	459.55
410.667	448.02
411.045	446.67
411.422	437.4
411.8	449.61
412.178	420.91
412.555	450.06
412.933	445.54
413.31	460.45
413.687	469.95
414.065	478.53
414.442	459.32
414.819	455.71
415.197	470.4
415.574	483.96
415.951	484.18
416.328	476.95
416.705	463.62
417.082	473.34
417.46	490.96
417.837	484.86
418.214	493.45
418.591	506.55
418.967	508.81
419.344	504.97
419.721	505.88
420.098	508.81
420.475	521.24
420.852	501.81
421.228	519.44
421.605	532.77
421.982	518.98
422.358	526.67
422.735	524.18
423.111	515.59
423.488	542.49
423.864	547.68
424.241	531.19
424.617	540
424.994	540.23
425.37	551.53
425.746	571.86
426.123	548.36
426.499	558.98
426.875	583.39
427.251	572.77
427.627	566.21
428.003	577.97
428.379	571.41
428.756	582.26
429.132	580.45
429.507	609.6
429.883	591.07
430.259	595.82
430.635	583.16
431.011	607.12
431.387	587.91
431.763	620.22
432.138	609.38
432.514	667.45
432.89	638.53
433.265	640.79
433.641	641.92
434.016	664.74
434.392	654.12
434.767	660.22
435.143	652.54
435.518	645.99
435.894	668.58
436.269	668.58
436.644	673.56
437.02	674.23
437.395	714.91
437.77	680.11
438.145	701.35
438.52	700.67
438.895	695.48
439.271	731.18
439.646	719.43
440.021	742.71
440.395	737.28
440.77	723.27
441.145	715.36
441.52	756.04
441.895	730.28
442.27	763.04
442.645	749.71
443.019	763.27
443.394	736.83
443.769	745.42
444.143	729.83
444.518	772.31
444.892	749.94
445.267	768.69
445.641	771.41
446.016	796.26
446.39	801.46
446.764	825.19
447.139	798.3
447.513	780.22
447.887	787.23
448.262	804.4
448.636	811.63
449.01	807.11
449.384	824.74
449.758	831.97
450.132	827.45
450.506	845.53
450.88	845.3
451.254	858.86
451.628	867
452.002	871.29
452.376	869.26
452.75	894.79
453.123	896.83
453.497	892.76
453.871	909.93
454.244	912.87
454.618	920.55
454.992	914
455.365	930.5
455.739	936.6
456.112	937.5
456.486	966.2
456.859	973.89
457.232	999.87
457.606	978.18
457.979	970.95
458.352	1014.34
458.725	1013.89
459.099	1037.16
459.472	1040.78
459.845	1050.27
460.218	1062.47
460.591	1055.47
460.964	1069.25
461.337	1096.37
461.71	1106.99
462.083	1110.38
462.456	1123.94
462.829	1128.46
463.201	1156.25
463.574	1147.67
463.947	1146.99
464.32	1182.92
464.692	1210.04
465.065	1196.25
465.438	1226.76
465.81	1270.83
466.183	1261.79
466.555	1274.67
466.928	1288.68
467.3	1303.82
467.672	1322.35
468.045	1344.05
468.417	1346.08
468.789	1379.75
469.161	1402.58
469.534	1407.1
469.906	1451.84
470.278	1471.73
470.65	1493.42
471.022	1496.36
471.394	1561.89
471.766	1547.88
472.138	1568.9
472.51	1607.32
472.882	1658.39
473.253	1658.84
473.625	1713.98
473.997	1770.25
474.369	1773.64
474.74	1796.24
475.112	1849.34
475.484	1840.53
475.855	1877.37
476.227	1941.09
476.598	2017.02
476.97	2021.32
477.341	2100.64
477.713	2133.4
478.084	2147.64
478.455	2225.15
478.827	2256.34
479.198	2357.81
479.569	2387.18
479.94	2468.54
480.311	2519.16
480.682	2575.65
481.053	2638.93
481.424	2685.71
481.795	2763.44
482.166	2817.45
482.537	2881.41
482.908	2923.44
483.279	3021.06
483.65	3145.36
484.021	3207.05
484.391	3268.74
484.762	3278.01
485.133	3386.93
485.503	3473.48
485.874	3548.73
486.244	3677.54
486.615	3750.76
486.985	3838.67
487.356	3972.9
487.726	4027.82
488.097	4124.54
488.467	4181.71
488.837	4327.7
489.207	4380.12
489.578	4475.26
489.948	4559.33
490.318	4660.34
490.688	4751.64
491.058	4785.54
491.428	4937.62
491.798	5040.45
492.168	5148.69
492.538	5210.84
492.908	5323.15
493.278	5437.27
493.648	5483.82
494.017	5624.39
494.387	5735.57
494.757	5845.17
495.126	5901.67
495.496	6021.44
495.866	6028.44
496.235	6164.26
496.605	6258.04
496.974	6333.29
497.344	6373.97
497.713	6486.96
498.082	6538.03
498.452	6663
498.821	6703
499.19	6835.88
499.559	6950.68
499.928	7011.92
500.298	7044.69
500.667	7119.26
501.036	7175.76
501.405	7277.45
501.774	7293.95
502.143	7388.63
502.512	7522.19
502.88	7650.77
503.249	7557.22
503.618	7708.62
503.987	7780.04
504.356	7866.59
504.724	7900.26
505.093	7985.23
505.462	8048.73
505.83	8136.18
506.199	8172.12
506.567	8278.55
506.936	8279.23
507.304	8439.68
507.672	8504.99
508.041	8523.97
508.409	8644.42
508.777	8642.16
509.145	8698.88
509.514	8793.12
509.882	8786.11
510.25	8874.47
510.618	8992.21
510.986	9020.23
511.354	9102.26
511.722	9127.34
512.09	9202.15
512.458	9261.13
512.826	9337.73
513.193	9429.03
513.561	9386.1
513.929	9518.07
514.297	9581.57
514.664	9687.78
515.032	9669.25
515.4	9863.82
515.767	9833.99
516.135	9921.9
516.502	9889.58
516.869	9970.26
517.237	10036.02
517.604	10048.68
517.972	10124.83
518.339	10236.02
518.706	10187.66
519.073	10284.15
519.44	10330.25
519.808	10460.87
520.175	10503.13
520.542	10626.51
520.909	10678.49
521.276	10648.89
521.643	10784.25
522.009	10814.31
522.376	10917.58
522.743	10904.47
523.11	10994.41
523.477	11057.69
523.843	11164.81
524.21	11237.8
524.577	11360.73
524.943	11419.71
525.31	11464.46
525.676	11526.6
526.043	11593.95
526.409	11648.86
526.776	11763.66
527.142	11833.26
527.508	11869.87
527.874	11904.67
528.241	11988.74
528.607	12069.19
528.973	12198.45
529.339	12209.75
529.705	12334.27
530.071	12441.61
530.437	12423.98
530.803	12509.18
531.169	12533.81
531.535	12603.64
531.901	12636.63
532.267	12661.26
532.632	12767.48
532.998	12755.05
533.364	12876.4
533.73	12891.99
534.095	13071.2
534.461	13075.49
534.826	13197.75
535.192	13209.95
535.557	13292.88
535.923	13309.16
536.288	13405.88
536.653	13398.19
537.019	13393.67
537.384	13506.21
537.749	13548.02
538.114	13588.92
538.479	13642.71
538.845	13740.33
539.21	13770.16
539.575	13684.97
539.94	13840.22
540.305	13855.58
540.67	13862.14
541.034	13896.71
541.399	14036.37
541.764	14016.26
542.129	14155.91
542.494	14263.03
542.858	14298.28
543.223	14335.57
543.587	14378.51
543.952	14359.3
544.316	14475
544.681	14521.33
545.045	14552.96
545.41	14594.09
545.774	14639.97
546.138	14679.97
546.503	14712.96
546.867	14777.82
547.231	14910.47
547.595	14910.7
547.959	14990.92
548.324	14940.3
548.688	15041.54
549.052	15047.87
549.416	15018.49
549.779	15210.12
550.143	15225.26
550.507	15285.37
550.871	15336.67
551.235	15408.31
551.599	15479.72
551.962	15492.6
552.326	15622.99
552.689	15690.56
553.053	15541.64
553.417	15628.87
553.78	15876.09
554.143	15773.27
554.507	15898.47
554.87	15913.38
555.234	16102.3
555.597	15971.01
555.96	16127.39
556.323	16211.68
556.686	16156.31
557.05	16297.55
557.413	16288.51
557.776	16322.86
558.139	16380.49
558.502	16524.66
558.865	16534.83
559.228	16693.93
559.59	16621.16
559.953	16715.17
560.316	16814.15
560.679	16809.85
561.041	16940.92
561.404	17050.98
561.767	17144.31
562.129	17121.71
562.492	17249.17
562.854	17228.37
563.217	17238.09
563.579	17406.45
563.941	17496.84
564.304	17469.5
564.666	17690.06
565.028	17655.48
565.39	17683.73
565.753	17805.53
566.115	17763.5
566.477	17871.97
566.839	17937.73
567.201	18056.83
567.563	18015.7
567.925	18146.99
568.287	18156.94
568.648	18219.99
569.01	18361
569.372	18615.68
569.734	18535.23
570.095	18605.74
570.457	18674.66
570.819	18777.49
571.18	18761.89
571.542	18959.18
571.903	18926.64
572.265	18946.97
572.626	19087.76
572.987	19116.91
573.349	19238.04
573.71	19339.05
574.071	19381.76
574.432	19588.99
574.794	19756.67
575.155	19761.87
575.516	19682.32
575.877	19884.35
576.238	19946.95
576.599	20097.68
576.96	20193.72
577.32	20307.39
577.681	20459.48
578.042	20554.84
578.403	20663.76
578.763	20793.25
579.124	20899.69
579.485	21202.51
579.845	21135.84
580.206	21365.67
580.566	21442.5
580.927	21659.67
581.287	21882.04
581.648	21898.76
582.008	22140.11
582.368	22212.2
582.728	22455.58
583.089	22628.68
583.449	22767.21
583.809	22921.33
584.169	23077.71
584.529	23270.48
584.889	23648.54
585.249	23573.52
585.609	23764.7
585.969	24235.87
586.329	24262.77
586.688	24539.82
587.048	24706.82
587.408	24891.22
587.768	25054.84
588.127	25409.63
588.487	25513.13
588.846	25730.52
589.206	25889.39
589.565	26147.91
589.925	26511.97
590.284	26518.53
590.643	26937.72
591.003	27093.2
591.362	27460.2
591.721	27530.02
592.08	27817.02
592.44	28080.52
592.799	28401.19
593.158	28417.91
593.517	28762.08
593.876	28979.93
594.235	29152.81
594.593	29398.68
594.952	29717.31
595.311	29746.01
595.67	30066.46
596.029	30384.86
596.387	30640.23
596.746	30769.04
597.104	30953.21
597.463	31116.82
597.822	31466.87
598.18	31553.2
598.538	31610.37
598.897	32179.17
599.255	32047.42
599.613	32629.1
599.972	32600.17
600.33	32930.11
600.688	33044.91
601.046	33199.03
601.404	33609.19
601.762	33697.55
602.12	33994.71
602.478	34030.19
602.836	34281.49
603.194	34326.23
603.552	34615.94
603.91	34634.7
604.268	34972.99
604.625	35069.26
604.983	35235.58
605.341	35179.54
605.698	35581.11
606.056	35774.78
606.413	35939.97
606.771	36128.44
607.128	36292.73
607.485	36203.47
607.843	36384.03
608.2	36736.79
608.557	37054.07
608.914	36899.04
609.272	37306.49
609.629	37336.55
609.986	37587.16
610.343	37472.81
610.7	38031.22
611.057	38028.28
611.414	38115.74
611.771	38252.45
612.127	38550.98
612.484	38640.92
612.841	38783.06
613.198	38644.99
613.554	38934.92
613.911	39134.01
614.267	39166.78
614.624	39415.59
614.98	39343.73
615.337	39767.22
615.693	39648.58
616.05	39688.35
616.406	40047.89
616.762	39884.95
617.118	40049.92
617.475	40117.49
617.831	40283.14
618.187	40257.6
618.543	40379.63
618.899	40619.17
619.255	40577.82
619.611	40666.85
619.967	40924.93
620.323	40909.79
620.678	40865.49
621.034	40927.86
621.39	41032.04
621.746	41104.81
622.101	41400.39
622.457	41211.92
622.812	41292.15
623.168	41487.17
623.523	41441.98
623.879	41719.48
624.234	41496.89
624.589	41782.98
624.945	41748.63
625.3	41876.54
625.655	41846.26
626.01	41852.36
626.365	41900.04
626.72	41895.3
627.075	41931.45
627.43	41959.48
627.785	42040.38
628.14	42209.41
628.495	42174.16
628.85	42012.81
629.205	42027.72
629.559	42367.6
629.914	42156.53
630.269	42180.26
630.623	42129.41
630.978	42165.8
631.332	42209.19
631.687	42312.91
632.041	42256.42
632.396	42298.45
632.75	42345.45
633.104	42368.28
633.459	42211.9
633.813	42169.19
634.167	42183.88
634.521	42235.63
634.875	42286.02
635.229	42386.58
635.583	42079.47
635.937	42162.63
636.291	42095.74
636.645	42078.12
636.999	42030.21
637.352	42182.97
637.706	42066.82
638.06	42180.03
638.413	42104.33
638.767	42037.67
639.121	42148.17
639.474	41940.27
639.828	41867.27
640.181	41929.19
640.534	41962.41
640.888	41964.45
641.241	41769.65
641.594	41965.58
641.947	42038.8
642.301	41847.84
642.654	41907.95
643.007	41978.01
643.36	41906.14
643.713	41883.77
644.066	41892.13
644.419	41664.12
644.771	41480.17
645.124	41138.03
645.477	41001.99
645.83	40906.4
646.182	40745.27
646.535	40568.78
646.888	40676.35
647.24	40519.74
647.593	40802.22
647.945	40711.15
648.298	40491.27
648.65	40425.28
649.002	40479.51
649.355	40486.75
649.707	40477.93
650.059	40684.71
650.411	41147.75
650.763	41042.44
651.115	41429.55
651.467	41383.22
651.819	41510.45
652.171	41308.19
652.523	41205.82
652.875	41162.21
653.227	41163.34
653.578	41277.01
653.93	41223.45
654.282	41034.75
654.633	40986.17
654.985	41151.14
655.337	41133.28
655.688	41218.03
656.039	41163.79
656.391	40842.9
656.742	41018.48
657.094	41084.24
657.445	41076.34
657.796	41037.69
658.147	41027.52
658.498	41047.64
658.849	41200.4
659.2	40947.75
659.551	40899.62
659.902	41143.23
660.253	41042.44
660.604	41038.82
660.955	40928.99
661.306	40997.24
661.656	40896
662.007	40914.53
662.358	40869.79
662.708	40871.37
663.059	40865.49
663.409	40742.56
663.76	41097.8
664.11	40932.16
664.461	40994.53
664.811	40989.78
665.161	40928.54
665.511	40770.81
665.862	40783.91
666.212	40918.6
666.562	40999.73
666.912	40712.95
667.262	40911.37
667.612	40839.51
667.962	40800.64
668.312	40724.93
668.662	40943.68
669.011	40831.6
669.361	40685.16
669.711	40671.6
670.06	40668.89
670.41	40522.23
670.76	40564.26
671.109	40758.15
671.459	40602.45
671.808	40635.67
672.157	40763.58
672.507	40441.55
672.856	40352.06
673.205	40609.23
673.554	40643.8
673.904	40604.26
674.253	40693.97
674.602	40513.41
674.951	39978.28
675.3	39771.06
675.649	40376.01
675.998	40371.72
676.346	40373.53
676.695	40600.42
677.044	40199.3
677.393	40375.56
677.741	40282.46
678.09	40169.24
678.438	40095.12
678.787	40235.68
679.135	40230.26
679.484	40007.66
679.832	40131.5
680.181	39860.32
680.529	40093.76
680.877	40013.31
681.225	39819.42
681.573	40005.4
681.922	39739.42
682.27	39684.28
682.618	39742.36
682.966	39610.84
683.314	39736.94
683.661	39485.42
684.009	39528.58
684.357	39453.78
684.705	39380.56
685.053	39329.94
685.4	39183.05
685.748	39235.93
686.095	39186.67
686.443	38974.7
686.79	38950.52
687.138	39086.78
687.485	38986.9
687.832	38881.59
688.18	38960.68
688.527	38741.03
688.874	38713.91
689.221	38557.53
689.568	38662.61
689.915	38496.29
690.262	38508.49
690.609	38392.11
690.956	38244.32
691.303	38114.15
691.65	37980.6
691.997	37930.66
692.344	37825.12
692.69	37800.04
693.037	37786.7
693.383	37384
693.73	37597.33
694.077	37400.27
694.423	37320.5
694.769	37322.99
695.116	37214.52
695.462	37161.86
695.808	37023.79
696.155	37049.55
696.501	36763.91
696.847	36920.29
697.193	36626.73
697.539	36830.57
697.885	36494.31
698.231	36436.91
698.577	36493.86
698.923	36390.81
699.269	36104.71
699.614	36010.93
699.96	36025.17
700.306	36083.47
700.651	35846.19
700.997	35687.32
701.342	35695.23
701.688	35628.57
702.033	35509.93
702.379	35511.51
702.724	35404.39
703.069	35401.23
703.415	35010.28
703.76	35096.61
704.105	35140.67
704.45	34877.85
704.795	34848.7
705.14	34784.07
705.485	34589.27
705.83	34532.55
706.175	34545.66
706.52	34486.45
706.865	34314.71
707.209	34276.51
707.554	34246.91
707.899	34172.34
708.243	34209.17
708.588	34069.51
708.932	33860.03
709.277	33880.59
709.621	33771.67
709.966	33689.86
710.31	33749.3
710.654	33409.19
710.998	33399.02
711.342	33520.6
711.687	33384.79
712.031	33238.12
712.375	33156.54
712.719	33202.42
713.063	33100.5
713.407	33238.35
713.75	32967.17
714.094	32951.35
714.438	32905.02
714.782	32843.78
715.125	32733.73
715.469	32749.55
715.812	32666.84
716.156	32593.39
716.499	32572.38
716.843	32561.53
717.186	32250.13
717.53	32342.55
717.873	32493.96
718.216	32319.73
718.559	32116.12
718.902	32031.83
719.246	32019.17
719.589	31914.32
719.932	31893.75
720.275	31845.84
720.617	31787.54
720.96	31724.94
721.303	31732.4
721.646	31745.73
721.989	31642.91
722.331	31567.21
722.674	31535.8
723.016	31603.36
723.359	31364.5
723.701	31436.36
724.044	31303.71
724.386	31159.53
724.729	31289.02
725.071	31214.9
725.413	31237.05
725.755	31090.84
726.097	30902.82
726.439	30830.28
726.782	30951.18
727.124	31068.91
727.465	30729.49
727.807	30844.74
728.149	30704.63
728.491	30646.33
728.833	30716.16
729.175	30622.37
729.516	30629.15
729.858	30497.63
730.199	30615.59
730.541	30497.63
730.882	30376.96
731.224	30486.56
731.565	30215.83
731.906	30286.56
732.248	30269.61
732.589	30081.82
732.93	30091.31
733.271	29988.72
733.612	30021.71
733.953	30277.3
734.294	29814.03
734.635	29904.65
734.976	29936.52
735.317	29868.04
735.658	29756.18
735.999	29792.34
736.339	29786.24
736.68	29635.05
737.021	29636.86
737.361	29470.76
737.702	29664.88
738.042	29502.63
738.383	29398.22
738.723	29410.2
739.063	29323.42
739.404	29452.46
739.744	29295.18
740.084	29365.46
740.424	29113.94
740.764	29143.99
741.104	29375.17
741.444	29121.85
741.784	28986.71
742.124	29038.46
742.464	28928.18
742.804	28874.17
743.143	28882.76
743.483	28875.75
743.823	28808.86
744.162	28689.54
744.502	28741.97
744.841	28460.85
745.181	28703.1
745.52	28515.54
745.86	28676.66
746.199	28668.53
746.538	28482.77
746.877	28560.73
747.216	28520.28
747.556	28396.22
747.895	28454.97
748.234	28358.48
748.573	28179.5
748.911	28277.58
749.25	28231.7
749.589	28120.07
749.928	28042.1
750.267	28108.77
750.605	27952.61
750.944	27852.5
751.283	27848.21
751.621	27925.04
751.96	27741.32
752.298	27682.11
752.636	27788.32
752.975	27595.33
753.313	27529.12
753.651	27582.9
753.989	27441.89
754.327	27409.8
754.666	27349.01
755.004	27337.94
755.342	27405.96
755.679	27205.74
756.017	27063.6
756.355	27223.14
756.693	27001.23
757.031	27111.96
757.368	26916.93
757.706	26874.9
758.044	26762.14
758.381	26832.64
758.719	26712.87
759.056	26705.87
759.394	26543.16
759.731	26344.97
760.068	26297.51
760.405	26317.18
760.743	26155.15
761.08	26176.39
761.417	26123.06
761.754	26062.27
762.091	26023.17
762.428	25973.68
762.765	25753.8
763.102	25976.85
763.438	25642.84
763.775	25632.22
764.112	25506.12
764.449	25693.91
764.785	25443.75
765.122	25229.07
765.458	25260.48
765.795	25194.72
766.131	25078.11
766.467	25057.77
766.804	25020.71
767.14	24799.93
767.476	24726.93
767.812	24629.99
768.148	24761.96
768.485	24490.78
768.821	24429.54
769.157	24410.56
769.492	24302.76
769.828	24222.54
770.164	24086.95
770.5	24040.85
770.836	24152.26
771.171	23833.17
771.507	23786.85
771.842	23675.44
772.178	23596.34
772.513	23571.94
772.849	23541.2
773.184	23432.28
773.519	23366.74
773.855	23300.08
774.19	23233.41
774.525	23112.06
774.86	23132.17
775.195	23074.55
775.53	22919.75
775.865	22790.26
776.2	22709.81
776.535	22645.18
776.87	22589.36
777.205	22439.76
777.539	22296.49
777.874	22370.39
778.209	22195.48
778.543	22176.04
778.878	22070.51
779.212	22025.31
779.547	21849.04
779.881	21970.4
780.215	21797.97
780.55	21731.53
780.884	21633.46
781.218	21538.77
781.552	21552.55
781.886	21432.11
782.22	21304.65
782.554	21275.27
782.888	21004.55
783.222	20909.63
783.556	20933.81
783.889	20802.97
784.223	20651.11
784.557	20690.43
784.89	20654.73
785.224	20533.6
785.557	20470.32
785.891	20463.54
786.224	20413.83
786.558	20374.96
786.891	20075.76
787.224	20119.15
787.557	20045.7
787.891	20057
788.224	19985.36
788.557	19962.77
788.89	19839.15
789.223	19838.48
789.556	19644.36
789.888	19616.56
790.221	19547.18
790.554	19410.69
790.887	19404.59
791.219	19365.04
791.552	19188.32
791.884	19206.18
792.217	19134.54
792.549	19050.93
792.882	18964.15
793.214	18917.6
793.546	19013.86
793.879	18849.8
794.211	18630.15
794.543	18724.61
794.875	18606.42
795.207	18605.06
795.539	18488.23
795.871	18543.14
796.203	18339.08
796.535	18255.92
796.867	18272.42
797.198	18337.95
797.53	18222.7
797.862	17976.15
798.193	18110.84
798.525	17996.49
798.856	18034.91
799.188	17748.36
799.519	17745.2
799.85	17620.91
800.182	17729.6
800.513	17659.78
800.844	17466.79
801.175	17561.7
801.506	17596.05
801.837	17440.57
802.168	17443.51
802.499	17361.7
802.83	17256.17
803.161	17321.25
803.491	17257.75
803.822	17171.65
804.153	17029.28
804.483	16929.17
804.814	16913.35
805.145	16944.09
805.475	16914.71
805.805	16823.87
806.136	16822.28
806.466	16839.46
806.796	16799.23
807.126	16654.6
807.457	16476.76
807.787	16630.65
808.117	16555.17
808.447	16352.01
808.777	16433.59
809.107	16431.79
809.436	16235.41
809.766	16359.7
810.096	16269.53
810.426	16151.34
810.755	16182.75
811.085	16117.22
811.414	16019.59
811.744	15951.35
812.073	15908.64
812.403	15869.77
812.732	15866.38
813.061	15884.91
813.39	15704.35
813.719	15700.73
814.049	15741.86
814.378	15708.19
814.707	15596.33
815.036	15626.38
815.365	15501.19
815.693	15488.53
816.022	15377.8
816.351	15379.16
816.68	15259.39
817.008	15386.16
817.337	15161.76
817.665	15165.38
817.994	15184.59
818.322	15178.49
818.651	15103.23
818.979	15055.55
819.307	15056.23
819.636	15020.07
819.964	14904.59
820.292	14992.95
820.62	14903.69
820.948	14895.33
821.276	14920.64
821.604	14936.01
821.932	14959.73
822.259	14940.07
822.587	14884.26
822.915	14846.06
823.243	14838.16
823.57	14878.38
823.898	14840.87
824.225	14774.65
824.553	14812.39
824.88	14824.6
825.207	14847.19
825.535	14679.97
825.862	14866.4
826.189	14748.89
826.516	14895.78
826.843	14876.57
827.17	14784.37
827.497	14815.1
827.824	14846.97
828.151	14797.25
828.478	14797.48
828.805	14943.24
829.131	14834.77
829.458	14754.09
829.785	14702.34
830.111	14883.13
830.438	14828.89
830.764	14788.44
831.09	14874.99
831.417	14730.36
831.743	14745.05
832.069	14822.34
832.395	14661.21
832.722	14689.46
833.048	14592.51
833.374	14726.29
833.7	14597.48
834.026	14673.41
834.351	14718.16
834.677	14578.95
835.003	14663.92
835.329	14739.85
835.654	14549.8
835.98	14467.54
836.306	14518.16
836.631	14468
836.956	14505.96
837.282	14532.17
837.607	14464.61
837.932	14422.12
838.258	14351.39
838.583	14378.05
838.908	14288.56
839.233	14352.97
839.558	14284.95
839.883	14254.22
840.208	14182.13
840.533	14120.89
840.858	14167.21
841.182	14172.41
841.507	14166.53
841.832	14126.76
842.156	14080.21
842.481	14045.41
842.805	13943.04
843.13	14046.99
843.454	13933.09
843.778	13863.27
844.103	13864.62
844.427	13823.94
844.751	13857.16
845.075	13841.8
845.399	13803.15
845.723	13754.12
846.047	13725.64
846.371	13554.8
846.695	13589.37
847.019	13543.27
847.343	13497.17
847.666	13359.32
847.99	13294.92
848.313	13314.81
848.637	13221.93
848.96	13186.45
849.284	13132.89
849.607	12966.11
849.931	13106
850.254	12908.94
850.577	12875.04
850.9	12741.26
851.223	12802.73
851.546	12739.91
851.869	12566.35
852.192	12708.72
852.515	12584.2
852.838	12533.58
853.161	12520.02
853.483	12414.94
853.806	12380.59
854.129	12423.53
854.451	12327.71
854.774	12272.8
855.096	12225.57
855.419	12184.89
855.741	12088.4
856.063	12072.58
856.385	12066.02
856.708	12077.1
857.03	11953.71
857.352	12027.61
857.674	12000.94
857.996	11875.97
858.318	11782.42
858.64	11877.33
858.961	11807.27
859.283	11730.44
859.605	11576.55
859.926	11671.01
860.248	11655.19
860.57	11643.89
860.891	11607.28
861.212	11567.51
861.534	11492.71
861.855	11519.15
862.176	11507.17
862.498	11496.77
862.819	11456.55
863.14	11457.68
863.461	11456.55
863.782	11385.59
864.103	11393.73
864.424	11336.33
864.745	11332.48
865.065	11264.92
865.386	11192.38
865.707	11261.53
866.027	11250.45
866.348	11275.31
866.668	11200.96
866.989	11217.69
867.309	11131.36
867.63	11114.86
867.95	11050.68
868.27	11112.15
868.59	11103.34
868.91	11061.98
869.23	11055.43
869.55	10996
869.87	11050.01
870.19	11043.23
870.51	10985.6
870.83	10933.17
871.15	10923
871.469	10879.39
871.789	10931.59
872.109	10929.11
872.428	10945.15
872.748	10887.52
873.067	10887.98
873.386	10816.34
873.706	10766.85
874.025	10721.43
874.344	10681.65
874.663	10725.04
874.982	10648.21
875.301	10732.73
875.62	10647.76
875.939	10610.92
876.258	10581.77
876.577	10649.56
876.896	10639.17
877.214	10574.31
877.533	10600.98
877.852	10580.87
878.17	10586.06
878.489	10562.11
878.807	10515.33
879.125	10452.51
879.444	10467.87
879.762	10357.59
880.08	10526.86
880.398	10414.77
880.716	10422.45
881.034	10366.18
881.352	10307.2
881.67	10362.57
881.988	10316.24
882.306	10295.9
882.624	10200.99
882.941	10270.82
883.259	10179.29
883.577	10160.76
883.894	10156.47
884.212	10103.59
884.529	10129.35
884.846	10082.57
885.164	10060.43
885.481	10075.34
885.798	10078.51
886.115	9953.54
886.432	10010.94
886.75	9905.4
887.067	9950.37
887.383	9930.49
887.7	9882.13
888.017	9878.06
888.334	9927.55
888.651	9801.68
888.967	9803.49
889.284	9771.62
889.6	9760.1
889.917	9694.56
890.233	9680.78
890.55	9618.41
890.866	9659.08
891.182	9541.8
891.498	9583.38
891.815	9577.05
892.131	9474.45
892.447	9512.42
892.763	9464.29
893.079	9443.72
893.395	9368.69
893.71	9409.15
894.026	9377.96
894.342	9312.88
894.657	9206.44
894.973	9316.94
895.289	9248.47
895.604	9180.45
895.92	9119.89
896.235	9102.71
896.55	9078.31
896.865	8995.6
897.181	9053.45
897.496	8968.7
897.811	8923.06
898.126	8894.13
898.441	8882.83
898.756	8848.93
899.071	8867.69
899.386	8888.48
899.7	8795.6
900.015	8794.92
900.33	8672.44
900.644	8723.97
900.959	8665.44
901.273	8642.84
901.588	8565.55
901.902	8576.17
902.216	8536.17
902.531	8517.64
902.845	8528.26
903.159	8415.5
903.473	8418.89
903.787	8391.77
904.101	8368.27
904.415	8330.53
904.729	8277.65
905.042	8304.32
905.356	8262.51
905.67	8274.26
905.984	8242.4
906.297	8220.25
906.611	8135.51
906.924	8149.07
907.237	8082.17
907.551	8048.96
907.864	8032.68
908.177	7987.94
908.491	7969.86
908.804	7948.17
909.117	7895.96
909.43	7786.59
909.743	7768.96
910.056	7794.27
910.368	7771.45
910.681	7726.03
910.994	7737.1
911.307	7634.05
911.619	7611.45
911.932	7556.31
912.244	7596.54
912.557	7567.16
912.869	7445.36
913.181	7470.44
913.494	7434.96
913.806	7412.14
914.118	7371.91
914.43	7278.35
914.742	7363.78
915.054	7300.95
915.366	7293.49
915.678	7247.39
915.99	7192.93
916.302	7093.5
916.613	7126.04
916.925	7095.99
917.236	7070
917.548	7087.4
917.859	6978.7
918.171	6982.99
918.482	6966.5
918.794	6921.53
919.105	6913.39
919.416	6852.38
919.727	6830.46
920.038	6817.57
920.349	6772.15
920.66	6736.45
920.971	6699.61
921.282	6773.06
921.593	6640.86
921.903	6568.99
922.214	6613.51
922.525	6612.16
922.835	6548.2
923.146	6529.45
923.456	6467.08
923.767	6481.54
924.077	6487.19
924.387	6452.16
924.697	6414.65
925.008	6369.45
925.318	6317.93
925.628	6333.75
925.938	6253.97
926.248	6254.2
926.558	6265.5
926.867	6212.85
927.177	6131.27
927.487	6157.71
927.796	6118.38
928.106	6079.97
928.416	6080.19
928.725	6097.59
929.034	5998.16
929.344	6015.56
929.653	5990.48
929.962	5936.69
930.271	5879.29
930.581	5887.66
930.89	5889.01
931.199	5848.56
931.508	5831.39
931.817	5856.47
932.125	5787.09
932.434	5764.04
932.743	5738.96
933.051	5666.87
933.36	5678.17
933.669	5661.45
933.977	5616.7
934.286	5652.63
934.594	5582.81
934.902	5520.21
935.21	5500.77
935.519	5491.06
935.827	5486.99
936.135	5394.34
936.443	5423.71
936.751	5418.29
937.059	5371.96
937.367	5370.16
937.674	5366.99
937.982	5312.53
938.29	5272.98
938.597	5262.36
938.905	5262.36
939.213	5227.56
939.52	5193.66
939.827	5205.41
940.135	5204.06
940.442	5106.21
940.749	5139.88
941.056	5082.71
941.363	5055.36
941.67	5080.9
941.977	5024.63
942.284	4995.25
942.591	4978.3
942.898	4967.91
943.205	4933.78
943.511	4927
943.818	4900.11
944.125	4881.58
944.431	4839.55
944.738	4882.03
945.044	4855.14
945.35	4817.4
945.657	4777.85
945.963	4766.78
946.269	4748.02
946.575	4734.01
946.881	4702.38
947.187	4687.69
947.493	4602.94
947.799	4661.02
948.105	4610.85
948.41	4571.53
948.716	4582.83
949.022	4480.46
949.327	4515.71
949.633	4502.38
949.938	4505.77
950.244	4487.92
950.549	4419.45
950.854	4487.01
951.16	4385.77
951.465	4448.82
951.77	4352.78
952.075	4343.97
952.38	4370.86
952.685	4347.81
952.99	4276.4
953.294	4301.03
953.599	4252.9
953.904	4237.98
954.209	4213.35
954.513	4251.99
954.818	4165.89
955.122	4152.11
955.426	4166.8
955.731	4109.17
956.035	4153.01
956.339	4094.48
956.643	4107.14
956.948	4021.49
957.252	4048.61
957.556	4073.47
957.86	4003.19
958.163	3960.25
958.467	3948.05
958.771	3942.85
959.075	3936.52
959.378	3945.33
959.682	3938.78
959.985	3924.77
960.289	3857.2
960.592	3822.85
960.896	3880.25
961.199	3787.15
961.502	3831.66
961.805	3792.8
962.108	3740.82
962.411	3753.02
962.714	3695.4
963.017	3692.23
963.32	3762.06
963.623	3661.05
963.926	3699.24
964.228	3687.04
964.531	3629.64
964.833	3637.77
965.136	3589.86
965.438	3624.21
965.741	3554.16
966.043	3566.59
966.345	3534.95
966.648	3570.2
966.95	3529.53
967.252	3480.04
967.554	3527.49
967.856	3496.08
968.158	3409.53
968.46	3481.84
968.761	3475.52
969.063	3417.89
969.365	3395.52
969.666	3400.94
969.968	3342.41
970.269	3359.59
970.571	3353.94
970.872	3328.4
971.174	3364.78
971.475	3281.85
971.776	3318.01
972.077	3294.96
972.378	3254.73
972.679	3272.58
972.98	3231.45
973.281	3215.64
973.582	3201.85
973.883	3128.86
974.183	3199.82
974.484	3178.8
974.785	3113.72
975.085	3160.27
975.386	3082.76
975.686	3073.27
975.986	3081.18
976.287	3095.19
976.587	3060.84
976.887	3071.46
977.187	3017
977.487	3054.06
977.787	2983.33
978.087	3014.06
978.387	2950.56
978.687	2990.1
978.987	2946.04
979.286	2909.2
979.586	2907.85
979.885	2938.58
980.185	2903.33
980.484	2877.79
980.784	2839.37
981.083	2867.4
981.382	2843.67
981.682	2818.36
981.981	2858.58
982.28	2812.93
982.579	2761.18
982.878	2772.71
983.177	2774.97
983.475	2756.89
983.774	2762.09
984.073	2715.99
984.372	2705.59
984.67	2715.31
984.969	2721.41
985.267	2688.87
985.566	2679.15
985.864	2651.13
986.162	2638.7
986.461	2636.22
986.759	2608.87
987.057	2633.05
987.355	2588.76
987.653	2600.51
987.951	2597.8
988.249	2545.82
988.547	2563
988.844	2537.91
989.142	2544.47
989.44	2513.51
989.737	2536.56
990.035	2492.49
990.332	2487.52
990.63	2466.28
990.927	2483.45
991.224	2471.7
991.521	2481.42
991.819	2448.42
992.116	2406.39
992.413	2404.81
992.71	2421.31
993.006	2384.7
993.303	2382.66
993.6	2376.79
993.897	2385.6
994.193	2333.85
994.49	2308.32
994.787	2324.13
995.083	2332.27
995.379	2307.19
995.676	2318.26
995.972	2298.6
996.268	2292.95
996.565	2242.78
996.861	2249.33
997.157	2252.5
997.453	2231.48
997.749	2203.46
998.044	2219.5
998.34	2180.18
998.636	2180.18
998.932	2176.12
999.227	2148.32
999.523	2155.55
999.818	2155.55
1000.114	2116.91
1000.409	2121.65
1000.704	2109.9
1001	2097.47
1001.295	2092.28
1001.59	2054.54
1001.885	2070.81
1002.18	2045.72
1002.475	2025.16
1002.77	2008.89
1003.065	2004.14
1003.359	2035.33
1003.654	1982.22
1003.949	1982.9
1004.243	1955.1
1004.538	1957.59
1004.832	1960.53
1005.127	1922.11
1005.421	1934.54
1005.715	1942
1006.009	1910.81
1006.304	1899.06
1006.598	1906.74
1006.892	1862.68
1007.186	1874.88
1007.48	1869
1007.773	1851.38
1008.067	1829.46
1008.361	1836.46
1008.655	1821.55
1008.948	1813.41
1009.242	1764.6
1009.535	1758.27
1009.829	1773.41
1010.122	1770.93
1010.415	1740.19
1010.708	1712.85
1011.001	1718.27
1011.295	1715.56
1011.588	1719.86
1011.881	1699.52
1012.173	1673.3
1012.466	1681.89
1012.759	1666.3
1013.052	1659.29
1013.344	1651.84
1013.637	1646.86
1013.93	1657.26
1014.222	1605.96
1014.514	1617.94
1014.807	1566.19
1015.099	1578.39
1015.391	1582.23
1015.683	1585.17
1015.976	1563.93
1016.268	1550.14
1016.56	1544.95
1016.851	1554.89
1017.143	1536.36
1017.435	1515.79
1017.727	1515.34
1018.018	1501.78
1018.31	1494.1
1018.602	1502.23
1018.893	1503.82
1019.185	1456.13
1019.476	1442.8
1019.767	1452.07
1020.058	1429.69
1020.35	1447.55
1020.641	1430.37
1020.932	1400.32
1021.223	1434.44
1021.514	1393.54
1021.804	1396.7
1022.095	1379.07
1022.386	1361
1022.677	1362.8
1022.967	1360.54
1023.258	1370.49
1023.548	1321.9
1023.839	1334.1
1024.129	1341.33
1024.419	1325.52
1024.709	1289.13
1025	1289.13
1025.29	1270.38
1025.58	1276.93
1025.87	1278.51
1026.16	1258.17
1026.449	1255.46
1026.739	1241.9
1027.029	1261.56
1027.319	1244.84
1027.608	1221.34
1027.898	1219.3
1028.187	1205.07
1028.477	1193.09
1028.766	1197.38
1029.055	1186.08
1029.344	1169.36
1029.634	1182.47
1029.923	1151.06
1030.212	1141.57
1030.501	1145.63
1030.79	1145.86
1031.078	1101.79
1031.367	1094.56
1031.656	1108.8
1031.945	1122.81
1032.233	1105.86
1032.522	1105.18
1032.81	1077.39
1033.099	1073.09
1033.387	1093.21
1033.675	1054.79
1033.963	1061.57
1034.251	1046.65
1034.54	1047.33
1034.828	1047.56
1035.116	1018.63
1035.403	1037.39
1035.691	1015.92
1035.979	1020.67
1036.267	1002.36
1036.554	988.8
1036.842	980.21
1037.129	996.94
1037.417	967.33
1037.704	995.81
1037.992	977.73
1038.279	965.75
1038.566	965.98
1038.853	965.98
1039.14	965.98
